Potential - Start -0.2 V, Upper Vertex 1.5 V, Lower Vertex -0.2 V, Stop -0.19 V; Scan - # end cross 5, Rate 0.1 Vps, Step 0.01 V 
Scan	Index	Time (s)	Potential applied (V)	WE(1).Potential (V)	WE(1).Current (A)	WE(1).Power (W)	WE(1).Resistance (Ω)	WE(1).Charge (C)
1	1	67.7315918289942	-0.189971923828125	-0.189788818359375	-1.4007568359375E-07	2.65847983627054E-08	1354902	0
1	2	67.8322998287399	-0.179901123046875	-0.17974853515625	-1.10473632812499E-07	1.98574721110845E-08	1627071.875	-1.26161596725183E-08
1	3	67.9330078284856	-0.169830322265625	-0.169677734375	-8.81958007812503E-08	1.49648631264654E-08	1923875.5	-2.26199610153799E-08
1	4	68.0337158282314	-0.159759521484375	-0.159698486328125	-6.92749023437495E-08	1.10630971050796E-08	2305286.25	-3.05492413588127E-08
1	5	68.1344238279771	-0.149688720703125	-0.149627685546875	-5.27954101562506E-08	7.89965426406525E-09	2834104.25	-3.66959689301893E-08
1	6	68.2351318277229	-0.139617919921875	-0.139495849609375	-3.814697265625E-08	5.32134425412778E-09	3656800	-4.12752818590434E-08
1	7	68.3358398274686	-0.129547119140625	-0.129425048828125	-2.41088867187503E-08	3.12029380111767E-09	5368354.5	-4.44101111440887E-08
1	8	68.4365478272143	-0.119476318359375	-0.11944580078125	-1.03759765625003E-08	1.23936683138481E-09	11511765	-4.61465639034486E-08
1	9	68.5372558269601	-0.109405517578125	-0.109283447265625	2.74658203125028E-09	-3.0015595564592E-10	-39788888	-4.6530733044392E-08
1	10	68.6379638267058	-0.099334716796875	-0.099273681640625	1.70898437499997E-08	-1.69657154991398E-09	-5808929	-4.5531891146311E-08
1	11	68.7386718264515	-0.089263916015625	-0.089111328125	3.08227539062497E-08	-2.74665645783045E-09	-2891089	-4.31193001304564E-08
1	12	68.8393798261973	-0.079193115234375	-0.07916259765625	4.76074218749997E-08	-3.76872710816656E-09	-1662820.5	-3.91700254454008E-08
1	13	68.940087825943	-0.069122314453125	-0.069122314453125	6.68334960937503E-08	-4.61968596709994E-09	-1034246.625	-3.34074670149676E-08
1	14	69.0407958256887	-0.059051513671875	-0.05902099609375	9.03320312499997E-08	-5.33148636350234E-09	-653378.375	-2.54935557109093E-08
1	15	69.1415038254345	-0.048980712890625	-0.0488372802734375	1.19934082031251E-07	-5.85725468127407E-09	-407201.03125	-1.49058152487669E-08
1	16	69.2422118251802	-0.038909912109375	-0.0387725830078125	1.605224609375E-07	-6.22387030801974E-09	-241539.921875	-7.83706932683259E-10
1	17	69.342919824926	-0.028839111328125	-0.028680419921875	2.1484375E-07	-6.16180884094319E-09	-133494.3125	1.81174826252573E-08
1	18	69.4436278246717	-0.018768310546875	-0.0186248779296875	2.886962890625E-07	-5.37693267688155E-09	-64513.74609375	4.34727382980782E-08
1	19	69.5443358244174	-0.008697509765625	-0.0085784912109375	3.8787841796875E-07	-3.32741145747661E-09	-22116.4453125	7.75409816355932E-08
1	20	69.6450438241632	0.001373291015625	0.00147399902343751	5.1910400390625E-07	7.65158769677754E-10	2839.50610351563	1.23211165714565E-07
1	21	69.7457518239089	0.011444091796875	0.011505126953125	6.884765625E-07	7.92100962598852E-09	16710.994140625	1.84017679316639E-07
1	22	69.8464598236546	0.021514892578125	0.02156982421875	8.9447021484375E-07	1.92935640797032E-08	24114.63671875	2.63725382865232E-07
1	23	69.9471678234004	0.031585693359375	0.0316680908203125	1.13067626953125E-06	3.5806355214163E-08	28008.09765625	3.65699605708869E-07
1	24	70.0478758231461	0.041656494140625	0.0417236328125	1.38153076171875E-06	5.76424810105891E-08	30201.015625	4.92199262680515E-07
1	25	70.1485838228919	0.051727294921875	0.0517578125	1.6241455078125E-06	8.40622220721343E-08	31867.71875	6.43547082290752E-07
1	26	70.2492918226376	0.061798095703125	0.061859130859375	1.834716796875E-06	1.13493982212276E-07	33715.90234375	8.17714635559241E-07
1	27	70.3499998223833	0.071868896484375	0.0718994140625	1.9921875E-06	1.43237116390083E-07	36090.6875	1.01041462130524E-06
1	28	70.4507078221291	0.081939697265625	0.08197021484375	2.08709716796875E-06	1.71079790334261E-07	39274.75	1.21582286283228E-06
1	29	70.5514158218748	0.092010498046875	0.092071533203125	2.11944580078125E-06	1.95140614778211E-07	43441.32421875	1.42763917665434E-06
1	30	70.6521238216205	0.102081298828125	0.10211181640625	2.1038818359375E-06	2.14831189282449E-07	48534.95703125	1.64030052474118E-06
1	31	70.7528318213663	0.112152099609375	0.1121826171875	2.05413818359375E-06	2.30438587323079E-07	54612.98828125	1.84967348104692E-06
1	32	70.853539821112	0.122222900390625	0.122222900390625	1.986083984375E-06	2.42744960132768E-07	61539.640625	2.05311494028138E-06
1	33	70.9542478208577	0.132293701171875	0.132354736328125	1.90948486328125E-06	2.52729364547122E-07	69314.3671875	2.24927225644933E-06
1	34	71.0549558206035	0.142364501953125	0.14239501953125	1.8316650390625E-06	2.60819973618709E-07	77740.75	2.43765407503815E-06
1	35	71.1556638203492	0.152435302734375	0.152496337890625	1.7578125E-06	2.68059977770463E-07	86753.4765625	2.61839863924251E-06
1	36	71.256371820095	0.162506103515625	0.162506103515625	1.68975830078125E-06	2.74596033023045E-07	96171.2109375	2.7919977583224E-06
1	37	71.3570798198407	0.172576904296875	0.172607421875	1.62750244140625E-06	2.80919010720027E-07	106056.625	2.95903510050266E-06
1	38	71.4577878195864	0.182647705078125	0.182647705078125	1.57196044921875E-06	2.87114971797564E-07	116191.03125	3.12014071823796E-06
1	39	71.5584958193322	0.192718505859375	0.19268798828125	1.522216796875E-06	2.93312893973052E-07	126583.8046875	3.27594489135663E-06
1	40	71.6592038190779	0.202789306640625	0.20281982421875	1.478271484375E-06	2.99822744409539E-07	137200.671875	3.4270315154572E-06
1	41	71.7599118188236	0.212860107421875	0.212921142578125	1.439208984375E-06	3.06438010966303E-07	147943.171875	3.5739383292821E-06
1	42	71.8606198185694	0.222930908203125	0.222991943359375	1.40350341796875E-06	3.12969945071018E-07	158882.375	3.71708028978901E-06
1	43	71.9613278183151	0.233001708984375	0.2330322265625	1.37176513671875E-06	3.19665474535213E-07	169877.65625	3.85682596970582E-06
1	44	72.0620358180608	0.243072509765625	0.24310302734375	1.34368896484375E-06	3.2665485605321E-07	180922.09375	3.99356031266507E-06
1	45	72.1627438178066	0.253143310546875	0.253143310546875	1.31805419921875E-06	3.33656601014809E-07	192058.359375	4.12758936363389E-06
1	46	72.2634518175523	0.263214111328125	0.263153076171875	1.29486083984375E-06	3.40746595384189E-07	203228.859375	4.25916050517117E-06
1	47	72.3641598172981	0.273284912109375	0.2733154296875	1.27349853515625E-06	3.48066777178246E-07	214617.796875	4.38848746853182E-06
1	48	72.4648678170438	0.283355712890625	0.283294677734375	1.25396728515625E-06	3.55242264049593E-07	225918.71875	4.51575533588766E-06
1	49	72.5655758167895	0.293426513671875	0.29339599609375	1.23626708984375E-06	3.62715809387737E-07	237324.125	4.64114873466315E-06
1	50	72.6662838165353	0.303497314453125	0.303466796875	1.22039794921875E-06	3.70350250022966E-07	248662.15625	4.76485183753539E-06
1	51	72.766991816281	0.313568115234375	0.313568115234375	1.2054443359375E-06	3.77988897071191E-07	260126.59375	4.8870024329517E-06
1	52	72.8676998160267	0.323638916015625	0.323638916015625	1.19110107421875E-06	3.85486657705769E-07	271714.0625	5.00767828270909E-06
1	53	72.9684078157725	0.333709716796875	0.333770751953125	1.17889404296875E-06	3.93480320326489E-07	283121.9375	5.12701672050753E-06
1	54	73.0691158155182	0.343780517578125	0.34381103515625	1.1669921875E-06	4.01224809820633E-07	294612.96875	5.24514143762644E-06
1	55	73.169823815264	0.353851318359375	0.353790283203125	1.156005859375E-06	4.08983623856329E-07	306045.40625	5.36211382495821E-06
1	56	73.2705318150097	0.363922119140625	0.363922119140625	1.14593505859375E-06	4.17031088773001E-07	317576.5625	5.47802574146772E-06
1	57	73.3712398147554	0.373992919921875	0.37396240234375	1.13616943359375E-06	4.24884660787939E-07	329143.15625	5.59293903279467E-06
1	58	73.4719478145012	0.384063720703125	0.38409423828125	1.1279296875E-06	4.33231264196365E-07	340530.3125	5.70694510315661E-06
1	59	73.5726558142469	0.394134521484375	0.394134521484375	1.12030029296875E-06	4.41548991148011E-07	351811.53125	5.82015263717039E-06
1	60	73.6733638139926	0.404205322265625	0.404144287109375	1.1126708984375E-06	4.49679561143057E-07	363220	5.93259164816118E-06
1	61	73.7740718137384	0.414276123046875	0.41424560546875	1.10595703125E-06	4.58137833447836E-07	374558.5	6.04430852035875E-06
1	62	73.8747798134841	0.424346923828125	0.42431640625	1.0992431640625E-06	4.66426911316375E-07	386007.78125	6.15534918324556E-06
1	63	73.9754878132298	0.434417724609375	0.434417724609375	1.09375E-06	4.7514438961116E-07	397181.90625	6.26577502771397E-06
1	64	74.0761958129756	0.444488525390625	0.44451904296875	1.08795166015625E-06	4.83615224311507E-07	408583.4375	6.37563243799377E-06
1	65	74.1769038127213	0.454559326171875	0.45452880859375	1.08306884765625E-06	4.92285948894278E-07	419667.53125	6.48495188215747E-06
1	66	74.2776118124671	0.464630126953125	0.46453857421875	1.0784912109375E-06	5.01000783970085E-07	430730.0625	6.5937952058448E-06
1	67	74.3783198122128	0.474700927734375	0.474639892578125	1.07391357421875E-06	5.0972221288248E-07	441972.1875	6.70217741571832E-06
1	68	74.4790278119585	0.484771728515625	0.48468017578125	1.07025146484375E-06	5.18729621035163E-07	452865.71875	6.81014489600784E-06
1	69	74.5797358117043	0.494842529296875	0.494842529296875	1.06689453125E-06	5.27944735040364E-07	463815.8125	6.91775858285837E-06
1	70	74.68044381145	0.504913330078125	0.5048828125	1.0638427734375E-06	5.37115909082786E-07	474584.0625	7.02504985383712E-06
1	71	74.7811518111957	0.514984130859375	0.514984130859375	1.0614013671875E-06	5.46604837836639E-07	485192.65625	7.13206418367918E-06
1	72	74.8818598109415	0.525054931640625	0.5250244140625	1.0595703125E-06	5.56300278731214E-07	495506.90625	7.23886387277162E-06
1	73	74.9825678106872	0.535125732421875	0.53509521484375	1.058349609375E-06	5.66317794437055E-07	505594.03125	7.34550940251211E-06
1	74	75.083275810433	0.545196533203125	0.54510498046875	1.0565185546875E-06	5.75913475131529E-07	515944.5625	7.45200168239535E-06
1	75	75.1839838101787	0.555267333984375	0.55523681640625	1.0565185546875E-06	5.86617943554302E-07	525534.375	7.55840119381901E-06
1	76	75.2846918099244	0.565338134765625	0.565277099609375	1.05621337890625E-06	5.9705320154535E-07	535192.125	7.66478569858009E-06
1	77	75.3853998096702	0.575408935546875	0.575408935546875	1.0565185546875E-06	6.07930189744366E-07	544627.4375	7.77117020334117E-06
1	78	75.4861078094159	0.585479736328125	0.585418701171875	1.05682373046875E-06	6.18684396158642E-07	553941.6875	7.87758563092211E-06
1	79	75.5868158091616	0.595550537109375	0.595489501953125	1.0577392578125E-06	6.2987260207592E-07	562983.25	7.98406199464807E-06
1	80	75.6875238089074	0.605621337890625	0.605560302734375	1.05926513671875E-06	6.41448878013762E-07	571679.6875	8.09066204965347E-06
1	81	75.7882318086531	0.615692138671875	0.6156005859375	1.0614013671875E-06	6.53399297334545E-07	579988.5	8.19744582258863E-06
1	82	75.8889398083988	0.625762939453125	0.625732421875	1.063232421875E-06	6.65298955482285E-07	588518.9375	8.30442968435818E-06
1	83	75.9896478081446	0.635833740234375	0.63580322265625	1.06597900390625E-06	6.77752836963919E-07	596450.0625	8.41164364828728E-06
1	84	76.0903558078903	0.645904541015625	0.6458740234375	1.0693359375E-06	6.90656293045322E-07	603995.4375	8.51916593092028E-06
1	85	76.1910638076361	0.655975341796875	0.655914306640625	1.072998046875E-06	7.03794739820296E-07	611291.25	8.62704109749757E-06
1	86	76.2917718073818	0.666046142578125	0.665924072265625	1.07696533203125E-06	7.17177101705602E-07	618333.8125	8.735300070839E-06
1	87	76.3924798071275	0.676116943359375	0.676025390625	1.08154296875E-06	7.31150464616803E-07	625056.5	8.84398923517438E-06
1	88	76.4931878068733	0.686187744140625	0.68603515625	1.08734130859375E-06	7.4595436672098E-07	630929	8.95320135896327E-06
1	89	76.593895806619	0.696258544921875	0.696197509765625	1.092529296875E-06	7.60616160278005E-07	637234.6875	9.06296645553084E-06
1	90	76.6946038063647	0.706329345703125	0.706268310546875	1.0986328125E-06	7.75929493102012E-07	642861.125	9.17330089578172E-06
1	91	76.7953118061105	0.716400146484375	0.716278076171875	1.10504150390625E-06	7.91517038578604E-07	648191.125	9.28426470636623E-06
1	92	76.8960198058562	0.726470947265625	0.726348876953125	1.11236572265625E-06	8.07965534477262E-07	652976.6875	9.39591973292409E-06
1	93	76.9967278056019	0.736541748046875	0.73638916015625	1.119384765625E-06	8.24302787805209E-07	657851.75	9.50829689827515E-06
1	94	77.0974358053477	0.746612548828125	0.746490478515625	1.126708984375E-06	8.41077508084709E-07	662540.625	9.62139711191412E-06
1	95	77.1981438050934	0.756683349609375	0.7568359375	1.13494873046875E-06	8.58969940509269E-07	666845.9375	9.73528040049132E-06
1	96	77.2988518048392	0.766754150390625	0.76690673828125	1.14410400390625E-06	8.77421030054393E-07	670312.125	9.85003953246633E-06
1	97	77.3995598045849	0.776824951171875	0.77667236328125	1.153564453125E-06	8.95941582257365E-07	673280.4375	9.96573635347886E-06
1	98	77.5002678043306	0.786895751953125	0.7867431640625	1.16241455078125E-06	9.14521649519884E-07	676818.125	1.0082355402119E-05
1	99	77.6009758040764	0.796966552734375	0.797119140625	1.17218017578125E-06	9.3436727865992E-07	680031.25	1.01999121397967E-05
1	100	77.7016838038221	0.807037353515625	0.80718994140625	1.1810302734375E-06	9.53315748120076E-07	683462.5625	1.03184056570171E-05
1	101	77.8023918035678	0.817108154296875	0.81695556640625	1.19049072265625E-06	9.72578050095763E-07	686234.3125	1.04378204923705E-05
1	102	77.9030998033136	0.827178955078125	0.82733154296875	1.2005615234375E-06	9.93262460724509E-07	689120.5	1.05582203104859E-05
1	103	78.0038078030593	0.837249755859375	0.83709716796875	1.21063232421875E-06	1.0134168633158E-06	691454.5625	1.06796333056991E-05
1	104	78.1045158028051	0.847320556640625	0.84716796875	1.22039794921875E-06	1.03388208572142E-06	694173.5625	1.08020449260948E-05
1	105	78.2052238025508	0.857391357421875	0.85723876953125	1.2298583984375E-06	1.05428227925586E-06	697022.3125	1.09254251583479E-05
1	106	78.3059318022965	0.867462158203125	0.86700439453125	1.239013671875E-06	1.07423022654984E-06	699753.75	1.10497430796386E-05
1	107	78.4066398020423	0.877532958984375	0.877685546875	1.2481689453125E-06	1.09549978333234E-06	703178.5	1.11749823190621E-05
1	108	78.507347801788	0.887603759765625	0.887451171875	1.2567138671875E-06	1.11527219814889E-06	706168.0625	1.13011137727881E-05
1	109	78.6080558015337	0.897674560546875	0.8978271484375	1.26495361328125E-06	1.1357096809661E-06	709770.875	1.14280892375973E-05
1	110	78.7087638012795	0.907745361328125	0.9075927734375	1.27288818359375E-06	1.15526415811473E-06	713018.4375	1.15558796096593E-05
1	111	78.8094718010252	0.917816162109375	0.91766357421875	1.28021240234375E-06	1.17480419703497E-06	716805.75	1.16844385047443E-05
1	112	78.9101798007709	0.927886962890625	0.9283447265625	1.28753662109375E-06	1.19527783226658E-06	721023.9375	1.18137350000325E-05
1	113	79.0108878005167	0.937957763671875	0.93841552734375	1.29425048828125E-06	1.21454468171578E-06	725064.875	1.19437381727039E-05
1	114	79.1115958002624	0.948028564453125	0.9478759765625	1.30096435546875E-06	1.23315282962722E-06	728594.9375	1.20744180094334E-05
1	115	79.2123038000082	0.958099365234375	0.95855712890625	1.30706787109375E-06	1.25289921015792E-06	733364.5	1.22057426779065E-05
1	116	79.3130117997539	0.968170166015625	0.9686279296875	1.3134765625E-06	1.27227008306363E-06	737453.5625	1.2337697626208E-05
1	117	79.4137197994996	0.978240966796875	0.977783203125	1.3189697265625E-06	1.28966644297179E-06	741323.5	1.24702519315179E-05
1	118	79.5144277992454	0.988311767578125	0.98846435546875	1.324462890625E-06	1.30918431295868E-06	746313.4375	1.26033592096064E-05
1	119	79.6151357989911	0.998382568359375	0.99853515625	1.33026123046875E-06	1.32831257815269E-06	750630.9375	1.27370349218836E-05
1	120	79.7158437987368	1.00845336914063	1.00830078125	1.33575439453125E-06	1.34684216845926E-06	754854.9375	1.28712799778441E-05
1	121	79.8165517984826	1.01852416992188	1.0186767578125	1.3409423828125E-06	1.36598680455791E-06	759672.25	1.30060625451733E-05
1	122	79.9172597982283	1.02859497070313	1.02874755859375	1.34613037109375E-06	1.38482835154718E-06	764225.8125	1.31413671624614E-05
1	123	80.0179677979741	1.03866577148438	1.03851318359375	1.35223388671875E-06	1.40431268391694E-06	767998.1875	1.32772402139381E-05
1	124	80.1186757977198	1.04873657226563	1.04827880859375	1.35711669921875E-06	1.42263661473407E-06	772430.875	1.34136671476881E-05
1	125	80.2193837974655	1.05880737304688	1.0589599609375	1.3623046875E-06	1.44262605772383E-06	777329.8125	1.3550600669987E-05
1	126	80.3200917972113	1.06887817382813	1.0693359375	1.3677978515625E-06	1.46263539591018E-06	781793.875	1.36880726131494E-05
1	127	80.420799796957	1.07894897460938	1.07879638671875	1.3726806640625E-06	1.48084291140549E-06	785904.8125	1.38260666062706E-05
1	128	80.5215077967027	1.08901977539063	1.08917236328125	1.3775634765625E-06	1.50040398239071E-06	790651.3125	1.39645526360255E-05
1	129	80.6222157964485	1.09909057617188	1.09893798828125	1.38153076171875E-06	1.51821666349861E-06	795449.5	1.41034834086895E-05
1	130	80.7229237961942	1.10916137695313	1.10931396484375	1.38580322265625E-06	1.53729081375786E-06	800484.5	1.42428298204322E-05
1	131	80.8236317959399	1.11923217773438	1.11907958984375	1.38946533203125E-06	1.55492227804643E-06	805403.0625	1.43825764098438E-05
1	132	80.9243397956857	1.12930297851563	1.1297607421875	1.392822265625E-06	1.57355589180952E-06	811130.625	1.45226749737049E-05
1	133	81.0250477954314	1.13937377929688	1.13922119140625	1.39678955078125E-06	1.59125227128243E-06	815599.75	1.46631437019096E-05
1	134	81.1257557951772	1.14944458007813	1.1492919921875	1.39984130859375E-06	1.60882632371795E-06	821015.9375	1.48039653140586E-05
1	135	81.2264637949229	1.15951538085938	1.15966796875	1.40289306640625E-06	1.62689013905037E-06	826626.0625	1.49450943354168E-05
1	136	81.3271717946686	1.16958618164063	1.16943359375	1.40533447265625E-06	1.6434452163594E-06	832139	1.50864989336696E-05
1	137	81.4278797944144	1.17965698242188	1.1798095703125	1.40716552734375E-06	1.66018742220331E-06	838429.8125	1.52281199916615E-05
1	138	81.5285877941601	1.18972778320313	1.18927001953125	1.4093017578125E-06	1.67604025591572E-06	843871.8125	1.53699402289931E-05
1	139	81.6292957939058	1.19979858398438	1.199951171875	1.41082763671875E-06	1.69292422924627E-06	850529.9375	1.55119450937491E-05
1	140	81.7300037936516	1.20986938476563	1.209716796875	1.4117431640625E-06	1.707809360596E-06	856895.8125	1.56540736497846E-05
1	141	81.8307117933973	1.21994018554688	1.22039794921875	1.4129638671875E-06	1.72437808032555E-06	863714.9375	1.57963077072054E-05
1	142	81.931419793143	1.23001098632813	1.23016357421875	1.4141845703125E-06	1.73967839600664E-06	869874.8125	1.59386672748951E-05
1	143	82.0321277928888	1.24008178710938	1.240234375	1.41448974609375E-06	1.75429875071131E-06	876806.9375	1.60811014211504E-05
1	144	82.1328357926345	1.25015258789063	1.25	1.4154052734375E-06	1.76925652795035E-06	883139.3125	1.62235974130454E-05
1	145	82.2335437923803	1.26022338867188	1.26007080078125	1.4166259765625E-06	1.78504899395193E-06	889487.25	1.63662025443045E-05
1	146	82.334251792126	1.27029418945313	1.27044677734375	1.417236328125E-06	1.80052325049473E-06	896425.5625	1.65088986250339E-05
1	147	82.4349597918717	1.28036499023438	1.2799072265625	1.41845703125E-06	1.81549341959908E-06	902323.5625	1.66516874742229E-05
1	148	82.5356677916175	1.29043579101563	1.29058837890625	1.41937255859375E-06	1.83182567070617E-06	909266.8125	1.67945836437866E-05
1	149	82.6363757913632	1.30050659179688	1.30096435546875	1.4208984375E-06	1.84853820428543E-06	915592.75	1.69376016856404E-05
1	150	82.7370837911089	1.31057739257813	1.31072998046875	1.4227294921875E-06	1.86481418040785E-06	921278.4375	1.70807907124981E-05
1	151	82.8377917908547	1.32064819335938	1.32110595703125	1.4239501953125E-06	1.88118906407908E-06	927775.4375	1.72241325344658E-05
1	152	82.9384997906004	1.33071899414063	1.33056640625	1.4263916015625E-06	1.89790875992912E-06	932819.875	1.73676580743631E-05
1	153	83.0392077903462	1.34078979492188	1.34063720703125	1.42913818359375E-06	1.9159558632964E-06	938073.9375	1.75114455487346E-05
1	154	83.1399157900919	1.35086059570313	1.35101318359375	1.43218994140625E-06	1.9349074591446E-06	943319.8125	1.76555240614107E-05
1	155	83.2406237898376	1.36093139648438	1.361083984375	1.4349365234375E-06	1.9530691588443E-06	948532.5625	1.77998954313807E-05
1	156	83.3413317895834	1.37100219726563	1.37115478515625	1.4385986328125E-06	1.97254144040926E-06	953118.375	1.79445905814646E-05
1	157	83.4420397893291	1.38107299804688	1.3812255859375	1.4422607421875E-06	1.99208739104506E-06	957680.9375	1.8089653167408E-05
1	158	83.5427477890748	1.39114379882813	1.39068603515625	1.446533203125E-06	2.01167335944774E-06	961392.4375	1.82351141120307E-05
1	159	83.6434557888206	1.40121459960938	1.4013671875	1.45050048828125E-06	2.03268382392707E-06	966126.6875	1.83809916052269E-05
1	160	83.7441637885663	1.41128540039063	1.41143798828125	1.4544677734375E-06	2.05289120458474E-06	970415.4375	1.85272692760918E-05
1	161	83.844871788312	1.42135620117188	1.4208984375	1.4581298828125E-06	2.07185439649038E-06	974466.3125	1.86739289347315E-05
1	162	83.9455797880578	1.43142700195313	1.431884765625	1.46331787109375E-06	2.09530253414414E-06	978519.3125	1.88210360647645E-05
1	163	84.0462877878035	1.44149780273438	1.441650390625	1.46728515625E-06	2.11531209970417E-06	982529.1875	1.89686033991165E-05
1	164	84.1469957875493	1.45156860351563	1.451416015625	1.47125244140625E-06	2.13539919968753E-06	986517.375	1.91165709111374E-05
1	165	84.247703787295	1.46163940429688	1.46148681640625	1.47491455078125E-06	2.15556815419404E-06	990896	1.92649222299224E-05
1	166	84.3484117870407	1.47171020507813	1.470947265625	1.478271484375E-06	2.17445926864457E-06	995045.4375	1.94136264326517E-05
1	167	84.4491197867865	1.48178100585938	1.48193359375	1.4813232421875E-06	2.19522257793869E-06	1000412.0625	1.95626544154948E-05
1	168	84.5498277865322	1.49185180664063	1.49139404296875	1.48406982421875E-06	2.21333289118775E-06	1004935.25	1.97119734366424E-05
1	169	84.6505357862779	1.50192260742188	1.50146484375	1.485595703125E-06	2.23056963477575E-06	1010682	1.98615089175291E-05
1	170	84.7512437860237	1.49185180664063	1.49169921875	1.387939453125E-06	2.07038806365745E-06	1074758.125	2.00062022486236E-05
1	171	84.8519517857694	1.48178100585938	1.4813232421875	1.3201904296875E-06	1.95562870430877E-06	1122052.75	2.01425682462286E-05
1	172	84.9526597855152	1.47171020507813	1.47186279296875	1.26708984375E-06	1.86498232324084E-06	1161608.875	2.02728479052894E-05
1	173	85.0533677852609	1.46163940429688	1.4617919921875	1.221923828125E-06	1.7861983678813E-06	1196303.75	2.03981799131725E-05
1	174	85.1540757850066	1.45156860351563	1.45172119140625	1.18316650390625E-06	1.71762781064899E-06	1226979.75	2.05192845896818E-05
1	175	85.2547837847524	1.44149780273438	1.4410400390625	1.14898681640625E-06	1.65573601407232E-06	1254183.25	2.06367185455747E-05
1	176	85.3554917844981	1.43142700195313	1.4312744140625	1.11785888671875E-06	1.59996284310182E-06	1280371.25	2.0750863768626E-05
1	177	85.4561997842438	1.42135620117188	1.42120361328125	1.0894775390625E-06	1.548369482407E-06	1304481.75	2.08620112971403E-05
1	178	85.5569077839896	1.41128540039063	1.4111328125	1.0638427734375E-06	1.50122343711701E-06	1326448.625	2.09704394364962E-05
1	179	85.6576157837353	1.40121459960938	1.4013671875	1.03973388671875E-06	1.45704893839138E-06	1347813.375	2.10763628274435E-05
1	180	85.758323783481	1.39114379882813	1.390380859375	1.01776123046875E-06	1.41507564421772E-06	1366117	2.11799670069013E-05
1	181	85.8590317832268	1.38107299804688	1.380615234375	9.9609375E-07	1.37522215482022E-06	1386029.5	2.12813720281702E-05
1	182	85.9597397829725	1.37100219726563	1.37115478515625	9.7625732421875E-07	1.33859987272444E-06	1404501.5	2.13806870306144E-05
1	183	86.0604477827183	1.36093139648438	1.36077880859375	9.5703125E-07	1.30230785089225E-06	1421875	2.14780357055133E-05
1	184	86.161155782464	1.35086059570313	1.3507080078125	9.39331054687501E-07	1.26876193462522E-06	1437946.75	2.15735253732419E-05
1	185	86.2618637822097	1.34078979492188	1.3409423828125	9.21630859375E-07	1.23585380151781E-06	1454966.875	2.16672324313549E-05
1	186	86.3625717819555	1.33071899414063	1.33087158203125	9.051513671875E-07	1.20464017072663E-06	1470330.375	2.17592187254922E-05
1	187	86.4632797817012	1.32064819335938	1.32049560546875	8.88977050781251E-07	1.17389026854653E-06	1485410.25	2.18495606532088E-05
1	188	86.5639877814469	1.31057739257813	1.3104248046875	8.7310791015625E-07	1.14414217478043E-06	1500873.875	2.19382891373243E-05
1	189	86.6646957811927	1.30050659179688	1.3006591796875	8.5784912109375E-07	1.11576935069024E-06	1516186.5	2.2025449652574E-05
1	190	86.7654037809384	1.29043579101563	1.290283203125	8.4381103515625E-07	1.08875519799767E-06	1529114	2.21111349674175E-05
1	191	86.8661117806842	1.28036499023438	1.28021240234375	8.29162597656249E-07	1.06150423562212E-06	1543982.375	2.21953760046745E-05
1	192	86.9668197804299	1.27029418945313	1.27044677734375	8.15429687499999E-07	1.03595994005445E-06	1558009.125	2.22781873162603E-05
1	193	87.0675277801756	1.26022338867188	1.26007080078125	8.026123046875E-07	1.01134833130345E-06	1569962	2.23596616706345E-05
1	194	87.1682357799214	1.25015258789063	1.25030517578125	7.8887939453125E-07	9.86339955488802E-07	1584913	2.24397990677971E-05
1	195	87.2689437796671	1.24008178710938	1.23931884765625	7.7545166015625E-07	9.61031901169918E-07	1598189.625	2.25185704039177E-05
1	196	87.3696517794128	1.23001098632813	1.23046875	7.62939453125E-07	9.38773098368983E-07	1612800.125	2.25960338866571E-05
1	197	87.4703597791586	1.21994018554688	1.21978759765625	7.5042724609375E-07	9.15361795250647E-07	1625457.625	2.26722386287292E-05
1	198	87.5710677789043	1.20986938476563	1.209716796875	7.37915039062501E-07	8.92668197138846E-07	1639371.5	2.27471828111447E-05
1	199	87.67177577865	1.19979858398438	1.199951171875	7.25402832031249E-07	8.704479341759E-07	1654186	2.28208664339036E-05
1	200	87.7724837783958	1.18972778320313	1.1895751953125	7.1319580078125E-07	8.48400020458939E-07	1667950.375	2.28933058679104E-05
1	201	87.8731917781415	1.17965698242188	1.17950439453125	7.02514648437499E-07	8.28619079129567E-07	1678974.875	2.29645920626353E-05
1	202	87.9738997778873	1.16958618164063	1.16912841796875	6.90612792968751E-07	8.07415005965595E-07	1692885.625	2.30347413889831E-05
1	203	88.074607777633	1.15951538085938	1.15966796875	6.79931640625001E-07	7.88494958214869E-07	1705565.5	2.31037538469536E-05
1	204	88.1753157773787	1.14944458007813	1.14959716796875	6.68945312499999E-07	7.69017617585632E-07	1718522	2.3171674911282E-05
1	205	88.2760237771245	1.13937377929688	1.13983154296875	6.5887451171875E-07	7.51005927668302E-07	1729967.625	2.32385373237776E-05
1	206	88.3767317768702	1.12930297851563	1.12945556640625	6.488037109375E-07	7.32794944724446E-07	1740827.875	2.33043829211965E-05
1	207	88.4774397766159	1.11923217773438	1.11907958984375	6.396484375E-07	7.1581746396987E-07	1749523	2.33692626352422E-05
1	208	88.5781477763617	1.10916137695313	1.1090087890625	6.30798339843749E-07	6.99560871453286E-07	1758103.625	2.34332346735755E-05
1	209	88.6788557761074	1.09909057617188	1.09893798828125	6.21948242187501E-07	6.8348253989825E-07	1766928.375	2.34963154071011E-05
1	210	88.7795637758531	1.08901977539063	1.08917236328125	6.134033203125E-07	6.68101904466312E-07	1775622	2.35585193877341E-05
1	211	88.8802717755989	1.07894897460938	1.0791015625	6.060791015625E-07	6.54020880119788E-07	1780463.25	2.3619924832019E-05
1	212	88.9809797753446	1.06887817382813	1.0687255859375	5.98754882812499E-07	6.39904669696989E-07	1784913.375	2.36805935855955E-05
1	213	89.0816877750904	1.05880737304688	1.05865478515625	5.92041015625E-07	6.26767018729879E-07	1788144.5	2.3740554752294E-05
1	214	89.1823957748361	1.04873657226563	1.048583984375	5.85327148437501E-07	6.13764655099658E-07	1791449.5	2.37998410739237E-05
1	215	89.2831037745818	1.03866577148438	1.038818359375	5.79223632812501E-07	6.0170816595928E-07	1793466.75	2.38584798353259E-05
1	216	89.3838117743276	1.02859497070313	1.0284423828125	5.7220458984375E-07	5.88479394991737E-07	1797333.5	2.39164583035745E-05
1	217	89.4845197740733	1.01852416992188	1.01837158203125	5.6610107421875E-07	5.76501236082549E-07	1798921.875	2.39737764786696E-05
1	218	89.585227773819	1.00845336914063	1.00830078125	5.59387207031251E-07	5.64030585792352E-07	1802509.5	2.40304507315159E-05
1	219	89.6859357735648	0.998382568359375	0.99853515625	5.5267333984375E-07	5.51863763575966E-07	1806736.625	2.40864465013146E-05
1	220	89.7866437733105	0.988311767578125	0.98846435546875	5.450439453125E-07	5.38756466994528E-07	1813549.875	2.41417219513096E-05
1	221	89.8873517730563	0.978240966796875	0.9783935546875	5.3741455078125E-07	5.25802931861108E-07	1820556.5	2.41962279687868E-05
1	222	89.988059772802	0.968170166015625	0.968017578125	5.2978515625E-07	5.1284132496221E-07	1827189	2.42499645537464E-05
1	223	90.0887677725477	0.958099365234375	0.95794677734375	5.218505859375E-07	4.99905070228124E-07	1835672.625	2.43029189732624E-05
1	224	90.1894757722935	0.948028564453125	0.948486328125	5.13916015625E-07	4.87442321173148E-07	1845605.75	2.43550748564303E-05
1	225	90.2901837720392	0.937957763671875	0.9381103515625	5.0628662109375E-07	4.74952685181051E-07	1852923.5	2.44064449361758E-05
1	226	90.3908917717849	0.927886962890625	0.927734375	4.98046875E-07	4.62055197658628E-07	1862745.125	2.44570182985626E-05
1	227	90.4915997715307	0.917816162109375	0.91766357421875	4.90417480468749E-07	4.50038243116069E-07	1871188.625	2.45067913056118E-05
1	228	90.5923077712764	0.907745361328125	0.9075927734375	4.8370361328125E-07	4.39005901853307E-07	1876340.625	2.45558421738679E-05
1	229	90.6930157710221	0.897674560546875	0.897216796875	4.7637939453125E-07	4.27415585591007E-07	1883408.125	2.46041854552459E-05
1	230	90.7937237707679	0.887603759765625	0.88775634765625	4.7027587890625E-07	4.17490383597396E-07	1887735.25	2.46518538915552E-05
1	231	90.8944317705136	0.877532958984375	0.877685546875	4.64477539062499E-07	4.07665197599272E-07	1889619	2.46989220613614E-05
1	232	90.9951397702594	0.867462158203125	0.86761474609375	4.58679199218751E-07	3.97956824826906E-07	1891550.25	2.4745406335569E-05
1	233	91.0958477700051	0.857391357421875	0.85723876953125	4.52880859375E-07	3.8822702208563E-07	1892857.25	2.47913067141781E-05
1	234	91.1965557697508	0.847320556640625	0.8477783203125	4.47692871093749E-07	3.79544303541479E-07	1893660.625	2.48366559389979E-05
1	235	91.2972637694966	0.837249755859375	0.83770751953125	4.43115234374999E-07	3.71200968629637E-07	1890495.875	2.48815103986999E-05
1	236	91.3979717692423	0.827178955078125	0.82763671875	4.3792724609375E-07	3.62444666279771E-07	1889895.5	2.49258755502524E-05
1	237	91.498679768988	0.817108154296875	0.81787109375	4.33959960937499E-07	3.54923287204656E-07	1884669.625	2.49697786784964E-05
1	238	91.5993877687338	0.807037353515625	0.806884765625	4.2999267578125E-07	3.46954522001397E-07	1876508.25	2.50132816290716E-05
1	239	91.7000957684795	0.796966552734375	0.797119140625	4.26025390625E-07	3.39592986620119E-07	1871060.25	2.5056384401978E-05
1	240	91.8008037682253	0.786895751953125	0.7867431640625	4.229736328125E-07	3.32771605826565E-07	1860029	2.50991361099295E-05
1	241	91.901511767971	0.776824951171875	0.7769775390625	4.1961669921875E-07	3.26032761677197E-07	1851636.375	2.51415640377672E-05
1	242	92.0022197677167	0.766754150390625	0.76690673828125	4.16259765625E-07	3.19232412948622E-07	1842375.375	2.51836536335759E-05
1	243	92.1029277674625	0.756683349609375	0.7568359375	4.132080078125E-07	3.12730662699323E-07	1831610.125	2.52254194492707E-05
1	244	92.2036357672082	0.746612548828125	0.74658203125	4.09851074218751E-07	3.05987441606703E-07	1821593.5	2.52668651228305E-05
1	245	92.3043437669539	0.736541748046875	0.73638916015625	4.0740966796875E-07	3.00012061416055E-07	1807490.625	2.53080161201069E-05
1	246	92.4050517666997	0.726470947265625	0.72637939453125	4.04968261718749E-07	2.94160599878523E-07	1793669.875	2.53489233728033E-05
1	247	92.5057597664454	0.716400146484375	0.71630859375	4.0283203125E-07	2.88552030269784E-07	1778181.875	2.53895996138453E-05
1	248	92.6064677661911	0.706329345703125	0.706207275390625	4.00390624999999E-07	2.82758747971457E-07	1763795.875	2.54300448432332E-05
1	249	92.7071757659369	0.696258544921875	0.6961669921875	3.9825439453125E-07	2.77251558600256E-07	1748046.125	2.54702590609668E-05
1	250	92.8078837656826	0.686187744140625	0.6861572265625	3.95812988281249E-07	2.7158992566001E-07	1733539	2.55102440860355E-05
1	251	92.9085917654284	0.676116943359375	0.67608642578125	3.936767578125E-07	2.6615950332598E-07	1717364.375	2.554999809945E-05
1	252	93.0092997651741	0.666046142578125	0.66595458984375	3.91235351562499E-07	2.6054496515826E-07	1702184.125	2.55895211012103E-05
1	253	93.1100077649198	0.655975341796875	0.655914306640625	3.89709472656249E-07	2.55616015465421E-07	1683085.375	2.56288458331255E-05
1	254	93.2107157646656	0.645904541015625	0.64581298828125	3.8787841796875E-07	2.50496896114782E-07	1664988.25	2.56679995800368E-05
1	255	93.3114237644113	0.635833740234375	0.635772705078125	3.857421875E-07	2.45244336838368E-07	1648180.5	2.57069550571032E-05
1	256	93.412131764157	0.625762939453125	0.62567138671875	3.83911132812501E-07	2.40202211898577E-07	1629729.75	2.57457104453351E-05
1	257	93.5128397639028	0.615692138671875	0.61572265625	3.82385253906251E-07	2.35443266660695E-07	1610215.5	2.57842966675526E-05
1	258	93.6135477636485	0.605621337890625	0.6055908203125	3.802490234375E-07	2.30275318813256E-07	1592616.375	2.58226973528508E-05
1	259	93.7142557633942	0.595550537109375	0.595489501953125	3.7841796875E-07	2.2534391064255E-07	1573629.125	2.58608997683041E-05
1	260	93.81496376314	0.585479736328125	0.58544921875	3.76281738281251E-07	2.20293841834973E-07	1555880	2.5898902094923E-05
1	261	93.9156717628857	0.575408935546875	0.57537841796875	3.7353515625E-07	2.14924071428868E-07	1540359.5	2.59366588579724E-05
1	262	94.0163797626315	0.565338134765625	0.5653076171875	3.7200927734375E-07	2.1029967456343E-07	1519606.25	2.59741991612827E-05
1	263	94.1170877623772	0.555267333984375	0.555267333984375	3.6956787109375E-07	2.05208962711367E-07	1502477.375	2.60115411947481E-05
1	264	94.2177957621229	0.545196533203125	0.545135498046875	3.680419921875E-07	2.00632754854269E-07	1481177.5	2.60486831393791E-05
1	265	94.3185037618687	0.535125732421875	0.535003662109375	3.662109375E-07	1.95924201307207E-07	1460916.625	2.60856540990062E-05
1	266	94.4192117616144	0.525054931640625	0.5250244140625	3.64074707031251E-07	1.91148103567684E-07	1442078.75	2.61224267887883E-05
1	267	94.5199197613601	0.514984130859375	0.514892578125	3.6163330078125E-07	1.86202299801153E-07	1423797.5	2.61589702859055E-05
1	268	94.6206277611059	0.504913330078125	0.50494384765625	3.5980224609375E-07	1.81679922661715E-07	1403392.75	2.61952973232837E-05
1	269	94.7213357608516	0.494842529296875	0.49481201171875	3.5736083984375E-07	1.76826418396558E-07	1384628.625	2.62314097199123E-05
1	270	94.8220437605974	0.484771728515625	0.484771728515625	3.54919433593751E-07	1.72054896552254E-07	1365864.25	2.6267274733982E-05
1	271	94.9227517603431	0.474700927734375	0.4747314453125	3.5247802734375E-07	1.67332402156717E-07	1346839.875	2.63028960034717E-05
1	272	95.0234597600888	0.464630126953125	0.464630126953125	3.50341796875001E-07	1.62779357992804E-07	1326219.5	2.63382862613071E-05
1	273	95.1241677598346	0.454559326171875	0.454620361328125	3.47290039062501E-07	1.57885125418034E-07	1309051	2.63734145846684E-05
1	274	95.2248757595803	0.444488525390625	0.444488525390625	3.448486328125E-07	1.53281249026804E-07	1288938.125	2.64082664216403E-05
1	275	95.325583759326	0.434417724609375	0.434356689453125	3.42407226562499E-07	1.48726869042548E-07	1268538.375	2.64428726950428E-05
1	276	95.4262917590718	0.424346923828125	0.42437744140625	3.399658203125E-07	1.44273826663266E-07	1248294.375	2.64772315858863E-05
1	277	95.5269997588175	0.414276123046875	0.4141845703125	3.37829589843749E-07	1.39923798769814E-07	1226016.25	2.65113612840651E-05
1	278	95.6277077585632	0.404205322265625	0.40423583984375	3.35083007812501E-07	1.35452552285642E-07	1206375.25	2.65452454186743E-05
1	279	95.728415758309	0.394134521484375	0.394134521484375	3.326416015625E-07	1.3110553709339E-07	1184862.375	2.65788676188095E-05
1	280	95.8291237580547	0.384063720703125	0.38409423828125	3.2989501953125E-07	1.26710773429295E-07	1164292.375	2.66122297034599E-05
1	281	95.9298317578005	0.373992919921875	0.37396240234375	3.277587890625E-07	1.22569460359045E-07	1140968.375	2.66453444055514E-05
1	282	96.0305397575462	0.363922119140625	0.363983154296875	3.2501220703125E-07	1.18298963514007E-07	1119906.125	2.66782153630629E-05
1	283	96.1312477572919	0.353851318359375	0.35382080078125	3.22265625E-07	1.14024274466829E-07	1097916.75	2.67108080151957E-05
1	284	96.2319557570377	0.343780517578125	0.343780517578125	3.19824218750001E-07	1.09949333193526E-07	1074904.625	2.67431405518437E-05
1	285	96.3326637567834	0.333709716796875	0.333740234375	3.1707763671875E-07	1.05821563067821E-07	1052550.625	2.67752111540176E-05
1	286	96.4333717565291	0.323638916015625	0.323699951171875	3.143310546875E-07	1.01748952374692E-07	1029805.8125	2.68070034508128E-05
1	287	96.5340797562749	0.313568115234375	0.313629150390625	3.12194824218751E-07	9.79134000544946E-08	1004594.3125	2.68385520030279E-05
1	288	96.6347877560206	0.303497314453125	0.303497314453125	3.08837890624999E-07	9.37314652560417E-08	982707.5625	2.68698240688536E-05
1	289	96.7354957557664	0.293426513671875	0.29345703125	3.05786132812499E-07	8.97350886930326E-08	959680.625	2.69007723545656E-05
1	290	96.8362037555121	0.283355712890625	0.283355712890625	3.02734374999999E-07	8.57815152244257E-08	935987.875	2.69314132310683E-05
1	291	96.9369117552578	0.273284912109375	0.27325439453125	2.99987792968751E-07	8.19729848444695E-08	910885.0625	2.69617630692665E-05
1	292	97.0376197550036	0.263214111328125	0.263214111328125	2.96936035156251E-07	7.8157754046515E-08	886433.6875	2.699182186916E-05
1	293	97.1383277547493	0.253143310546875	0.253173828125	2.9327392578125E-07	7.42492858307742E-08	863267.4375	2.70215405180352E-05
1	294	97.239035754495	0.243072509765625	0.243133544921875	2.89306640625001E-07	7.03401425994343E-08	840400.875	2.70508753601462E-05
1	295	97.3397437542408	0.233001708984375	0.233001708984375	2.84729003906251E-07	6.63423449509537E-08	818328	2.70797809207579E-05
1	296	97.4404517539865	0.222930908203125	0.222900390625	2.8045654296875E-07	6.25138696364047E-08	794776.9375	2.71082408289658E-05
1	297	97.5411597537322	0.212860107421875	0.212860107421875	2.7496337890625E-07	5.85287338594753E-08	774139.8125	2.71362077910453E-05
1	298	97.641867753478	0.202789306640625	0.202850341796875	2.685546875E-07	5.44764091614525E-08	755340.9375	2.71635763056111E-05
1	299	97.7425757532237	0.192718505859375	0.1927490234375	2.60314941406251E-07	5.01754513493324E-08	740445.4375	2.7190206310479E-05
1	300	97.8432837529695	0.182647705078125	0.18267822265625	2.50854492187499E-07	4.58256543822699E-08	728223.8125	2.72159468295285E-05
1	301	97.9439917527152	0.172576904296875	0.17266845703125	2.37426757812501E-07	4.09961096181632E-08	727249.375	2.72405322903069E-05
1	302	98.0446997524609	0.162506103515625	0.16253662109375	2.197265625E-07	3.57136116235779E-08	739722.25	2.72635516012087E-05
1	303	98.1454077522067	0.152435302734375	0.1524658203125	1.953125E-07	2.97784801261969E-08	780625	2.72844517894555E-05
1	304	98.2461157519524	0.142364501953125	0.142364501953125	1.6204833984375E-07	2.30699299663684E-08	878531.0625	2.73024452326354E-05
1	305	98.3468237516981	0.132293701171875	0.132354736328125	1.15356445312501E-07	1.52679717757565E-08	1147354.5	2.73164150712546E-05
1	306	98.4475317514439	0.122222900390625	0.122314453125	5.21850585937497E-08	6.38298702781981E-09	2343859.75	2.73248515441082E-05
1	307	98.5482397511896	0.112152099609375	0.1121826171875	-3.72314453124994E-08	-4.17672074704001E-09	-3013114.75	2.73256027867319E-05
1	308	98.6489477509353	0.102081298828125	0.102081298828125	-1.5411376953125E-07	-1.57321338178917E-08	-662376.25	2.73159694188507E-05
1	309	98.7496557506811	0.092010498046875	0.09210205078125	-3.07617187500001E-07	-2.8332172163914E-08	-299404.78125	2.72927190962946E-05
1	310	98.8503637504268	0.081939697265625	0.081939697265625	-5.0018310546875E-07	-4.09848510685151E-08	-163819.40625	2.72520428552525E-05
1	311	98.9510717501726	0.071868896484375	0.071868896484375	-7.293701171875E-07	-5.24190220119181E-08	-98535.5703125	2.7190129912924E-05
1	312	99.0517797499183	0.061798095703125	0.06182861328125	-9.8114013671875E-07	-6.06625363275271E-08	-63017.10546875	2.71039989456767E-05
1	313	99.152487749664	0.051727294921875	0.051727294921875	-1.239013671875E-06	-6.40908197624412E-08	-41748.76953125	2.69922056759242E-05
1	314	99.2531957494098	0.041656494140625	0.0417083740234375	-1.47552490234375E-06	-6.15417405924745E-08	-28266.8046875	2.68555177171947E-05
1	315	99.3539037491555	0.031585693359375	0.0316619873046875	-1.6680908203125E-06	-5.28150714274034E-08	-18980.97265625	2.669722380233E-05
1	316	99.4546117489012	0.021514892578125	0.021630859375	-1.796875E-06	-3.88679488594335E-08	-12038.0439453125	2.65227481577313E-05
1	317	99.555319748647	0.011444091796875	0.011572265625	-1.8603515625E-06	-2.15284821081241E-08	-6220.47265625	2.63385936705163E-05
1	318	99.6560277483927	0.001373291015625	0.00150146484374999	-1.8646240234375E-06	-2.79966738681026E-09	-805.237365722656	2.61510249401908E-05
1	319	99.7567357481385	-0.008697509765625	-0.008587646484375	-1.82586669921875E-06	1.56798964923155E-08	4703.326171875	2.59651951637352E-05
1	320	99.8574437478842	-0.018768310546875	-0.018670654296875	-1.76025390625E-06	3.28650919811935E-08	10606.7958984375	2.5784618628677E-05
1	321	99.9581517476299	-0.028839111328125	-0.0287139892578125	-1.680908203125E-06	4.82655799771692E-08	17082.42578125	2.56113416980952E-05
1	322	100.058859747376	-0.038909912109375	-0.03875732421875	-1.59881591796875E-06	6.19658280243129E-08	24241.267578125	2.54461956501473E-05
1	323	100.159567747121	-0.048980712890625	-0.048809814453125	-1.51885986328125E-06	7.41352650379667E-08	32135.826171875	2.52892077696742E-05
1	324	100.260275746867	-0.059051513671875	-0.0589599609375	-1.44439697265625E-06	8.51615880037571E-08	40819.77734375	2.51399960689014E-05
1	325	100.360983746613	-0.069122314453125	-0.069000244140625	-1.37664794921875E-06	9.49890406332088E-08	50121.92578125	2.49979457294103E-05
1	326	100.461691746359	-0.079193115234375	-0.07916259765625	-1.3165283203125E-06	1.04219793684024E-07	60129.8125	2.48623327934183E-05
1	327	100.562399746104	-0.089263916015625	-0.089202880859375	-1.26312255859375E-06	1.12674165109183E-07	70620.9296875	2.47324369411217E-05
1	328	100.66310774585	-0.099334716796875	-0.099212646484375	-1.21551513671875E-06	1.20594464192436E-07	81621.8984375	2.46076288021868E-05
1	329	100.763815745596	-0.109405517578125	-0.10931396484375	-1.1737060546875E-06	1.28302460211671E-07	93135.734375	2.44873208430363E-05
1	330	100.864523745342	-0.119476318359375	-0.11944580078125	-1.1370849609375E-06	1.35820016566868E-07	105045.625	2.43709637288703E-05
1	331	100.965231745087	-0.129547119140625	-0.12945556640625	-1.10443115234375E-06	1.4297475559033E-07	117214.703125	2.42580936173908E-05
1	332	101.065939744833	-0.139617919921875	-0.1395263671875	-1.07635498046875E-06	1.50179886304613E-07	129628.5859375	2.41482830460882E-05
1	333	101.166647744579	-0.149688720703125	-0.149566650390625	-1.05133056640625E-06	1.57243988496703E-07	142264.15625	2.40411463892087E-05
1	334	101.267355744325	-0.159759521484375	-0.159576416015625	-1.02935791015625E-06	1.6426125171165E-07	155025.203125	2.39363744185539E-05
1	335	101.36806374407	-0.169830322265625	-0.169677734375	-1.0101318359375E-06	1.71396862924666E-07	167975.84375	2.38336779148085E-05
1	336	101.468771743816	-0.179901123046875	-0.179718017578125	-9.9334716796875E-07	1.78522384430835E-07	180921.65625	2.37327949434984E-05
1	337	101.569479743562	-0.189971923828125	-0.1898193359375	-9.78698730468749E-07	1.85775945737987E-07	193950.734375	2.36334944929695E-05
1	338	101.670187743307	-0.200042724609375	-0.199920654296875	-9.661865234375E-07	1.93160630601596E-07	206917.265625	2.3535561922472E-05
1	339	101.770895743053	-0.189971923828125	-0.18988037109375	-8.4197998046875E-07	1.59875469307735E-07	225516.5	2.34445124078775E-05
2	340	101.871603742799	-0.179901123046875	-0.1798095703125	-7.57751464843751E-07	1.36250960736106E-07	237293.609375	2.33639602811309E-05
2	341	101.972311742545	-0.169830322265625	-0.169677734375	-6.915283203125E-07	1.17336959704062E-07	245366.28125	2.329098424525E-05
2	342	102.07301974229	-0.159759521484375	-0.159637451171875	-6.3507080078125E-07	1.01381075978679E-07	251369.546875	2.32241836783942E-05
2	343	102.173727742036	-0.149688720703125	-0.149566650390625	-5.865478515625E-07	8.7727997311049E-08	254994.796875	2.31626709137345E-05
2	344	102.274435741782	-0.139617919921875	-0.139495849609375	-5.4290771484375E-07	7.57333680212469E-08	256942.109375	2.31057983910432E-05
2	345	102.375143741528	-0.129547119140625	-0.129425048828125	-5.0384521484375E-07	6.5210194577503E-08	256874.609375	2.30530895350967E-05
2	346	102.475851741273	-0.119476318359375	-0.11932373046875	-4.67529296874999E-07	5.57873356399341E-08	255221.9375	2.30041769100353E-05
2	347	102.576559741019	-0.109405517578125	-0.10931396484375	-4.3304443359375E-07	4.73378030108051E-08	252431.296875	2.29588295042049E-05
2	348	102.677267740765	-0.099334716796875	-0.099334716796875	-4.00390624999999E-07	3.97726864775905E-08	248094.53125	2.29168635996757E-05
2	349	102.777975740511	-0.089263916015625	-0.0892333984375	-3.6773681640625E-07	3.2814405415138E-08	242655.59375	2.28781846089987E-05
2	350	102.878683740256	-0.079193115234375	-0.0791015625	-3.3447265625E-07	2.64573092323417E-08	236496.359375	2.28428252739832E-05
2	351	102.979391740002	-0.069122314453125	-0.069122314453125	-2.99072265625E-07	2.0672567657698E-08	231122.453125	2.28109238378238E-05
2	352	103.080099739748	-0.059051513671875	-0.0589599609375	-2.5970458984375E-07	1.53121728629912E-08	227027.03125	2.27827877097297E-05
2	353	103.180807739494	-0.048980712890625	-0.0488433837890625	-2.1392822265625E-07	1.04489776830974E-08	228316.703125	2.27589371206705E-05
2	354	103.281515739239	-0.038909912109375	-0.03878173828125	-1.57775878906249E-07	6.11882278178655E-09	245802.734375	2.27402215386974E-05
2	355	103.382223738985	-0.028839111328125	-0.0287200927734375	-8.72802734374997E-08	2.50669729418007E-09	329055.9375	2.27278815145837E-05
2	356	103.482931738731	-0.018768310546875	-0.0186614990234375	3.66210937499945E-09	-6.83404513535102E-11	-5095833.5	2.27236705541145E-05
2	357	103.583639738476	-0.008697509765625	-0.0085906982421875	1.21459960937501E-07	-1.04342590123707E-09	-70728.640625	2.27299715334084E-05
2	358	103.684347738222	0.001373291015625	0.00146484375	2.72216796874999E-07	3.98755084507485E-10	5381.166015625	2.27497948799282E-05
2	359	103.785055737968	0.011444091796875	0.0115692138671875	4.608154296875E-07	5.33127231250319E-09	25105.9609375	2.2786705812905E-05
2	360	103.885763737714	0.021514892578125	0.02158203125	6.8634033203125E-07	1.48126186871878E-08	31445.0859375	2.2844469640404E-05
2	361	103.986471737459	0.031585693359375	0.0316436767578125	9.40856933593751E-07	2.97721722830602E-08	33632.828125	2.29264060180867E-05
2	362	104.087179737205	0.041656494140625	0.041748046875	1.2066650390625E-06	5.03759096659451E-08	34597.875	2.30345413001487E-05
2	363	104.187887736951	0.051727294921875	0.051727294921875	1.461181640625E-06	7.55829674403685E-08	35401.00390625	2.31688791245688E-05
2	364	104.288595736697	0.061798095703125	0.061798095703125	1.6778564453125E-06	1.03688329033957E-07	36831.57421875	2.33269420277793E-05
2	365	104.389303736442	0.071868896484375	0.071929931640625	1.83746337890625E-06	1.3216860850207E-07	39146.32421875	2.35039515246172E-05
2	366	104.490011736188	0.081939697265625	0.08197021484375	1.932373046875E-06	1.58397028826585E-07	42419.4609375	2.36937776207924E-05
2	367	104.590719735934	0.092010498046875	0.092041015625	1.96441650390625E-06	1.80806893013141E-07	46854.125	2.38899974647211E-05
2	368	104.69142773568	0.102081298828125	0.10211181640625	1.94732666015625E-06	1.98845057752806E-07	52436.921875	2.40869685512735E-05
2	369	104.792135735425	0.112152099609375	0.112091064453125	1.89788818359375E-06	2.12736310345463E-07	59060.94140625	2.42805908783339E-05
2	370	104.892843735171	0.122222900390625	0.1221923828125	1.8304443359375E-06	2.2366634766513E-07	66755.5859375	2.44683269556845E-05
2	371	104.993551734917	0.132293701171875	0.132354736328125	1.75567626953125E-06	2.3237205937221E-07	75386.7578125	2.46489034907427E-05
2	372	105.094259734663	0.142364501953125	0.142333984375	1.680908203125E-06	2.39250368849753E-07	84676.8359375	2.48219494096702E-05
2	373	105.194967734408	0.152435302734375	0.1524658203125	1.610107421875E-06	2.45486347694168E-07	94692.953125	2.49876648013014E-05
2	374	105.295675734154	0.162506103515625	0.162506103515625	1.544189453125E-06	2.50940217938478E-07	105237.15625	2.51464971370297E-05
2	375	105.3963837339	0.172576904296875	0.172576904296875	1.48651123046875E-06	2.56537504128573E-07	116095.2578125	2.52991048910189E-05
2	376	105.497091733645	0.182647705078125	0.182647705078125	1.43341064453125E-06	2.61809162793725E-07	127421.765625	2.54461338045076E-05
2	377	105.597799733391	0.192718505859375	0.1927490234375	1.3873291015625E-06	2.67406335296982E-07	138935.328125	2.55881695920834E-05
2	378	105.698507733137	0.202789306640625	0.20281982421875	1.34613037109375E-06	2.73021925067951E-07	150668.78125	2.57258107012603E-05
2	379	105.799215732883	0.212860107421875	0.21282958984375	1.309814453125E-06	2.7876725994247E-07	162488.359375	2.58595482591772E-05
2	380	105.899923732628	0.222930908203125	0.22296142578125	1.27777099609375E-06	2.84893616253612E-07	174492.484375	2.59898424701532E-05
2	381	106.000631732374	0.233001708984375	0.232940673828125	1.24847412109375E-06	2.90820395321134E-07	186580.3125	2.61170498561114E-05
2	382	106.10133973212	0.243072509765625	0.243072509765625	1.22344970703125E-06	2.97386975489644E-07	198677.984375	2.62415214820066E-05
2	383	106.202047731866	0.253143310546875	0.253173828125	1.199951171875E-06	3.03796241496457E-07	210986.78125	2.63635483861435E-05
2	384	106.302755731611	0.263214111328125	0.263214111328125	1.1785888671875E-06	3.10221224708584E-07	223329.890625	2.64833179244306E-05
2	385	106.403463731357	0.273284912109375	0.273223876953125	1.16058349609375E-06	3.17099107860486E-07	235419.421875	2.66011047642678E-05
2	386	106.504171731103	0.283355712890625	0.2833251953125	1.14349365234375E-06	3.23980543726066E-07	247771.5625	2.67171235464048E-05
2	387	106.604879730849	0.293426513671875	0.29339599609375	1.12762451171875E-06	3.30840521201026E-07	260189.453125	2.68314834102057E-05
2	388	106.705587730594	0.303497314453125	0.30352783203125	1.11328125E-06	3.3791184250731E-07	272642.5625	2.69443225988653E-05
2	389	106.80629573034	0.313568115234375	0.313629150390625	1.10076904296875E-06	3.45233274856582E-07	284918.21875	2.70558084594086E-05
2	390	106.907003730086	0.323638916015625	0.323638916015625	1.08856201171875E-06	3.52301015027479E-07	297308.6875	2.71660501311999E-05
2	391	107.007711729831	0.333709716796875	0.33367919921875	1.07757568359375E-06	3.5956458077635E-07	309657.3125	2.72751240117941E-05
2	392	107.108419729577	0.343780517578125	0.34381103515625	1.06719970703125E-06	3.66915031690951E-07	322161.84375	2.73831210506614E-05
2	393	107.209127729323	0.353851318359375	0.353851318359375	1.05865478515625E-06	3.74606401010169E-07	334246.1875	2.74901667580707E-05
2	394	107.309835729069	0.363922119140625	0.36395263671875	1.0504150390625E-06	3.82301294621357E-07	346484.625	2.75963666354073E-05
2	395	107.410543728814	0.373992919921875	0.37396240234375	1.04248046875E-06	3.89848480608634E-07	358723.65625	2.77017534244806E-05
2	396	107.51125172856	0.384063720703125	0.38409423828125	1.03546142578125E-06	3.97714757127687E-07	370940.15625	2.78063853329513E-05
2	397	107.611959728306	0.394134521484375	0.3941650390625	1.029052734375E-06	4.05616589205238E-07	383036.8125	2.79103423963534E-05
2	398	107.712667728052	0.404205322265625	0.40423583984375	1.02386474609375E-06	4.13882787597686E-07	394813.75	2.80137137451675E-05
2	399	107.813375727797	0.414276123046875	0.414276123046875	1.0186767578125E-06	4.2201344285786E-07	406680.65625	2.81165648630122E-05
2	400	107.914083727543	0.424346923828125	0.424346923828125	1.01409912109375E-06	4.30329833989163E-07	418447.1875	2.82189230347285E-05
2	401	108.014791727289	0.434417724609375	0.4344482421875	1.009521484375E-06	4.38584834228095E-07	430350.65625	2.83208210021257E-05
2	402	108.115499727035	0.444488525390625	0.444427490234375	1.00616455078125E-06	4.47167195716247E-07	441704.59375	2.84223187918542E-05
2	403	108.21620772678	0.454559326171875	0.45452880859375	1.002197265625E-06	4.55527498388619E-07	453532.3125	2.85234473267337E-05
2	404	108.316915726526	0.464630126953125	0.464630126953125	9.9945068359375E-07	4.6437489231721E-07	464885.5	2.86242375295842E-05
2	405	108.417623726272	0.474700927734375	0.474578857421875	9.9609375E-07	4.72725020017606E-07	476439.96875	2.87247221422149E-05
2	406	108.518331726018	0.484771728515625	0.4847412109375	9.9456787109375E-07	4.82108021060412E-07	487388.8125	2.88249593722867E-05
2	407	108.619039725763	0.494842529296875	0.4947509765625	9.918212890625E-07	4.90704508138151E-07	498830.78125	2.89249819616089E-05
2	408	108.719747725509	0.504913330078125	0.50494384765625	9.906005859375E-07	5.00197700148419E-07	509735.0625	2.90248044620967E-05
2	409	108.820455725255	0.514984130859375	0.514923095703125	9.8876953125E-07	5.09140306803602E-07	520771.59375	2.91244741674745E-05
2	410	108.921163725	0.525054931640625	0.524993896484375	9.87854003906249E-07	5.18617298439494E-07	531448.9375	2.92240056296578E-05
2	411	109.021871724746	0.535125732421875	0.535125732421875	9.87854003906249E-07	5.2862606025883E-07	541705.3125	2.93234897981165E-05
2	412	109.122579724492	0.545196533203125	0.545135498046875	9.8724365234375E-07	5.3818155265617E-07	552179.3125	2.94229448627448E-05
2	413	109.223287724238	0.555267333984375	0.555206298828125	9.88159179687501E-07	5.48632215213729E-07	561859.1875	2.95224144792883E-05
2	414	109.323995723983	0.565338134765625	0.565338134765625	9.8846435546875E-07	5.58816566353926E-07	571935.8125	2.96219441224821E-05
2	415	109.424703723729	0.575408935546875	0.57537841796875	9.89685058593751E-07	5.69443443509954E-07	581375.25	2.97215519822203E-05
2	416	109.525411723475	0.585479736328125	0.58538818359375	9.9029541015625E-07	5.79707204906299E-07	591124.875	2.9821252610418E-05
2	417	109.626119723221	0.595550537109375	0.5955810546875	9.918212890625E-07	5.90709930747835E-07	600492.3125	2.99210605589906E-05
2	418	109.726827722966	0.605621337890625	0.6055908203125	9.93957519531249E-07	6.01931560595403E-07	609272.3125	3.00210522254929E-05
2	419	109.827535722712	0.615692138671875	0.61566162109375	9.967041015625E-07	6.13632437307388E-07	617697.5	3.01212894555647E-05
2	420	109.928243722458	0.625762939453125	0.625732421875	9.98840332031251E-07	6.25006748578016E-07	626458.9375	3.0221772249206E-05
2	421	110.028951722204	0.635833740234375	0.6357421875	1.002197265625E-06	6.37139066839154E-07	634348.375	3.0322533348226E-05
2	422	110.129659721949	0.645904541015625	0.6458740234375	1.00555419921875E-06	6.49461298962706E-07	642306.5625	3.04236309602857E-05
2	423	110.230367721695	0.655975341796875	0.655853271484375	1.0089111328125E-06	6.61697640680359E-07	650060.5	3.05250687233638E-05
2	424	110.331075721441	0.666046142578125	0.665985107421875	1.01226806640625E-06	6.74155444357893E-07	657913.8125	3.06268411804922E-05
2	425	110.431783721187	0.676116943359375	0.676025390625	1.0162353515625E-06	6.8700086330864E-07	665225.25	3.07289847114589E-05
2	426	110.532491720932	0.686187744140625	0.686065673828125	1.0205078125E-06	7.00135331044294E-07	672278.75	3.08315429720096E-05
2	427	110.633199720678	0.696258544921875	0.6961669921875	1.025390625E-06	7.13843064659159E-07	678928.625	3.09345632558689E-05
2	428	110.733907720424	0.706329345703125	0.70623779296875	1.02996826171875E-06	7.27402436950797E-07	685688.9375	3.10380601149518E-05
2	429	110.834615720169	0.716400146484375	0.716278076171875	1.0345458984375E-06	7.41022574857197E-07	692359.875	3.11420153593644E-05
2	430	110.935323719915	0.726470947265625	0.72637939453125	1.03973388671875E-06	7.55241273964202E-07	698620.5	3.12464617309161E-05
2	431	111.036031719661	0.736541748046875	0.736480712890625	1.044921875E-06	7.69564792335586E-07	704818.9375	3.13514356093947E-05
2	432	111.136739719407	0.746612548828125	0.746490478515625	1.05010986328125E-06	7.83897007750056E-07	710868.9375	3.14569260808639E-05
2	433	111.237447719152	0.756683349609375	0.75714111328125	1.05560302734375E-06	7.99240410742641E-07	717259.375	3.15629586111754E-05
2	434	111.338155718898	0.766754150390625	0.76690673828125	1.06170654296875E-06	8.14229849765979E-07	722334.0625	3.1669573218096E-05
2	435	111.438863718644	0.776824951171875	0.77667236328125	1.068115234375E-06	8.29575583338737E-07	727142.875	3.17768171953503E-05
2	436	111.53957171839	0.786895751953125	0.7867431640625	1.07391357421875E-06	8.44894088913861E-07	732594.5625	3.18846796290018E-05
2	437	111.640279718135	0.796966552734375	0.79681396484375	1.08001708984375E-06	8.60572697547468E-07	737779	3.19931386911776E-05
2	438	111.740987717881	0.807037353515625	0.806884765625	1.08642578125E-06	8.76620390499738E-07	742696.625	3.2102227123687E-05
2	439	111.841695717627	0.817108154296875	0.81695556640625	1.09283447265625E-06	8.92797118012822E-07	747556.625	3.22119594784454E-05
2	440	111.942403717373	0.827178955078125	0.82733154296875	1.09893798828125E-06	9.09186098851933E-07	752846.4375	3.23223248415161E-05
2	441	112.043111717118	0.837249755859375	0.8367919921875	1.1053466796875E-06	9.24945254610066E-07	757040.3125	3.24333195749205E-05
2	442	112.143819716864	0.847320556640625	0.84716796875	1.1114501953125E-06	9.41584971769771E-07	762218.5625	3.25449436786585E-05
2	443	112.24452771661	0.857391357421875	0.8575439453125	1.1175537109375E-06	9.58351392910117E-07	767340.3125	3.26571826008148E-05
2	444	112.345235716356	0.867462158203125	0.867919921875	1.12335205078125E-06	9.74979570855794E-07	772616.125	3.27700217894744E-05
2	445	112.445943716101	0.877532958984375	0.8770751953125	1.1285400390625E-06	9.8981445262325E-07	777176.875	3.28834139509127E-05
2	446	112.546651715847	0.887603759765625	0.8880615234375	1.1346435546875E-06	1.00763327282039E-06	782678.875	3.29973736370448E-05
2	447	112.647359715593	0.897674560546875	0.897216796875	1.1395263671875E-06	1.02240221622196E-06	787359.375	3.31118862959556E-05
2	448	112.748067715338	0.907745361328125	0.9075927734375	1.1444091796875E-06	1.03865738765307E-06	793066.6875	3.32268937199842E-05
2	449	112.848775715084	0.917816162109375	0.91796875	1.1492919921875E-06	1.05501408143027E-06	798725.4375	3.3342388633173E-05
2	450	112.94948371483	0.927886962890625	0.92742919921875	1.153564453125E-06	1.06984930425824E-06	803968.25	3.3458349207649E-05
2	451	113.050191714576	0.937957763671875	0.93780517578125	1.15753173828125E-06	1.0855392247322E-06	810176.625	3.35747208737303E-05
2	452	113.150899714321	0.948028564453125	0.9478759765625	1.16180419921875E-06	1.10124631191866E-06	815865.5	3.36915072693955E-05
2	453	113.251607714067	0.958099365234375	0.958251953125	1.16485595703125E-06	1.11622546228318E-06	822635.625	3.38086647388991E-05
2	454	113.352315713813	0.968170166015625	0.968017578125	1.1676025390625E-06	1.1302597613394E-06	829064.3125	3.39261132467072E-05
2	455	113.453023713559	0.978240966796875	0.97808837890625	1.170654296875E-06	1.14500335257617E-06	835505.75	3.40438564307988E-05
2	456	113.553731713304	0.988311767578125	0.98846435546875	1.17340087890625E-06	1.15986495075049E-06	842392.75	3.41618870152161E-05
2	457	113.65443971305	0.998382568359375	0.99884033203125	1.17523193359375E-06	1.17386900910788E-06	849909.125	3.4280150430277E-05
2	458	113.755147712796	1.00845336914063	1.00860595703125	1.177978515625E-06	1.18811612992431E-06	856217.6875	3.43986430380028E-05
2	459	113.855855712542	1.01852416992188	1.0186767578125	1.18011474609375E-06	1.20215543120139E-06	863201.4375	3.45173830282874E-05
2	460	113.956563712287	1.02859497070313	1.029052734375	1.18255615234375E-06	1.21691266485868E-06	870193.5625	3.4636352211237E-05
2	461	114.057271712033	1.03866577148438	1.03851318359375	1.1846923828125E-06	1.23031861676282E-06	876610	3.47555542248301E-05
2	462	114.157979711779	1.04873657226563	1.048583984375	1.187744140625E-06	1.2454495390557E-06	882836.5625	3.48750145349186E-05
2	463	114.258687711525	1.05880737304688	1.058349609375	1.1907958984375E-06	1.26027828173392E-06	888775	3.49947840732057E-05
2	464	114.35939571127	1.06887817382813	1.06903076171875	1.19384765625E-06	1.27625980894663E-06	895449.875	3.51148592017125E-05
2	465	114.460103711016	1.07894897460938	1.0784912109375	1.197509765625E-06	1.29150373595621E-06	900611.625	3.52352763002273E-05
2	466	114.560811710762	1.08901977539063	1.08856201171875	1.201171875E-06	1.30754995097959E-06	906250.0625	3.53560571966227E-05
2	467	114.661519710507	1.09909057617188	1.09893798828125	1.2054443359375E-06	1.32470847802324E-06	911645.625	3.54772419086657E-05
2	468	114.762227710253	1.10916137695313	1.1090087890625	1.20941162109375E-06	1.34124809392233E-06	916982.125	3.5598837712314E-05
2	469	114.862935709999	1.11923217773438	1.11907958984375	1.2139892578125E-06	1.35855054850254E-06	921820.0625	3.57208664354403E-05
2	470	114.963643709745	1.12930297851563	1.12884521484375	1.21795654296875E-06	1.37488439122535E-06	926835.375	3.58433244400658E-05
2	471	115.06435170949	1.13937377929688	1.13922119140625	1.22283935546875E-06	1.39308440338937E-06	931619.75	3.59662299160846E-05
2	472	115.165059709236	1.14944458007813	1.148681640625	1.2274169921875E-06	1.40991130592738E-06	935852.8125	3.60896083293483E-05
2	473	115.265767708982	1.15951538085938	1.1602783203125	1.231689453125E-06	1.42910255362949E-06	942021.8125	3.62134342140052E-05
2	474	115.366475708728	1.16958618164063	1.16912841796875	1.2359619140625E-06	1.44499824727973E-06	945925.9375	3.63376893801615E-05
2	475	115.467183708473	1.17965698242188	1.17950439453125	1.24053955078125E-06	1.46322179261915E-06	950799.5625	3.6462392017711E-05
2	476	115.567891708219	1.18972778320313	1.1895751953125	1.24542236328125E-06	1.48152355450293E-06	955158.0625	3.65875712304842E-05
2	477	115.668599707965	1.19979858398438	1.199951171875	1.24969482421875E-06	1.49957281792013E-06	960195.375	3.67132088285871E-05
2	478	115.769307707711	1.20986938476563	1.20941162109375	1.253662109375E-06	1.51619349253451E-06	964703.0625	3.68392647942528E-05
2	479	115.870015707456	1.21994018554688	1.22039794921875	1.25823974609375E-06	1.53555322413013E-06	969924.8125	3.69657500414178E-05
2	480	115.970723707202	1.23001098632813	1.23016357421875	1.2615966796875E-06	1.55197017193132E-06	975084.75	3.70926318282727E-05
2	481	116.071431706948	1.24008178710938	1.2396240234375	1.265869140625E-06	1.56920168592478E-06	979267.1875	3.72198992408812E-05
2	482	116.172139706694	1.25015258789063	1.25030517578125	1.26953125E-06	1.58730153998476E-06	984855.75	3.73475668311585E-05
2	483	116.272847706439	1.26022338867188	1.26068115234375	1.273193359375E-06	1.60509080160409E-06	990172.625	3.74756054952741E-05
2	484	116.373555706185	1.27029418945313	1.2701416015625	1.27716064453125E-06	1.62217486376903E-06	994504.1875	3.76040261471644E-05
2	485	116.474263705931	1.28036499023438	1.28082275390625	1.28143310546875E-06	1.64128869073465E-06	999523.6875	3.77328615286388E-05
2	486	116.574971705676	1.29043579101563	1.2908935546875	1.28570556640625E-06	1.65970891430334E-06	1004035.1875	3.78621261916123E-05
2	487	116.675679705422	1.30050659179688	1.3006591796875	1.28997802734375E-06	1.67782161497598E-06	1008280.1875	3.79918201360852E-05
2	488	116.776387705168	1.31057739257813	1.31072998046875	1.29425048828125E-06	1.6964128235486E-06	1012732.9375	3.8121947000036E-05
2	489	116.877095704914	1.32064819335938	1.32049560546875	1.29913330078125E-06	1.71549970673368E-06	1016443.5625	3.82525358872954E-05
2	490	116.977803704659	1.33071899414063	1.33056640625	1.30401611328125E-06	1.73507999079447E-06	1020360.375	3.83836159016937E-05
2	491	117.078511704405	1.34078979492188	1.34063720703125	1.30889892578125E-06	1.75475850028306E-06	1024248.125	3.85151834052522E-05
2	492	117.179219704151	1.35086059570313	1.3507080078125	1.3153076171875E-06	1.77659649125417E-06	1026914.1875	3.86473257094622E-05
2	493	117.279927703897	1.36093139648438	1.36077880859375	1.322021484375E-06	1.79897881480429E-06	1029316.6875	3.87801228498574E-05
2	494	117.380635703642	1.37100219726563	1.37115478515625	1.3287353515625E-06	1.82190171926777E-06	1031924.75	3.89136002922896E-05
2	495	117.481343703388	1.38107299804688	1.3812255859375	1.336669921875E-06	1.846242753345E-06	1033333.3125	3.90478126064409E-05
2	496	117.582051703134	1.39114379882813	1.3909912109375	1.3446044921875E-06	1.87033299425821E-06	1034498.4375	3.91828289139085E-05
2	497	117.68275970288	1.40121459960938	1.4007568359375	1.3531494140625E-06	1.89543322903774E-06	1035182.6875	3.93186710425653E-05
2	498	117.783467702625	1.41128540039063	1.4111328125	1.3623046875E-06	1.9223928120482E-06	1035842.375	3.94554044760298E-05
2	499	117.884175702371	1.42135620117188	1.4215087890625	1.37115478515625E-06	1.94910853679175E-06	1036723.8125	3.95930437662173E-05
2	500	117.984883702117	1.43142700195313	1.4312744140625	1.38092041015625E-06	1.97647591448913E-06	1036464.125	3.9731621654937E-05
2	501	118.085591701863	1.44149780273438	1.44134521484375	1.39007568359375E-06	2.00357885660196E-06	1036882.5625	3.98711526941042E-05
2	502	118.186299701608	1.45156860351563	1.451416015625	1.39984130859375E-06	2.03175204660511E-06	1036843.3125	4.00116368837189E-05
2	503	118.287007701354	1.46163940429688	1.461181640625	1.40899658203125E-06	2.05879996428848E-06	1037037.0625	4.0153074223781E-05
2	504	118.3877157011	1.47171020507813	1.47186279296875	1.41815185546875E-06	2.08732490136754E-06	1037873.9375	4.02954319724813E-05
2	505	118.488423700845	1.48178100585938	1.48162841796875	1.42608642578125E-06	2.11293013308023E-06	1038947.125	4.04386482841801E-05
2	506	118.589131700591	1.49185180664063	1.49139404296875	1.43402099609375E-06	2.13869043363957E-06	1040008.5	4.05826685891952E-05
2	507	118.689839700337	1.50192260742188	1.50115966796875	1.44134521484375E-06	2.16368925975985E-06	1041499.125	4.07274528697599E-05
2	508	118.790547700083	1.49185180664063	1.49169921875	1.34918212890625E-06	2.0125737592025E-06	1105632.25	4.08679698011838E-05
2	509	118.891255699828	1.48178100585938	1.48162841796875	1.28753662109375E-06	1.90765081242716E-06	1150746.625	4.10007378377486E-05
2	510	118.991963699574	1.47171020507813	1.47186279296875	1.23992919921875E-06	1.82500559731125E-06	1187054	4.11280052503571E-05
2	511	119.09267169932	1.46163940429688	1.46148681640625	1.19964599609375E-06	1.75326681528531E-06	1218265	4.12508488807362E-05
2	512	119.193379699066	1.45156860351563	1.451416015625	1.16546630859375E-06	1.69157647178508E-06	1245352.25	4.13699417549651E-05
2	513	119.294087698811	1.44149780273438	1.44134521484375	1.13555908203125E-06	1.63673257702612E-06	1269282.5	4.14858077419922E-05
2	514	119.394795698557	1.43142700195313	1.43157958984375	1.109619140625E-06	1.5885080983935E-06	1290154	4.15988615714014E-05
2	515	119.495503698303	1.42135620117188	1.42120361328125	1.0858154296875E-06	1.54316467160243E-06	1308881.5	4.17094088334125E-05
2	516	119.596211698049	1.41128540039063	1.41143798828125	1.0638427734375E-06	1.50154812672554E-06	1326735.5	4.18176532548387E-05
2	517	119.696919697794	1.40121459960938	1.4013671875	1.043701171875E-06	1.46260845212964E-06	1342690.125	4.19237767346203E-05
2	518	119.79762769754	1.39114379882813	1.39129638671875	1.02508544921875E-06	1.42619774123887E-06	1357249.125	4.20279466197826E-05
2	519	119.898335697286	1.38107299804688	1.3818359375	1.00830078125E-06	1.39330620640976E-06	1370460.125	4.21303375333082E-05
2	520	119.999043697032	1.37100219726563	1.37054443359375	9.9212646484375E-07	1.35975335524563E-06	1381421.25	4.22310658905189E-05
2	521	120.099751696777	1.36093139648438	1.3604736328125	9.7686767578125E-07	1.3290027709445E-06	1392689.75	4.23302117269486E-05
2	522	120.200459696523	1.35086059570313	1.3507080078125	9.625244140625E-07	1.30008936594095E-06	1403297.5	4.24278696300462E-05
2	523	120.301167696269	1.34078979492188	1.3409423828125	9.490966796875E-07	1.27268390315294E-06	1412861.75	4.2524126911303E-05
2	524	120.401875696014	1.33071899414063	1.33056640625	9.36279296875001E-07	1.24578173199552E-06	1421121.25	4.26190636062529E-05
2	525	120.50258369576	1.32064819335938	1.32080078125	9.234619140625E-07	1.21970913369296E-06	1430271	4.27127088187262E-05
2	526	120.603291695506	1.31057739257813	1.31072998046875	9.112548828125E-07	1.19440903745271E-06	1438379.125	4.28050952905323E-05
2	527	120.703999695252	1.30050659179688	1.30096435546875	8.990478515625E-07	1.16962917218189E-06	1447046.875	4.28962484875228E-05
2	528	120.804707694997	1.29043579101563	1.28997802734375	8.8714599609375E-07	1.14439876597316E-06	1454076.375	4.29861938755494E-05
2	529	120.905415694743	1.28036499023438	1.280517578125	8.758544921875E-07	1.12154702947009E-06	1462020.875	4.30749678344E-05
2	530	121.006123694489	1.27029418945313	1.270751953125	8.64562988281251E-07	1.09864515707159E-06	1469820	4.3162603105884E-05
2	531	121.106831694235	1.26022338867188	1.26007080078125	8.5357666015625E-07	1.07556695638777E-06	1476224.625	4.32491178798955E-05
2	532	121.20753969398	1.25015258789063	1.25030517578125	8.4259033203125E-07	1.05349511159147E-06	1483882.625	4.33345267083496E-05
2	533	121.308247693726	1.24008178710938	1.240234375	8.319091796875E-07	1.0317623946321E-06	1490829	4.34188441431616E-05
2	534	121.408955693472	1.23001098632813	1.2298583984375	8.209228515625E-07	1.00961881344119E-06	1498141.375	4.35020701843314E-05
2	535	121.509663693218	1.21994018554688	1.2200927734375	8.099365234375E-07	9.88197712104011E-07	1506405.375	4.35841902799439E-05
2	536	121.610371692963	1.20986938476563	1.20941162109375	7.98950195312501E-07	9.66259563028871E-07	1513751	4.3665204429999E-05
2	537	121.711079692709	1.19979858398438	1.19964599609375	7.8887939453125E-07	9.46376019328454E-07	1520696.375	4.37451599282213E-05
2	538	121.811787692455	1.18972778320313	1.18927001953125	7.7880859375E-07	9.26213658658526E-07	1527037.75	4.38241004303563E-05
2	539	121.912495692201	1.17965698242188	1.17919921875	7.6873779296875E-07	9.06494960872806E-07	1533942.125	4.39020222984254E-05
2	540	122.013203691946	1.16958618164063	1.17034912109375	7.58972167968749E-07	8.88262377429783E-07	1542018.625	4.39789509982802E-05
2	541	122.113911691692	1.15951538085938	1.15936279296875	7.4981689453125E-07	8.69309815243469E-07	1546194.625	4.40549229097087E-05
2	542	122.214619691438	1.14944458007813	1.14990234375	7.40966796875001E-07	8.52039420351502E-07	1551894.625	4.41299889644142E-05
2	543	122.315327691183	1.13937377929688	1.1395263671875	7.31811523437501E-07	8.33918477383122E-07	1557131	4.42041491623968E-05
2	544	122.416035690929	1.12930297851563	1.1297607421875	7.2357177734375E-07	8.17462989743944E-07	1561366.5	4.42774362454657E-05
2	545	122.516743690675	1.11923217773438	1.119384765625	7.1533203125E-07	8.00731754679873E-07	1564846.5	4.43498902313877E-05
2	546	122.617451690421	1.10916137695313	1.1090087890625	7.07397460937501E-07	7.84509950335632E-07	1567730.875	4.44215293100569E-05
2	547	122.718159690166	1.09909057617188	1.0992431640625	6.99462890624999E-07	7.68879772294895E-07	1571553.25	4.44923716713674E-05
2	548	122.818867689912	1.08901977539063	1.08917236328125	6.91833496093749E-07	7.5352591011324E-07	1574327.375	4.45624282292556E-05
2	549	122.919575689658	1.07894897460938	1.07879638671875	6.8389892578125E-07	7.37787672733248E-07	1577420.75	4.46317026217002E-05
2	550	123.020283689404	1.06887817382813	1.06903076171875	6.756591796875E-07	7.22300455890945E-07	1582204.125	4.47001621068921E-05
2	551	123.120991689149	1.05880737304688	1.05865478515625	6.66198730468751E-07	7.0527448770008E-07	1589097.625	4.47677302872762E-05
2	552	123.221699688895	1.04873657226563	1.0479736328125	6.5643310546875E-07	6.87924568865128E-07	1596466.75	4.48343271273188E-05
2	553	123.322407688641	1.03866577148438	1.03912353515625	6.45751953125E-07	6.7101603917763E-07	1609168.25	4.48998980573379E-05
2	554	123.423115688387	1.02859497070313	1.0284423828125	6.35681152343751E-07	6.53761446756107E-07	1617858.875	4.49644248874392E-05
2	555	123.523823688132	1.01852416992188	1.0186767578125	6.243896484375E-07	6.36051254332415E-07	1631476	4.50278748758137E-05
2	556	123.624531687878	1.00845336914063	1.00830078125	6.1248779296875E-07	6.17571913608117E-07	1646238.25	4.50901570729911E-05
2	557	123.725239687624	0.998382568359375	0.99853515625	6.0089111328125E-07	6.00010878315516E-07	1661757.25	4.51512532890774E-05
2	558	123.82594768737	0.988311767578125	0.9881591796875	5.89599609374999E-07	5.82618270072999E-07	1675983.5	4.52111999038607E-05
2	559	123.926655687115	0.978240966796875	0.97869873046875	5.77697753906251E-07	5.65392042517487E-07	1694136.375	4.52699787274469E-05
2	560	124.027363686861	0.968170166015625	0.968017578125	5.66711425781249E-07	5.48586626791803E-07	1708131.375	4.53276043117512E-05
2	561	124.128071686607	0.958099365234375	0.958251953125	5.56030273437499E-07	5.32817068688018E-07	1723380.875	4.53841385024134E-05
2	562	124.228779686352	0.948028564453125	0.948486328125	5.462646484375E-07	5.1812452284139E-07	1736312.875	4.54396431450732E-05
2	563	124.329487686098	0.937957763671875	0.9375	5.36193847656249E-07	5.02681757552637E-07	1748434.875	4.54941509815399E-05
2	564	124.430195685844	0.927886962890625	0.92803955078125	5.27038574218749E-07	4.89112608192954E-07	1760857.125	4.5547687477665E-05
2	565	124.53090368559	0.917816162109375	0.91796875	5.18798828125E-07	4.76241098112951E-07	1769411.875	4.56003508588765E-05
2	566	124.631611685335	0.907745361328125	0.908203125	5.10559082031251E-07	4.63691321783699E-07	1778840.5	4.56521811429411E-05
2	567	124.732319685081	0.897674560546875	0.89752197265625	5.023193359375E-07	4.50842634336368E-07	1786755.875	4.57031856058165E-05
2	568	124.833027684827	0.887603759765625	0.887451171875	4.95300292968751E-07	4.39554838749245E-07	1791743.625	4.57534188171849E-05
2	569	124.933735684573	0.877532958984375	0.877685546875	4.8828125E-07	4.28557370923954E-07	1797500.125	4.58029462606646E-05
2	570	125.034443684318	0.867462158203125	0.86761474609375	4.81567382812501E-07	4.17814959519092E-07	1801647.625	4.5851782488171E-05
2	571	125.135151684064	0.857391357421875	0.85723876953125	4.75158691406249E-07	4.07324449724911E-07	1804110.5	4.58999566035345E-05
2	572	125.23585968381	0.847320556640625	0.84747314453125	4.69360351562501E-07	3.97770293147914E-07	1805591.75	4.59475159004796E-05
2	573	125.336567683556	0.837249755859375	0.83770751953125	4.6417236328125E-07	3.88840675213942E-07	1804733.75	4.59945222246461E-05
2	574	125.437275683301	0.827178955078125	0.82733154296875	4.58984375E-07	3.79732256305942E-07	1802526.625	4.60410083178431E-05
2	575	125.537983683047	0.817108154296875	0.8172607421875	4.52880859375E-07	3.70121739479146E-07	1804582.25	4.60869232483674E-05
2	576	125.638691682793	0.807037353515625	0.806884765625	4.47998046875001E-07	3.61482790367518E-07	1801089.875	4.61322888440918E-05
2	577	125.739399682539	0.796966552734375	0.79681396484375	4.4403076171875E-07	3.53809895159429E-07	1794501.75	4.61772033304442E-05
2	578	125.840107682284	0.786895751953125	0.78765869140625	4.3914794921875E-07	3.45898683917767E-07	1793606.75	4.62216776213609E-05
2	579	125.94081568203	0.776824951171875	0.7769775390625	4.345703125E-07	3.37651357540381E-07	1787921.375	4.6265671699075E-05
2	580	126.041523681776	0.766754150390625	0.7672119140625	4.29687500000001E-07	3.29661361320177E-07	1785511.375	4.63091892015655E-05
2	581	126.142231681521	0.756683349609375	0.75653076171875	4.2572021484375E-07	3.22070434322086E-07	1777061	4.63522628706414E-05
2	582	126.242939681267	0.746612548828125	0.74652099609375	4.21752929687499E-07	3.14847426352571E-07	1770043.375	4.63949363620486E-05
2	583	126.343647681013	0.736541748046875	0.736480712890625	4.1839599609375E-07	3.08140585048022E-07	1760248	4.64372424175963E-05
2	584	126.444355680759	0.726470947265625	0.7264404296875	4.1473388671875E-07	3.01279442282976E-07	1751582.125	4.64791919512209E-05
2	585	126.545063680504	0.716400146484375	0.71624755859375	4.107666015625E-07	2.94210565243702E-07	1743685	4.65207594970707E-05
2	586	126.64577168025	0.706329345703125	0.706268310546875	4.08325195312501E-07	2.88387127511669E-07	1729671.25	4.65620069007855E-05
2	587	126.746479679996	0.696258544921875	0.69610595703125	4.046630859375E-07	2.81688386394308E-07	1720211.25	4.66029414383229E-05
2	588	126.847187679742	0.686187744140625	0.68609619140625	4.0130615234375E-07	2.75334627986012E-07	1709657.75	4.66435267298948E-05
2	589	126.947895679487	0.676116943359375	0.676025390625	3.9825439453125E-07	2.69230071126003E-07	1697471.375	4.66837882413529E-05
2	590	127.048603679233	0.666046142578125	0.665924072265625	3.9520263671875E-07	2.63174939618693E-07	1685019.375	4.67237405246124E-05
2	591	127.149311678979	0.655975341796875	0.655853271484375	3.924560546875E-07	2.57393594438327E-07	1671150.875	4.67634017695673E-05
2	592	127.250019678725	0.645904541015625	0.645843505859375	3.90014648437501E-07	2.51888423008495E-07	1655946.875	4.68028047180269E-05
2	593	127.35072767847	0.635833740234375	0.635772705078125	3.8726806640625E-07	2.46214455046356E-07	1641686.5	4.68419420940336E-05
2	594	127.451435678216	0.625762939453125	0.625640869140625	3.8421630859375E-07	2.40381410776536E-07	1628355.875	4.68807884317357E-05
2	595	127.552143677962	0.615692138671875	0.615631103515625	3.82080078124999E-07	2.35220369404487E-07	1611262	4.69193764729425E-05
2	596	127.652851677708	0.605621337890625	0.60565185546875	3.79333496093751E-07	2.29744031798873E-07	1596621.125	4.69577171315905E-05
2	597	127.753559677453	0.595550537109375	0.595550537109375	3.7689208984375E-07	2.24458275965844E-07	1580162	4.69957958557643E-05
2	598	127.854267677199	0.585479736328125	0.585418701171875	3.74755859375001E-07	2.1938907934782E-07	1562133.625	4.70336453872733E-05
2	599	127.954975676945	0.575408935546875	0.575347900390625	3.72314453125E-07	2.14210331250797E-07	1545327.875	4.70712620881386E-05
2	600	128.05568367669	0.565338134765625	0.565338134765625	3.69873046874999E-07	2.09103333759231E-07	1528465.375	4.71086350444239E-05
2	601	128.156391676436	0.555267333984375	0.55517578125	3.680419921875E-07	2.04327989195008E-07	1508457.75	4.71457897219807E-05
2	602	128.257099676182	0.545196533203125	0.545135498046875	3.662109375E-07	1.99634584419073E-07	1488583.375	4.71827625005972E-05
2	603	128.357807675928	0.535125732421875	0.535125732421875	3.63769531249999E-07	1.94662433727899E-07	1471057.125	4.7219520638464E-05
2	604	128.458515675673	0.525054931640625	0.5250244140625	3.6163330078125E-07	1.89866298683228E-07	1451814.375	4.72560459456872E-05
2	605	128.559223675419	0.514984130859375	0.514984130859375	3.5980224609375E-07	1.85292449828012E-07	1431297.75	4.72923748020548E-05
2	606	128.659931675165	0.504913330078125	0.504852294921875	3.5736083984375E-07	1.80414431838472E-07	1412724.25	4.7328485379694E-05
2	607	128.760639674911	0.494842529296875	0.494781494140625	3.558349609375E-07	1.76060538592537E-07	1390480.375	4.73643995064776E-05
2	608	128.861347674656	0.484771728515625	0.484710693359375	3.5430908203125E-07	1.71737397636207E-07	1368044.875	4.74001572001725E-05
2	609	128.962055674402	0.474700927734375	0.474639892578125	3.52783203125E-07	1.67444980547771E-07	1345415.25	4.74357620987576E-05
2	610	129.062763674148	0.464630126953125	0.464630126953125	3.5064697265625E-07	1.62921139690297E-07	1325065.375	4.74711814604234E-05
2	611	129.163471673894	0.454559326171875	0.45458984375	3.48510742187499E-07	1.58429429575335E-07	1304378.375	4.75063898193184E-05
2	612	129.264179673639	0.444488525390625	0.444488525390625	3.466796875E-07	1.54095147308908E-07	1282130.25	4.75413944514003E-05
2	613	129.364887673385	0.434417724609375	0.434417724609375	3.45458984374999E-07	1.50073503846215E-07	1257508.875	4.75762462883722E-05
2	614	129.465595673131	0.424346923828125	0.424285888671875	3.436279296875E-07	1.45796477113436E-07	1234724.625	4.76109453302342E-05
2	615	129.566303672877	0.414276123046875	0.414276123046875	3.42407226562499E-07	1.41851131729709E-07	1209893.125	4.76454879390076E-05
2	616	129.667011672622	0.404205322265625	0.404266357421875	3.40576171875E-07	1.37683485945672E-07	1187007.25	4.76798813906498E-05
2	617	129.767719672368	0.394134521484375	0.394134521484375	3.399658203125E-07	1.33992273276817E-07	1159335.75	4.77141475130338E-05
2	618	129.868427672114	0.384063720703125	0.384033203125	3.3905029296875E-07	1.30206558424106E-07	1132673.375	4.77483408758417E-05
2	619	129.969135671859	0.373992919921875	0.373992919921875	3.38134765625001E-07	1.2646000868699E-07	1106047	4.77824396512005E-05
2	620	130.069843671605	0.363922119140625	0.363983154296875	3.3721923828125E-07	1.22742122243835E-07	1079366.5	4.78164438391104E-05
2	621	130.170551671351	0.353851318359375	0.353851318359375	3.36608886718751E-07	1.19109493823544E-07	1051224	4.78503752674442E-05
2	622	130.271259671097	0.343780517578125	0.34381103515625	3.3599853515625E-07	1.1552000245274E-07	1023251.625	4.78842448501382E-05
2	623	130.371967670842	0.333709716796875	0.333709716796875	3.3538818359375E-07	1.11922290102484E-07	994995.5	4.79180489492137E-05
2	624	130.472675670588	0.323638916015625	0.323638916015625	3.3447265625E-07	1.0824836493839E-07	967609.5	4.79517802887131E-05
2	625	130.573383670334	0.313568115234375	0.31353759765625	3.33557128906251E-07	1.04582696280886E-07	939981.6875	4.79854170407634E-05
2	626	130.67409167008	0.303497314453125	0.303436279296875	3.3294677734375E-07	1.01028128085545E-07	911365.75	4.80189810332377E-05
2	627	130.774799669825	0.293426513671875	0.29339599609375	3.326416015625E-07	9.75957163973362E-08	882018.3125	4.80524940940086E-05
2	628	130.875507669571	0.283355712890625	0.283355712890625	3.3233642578125E-07	9.41694224820822E-08	852617.125	4.80859780509491E-05
2	629	130.976215669317	0.273284912109375	0.27325439453125	3.314208984375E-07	9.05622172808762E-08	824493.5625	4.81194001622498E-05
2	630	131.076923669063	0.263214111328125	0.26324462890625	3.3111572265625E-07	8.71644303401808E-08	795023.125	4.81527640658896E-05
2	631	131.177631668808	0.253143310546875	0.253143310546875	3.30810546875E-07	8.37424778410423E-08	765221.4375	4.81860952277202E-05
2	632	131.278339668554	0.243072509765625	0.243072509765625	3.2928466796875E-07	8.00400457023898E-08	738183.5	4.82193318021018E-05
2	633	131.3790476683	0.233001708984375	0.232940673828125	3.28369140625E-07	7.64905294659002E-08	709386.625	4.82524483231828E-05
2	634	131.479755668046	0.222930908203125	0.222991943359375	3.27453613281251E-07	7.30195139908574E-08	680987.9375	4.82854702568147E-05
2	635	131.580463667791	0.212860107421875	0.212921142578125	3.253173828125E-07	6.9266953062197E-08	654502.8125	4.83183393953368E-05
2	636	131.681171667537	0.202789306640625	0.20281982421875	3.22875976562501E-07	6.54856435744477E-08	628166.375	4.8350979341194E-05
2	637	131.781879667283	0.192718505859375	0.192779541015625	3.1890869140625E-07	6.14790707231805E-08	604497.625	4.83832955069374E-05
2	638	131.882587667028	0.182647705078125	0.182647705078125	3.131103515625E-07	5.71888882916483E-08	583333.3125	4.84151205455419E-05
2	639	131.983295666774	0.172576904296875	0.172637939453125	3.04565429687501E-07	5.2579547826781E-08	566833.6875	4.84462216263637E-05
2	640	132.08400366652	0.162506103515625	0.16253662109375	2.911376953125E-07	4.73205368223262E-08	558280.9375	4.8476220399607E-05
2	641	132.184711666266	0.152435302734375	0.152435302734375	2.72216796874999E-07	4.1495450631146E-08	559977.5625	4.85045857203659E-05
2	642	132.285419666011	0.142364501953125	0.14239501953125	2.44140625E-07	3.4764408241017E-08	583250.0625	4.85305863549002E-05
2	643	132.386127665757	0.132293701171875	0.13232421875	2.0416259765625E-07	2.70156554904588E-08	648131.5625	4.85531600133982E-05
2	644	132.486835665503	0.122222900390625	0.122283935546875	1.4678955078125E-07	1.79500041497249E-08	833056.1875	4.8570833314443E-05
2	645	132.587543665249	0.112152099609375	0.112152099609375	6.561279296875E-08	7.35861194200993E-09	1709302.5	4.85815289721359E-05
2	646	132.688251664994	0.102081298828125	0.1021728515625	-4.60815429687497E-08	-4.70828265264345E-09	-2217218.5	4.85825112264138E-05
2	647	132.78895966474	0.092010498046875	0.092010498046875	-1.93176269531251E-07	-1.77742442986073E-08	-476303.34375	4.85704658785835E-05
2	648	132.889667664486	0.081939697265625	0.08197021484375	-3.79333496093751E-07	-3.10940500014567E-08	-216090.109375	4.85416348965373E-05
2	649	132.990375664232	0.071868896484375	0.071929931640625	-6.04248046875E-07	-4.34635190060817E-08	-119040.40625	4.84921074530575E-05
2	650	133.091083663977	0.061798095703125	0.061859130859375	-8.5479736328125E-07	-5.28770200958206E-08	-72367.015625	4.84186384710483E-05
2	651	133.191791663723	0.051727294921875	0.051788330078125	-1.1138916015625E-06	-5.76865843981977E-08	-46493.15234375	4.83195071865339E-05
2	652	133.292499663469	0.041656494140625	0.0417724609375	-1.3555908203125E-06	-5.66263658186017E-08	-30814.94921875	4.81951610709075E-05
2	653	133.393207663215	0.031585693359375	0.031695556640625	-1.55517578125E-06	-4.92921579109407E-08	-20380.69140625	4.80485905427486E-05
2	654	133.49391566296	0.021514892578125	0.0216033935546875	-1.693115234375E-06	-3.65770347343641E-08	-12759.5537109375	4.78850270155817E-05
2	655	133.594623662706	0.011444091796875	0.0115325927734375	-1.76239013671875E-06	-2.03249275188E-08	-6543.72314453125	4.77110297651961E-05
2	656	133.695331662452	0.001373291015625	0.00145874023437501	-1.771240234375E-06	-2.58377919060138E-09	-823.570007324219	4.75330962217413E-05
2	657	133.796039662197	-0.008697509765625	-0.0086181640625	-1.7340087890625E-06	1.49439713936772E-08	4970.0810546875	4.73565924039576E-05
2	658	133.896747661943	-0.018768310546875	-0.01868896484375	-1.66778564453125E-06	3.11691863430497E-08	11205.8564453125	4.71852981718257E-05
2	659	133.997455661689	-0.028839111328125	-0.028729248046875	-1.5875244140625E-06	4.56083810718155E-08	18096.88671875	4.70213817607146E-05
2	660	134.098163661435	-0.038909912109375	-0.0387451171875	-1.5032958984375E-06	5.82453729691679E-08	25773.447265625	4.68657453893684E-05
2	661	134.19887166118	-0.048980712890625	-0.0488006591796875	-1.4208984375E-06	6.93407784524425E-08	34344.9296875	4.67185018351302E-05
2	662	134.299579660926	-0.059051513671875	-0.058990478515625	-1.3446044921875E-06	7.9318859036448E-08	43871.9921875	4.65792472823523E-05
2	663	134.400287660672	-0.069122314453125	-0.06903076171875	-1.2762451171875E-06	8.81001653851854E-08	54088.95703125	4.64472759631462E-05
2	664	134.500995660418	-0.079193115234375	-0.0791015625	-1.21429443359375E-06	9.60525881055219E-08	65141.99609375	4.63218675577082E-05
2	665	134.601703660163	-0.089263916015625	-0.08917236328125	-1.15936279296875E-06	1.03383122507239E-07	76914.9765625	4.620234540198E-05
2	666	134.702411659909	-0.099334716796875	-0.099273681640625	-1.11236572265625E-06	1.10428636901361E-07	89245.546875	4.60879527963698E-05
2	667	134.803119659655	-0.109405517578125	-0.109344482421875	-1.07177734375E-06	1.17192939796951E-07	102021.640625	4.59779730590526E-05
2	668	134.903827659401	-0.119476318359375	-0.119415283203125	-1.0357666015625E-06	1.23686362485387E-07	115291.6953125	4.58718495792709E-05
2	669	135.004535659146	-0.129547119140625	-0.129486083984375	-1.00433349609375E-06	1.30047212110185E-07	128927.375	4.57691239716951E-05
2	670	135.105243658892	-0.139617919921875	-0.1395263671875	-9.77478027343751E-07	1.36383945914531E-07	142741.1875	4.56693305750377E-05
2	671	135.205951658638	-0.149688720703125	-0.149566650390625	-9.54589843750001E-07	1.42774808864488E-07	156681.59375	4.55720437457785E-05
2	672	135.306659658384	-0.159759521484375	-0.15960693359375	-9.34753417968751E-07	1.49193127185754E-07	170747.640625	4.54769069619942E-05
2	673	135.407367658129	-0.169830322265625	-0.16973876953125	-9.173583984375E-07	1.55711276761394E-07	185029.953125	4.53836473752744E-05
2	674	135.508075657875	-0.179901123046875	-0.179779052734375	-9.0179443359375E-07	1.62123740210518E-07	199357.03125	4.52920467068907E-05
2	675	135.608783657621	-0.189971923828125	-0.1898193359375	-8.8958740234375E-07	1.68860893268175E-07	213379.078125	4.52018430223688E-05
2	676	135.709491657366	-0.200042724609375	-0.199859619140625	-8.80126953125E-07	1.75901831767078E-07	227080.453125	4.51127307314891E-05
2	677	135.810199657112	-0.189971923828125	-0.189910888671875	-7.5408935546875E-07	1.4320977470561E-07	251841.359375	4.50304396508727E-05
