Potential - Start -0.2 V, Upper Vertex 1.5 V, Lower Vertex -0.2 V, Stop -0.19 V; Scan - # end cross 5, Rate 0.1 Vps, Step 0.01 V 
Scan	Index	Time (s)	Potential applied (V)	WE(1).Potential (V)	WE(1).Current (A)	WE(1).Power (W)	WE(1).Resistance (Ω)	WE(1).Charge (C)
1	1	48.7972498767988	-0.189971923828125	-0.18975830078125	-2.301025390625E-07	4.36638636358566E-08	824668.5	0
1	2	48.8979578765445	-0.179901123046875	-0.179656982421875	-1.9805908203125E-07	3.55826976772278E-08	907087.8125	-2.15596500652282E-08
1	3	48.9986658762903	-0.169830322265625	-0.169647216796875	-1.71813964843751E-07	2.91477615377289E-08	987389	-4.01842363828564E-08
1	4	49.099373876036	-0.159759521484375	-0.159637451171875	-1.47705078125E-07	2.35792629865728E-08	1080785.125	-5.62733006859162E-08
1	5	49.2000818757817	-0.149688720703125	-0.1495361328125	-1.263427734375E-07	1.88928090949503E-08	1183574.875	-7.00727014191216E-08
1	6	49.3007898755275	-0.139617919921875	-0.139495849609375	-1.06201171875001E-07	1.48146224177026E-08	1313505.75	-8.17822254362E-08
1	7	49.4014978752732	-0.129547119140625	-0.129486083984375	-8.697509765625E-08	1.12620641701255E-08	1488772	-9.15094204856359E-08
1	8	49.5022058750189	-0.119476318359375	-0.119354248046875	-6.7138671875E-08	8.01328603472484E-09	1777727.25	-9.92696627122314E-08
1	9	49.6029138747647	-0.109405517578125	-0.109222412109375	-4.54711914062503E-08	4.9664730106258E-09	2402013.5	-1.04940021117272E-07
1	10	49.7036218745104	-0.099334716796875	-0.099212646484375	-2.16674804687497E-08	2.14968798317727E-09	4578873.5	-1.08320719505173E-07
1	11	49.8043298742562	-0.089263916015625	-0.089141845703125	6.71386718749945E-09	-5.98486482594751E-10	-13277274	-1.09073695853112E-07
1	12	49.9050378740019	-0.079193115234375	-0.07916259765625	4.15039062499997E-08	-3.28555693762667E-09	-1907353	-1.06645735797883E-07
1	13	50.0057458737476	-0.069122314453125	-0.069091796875	8.48388671875006E-08	-5.8616698161984E-09	-814388.5	-1.00283877202401E-07
1	14	50.1064538734934	-0.059051513671875	-0.05902099609375	1.42822265625001E-07	-8.42951219937049E-09	-413247.875	-8.88202293936047E-08
1	15	50.2071618732391	-0.048980712890625	-0.04884033203125	2.2003173828125E-07	-1.07464233067844E-08	-221969.484375	-7.05490776908846E-08
1	16	50.3078698729848	-0.038909912109375	-0.0387847900390625	3.22875976562501E-07	-1.25226762293096E-08	-120122.8828125	-4.32115001558486E-08
1	17	50.4085778727306	-0.028839111328125	-0.028717041015625	4.5806884765625E-07	-1.31543815840018E-08	-62691.54296875	-3.88780785343101E-09
1	18	50.5092858724763	-0.018768310546875	-0.0186553955078125	6.31103515625001E-07	-1.17734852977947E-08	-29559.962890625	5.09563733430696E-08
1	19	50.609993872222	-0.008697509765625	-0.00855407714843751	8.4259033203125E-07	-7.20758253081044E-09	-10152.1181640625	1.25162756603459E-07
1	20	50.7107018719678	0.001373291015625	0.0014617919921875	1.08673095703125E-06	1.58857460519357E-09	1345.1279296875	2.22311797415387E-07
1	21	50.8114098717135	0.011444091796875	0.011529541015625	1.34979248046875E-06	1.55624864106585E-08	8541.7138671875	3.45000501056347E-07
1	22	50.9121178714593	0.021514892578125	0.0216400146484375	1.6082763671875E-06	3.48031221619749E-08	13455.408203125	4.93951063162967E-07
1	23	51.012825871205	0.031585693359375	0.0316986083984375	1.837158203125E-06	5.82353543165937E-08	17254.15234375	6.67442520807526E-07
1	24	51.1135338709507	0.041656494140625	0.0417633056640625	2.01416015625E-06	8.41179854660368E-08	20734.84765625	8.61371802329813E-07
1	25	51.2142418706965	0.051727294921875	0.05181884765625	2.125244140625E-06	1.10127693631057E-07	24382.541015625	1.06980735381512E-06
1	26	51.3149498704422	0.061798095703125	0.06182861328125	2.17193603515625E-06	1.3428778800062E-07	28467.052734375	1.28618751205067E-06
1	27	51.4156578701879	0.071868896484375	0.07196044921875	2.1649169921875E-06	1.55788384859079E-07	33239.359375	1.50456537539867E-06
1	28	51.5163658699337	0.081939697265625	0.08197021484375	2.12005615234375E-06	1.73781444345877E-07	38664.17578125	1.7203309425895E-06
1	29	51.6170738696794	0.092010498046875	0.09210205078125	2.05291748046875E-06	1.89077894674483E-07	44863.984375	1.93045684682147E-06
1	30	51.7177818694252	0.102081298828125	0.10211181640625	1.97509765625E-06	2.01680805389515E-07	51699.6328125	2.13328348763753E-06
1	31	51.8184898691709	0.112152099609375	0.1121826171875	1.89483642578125E-06	2.12567698554267E-07	59204.3828125	2.32815023082367E-06
1	32	51.9191978689166	0.122222900390625	0.122283935546875	1.81793212890625E-06	2.22303896180165E-07	67265.40625	2.51510300586233E-06
1	33	52.0199058686624	0.132293701171875	0.13232421875	1.7462158203125E-06	2.31066636047217E-07	75777.703125	2.69457200374745E-06
1	34	52.1206138684081	0.142364501953125	0.14239501953125	1.67999267578125E-06	2.3922257241793E-07	84759.3125	2.86709519059514E-06
1	35	52.2213218681538	0.152435302734375	0.1524658203125	1.6217041015625E-06	2.47254433816124E-07	94015.8046875	3.03334900308982E-06
1	36	52.3220298678996	0.162506103515625	0.162567138671875	1.56890869140625E-06	2.55052981401604E-07	103617.9765625	3.19400896842126E-06
1	37	52.4227378676453	0.172576904296875	0.172607421875	1.52191162109375E-06	2.62693248487267E-07	113414.8828125	3.34964420289907E-06
1	38	52.523445867391	0.182647705078125	0.1827392578125	1.4801025390625E-06	2.70472838792557E-07	123463.921875	3.50080767930194E-06
1	39	52.6241538671368	0.192718505859375	0.192779541015625	1.4422607421875E-06	2.78038356782417E-07	133664.84375	3.64796028407E-06
1	40	52.7248618668825	0.202789306640625	0.20281982421875	1.40899658203125E-06	2.8577244393091E-07	143946.28125	3.79153243557084E-06
1	41	52.8255698666283	0.212860107421875	0.212921142578125	1.37908935546875E-06	2.93637270942781E-07	154392.5625	3.93192385672592E-06
1	42	52.926277866374	0.222930908203125	0.22296142578125	1.3519287109375E-06	3.0142794571475E-07	164921	4.06944127462339E-06
1	43	53.0269858661197	0.233001708984375	0.233001708984375	1.32720947265625E-06	3.09242068396998E-07	175557.59375	4.20434662373737E-06
1	44	53.1276938658655	0.243072509765625	0.243072509765625	1.3055419921875E-06	3.1734137451167E-07	186185.125	4.33691639045719E-06
1	45	53.2284018656112	0.253143310546875	0.253143310546875	1.285400390625E-06	3.25390487887489E-07	196937.328125	4.46738067694241E-06
1	46	53.3291098653569	0.263214111328125	0.263214111328125	1.2677001953125E-06	3.33676581476539E-07	207631.203125	4.59593957202742E-06
1	47	53.4298178651027	0.273284912109375	0.273345947265625	1.2506103515625E-06	3.41849272444961E-07	218570.03125	4.72274632556946E-06
1	48	53.5305258648484	0.283355712890625	0.2833251953125	1.23565673828125E-06	3.50092676626446E-07	229291.203125	4.84794009025791E-06
1	49	53.6312338645942	0.293426513671875	0.293426513671875	1.221923828125E-06	3.58544838263697E-07	240134.875	4.97168912261259E-06
1	50	53.7319418643399	0.303497314453125	0.30352783203125	1.209716796875E-06	3.67182707350366E-07	250908.1875	5.09413166582817E-06
1	51	53.8326498640856	0.313568115234375	0.313629150390625	1.19781494140625E-06	3.7566965715996E-07	261834.40625	5.21536048836424E-06
1	52	53.9333578638314	0.323638916015625	0.32366943359375	1.187744140625E-06	3.84436475542316E-07	272507.71875	5.3354829105956E-06
1	53	54.0340658635771	0.333709716796875	0.333770751953125	1.177978515625E-06	3.93174758528403E-07	283342	5.45460670764442E-06
1	54	54.1347738633228	0.343780517578125	0.343841552734375	1.16943359375E-06	4.02099828988867E-07	294024.03125	5.57280827706563E-06
1	55	54.2354818630686	0.353851318359375	0.35382080078125	1.16241455078125E-06	4.11286436019509E-07	304384.375	5.69022631680127E-06
1	56	54.3361898628143	0.363922119140625	0.363983154296875	1.15570068359375E-06	4.20655538846404E-07	314945.875	5.80695268581621E-06
1	57	54.43689786256	0.373992919921875	0.3740234375	1.1492919921875E-06	4.29862126338776E-07	325438.125	5.92301830693032E-06
1	58	54.5376058623058	0.384063720703125	0.384002685546875	1.143798828125E-06	4.39221821579849E-07	335725.71875	6.03848457103595E-06
1	59	54.6383138620515	0.394134521484375	0.394195556640625	1.1395263671875E-06	4.49196221552484E-07	345929.28125	6.15345879850793E-06
1	60	54.7390218617973	0.404205322265625	0.404205322265625	1.13525390625E-06	4.58875661024649E-07	356048.375	6.26800328973331E-06
1	61	54.839729861543	0.414276123046875	0.414337158203125	1.13128662109375E-06	4.68734072001098E-07	366253.0625	6.38213259662734E-06
1	62	54.9404378612887	0.424346923828125	0.42437744140625	1.1285400390625E-06	4.78926949654124E-07	376041.125	6.49592402623966E-06
1	63	55.0411458610345	0.434417724609375	0.43438720703125	1.12640380859375E-06	4.89295359784592E-07	385640.78125	6.60946943753515E-06
1	64	55.1418538607802	0.444488525390625	0.44451904296875	1.12457275390625E-06	4.99893985761446E-07	395278.1875	6.7228152147436E-06
1	65	55.2425618605259	0.454559326171875	0.45458984375	1.12335205078125E-06	5.10664449393516E-07	404672.65625	6.83600683260011E-06
1	66	55.3432698602717	0.464630126953125	0.464630126953125	1.12213134765625E-06	5.21375966400228E-07	414060.40625	6.94907612341922E-06
1	67	55.4439778600174	0.474700927734375	0.474700927734375	1.12213134765625E-06	5.3267677913027E-07	423035.125	7.06208356859861E-06
1	68	55.5446858597631	0.484771728515625	0.48480224609375	1.123046875E-06	5.44455645012931E-07	431684.78125	7.17513739800779E-06
1	69	55.6453938595089	0.494842529296875	0.494781494140625	1.12335205078125E-06	5.55813812752604E-07	440450.96875	7.28825261830934E-06
1	70	55.7461018592546	0.504913330078125	0.50494384765625	1.1248779296875E-06	5.68000189105078E-07	448887.6875	7.40146015232312E-06
1	71	55.8468098590004	0.514984130859375	0.514984130859375	1.126708984375E-06	5.80237269787176E-07	457069.34375	7.51483639760409E-06
1	72	55.9475178587461	0.525054931640625	0.5250244140625	1.1297607421875E-06	5.93151924022095E-07	464721.8125	7.62845866120188E-06
1	73	56.0482258584918	0.535125732421875	0.535064697265625	1.1322021484375E-06	6.0580134686461E-07	472587.625	7.742357411189E-06
1	74	56.1489338582376	0.545196533203125	0.545166015625	1.1358642578125E-06	6.19234526766377E-07	479957.03125	7.85656357038533E-06
1	75	56.2496418579833	0.555267333984375	0.5552978515625	1.14044189453125E-06	6.33284912510135E-07	486914.625	7.97118445916567E-06
1	76	56.350349857729	0.565338134765625	0.5653076171875	1.14501953125E-06	6.47288231903076E-07	493710.03125	8.08626737125451E-06
1	77	56.4510578574748	0.575408935546875	0.57537841796875	1.1505126953125E-06	6.61980152472097E-07	500106.125	8.20185596239753E-06
1	78	56.5517658572205	0.585479736328125	0.585479736328125	1.1572265625E-06	6.77532682402671E-07	505933.5625	8.31806028145365E-06
1	79	56.6524738569663	0.595550537109375	0.595550537109375	1.1651611328125E-06	6.93912284077669E-07	511131.53125	8.43500129121821E-06
1	80	56.753181856712	0.605621337890625	0.605621337890625	1.1737060546875E-06	7.10821382199356E-07	515990.65625	8.55277266964549E-06
1	81	56.8538898564577	0.615692138671875	0.61566162109375	1.1834716796875E-06	7.28618090306554E-07	520216.59375	8.67146627570037E-06
1	82	56.9545978562035	0.625762939453125	0.625762939453125	1.1962890625E-06	7.48593379285012E-07	523086.71875	8.79129675013246E-06
1	83	57.0553058559492	0.635833740234375	0.635772705078125	1.2109375E-06	7.69881012274709E-07	525025.1875	8.91251056600595E-06
1	84	57.1560138556949	0.645904541015625	0.6458740234375	1.22833251953125E-06	7.93348078786948E-07	525813.6875	9.03533691598568E-06
1	85	57.2567218554407	0.655975341796875	0.655914306640625	1.24755859375E-06	8.18291482573841E-07	525758.3125	9.16000863071531E-06
1	86	57.3574298551864	0.666046142578125	0.66595458984375	1.26922607421875E-06	8.45246859171311E-07	524693.4375	9.28673853195505E-06
1	87	57.4581378549321	0.676116943359375	0.67608642578125	1.29119873046875E-06	8.72961948061857E-07	523611.4375	9.41566577239428E-06
1	88	57.5588458546779	0.686187744140625	0.68609619140625	1.31195068359375E-06	9.00124348390818E-07	522958.84375	9.5467448772979E-06
1	89	57.6595538544236	0.696258544921875	0.696197509765625	1.32965087890625E-06	9.25699623621767E-07	523594.21875	9.67976029642159E-06
1	90	57.7602618541694	0.706329345703125	0.706268310546875	1.3446044921875E-06	9.49651507653471E-07	525261	9.81441917247139E-06
1	91	57.8609698539151	0.716400146484375	0.716339111328125	1.356201171875E-06	9.71499844126811E-07	528195.375	9.9504159152275E-06
1	92	57.9616778536608	0.726470947265625	0.7264404296875	1.36566162109375E-06	9.92071704786213E-07	531933	1.00874722193112E-05
1	93	58.0623858534066	0.736541748046875	0.736419677734375	1.375732421875E-06	1.0131163890037E-06	535292.8125	1.02255125966622E-05
1	94	58.1630938531523	0.746612548828125	0.746551513671875	1.3885498046875E-06	1.03662398487359E-06	537648.375	1.03647053038003E-05
1	95	58.263801852898	0.756683349609375	0.75714111328125	1.40655517578125E-06	1.06496077023621E-06	538294.625	1.05054505183944E-05
1	96	58.3645098526438	0.766754150390625	0.7666015625	1.43402099609375E-06	1.09932273062441E-06	534581.8125	1.06484849311528E-05
1	97	58.4652178523895	0.776824951171875	0.7769775390625	1.473388671875E-06	1.14478984869493E-06	527340.5625	1.07948844743078E-05
1	98	58.5659258521353	0.786895751953125	0.78643798828125	1.5283203125E-06	1.20192908070749E-06	514576.6875	1.09460324893007E-05
1	99	58.666633851881	0.796966552734375	0.797119140625	1.6033935546875E-06	1.278095737689E-06	497145.03125	1.1103727047157E-05
1	100	58.7673418516267	0.807037353515625	0.80657958984375	1.69952392578125E-06	1.37080121476174E-06	474591.5	1.12700417957967E-05
1	101	58.8680498513725	0.817108154296875	0.8172607421875	1.81671142578125E-06	1.48472690852941E-06	449857.25	1.14470985863591E-05
1	102	58.9687578511182	0.827178955078125	0.82733154296875	1.95281982421875E-06	1.61562934408721E-06	423659.96875	1.16369092211244E-05
1	103	59.0694658508639	0.837249755859375	0.83740234375	2.09564208984375E-06	1.75489549292251E-06	399592.28125	1.18407651825692E-05
1	104	59.1701738506097	0.847320556640625	0.84716796875	2.23419189453125E-06	1.89273578143911E-06	379183.15625	1.20587901619729E-05
1	105	59.2708818503554	0.857391357421875	0.85784912109375	2.354736328125E-06	2.02000842364214E-06	364307.9375	1.22898609333788E-05
1	106	59.3715898501011	0.867462158203125	0.86761474609375	2.4462890625E-06	2.12243639907683E-06	354665.65625	1.25316119010677E-05
1	107	59.4722978498469	0.877532958984375	0.87738037109375	2.50274658203125E-06	2.19586081584566E-06	350567	1.27808152683428E-05
1	108	59.5730058495926	0.887603759765625	0.88775634765625	2.52777099609375E-06	2.24404470827722E-06	351201.28125	1.30341222757124E-05
1	109	59.6737138493384	0.897674560546875	0.8978271484375	2.52593994140625E-06	2.26785732593271E-06	355442.8125	1.32885961647844E-05
1	110	59.7744218490841	0.907745361328125	0.90789794921875	2.50732421875E-06	2.2763942979509E-06	362098.375	1.35420414153486E-05
1	111	59.8751298488298	0.917816162109375	0.91827392578125	2.4786376953125E-06	2.27606847147399E-06	370475.25	1.3793104699289E-05
1	112	59.9758378485756	0.927886962890625	0.92803955078125	2.4493408203125E-06	2.2730851014785E-06	378893.59375	1.40412485052366E-05
1	113	60.0765458483213	0.937957763671875	0.9381103515625	2.4224853515625E-06	2.27255850404617E-06	387251.21875	1.42865637826617E-05
1	114	60.177253848067	0.948028564453125	0.9478759765625	2.40234375E-06	2.27712371270172E-06	394563.03125	1.45295134643675E-05
1	115	60.2779618478128	0.958099365234375	0.95855712890625	2.39166259765625E-06	2.29254510486498E-06	400791.125	1.47709106386174E-05
1	116	60.3786698475585	0.968170166015625	0.96832275390625	2.39288330078125E-06	2.31708327191882E-06	404667.78125	1.50118321471382E-05
1	117	60.4793778473042	0.978240966796875	0.97808837890625	2.40692138671875E-06	2.35418178817781E-06	406364.90625	1.52535212691873E-05
1	118	60.58008584705	0.988311767578125	0.98846435546875	2.43255615234375E-06	2.40449503507989E-06	406348	1.54972076416016E-05
1	119	60.6807938467957	0.998382568359375	0.99822998046875	2.4658203125E-06	2.46145577875723E-06	404826.75	1.5743860785733E-05
1	120	60.7815018465415	1.00845336914063	1.0089111328125	2.50213623046875E-06	2.52443305726047E-06	403219.9375	1.59940173034556E-05
1	121	60.8822098462872	1.01852416992188	1.0186767578125	2.5347900390625E-06	2.58213162851462E-06	401878.1875	1.62476462719496E-05
1	122	60.9829178460329	1.02859497070313	1.0284423828125	2.5567626953125E-06	2.62948310592037E-06	402243.96875	1.65040273714112E-05
1	123	61.0836258457787	1.03866577148438	1.03851318359375	2.56591796875E-06	2.66473944066092E-06	404733.59375	1.67619746207492E-05
1	124	61.1843338455244	1.04873657226563	1.048583984375	2.562255859375E-06	2.68674034487049E-06	409242.5	1.70201983564766E-05
1	125	61.2850418452701	1.05880737304688	1.058349609375	2.547607421875E-06	2.69625934379292E-06	415428.84375	1.72774998645764E-05
1	126	61.3857498450159	1.06887817382813	1.0687255859375	2.52593994140625E-06	2.69953648057708E-06	423100.15625	1.75329732883256E-05
1	127	61.4864578447616	1.07894897460938	1.0791015625	2.50030517578125E-06	2.69808310804365E-06	431587.96875	1.77860656549456E-05
1	128	61.5871658445074	1.08901977539063	1.0888671875	2.47344970703125E-06	2.69325823865074E-06	440222.09375	1.80365132109728E-05
1	129	61.6878738442531	1.09909057617188	1.0992431640625	2.44720458984375E-06	2.69007273345778E-06	449183.21875	1.82842886715662E-05
1	130	61.7885818439988	1.10916137695313	1.109619140625	2.42279052734375E-06	2.68837470684957E-06	457992.21875	1.85295120900264E-05
1	131	61.8892898437446	1.11923217773438	1.11907958984375	2.40020751953125E-06	2.68602320829814E-06	466242.875	1.87723690032726E-05
1	132	61.9899978434903	1.12930297851563	1.129150390625	2.38067626953125E-06	2.68814164883224E-06	474298.15625	1.90131067938637E-05
1	133	62.090705843236	1.13937377929688	1.13922119140625	2.36358642578125E-06	2.69264774033218E-06	481988.375	1.92519983102102E-05
1	134	62.1914138429818	1.14944458007813	1.14898681640625	2.3486328125E-06	2.69854808720993E-06	489215.1875	1.94892782019451E-05
1	135	62.2921218427275	1.15951538085938	1.15936279296875	2.3358154296875E-06	2.70805753643799E-06	496341.78125	1.97251592908287E-05
1	136	62.3928298424732	1.16958618164063	1.1700439453125	2.3260498046875E-06	2.7215803584113E-06	503017.59375	1.99599016923457E-05
1	137	62.493537842219	1.17965698242188	1.1798095703125	2.31719970703125E-06	2.73385444415908E-06	509153.15625	2.01937091333093E-05
1	138	62.5942458419647	1.18972778320313	1.18988037109375	2.31048583984375E-06	2.74920171250415E-06	514991.4375	2.04267307708506E-05
1	139	62.6949538417105	1.19979858398438	1.19964599609375	2.305908203125E-06	2.76627338280377E-06	520248.84375	2.06591848836979E-05
1	140	62.7956618414562	1.20986938476563	1.209716796875	2.3016357421875E-06	2.78432730738132E-06	525590.0625	2.08911933441414E-05
1	141	62.8963698412019	1.21994018554688	1.2200927734375	2.30010986328125E-06	2.80634731097962E-06	530449.8125	2.11229089472909E-05
1	142	62.9970778409477	1.23001098632813	1.23016357421875	2.298583984375E-06	2.82763426184829E-06	535183.25	2.13544717553305E-05
1	143	63.0977858406934	1.24008178710938	1.240234375	2.298583984375E-06	2.85078272099781E-06	539564.5625	2.15859581658151E-05
1	144	63.1984938404391	1.25015258789063	1.25	2.2998046875E-06	2.87475586446817E-06	543524.4375	2.18175046029501E-05
1	145	63.2992018401849	1.26022338867188	1.26007080078125	2.30194091796875E-06	2.90060847873974E-06	547394.9375	2.2049222025089E-05
1	146	63.3999098399306	1.27029418945313	1.2701416015625	2.3046875E-06	2.92727963824291E-06	551112.25	2.22811831918079E-05
1	147	63.5006178396764	1.28036499023438	1.28021240234375	2.308349609375E-06	2.95517770609877E-06	554600.75	2.25134681386407E-05
1	148	63.6013258394221	1.29043579101563	1.290283203125	2.313232421875E-06	2.98472491522261E-06	557783.625	2.27461841859622E-05
1	149	63.7020338391678	1.30050659179688	1.30096435546875	2.3187255859375E-06	3.01657928503118E-06	561068.6875	2.29794204642531E-05
1	150	63.8027418389136	1.31057739257813	1.3104248046875	2.32513427734375E-06	3.04691343444574E-06	563591.0625	2.32132588280365E-05
1	151	63.9034498386593	1.32064819335938	1.32080078125	2.3321533203125E-06	3.08031007989484E-06	566343.875	2.34477702178992E-05
1	152	64.004157838405	1.33071899414063	1.33087158203125	2.34039306640625E-06	3.11476242131903E-06	568653.0625	2.36830528592691E-05
1	153	64.1048658381508	1.34078979492188	1.34063720703125	2.3492431640625E-06	3.14948260893289E-06	570667.75	2.39191940636374E-05
1	154	64.2055738378965	1.35086059570313	1.35040283203125	2.35870361328125E-06	3.18520005748724E-06	572519.125	2.41562574956333E-05
1	155	64.3062818376422	1.36093139648438	1.36077880859375	2.369384765625E-06	3.22420851261995E-06	574317.375	2.43943359237164E-05
1	156	64.406989837388	1.37100219726563	1.37115478515625	2.381591796875E-06	3.26553072227398E-06	575730.4375	2.46335675910814E-05
1	157	64.5076978371337	1.38107299804688	1.3812255859375	2.39471435546875E-06	3.30764078171342E-06	576780.9375	2.48740725510288E-05
1	158	64.6084058368795	1.39114379882813	1.39068603515625	2.40936279296875E-06	3.35066692969122E-06	577200.8125	2.5115978132817E-05
1	159	64.7091138366252	1.40121459960938	1.4007568359375	2.4261474609375E-06	3.39844245900167E-06	577358.5	2.53594644163968E-05
1	160	64.8098218363709	1.41128540039063	1.4105224609375	2.4468994140625E-06	3.45140642821207E-06	576453	2.56048424489563E-05
1	161	64.9105298361167	1.42135620117188	1.4215087890625	2.47100830078125E-06	3.51255994246458E-06	575274.8125	2.58524778473657E-05
1	162	65.0112378358624	1.43142700195313	1.4312744140625	2.49908447265625E-06	3.5768753150478E-06	572719.5625	2.61027435044525E-05
1	163	65.1119458356081	1.44149780273438	1.441650390625	2.53387451171875E-06	3.65296114068769E-06	568951	2.63561723841121E-05
1	164	65.2126538353539	1.45156860351563	1.45172119140625	2.5750732421875E-06	3.7382883419923E-06	563759.1875	2.66134284174768E-05
1	165	65.3133618350996	1.46163940429688	1.46209716796875	2.62603759765625E-06	3.83952192350989E-06	556769.375	2.687532469281E-05
1	166	65.4140698348453	1.47171020507813	1.47186279296875	2.68768310546875E-06	3.95590086554876E-06	547632.5625	2.71428925771033E-05
1	167	65.5147778345911	1.48178100585938	1.48193359375	2.76123046875E-06	4.09196036343928E-06	536693.1875	2.74172671197448E-05
1	168	65.6154858343368	1.49185180664063	1.49169921875	2.847900390625E-06	4.24821064370917E-06	523789.125	2.7699708880391E-05
1	169	65.7161938340826	1.50192260742188	1.50177001953125	2.94281005859375E-06	4.41942393081263E-06	510318.375	2.79912947007688E-05
1	170	65.8169018338283	1.49185180664063	1.49169921875	2.66448974609375E-06	3.97461735701654E-06	559844.25	2.82736436929554E-05
1	171	65.917609833574	1.48178100585938	1.48193359375	2.46337890625E-06	3.6505639400275E-06	601585.75	2.85318528767675E-05
1	172	66.0183178333198	1.47171020507813	1.47186279296875	2.3065185546875E-06	3.39487883138645E-06	638131.75	2.87720358755905E-05
1	173	66.1190258330655	1.46163940429688	1.46148681640625	2.17803955078125E-06	3.18317597702844E-06	671010.25	2.89978524961043E-05
1	174	66.2197338328112	1.45156860351563	1.451416015625	2.07275390625E-06	3.00842816614022E-06	700235.5625	2.92118966171984E-05
1	175	66.320441832557	1.44149780273438	1.44134521484375	1.98272705078125E-06	2.85779424302746E-06	726950.875	2.94161054625874E-05
1	176	66.4211498323027	1.43142700195313	1.4312744140625	1.90765380859375E-06	2.73037608167215E-06	750280	2.96120015264023E-05
1	177	66.5218578320485	1.42135620117188	1.42120361328125	1.8426513671875E-06	2.61878267338034E-06	771281.9375	2.98008453682996E-05
1	178	66.6225658317942	1.41128540039063	1.4105224609375	1.78741455078125E-06	2.52118820753822E-06	789141.25	2.99836337944726E-05
1	179	66.7232738315399	1.40121459960938	1.4013671875	1.7388916015625E-06	2.43682552536484E-06	805896.8125	3.01611962640891E-05
1	180	66.8239818312857	1.39114379882813	1.3909912109375	1.69647216796875E-06	2.35977790907782E-06	819931.625	3.03341821563663E-05
1	181	66.9246898310314	1.38107299804688	1.3812255859375	1.658935546875E-06	2.29136412599473E-06	832597.5	3.05031389871147E-05
1	182	67.0253978307771	1.37100219726563	1.370849609375	1.62628173828125E-06	2.22938751903712E-06	842934.9375	3.06685615214519E-05
1	183	67.1261058305229	1.36093139648438	1.36077880859375	1.5966796875E-06	2.17272781810607E-06	852255.375	3.08308517560363E-05
1	184	67.2268138302686	1.35086059570313	1.35101318359375	1.57012939453125E-06	2.1212654246483E-06	860447.0625	3.09903152810875E-05
1	185	67.3275218300143	1.34078979492188	1.3409423828125	1.5460205078125E-06	2.07312450584141E-06	867351	3.11472249450162E-05
1	186	67.4282298297601	1.33071899414063	1.33056640625	1.52374267578125E-06	2.02744081434503E-06	873222.5625	3.13017990265507E-05
1	187	67.5289378295058	1.32064819335938	1.3201904296875	1.5032958984375E-06	1.98463681044814E-06	878197.375	3.14542230626103E-05
1	188	67.6296458292516	1.31057739257813	1.31103515625	1.4837646484375E-06	1.94526774066617E-06	883587	3.16046316584107E-05
1	189	67.7303538289973	1.30050659179688	1.30096435546875	1.466064453125E-06	1.90729758742236E-06	887385.5625	3.17531703331042E-05
1	190	67.831061828743	1.29043579101563	1.29058837890625	1.448974609375E-06	1.87002967777516E-06	890690.875	3.18999518640339E-05
1	191	67.9317698284888	1.28036499023438	1.2799072265625	1.43218994140625E-06	1.83307031420554E-06	893671.4375	3.20450308208819E-05
1	192	68.0324778282345	1.27029418945313	1.27044677734375	1.41693115234375E-06	1.8001355783781E-06	896618.5625	3.21884945151396E-05
1	193	68.1331858279802	1.26022338867188	1.25946044921875	1.4013671875E-06	1.76496655512892E-06	898736.9375	3.23304084304255E-05
1	194	68.233893827726	1.25015258789063	1.25	1.3873291015625E-06	1.73416140114568E-06	901011.875	3.24708307744004E-05
1	195	68.3346018274717	1.24008178710938	1.23992919921875	1.3726806640625E-06	1.70202690696897E-06	903290.3125	3.26098088407889E-05
1	196	68.4353098272175	1.23001098632813	1.23046875	1.35894775390625E-06	1.67214273005811E-06	905457	3.27473571815062E-05
1	197	68.5360178269632	1.21994018554688	1.219482421875	1.3458251953125E-06	1.64121013312979E-06	906122.5	3.28835521941073E-05
1	198	68.6367258267089	1.20986938476563	1.209716796875	1.331787109375E-06	1.61108516749664E-06	908341	3.30183793266769E-05
1	199	68.7374338264547	1.19979858398438	1.19964599609375	1.319580078125E-06	1.58302896124951E-06	909111.9375	3.31518858729396E-05
1	200	68.8381418262004	1.18972778320313	1.1895751953125	1.3067626953125E-06	1.55449242811301E-06	910322.3125	3.3284133678535E-05
1	201	68.9388498259461	1.17965698242188	1.18011474609375	1.29425048828125E-06	1.52736402014853E-06	911813.3125	3.34151045535691E-05
1	202	69.0395578256919	1.16958618164063	1.1700439453125	1.28143310546875E-06	1.49933305237937E-06	913074.5	3.35448021360207E-05
1	203	69.1402658254376	1.15951538085938	1.15966796875	1.26922607421875E-06	1.47188075061422E-06	913681.25	3.36732373398263E-05
1	204	69.2409738251833	1.14944458007813	1.14959716796875	1.25640869140625E-06	1.4443637610384E-06	914986.6875	3.38004138029646E-05
1	205	69.3416818249291	1.13937377929688	1.13983154296875	1.24237060546875E-06	1.41609314141533E-06	917465	3.39262369379867E-05
1	206	69.4423898246748	1.12930297851563	1.12884521484375	1.229248046875E-06	1.38763073209702E-06	918321.75	3.40506921929773E-05
1	207	69.5430978244206	1.11923217773438	1.11907958984375	1.21337890625E-06	1.3578675179815E-06	922283.75	3.41736886184663E-05
1	208	69.6438058241663	1.10916137695313	1.1090087890625	1.19659423828125E-06	1.32703348754148E-06	926804.4375	3.42950406775344E-05
1	209	69.744513823912	1.09909057617188	1.09893798828125	1.177978515625E-06	1.29452530472918E-06	932901.625	3.44146101269871E-05
1	210	69.8452218236578	1.08901977539063	1.0888671875	1.15631103515625E-06	1.25906910852791E-06	941673.3125	3.45321495842654E-05
1	211	69.9459298234035	1.07894897460938	1.07879638671875	1.129150390625E-06	1.21812342968042E-06	955405.375	3.4647233405849E-05
1	212	70.0466378231492	1.06887817382813	1.06842041015625	1.09619140625E-06	1.17119316200842E-06	974666	3.47592867910862E-05
1	213	70.147345822895	1.05880737304688	1.0589599609375	1.05560302734375E-06	1.11784129330772E-06	1003180.125	3.48676403518766E-05
1	214	70.2480538226407	1.04873657226563	1.048583984375	1.0052490234375E-06	1.05408798845019E-06	1043108.6875	3.49714100593701E-05
1	215	70.3487618223865	1.03866577148438	1.03912353515625	9.4635009765625E-07	9.83374661700509E-07	1098032.875	3.50696827808861E-05
1	216	70.4494698221322	1.02859497070313	1.0284423828125	8.7890625E-07	9.03904435745062E-07	1170138.875	3.51615926774684E-05
1	217	70.5501778218779	1.01852416992188	1.01806640625	8.08105468750001E-07	8.2270497614445E-07	1259818.75	3.5246539482614E-05
1	218	70.6508858216237	1.00845336914063	1.00830078125	7.37609863281249E-07	7.43732584851386E-07	1366983.875	3.53243704012129E-05
1	219	70.7515938213694	0.998382568359375	0.9979248046875	6.7718505859375E-07	6.75779745051841E-07	1473636.875	3.53956129401922E-05
1	220	70.8523018211151	0.988311767578125	0.98846435546875	6.2835693359375E-07	6.21108426912542E-07	1573093.75	3.54613512172364E-05
1	221	70.9530098208609	0.978240966796875	0.97869873046875	5.94482421875001E-07	5.81819165290653E-07	1646304	3.55229276465252E-05
1	222	71.0537178206066	0.968170166015625	0.96832275390625	5.73120117187501E-07	5.54965197352431E-07	1689563.5	3.55817210220266E-05
1	223	71.1544258203523	0.958099365234375	0.958251953125	5.60607910156249E-07	5.37203561634669E-07	1709308.75	3.56388081854675E-05
1	224	71.2551338200981	0.948028564453125	0.9478759765625	5.5084228515625E-07	5.22130164881673E-07	1720775.625	3.56947748514358E-05
1	225	71.3558418198438	0.937957763671875	0.9381103515625	5.401611328125E-07	5.06730714278092E-07	1736723.25	3.57497119694017E-05
1	226	71.4565498195896	0.927886962890625	0.9283447265625	5.2398681640625E-07	4.86440342228889E-07	1771694.875	3.58032957592513E-05
1	227	71.5572578193353	0.917816162109375	0.91827392578125	4.986572265625E-07	4.57903894357514E-07	1841493.375	3.58547877112869E-05
1	228	71.657965819081	0.907745361328125	0.90789794921875	4.60205078125001E-07	4.17819222775506E-07	1972811.75	3.59030709660146E-05
1	229	71.7586738188268	0.897674560546875	0.8978271484375	4.0435791015625E-07	3.6304351169747E-07	2220377.5	3.59466066583991E-05
1	230	71.8593818185725	0.887603759765625	0.88775634765625	3.28369140625E-07	2.91511781824738E-07	2703531.5	3.59834994014818E-05
1	231	71.9600898183182	0.877532958984375	0.8770751953125	2.29492187499999E-07	2.01281906697659E-07	3821808.5	3.60115918738302E-05
1	232	72.060797818064	0.867462158203125	0.86761474609375	1.116943359375E-07	9.69076481283082E-08	7767759.5	3.60287704097573E-05
1	233	72.1615058178097	0.857391357421875	0.8575439453125	-2.01416015624997E-08	-1.72723080282822E-08	-42575760	3.60333833668847E-05
1	234	72.2622138175554	0.847320556640625	0.84747314453125	-1.52587890625E-07	-1.29314130958846E-07	-5554000	3.60246849595569E-05
1	235	72.3629218173012	0.837249755859375	0.83709716796875	-2.734375E-07	-2.28893739517844E-07	-3061384.25	3.60032317985315E-05
1	236	72.4636298170469	0.827178955078125	0.82763671875	-3.704833984375E-07	-3.06625651091963E-07	-2233937.5	3.59708064934239E-05
1	237	72.5643378167927	0.817108154296875	0.81756591796875	-4.37011718749999E-07	-3.57285898644477E-07	-1870810	3.59301484422758E-05
1	238	72.6650458165384	0.807037353515625	0.806884765625	-4.718017578125E-07	-3.80689641588106E-07	-1710220	3.58843863068614E-05
1	239	72.7657538162841	0.796966552734375	0.797119140625	-4.791259765625E-07	-3.81920472136699E-07	-1663694.375	3.58365032298025E-05
1	240	72.8664618160299	0.786895751953125	0.787353515625	-4.6661376953125E-07	-3.67389986877242E-07	-1687377.375	3.57888784492388E-05
1	241	72.9671698157756	0.776824951171875	0.7769775390625	-4.4097900390625E-07	-3.42630784189168E-07	-1761937.75	3.57431781594642E-05
1	242	73.0678778155213	0.766754150390625	0.76690673828125	-4.08935546875E-07	-3.13615430513892E-07	-1875373.25	3.57003809767775E-05
1	243	73.1685858152671	0.756683349609375	0.7568359375	-3.74450683593749E-07	-2.83397724842871E-07	-2021189.875	3.56609343725722E-05
1	244	73.2692938150128	0.746612548828125	0.746551513671875	-3.41186523437501E-07	-2.54713313552202E-07	-2188103.75	3.5624900192488E-05
1	245	73.3700018147586	0.736541748046875	0.73638916015625	-3.11279296875E-07	-2.29222692382791E-07	-2365686.5	3.55920456058811E-05
1	246	73.4707098145043	0.726470947265625	0.72637939453125	-2.850341796875E-07	-2.07042944566638E-07	-2548394.25	3.55620213667862E-05
1	247	73.57141781425	0.716400146484375	0.716339111328125	-2.64587402343749E-07	-1.89534290484517E-07	-2707382	3.55343436240219E-05
1	248	73.6721258139958	0.706329345703125	0.706268310546875	-2.490234375E-07	-1.75877360675258E-07	-2836152	3.55084812326822E-05
1	249	73.7728338137415	0.696258544921875	0.696197509765625	-2.398681640625E-07	-1.66995619110821E-07	-2902417.25	3.54838630300947E-05
1	250	73.8735418134872	0.686187744140625	0.686126708984375	-2.349853515625E-07	-1.6122972112953E-07	-2919870.25	3.54599542333744E-05
1	251	73.974249813233	0.676116943359375	0.67608642578125	-2.31323242187501E-07	-1.56394506234392E-07	-2922691.25	3.54364747181535E-05
1	252	74.0749578129787	0.666046142578125	0.665985107421875	-2.2857666015625E-07	-1.52228651018049E-07	-2913618.25	3.54133153450675E-05
1	253	74.1756658127244	0.655975341796875	0.655914306640625	-2.2308349609375E-07	-1.46323657190806E-07	-2940219	3.53905707015656E-05
1	254	74.2763738124702	0.645904541015625	0.6458740234375	-2.1484375E-07	-1.38762004553428E-07	-3006250	3.53685209120158E-05
1	255	74.3770818122159	0.635833740234375	0.635711669921875	-2.03552246093749E-07	-1.29400532955515E-07	-3123088.5	3.53474533767439E-05
1	256	74.4777898119617	0.625762939453125	0.62579345703125	-1.8951416015625E-07	-1.18596716447428E-07	-3302093.5	3.53276591340546E-05
1	257	74.5784978117074	0.615692138671875	0.61566162109375	-1.7364501953125E-07	-1.06906576036181E-07	-3545518.5	3.53093746525701E-05
1	258	74.6792058114531	0.605621337890625	0.6055908203125	-1.5838623046875E-07	-9.59172439252143E-08	-3823506.75	3.52926545019727E-05
1	259	74.7799138111989	0.595550537109375	0.595611572265625	-1.4312744140625E-07	-8.52483594826481E-08	-4161407.5	3.52774732164107E-05
1	260	74.8806218109446	0.585479736328125	0.585479736328125	-1.29089355468751E-07	-7.5579201563869E-08	-4535461	3.52637653122656E-05
1	261	74.9813298106903	0.575408935546875	0.57537841796875	-1.1627197265625E-07	-6.69003838993376E-08	-4948556.5	3.52514107362367E-05
1	262	75.0820378104361	0.565338134765625	0.5653076171875	-1.03759765625E-07	-5.86561839099886E-08	-5448235.5	3.52403294527903E-05
1	263	75.1827458101818	0.555267333984375	0.55523681640625	-9.27734375000003E-08	-5.15112255072836E-08	-5984868.5	3.5230434150435E-05
1	264	75.2834538099276	0.545196533203125	0.54510498046875	-8.30078124999995E-08	-4.52479724799559E-08	-6566912	3.52215829479974E-05
1	265	75.3841618096733	0.535125732421875	0.53509521484375	-7.29370117187503E-08	-3.90282473006209E-08	-7336401.5	3.52137321897317E-05
1	266	75.484869809419	0.525054931640625	0.525115966796875	-6.37817382812503E-08	-3.3492806750246E-08	-8233015	3.52068454958498E-05
1	267	75.5855778091648	0.514984130859375	0.514984130859375	-5.4931640625E-08	-2.82889232039452E-08	-9375000	3.52008682966698E-05
1	268	75.6862858089105	0.504913330078125	0.5048828125	-4.66918945312506E-08	-2.35739356924114E-08	-10813072	3.5195753298467E-05
1	269	75.7869938086562	0.494842529296875	0.494873046875	-3.84521484374997E-08	-1.90289313195535E-08	-12869842	3.51914641214535E-05
1	270	75.887701808402	0.484771728515625	0.484771728515625	-3.0517578125E-08	-1.47940584227513E-08	-15885001	3.51879898516927E-05
1	271	75.9884098081477	0.474700927734375	0.47467041015625	-2.31933593749997E-08	-1.10092006622153E-08	-20465790	3.5185286833439E-05
1	272	76.0891178078934	0.464630126953125	0.464630126953125	-1.55639648437497E-08	-7.23148652070904E-09	-29852942	3.51833368767984E-05
1	273	76.1898258076392	0.454559326171875	0.45452880859375	-8.85009765625028E-09	-4.0226244557573E-09	-51358620	3.51821072399616E-05
1	274	76.2905338073849	0.444488525390625	0.444427490234375	-2.74658203125028E-09	-1.22065657581771E-09	-161811104	3.51815215253737E-05
1	275	76.3912418071307	0.434417724609375	0.434478759765625	3.35693359374972E-09	1.45851630772853E-09	129427280	3.51815542671829E-05
1	276	76.4919498068764	0.424346923828125	0.424346923828125	8.85009765625028E-09	3.75551145737063E-09	47948276	3.51821690856013E-05
1	277	76.5926578066221	0.414276123046875	0.414276123046875	1.40380859374997E-08	5.81564352231112E-09	29510870	3.51833186869044E-05
1	278	76.6933658063679	0.404205322265625	0.404205322265625	1.89208984374994E-08	7.64792762453226E-09	21362904	3.51849812432192E-05
1	279	76.7940738061136	0.394134521484375	0.394134521484375	2.31933593749997E-08	9.14130282581027E-09	16993422	3.5187098546885E-05
1	280	76.8947818058593	0.384063720703125	0.384063720703125	2.74658203125E-08	1.05486250845388E-08	13983334	3.51896524080075E-05
1	281	76.9954898056051	0.373992919921875	0.37408447265625	3.14331054687506E-08	1.17586358427957E-08	11900972	3.51926173607353E-05
1	282	77.0961978053508	0.363922119140625	0.36395263671875	3.54003906249997E-08	1.28840653701445E-08	10281035	3.51959824911319E-05
1	283	77.1969058050965	0.353851318359375	0.353851318359375	3.814697265625E-08	1.34983562105617E-08	9276000	3.51996859535575E-05
1	284	77.2976138048423	0.343780517578125	0.343780517578125	4.15039062499997E-08	1.42682345938283E-08	8283088.5	3.52036950062029E-05
1	285	77.398321804588	0.333709716796875	0.333770751953125	4.39453125000003E-08	1.46676599754869E-08	7595139	3.52079987351317E-05
1	286	77.4990298043338	0.323638916015625	0.323638916015625	4.57763671875E-08	1.48150141043857E-08	7070000	3.52125171048101E-05
1	287	77.5997378040795	0.313568115234375	0.3135986328125	4.79125976562494E-08	1.50253249842081E-08	6545223	3.52172355633229E-05
1	288	77.7004458038252	0.303497314453125	0.303466796875	4.8828125E-08	1.48177141667816E-08	6215000	3.52221068169456E-05
1	289	77.801153803571	0.293426513671875	0.29339599609375	4.97436523437506E-08	1.45945877605413E-08	5898159.5	3.52270690200385E-05
1	290	77.9018618033167	0.283355712890625	0.28338623046875	5.035400390625E-08	1.42696316984825E-08	5627879	3.52321112586651E-05
1	291	78.0025698030624	0.273284912109375	0.273284912109375	5.06591796874997E-08	1.38443887465201E-08	5394578.5	3.52371971530374E-05
1	292	78.1032778028082	0.263214111328125	0.263214111328125	5.035400390625E-08	1.32538842123608E-08	5227273	3.52422830474097E-05
1	293	78.2039858025539	0.253143310546875	0.253143310546875	4.97436523437506E-08	1.25922721139204E-08	5088957	3.52473216480576E-05
1	294	78.3046938022997	0.243072509765625	0.243072509765625	4.85229492187503E-08	1.17945946342957E-08	5009434	3.52522692992352E-05
1	295	78.4054018020454	0.233001708984375	0.233001708984375	4.66918945312506E-08	1.08792912456579E-08	4990196	3.52570641553029E-05
1	296	78.5061098017911	0.222930908203125	0.222991943359375	4.51660156250006E-08	1.00716572859483E-08	4937162	3.52616916643456E-05
1	297	78.6068178015369	0.212860107421875	0.21282958984375	4.21142578125006E-08	8.9631599919926E-09	5053623.5	3.52660863427445E-05
1	298	78.7075258012826	0.202789306640625	0.20281982421875	3.90625000000006E-08	7.92264920335128E-09	5192187.5	3.52701717929449E-05
1	299	78.8082338010283	0.192718505859375	0.192718505859375	3.509521484375E-08	6.76349731776327E-09	5491304	3.52739079971798E-05
1	300	78.9089418007741	0.182647705078125	0.18267822265625	2.92968749999997E-08	5.35190070038993E-09	6235417	3.52771494362969E-05
1	301	79.0096498005198	0.172576904296875	0.172576904296875	2.22778320312506E-08	3.84463927360912E-09	7746575.5	3.52797469531652E-05
1	302	79.1103578002655	0.162506103515625	0.16259765625	1.31225585937506E-08	2.13369721890899E-09	12390698	3.52815295627806E-05
1	303	79.2110658000113	0.152435302734375	0.152496337890625	1.52587890625E-09	2.32690935964008E-10	99940000	3.52822680724785E-05
1	304	79.311773799757	0.142364501953125	0.142425537109375	-1.43432617187494E-08	-2.0428467806255E-09	-9929787	3.52816205122508E-05
1	305	79.4124817995028	0.132293701171875	0.13238525390625	-3.509521484375E-08	-4.64608884698237E-09	-3772173.75	3.52791321347468E-05
1	306	79.5131897992485	0.122222900390625	0.122283935546875	-6.43920898437497E-08	-7.87411824632045E-09	-1899052.125	3.52741226379294E-05
1	307	79.6138977989942	0.112152099609375	0.112213134765625	-1.0345458984375E-07	-1.16089635682215E-08	-1084660.75	3.52656716131605E-05
1	308	79.71460579874	0.102081298828125	0.102142333984375	-1.57470703125E-07	-1.60844244589953E-08	-648643.4375	3.52525312337093E-05
1	309	79.8153137984857	0.092010498046875	0.092041015625	-2.32543945312499E-07	-2.14035811296753E-08	-395800.53125	3.52328934241086E-05
1	310	79.9160217982314	0.081939697265625	0.08197021484375	-3.3294677734375E-07	-2.72917173305132E-08	-246196.15625	3.52044189639855E-05
1	311	80.0167297979772	0.071868896484375	0.07196044921875	-4.6722412109375E-07	-3.36216565699488E-08	-154016.984375	3.5164128348697E-05
1	312	80.1174377977229	0.061798095703125	0.061859130859375	-6.390380859375E-07	-3.95303416667048E-08	-96800.3828125	3.51084236172028E-05
1	313	80.2181457974687	0.051727294921875	0.051849365234375	-8.5174560546875E-07	-4.41624692371079E-08	-60874.23828125	3.50333539245185E-05
1	314	80.3188537972144	0.041656494140625	0.0417327880859375	-1.09954833984375E-06	-4.58872158048962E-08	-37954.484375	3.49350993928965E-05
1	315	80.4195617969601	0.031585693359375	0.031671142578125	-1.36962890625E-06	-4.33777138653113E-08	-23123.88671875	3.48107678291854E-05
1	316	80.5202697967059	0.021514892578125	0.02164306640625	-1.6387939453125E-06	-3.54685276704458E-08	-13206.7041015625	3.46592823916581E-05
1	317	80.6209777964516	0.011444091796875	0.011566162109375	-1.88201904296875E-06	-2.17677360581092E-08	-6145.61376953125	3.44819927704521E-05
1	318	80.7216857961973	0.001373291015625	0.001495361328125	-2.07427978515625E-06	-3.10179770757202E-09	-720.90625	3.42827770509757E-05
1	319	80.8223937959431	-0.008697509765625	-0.0085906982421875	-2.2021484375E-06	1.89179925058625E-08	3901.05322265625	3.40674414474051E-05
1	320	80.9231017956888	-0.018768310546875	-0.01864013671875	-2.2625732421875E-06	4.21746726431138E-08	8238.4677734375	3.38426252710633E-05
1	321	81.0238097954345	-0.028839111328125	-0.028729248046875	-2.26654052734375E-06	6.51160050324506E-08	12675.375	3.36145676556043E-05
1	322	81.1245177951803	-0.038909912109375	-0.038775634765625	-2.230224609375E-06	8.64783658016677E-08	17386.42578125	3.33881362166721E-05
1	323	81.225225794926	-0.048980712890625	-0.0488311767578125	-2.16949462890625E-06	1.05938973149478E-07	22508.087890625	3.31665942212567E-05
1	324	81.3259337946718	-0.059051513671875	-0.058990478515625	-2.09808349609375E-06	1.23766952242477E-07	28116.36328125	3.29517024511006E-05
1	325	81.4266417944175	-0.069122314453125	-0.069091796875	-2.025146484375E-06	1.39920999231435E-07	34116.94140625	3.27440830005798E-05
1	326	81.5273497941632	-0.079193115234375	-0.07916259765625	-1.95526123046875E-06	1.54783563743877E-07	40486.96484375	3.25436521961819E-05
1	327	81.628057793909	-0.089263916015625	-0.089111328125	-1.89117431640625E-06	1.6852504813869E-07	47119.57421875	3.23499698424712E-05
1	328	81.7287657936547	-0.099334716796875	-0.09930419921875	-1.8359375E-06	1.82316298946716E-07	54089.09765625	3.21622937917709E-05
1	329	81.8294737934004	-0.109405517578125	-0.109283447265625	-1.7889404296875E-06	1.95501570487977E-07	61088.3671875	3.19797691190615E-05
1	330	81.9301817931462	-0.119476318359375	-0.119384765625	-1.749267578125E-06	2.08835899684345E-07	68248.4296875	3.18016063829418E-05
1	331	82.0308897928919	-0.129547119140625	-0.12945556640625	-1.7169189453125E-06	2.2226470264286E-07	75399.9296875	3.1627067073714E-05
1	332	82.1315977926376	-0.139617919921875	-0.1395263671875	-1.69097900390625E-06	2.35936141734783E-07	82512.1875	3.14554672513623E-05
1	333	82.2323057923834	-0.149688720703125	-0.1495361328125	-1.67144775390625E-06	2.49941848551316E-07	89465.03125	3.12861557176802E-05
1	334	82.3330137921291	-0.159759521484375	-0.159698486328125	-1.65802001953125E-06	2.6478329573365E-07	96318.796875	3.11185031023342E-05
1	335	82.4337217918749	-0.169830322265625	-0.169677734375	-1.6497802734375E-06	2.79930958413388E-07	102848.6953125	3.09519418806303E-05
1	336	82.5344297916206	-0.179901123046875	-0.179840087890625	-1.646728515625E-06	2.96147788958478E-07	109210.53125	3.07859518215992E-05
1	337	82.6351377913663	-0.189971923828125	-0.1898193359375	-1.64764404296875E-06	3.12754679043792E-07	115206.5234375	3.06200672639534E-05
1	338	82.7358457911121	-0.200042724609375	-0.19989013671875	-1.65283203125E-06	3.30384807512019E-07	120937.9609375	3.0453873478109E-05
1	339	82.8365537908578	-0.189971923828125	-0.1898193359375	-1.44866943359375E-06	2.7498546728566E-07	131030.125	3.02977005048888E-05
2	340	82.9372617906035	-0.179901123046875	-0.179718017578125	-1.30035400390625E-06	2.33697022622437E-07	138207	3.01592754112789E-05
2	341	83.0379697903493	-0.169830322265625	-0.169647216796875	-1.1810302734375E-06	2.0035849956912E-07	143643.40625	3.00343290291494E-05
2	342	83.138677790095	-0.159759521484375	-0.159637451171875	-1.0797119140625E-06	1.7236244787E-07	147851.90625	2.99204912153073E-05
2	343	83.2393857898408	-0.149688720703125	-0.1495361328125	-9.9212646484375E-07	1.48358736851151E-07	150722.859375	2.98161648970563E-05
2	344	83.3400937895865	-0.139617919921875	-0.139495849609375	-9.14306640625E-07	1.27541980532442E-07	152570.09375	2.97201695502736E-05
2	345	83.4408017893322	-0.129547119140625	-0.129486083984375	-8.441162109375E-07	1.09301296902231E-07	153398.40625	2.96316247840878E-05
2	346	83.541509789078	-0.119476318359375	-0.119384765625	-7.794189453125E-07	9.30507439989015E-08	153171.5	2.95498739433242E-05
2	347	83.6422177888237	-0.109405517578125	-0.1092529296875	-7.17773437499999E-07	7.84188500801974E-08	152210.875	2.94744841085048E-05
2	348	83.7429257885694	-0.099334716796875	-0.0992431640625	-6.58264160156249E-07	6.53282157259127E-08	150764.953125	2.9405195164145E-05
2	349	83.8436337883152	-0.089263916015625	-0.089202880859375	-5.97229003906249E-07	5.32745438874827E-08	149361.28125	2.93419761874247E-05
2	350	83.9443417880609	-0.079193115234375	-0.0791015625	-5.340576171875E-07	4.22447925529923E-08	148114.28125	2.92850108962739E-05
2	351	84.0450497878066	-0.069122314453125	-0.06903076171875	-4.6234130859375E-07	3.19157713590812E-08	149306.9375	2.92348395305453E-05
2	352	84.1457577875524	-0.059051513671875	-0.059051513671875	-3.79333496093751E-07	2.24002167925619E-08	155671.765625	2.91924570774427E-05
2	353	84.2464657872981	-0.048980712890625	-0.0488555908203125	-2.7801513671875E-07	1.35825937164213E-08	175729.96875	2.91593569272663E-05
2	354	84.3471737870439	-0.038909912109375	-0.03875732421875	-1.51672363281249E-07	5.87841464394501E-09	255533.21875	2.91377200483112E-05
2	355	84.4478817867896	-0.028839111328125	-0.0287139892578125	5.18798828124945E-09	-1.48967838065062E-10	-5534706	2.91303440462798E-05
2	356	84.5485897865353	-0.018768310546875	-0.018634033203125	1.995849609375E-07	-3.7190726054348E-09	-93363.9140625	2.91406558972085E-05
2	357	84.6492977862811	-0.008697509765625	-0.00855102539062499	4.3212890625E-07	-3.69514530085269E-09	-19788.13671875	2.91724645649083E-05
2	358	84.7500057860268	0.001373291015625	0.0014801025390625	6.97021484375E-07	1.03166319931347E-09	2123.4677734375	2.92293225356843E-05
2	359	84.8507137857725	0.011444091796875	0.011541748046875	9.796142578125E-07	1.13064615447911E-08	11781.931640625	2.93137472908711E-05
2	360	84.9514217855183	0.021514892578125	0.021612548828125	1.25640869140625E-06	2.71541935603636E-08	17201.84765625	2.94263409159612E-05
2	361	85.052129785264	0.031585693359375	0.0316925048828125	1.50146484375E-06	4.75851820169737E-08	21107.724609375	2.95652098429855E-05
2	362	85.1528377850098	0.041656494140625	0.04176025390625	1.6937255859375E-06	7.07304081970506E-08	24655.857421875	2.97261012747185E-05
2	363	85.2535457847555	0.051727294921875	0.05181884765625	1.81915283203125E-06	9.42663973546587E-08	28485.154296875	2.99029888992663E-05
2	364	85.3542537845012	0.061798095703125	0.061798095703125	1.8780517578125E-06	1.16060022037345E-07	32905.42578125	3.00891570077511E-05
2	365	85.454961784247	0.071868896484375	0.0718994140625	1.8804931640625E-06	1.35206349227701E-07	38234.33984375	3.02784155792324E-05
2	366	85.5556697839927	0.081939697265625	0.082000732421875	1.8438720703125E-06	1.51198861431112E-07	44472.03125	3.04659515677486E-05
2	367	85.6563777837384	0.092010498046875	0.092041015625	1.78253173828125E-06	1.64066037200428E-07	51634.9921875	3.06485562759917E-05
2	368	85.7570857834842	0.102081298828125	0.10211181640625	1.71051025390625E-06	1.74663298935229E-07	59696.69921875	3.0824445275357E-05
2	369	85.8577937832299	0.112152099609375	0.112213134765625	1.63604736328125E-06	1.83585996182956E-07	68587.953125	3.09929564537015E-05
2	370	85.9585017829756	0.122222900390625	0.122283935546875	1.56341552734375E-06	1.91180603792418E-07	78215.890625	3.11540643451735E-05
2	371	86.0592097827214	0.132293701171875	0.13232421875	1.49627685546875E-06	1.97993657025108E-07	88435.65625	3.13081291096751E-05
2	372	86.1599177824671	0.142364501953125	0.1424560546875	1.435546875E-06	2.04502342171509E-07	99234.6953125	3.14557582896668E-05
2	373	86.2606257822129	0.152435302734375	0.1524658203125	1.38092041015625E-06	2.1054316334812E-07	110408.84375	3.15975812554825E-05
2	374	86.3613337819586	0.162506103515625	0.16259765625	1.33270263671875E-06	2.16694317600741E-07	122005.9609375	3.17342201014981E-05
2	375	86.4620417817043	0.172576904296875	0.172576904296875	1.29058837890625E-06	2.22725745402386E-07	133719.5625	3.18663151119836E-05
2	376	86.5627497814501	0.182647705078125	0.18267822265625	1.25244140625E-06	2.28793766154922E-07	145857.703125	3.19943683280144E-05
2	377	86.6634577811958	0.192718505859375	0.1927490234375	1.21978759765625E-06	2.35112864288567E-07	158018.515625	3.21188526868355E-05
2	378	86.7641657809415	0.202789306640625	0.20281982421875	1.190185546875E-06	2.41393223632258E-07	170410.25	3.22402047459036E-05
2	379	86.8648737806873	0.212860107421875	0.212890625	1.16424560546875E-06	2.47856945634339E-07	182857.15625	3.23587591992691E-05
2	380	86.965581780433	0.222930908203125	0.222991943359375	1.14105224609375E-06	2.5444543894082E-07	195426.59375	3.24748398270458E-05
2	381	87.0662897801787	0.233001708984375	0.233062744140625	1.1199951171875E-06	2.61029128978407E-07	208092.640625	3.25886940117925E-05
2	382	87.1669977799245	0.243072509765625	0.243072509765625	1.10198974609375E-06	2.67863413228042E-07	220576.03125	3.27005800500046E-05
2	383	87.2677057796702	0.253143310546875	0.253143310546875	1.085205078125E-06	2.74712419923162E-07	233267.71875	3.28107125824317E-05
2	384	87.368413779416	0.263214111328125	0.26324462890625	1.070556640625E-06	2.81818302028114E-07	245895.09375	3.29192662320565E-05
2	385	87.4691217791617	0.273284912109375	0.273284912109375	1.05682373046875E-06	2.88813993165604E-07	258590.8125	3.30263865180314E-05
2	386	87.5698297789074	0.283355712890625	0.2833251953125	1.04461669921875E-06	2.95966202656928E-07	271224.09375	3.31322044075932E-05
2	387	87.6705377786532	0.293426513671875	0.293487548828125	1.03363037109375E-06	3.03357637676527E-07	283938.59375	3.32368508679792E-05
2	388	87.7712457783989	0.303497314453125	0.30352783203125	1.024169921875E-06	3.10864066932481E-07	296364.71875	3.33404677803628E-05
2	389	87.8719537781446	0.313568115234375	0.313568115234375	1.01531982421875E-06	3.18371888852198E-07	308836.8125	3.34431642841082E-05
2	390	87.9726617778904	0.323638916015625	0.323638916015625	1.0076904296875E-06	3.26127860716952E-07	321168.96875	3.35450313286856E-05
2	391	88.0733697776361	0.333709716796875	0.333740234375	1.00067138671875E-06	3.33964294441103E-07	333516.34375	3.36461598635651E-05
2	392	88.1740777773819	0.343780517578125	0.34381103515625	9.94262695312501E-07	3.41838472195377E-07	345794.96875	3.37466153723653E-05
2	393	88.2747857771276	0.353851318359375	0.3538818359375	9.8876953125E-07	3.49907594454635E-07	357901.21875	3.38464669766836E-05
2	394	88.3754937768733	0.363922119140625	0.3638916015625	9.844970703125E-07	3.58250218823741E-07	369621.8125	3.39458310918417E-05
2	395	88.4762017766191	0.373992919921875	0.3740234375	9.80529785156251E-07	3.66741119250946E-07	381450.375	3.4044776839437E-05
2	396	88.5769097763648	0.384063720703125	0.384063720703125	9.771728515625E-07	3.75296622223686E-07	393035.625	3.41433551511727E-05
2	397	88.6776177761105	0.394134521484375	0.39410400390625	9.747314453125E-07	3.84145550924586E-07	404320.625	3.42416424246039E-05
2	398	88.7783257758563	0.404205322265625	0.4041748046875	9.722900390625E-07	3.92975096019654E-07	415693.6875	3.43396823154762E-05
2	399	88.879033775602	0.414276123046875	0.414276123046875	9.70458984375E-07	4.02037954927437E-07	426886.8125	3.44375075655989E-05
2	400	88.9797417753477	0.424346923828125	0.424346923828125	9.6954345703125E-07	4.11422774959647E-07	437677.0625	3.4535194572527E-05
2	401	89.0804497750935	0.434417724609375	0.43438720703125	9.686279296875E-07	4.20759562302919E-07	448456.21875	3.4632786992006E-05
2	402	89.1811577748392	0.444488525390625	0.4444580078125	9.6771240234375E-07	4.30107519377998E-07	459287.3125	3.47302920999937E-05
2	403	89.281865774585	0.454559326171875	0.454559326171875	9.686279296875E-07	4.40298833837005E-07	469281.6875	3.48277935700025E-05
2	404	89.3825737743307	0.464630126953125	0.464599609375	9.6893310546875E-07	4.50165970278249E-07	479496.0625	3.49253568856511E-05
2	405	89.4832817740764	0.474700927734375	0.47467041015625	9.6954345703125E-07	4.60213556152667E-07	489581.40625	3.50229674950242E-05
2	406	89.5839897738222	0.484771728515625	0.48480224609375	9.71374511718751E-07	4.7092450472519E-07	499088.9375	3.51207017956767E-05
2	407	89.6846977735679	0.494842529296875	0.494873046875	9.7320556640625E-07	4.8161314225581E-07	508498	3.52186179952696E-05
2	408	89.7854057733136	0.504913330078125	0.504913330078125	9.7503662109375E-07	4.92308970478916E-07	517840.375	3.53167197317816E-05
2	409	89.8861137730594	0.514984130859375	0.51495361328125	9.7808837890625E-07	5.03670150919788E-07	526489.875	3.54150652128737E-05
2	410	89.9868217728051	0.525054931640625	0.524993896484375	9.814453125E-07	5.15252793320542E-07	534919.1875	3.55137381120585E-05
2	411	90.0875297725509	0.535125732421875	0.535064697265625	9.85107421875001E-07	5.2709617648361E-07	543153.6875	3.56127602572087E-05
2	412	90.1882377722966	0.545196533203125	0.545196533203125	9.8907470703125E-07	5.39240090802195E-07	551218.75	3.57121680281125E-05
2	413	90.2889457720423	0.555267333984375	0.555206298828125	9.93957519531249E-07	5.51851485397492E-07	558581.5	3.58120232704096E-05
2	414	90.3896537717881	0.565338134765625	0.5653076171875	9.9945068359375E-07	5.64997094443243E-07	565618.3125	3.5912398743676E-05
2	415	90.4903617715338	0.575408935546875	0.57537841796875	1.0064697265625E-06	5.7910091300073E-07	571679.8125	3.60134035872761E-05
2	416	90.5910697712795	0.585479736328125	0.58544921875	1.01348876953125E-06	5.93346157984342E-07	577657.375	3.61151178367436E-05
2	417	90.6917777710253	0.595550537109375	0.595458984375	1.02294921875E-06	6.09124242600956E-07	582100.25	3.62176615453791E-05
2	418	90.792485770771	0.605621337890625	0.6055908203125	1.03271484375E-06	6.25402662990382E-07	586406.625	3.63211729563773E-05
2	419	90.8931937705167	0.615692138671875	0.615692138671875	1.04461669921875E-06	6.43162252345064E-07	589395.3125	3.64257721230388E-05
2	420	90.9939017702625	0.625762939453125	0.625701904296875	1.0589599609375E-06	6.6259326558793E-07	590864.5625	3.65316955139861E-05
2	421	91.0946097700082	0.635833740234375	0.635772705078125	1.07666015625E-06	6.84511121562537E-07	590504.5	3.66392341675237E-05
2	422	91.195317769754	0.645904541015625	0.645843505859375	1.09710693359375E-06	7.08559355189209E-07	588678.75	3.67486936738715E-05
2	423	91.2960257694997	0.655975341796875	0.655914306640625	1.1199951171875E-06	7.34620812181674E-07	585640.3125	3.68603323295247E-05
2	424	91.3967337692454	0.666046142578125	0.666046142578125	1.14593505859375E-06	7.63245623147668E-07	581225.0625	3.69744302588515E-05
2	425	91.4974417689912	0.676116943359375	0.676055908203125	1.171875E-06	7.92252990322595E-07	576901.0625	3.70911402569618E-05
2	426	91.5981497687369	0.686187744140625	0.686126708984375	1.19659423828125E-06	8.21015248675394E-07	573399.625	3.72104041161947E-05
2	427	91.6988577684826	0.696258544921875	0.6961669921875	1.22039794921875E-06	8.49600780838955E-07	570442.625	3.73321090592071E-05
2	428	91.7995657682284	0.706329345703125	0.70623779296875	1.24114990234375E-06	8.7654694880257E-07	569018.9375	3.74560586351436E-05
2	429	91.9002737679741	0.716400146484375	0.716400146484375	1.2603759765625E-06	9.02933493307501E-07	568401.9375	3.75820200133603E-05
2	430	92.0009817677198	0.726470947265625	0.72637939453125	1.27777099609375E-06	9.2814650543005E-07	568473.875	3.77098258468322E-05
2	431	92.1016897674656	0.736541748046875	0.736480712890625	1.29638671875E-06	9.54763777372136E-07	568102.625	3.78394433937501E-05
2	432	92.2023977672113	0.746612548828125	0.746551513671875	1.3165283203125E-06	9.82856136033661E-07	567060.75	3.79710145352874E-05
2	433	92.3031057669571	0.756683349609375	0.75714111328125	1.34124755859375E-06	1.0155135896639E-06	564505.125	3.81048448616639E-05
2	434	92.4038137667028	0.766754150390625	0.76690673828125	1.37237548828125E-06	1.05248398085678E-06	558817	3.82414873456582E-05
2	435	92.5045217664485	0.776824951171875	0.7769775390625	1.41265869140625E-06	1.09760401301173E-06	550010.8125	3.8381724152714E-05
2	436	92.6052297661943	0.786895751953125	0.7867431640625	1.46575927734375E-06	1.1531760719663E-06	536747.875	3.85266648663674E-05
2	437	92.70593776594	0.796966552734375	0.79742431640625	1.53472900390625E-06	1.22383016787353E-06	519586.40625	3.86777501262259E-05
2	438	92.8066457656857	0.807037353515625	0.80718994140625	1.62200927734375E-06	1.30926957808697E-06	497648.1875	3.88367043342441E-05
2	439	92.9073537654315	0.817108154296875	0.816650390625	1.727294921875E-06	1.41059604175098E-06	472791.53125	3.90053573937621E-05
2	440	93.0080617651772	0.827178955078125	0.82733154296875	1.84906005859375E-06	1.52978566347883E-06	447433.5625	3.91854409826919E-05
2	441	93.108769764923	0.837249755859375	0.83709716796875	1.9775390625E-06	1.65539233876189E-06	423302.46875	3.93781228922307E-05
2	442	93.2094777646687	0.847320556640625	0.8477783203125	2.10235595703125E-06	1.78233176484355E-06	403251.5625	3.9583563193446E-05
2	443	93.3101857644144	0.857391357421875	0.85784912109375	2.21099853515625E-06	1.89670311101509E-06	387991.71875	3.9800757804187E-05
2	444	93.4108937641602	0.867462158203125	0.86761474609375	2.29400634765625E-06	1.99031364900293E-06	378209.40625	4.00276039727032E-05
2	445	93.5116017639059	0.877532958984375	0.8770751953125	2.34710693359375E-06	2.05858918889135E-06	373683.53125	4.02613004553132E-05
2	446	93.6123097636516	0.887603759765625	0.887451171875	2.37152099609375E-06	2.10460893868003E-06	374211.84375	4.04989041271619E-05
2	447	93.7130177633974	0.897674560546875	0.8978271484375	2.373046875E-06	2.13058569897839E-06	378343.625	4.07378101954237E-05
2	448	93.8137257631431	0.907745361328125	0.90789794921875	2.359619140625E-06	2.14229316952697E-06	384764.65625	4.0976119635161E-05
2	449	93.9144337628888	0.917816162109375	0.91827392578125	2.33856201171875E-06	2.14744045479165E-06	392666.0625	4.12126901210286E-05
2	450	94.0151417626346	0.927886962890625	0.927734375	2.3162841796875E-06	2.14889632843551E-06	400527.03125	4.14470814575907E-05
2	451	94.1158497623803	0.937957763671875	0.93841552734375	2.2967529296875E-06	2.15530849345669E-06	408583.59375	4.16793664044235E-05
2	452	94.2165577621261	0.948028564453125	0.9478759765625	2.283935546875E-06	2.16488774640311E-06	415018.6875	4.19100215367507E-05
2	453	94.3172657618718	0.958099365234375	0.958251953125	2.27996826171875E-06	2.18478385249909E-06	420291.8125	4.21398326579947E-05
2	454	94.4179737616175	0.968170166015625	0.96832275390625	2.28729248046875E-06	2.21483719542448E-06	423348.9375	4.23698147642426E-05
2	455	94.5186817613633	0.978240966796875	0.97808837890625	2.30712890625E-06	2.25657595365192E-06	423941.8125	4.26011611125432E-05
2	456	94.619389761109	0.988311767578125	0.9881591796875	2.33612060546875E-06	2.30845898840926E-06	422991.5	4.28349667345174E-05
2	457	94.7200977608547	0.998382568359375	0.99822998046875	2.37213134765625E-06	2.36793266594759E-06	420815.65625	4.30720465374179E-05
2	458	94.8208057606005	1.00845336914063	1.0089111328125	2.40966796875E-06	2.43114095610508E-06	418693	4.33128298027441E-05
2	459	94.9215137603462	1.01852416992188	1.01806640625	2.44171142578125E-06	2.48582432504918E-06	416947.90625	4.35571164416615E-05
2	460	95.022221760092	1.02859497070313	1.0284423828125	2.46307373046875E-06	2.53312941822514E-06	417544.28125	4.38040915469173E-05
2	461	95.1229297598377	1.03866577148438	1.03912353515625	2.471923828125E-06	2.56863427239296E-06	420370.375	4.40525873273145E-05
2	462	95.2236377595834	1.04873657226563	1.04888916015625	2.4676513671875E-06	2.58829254562443E-06	425055.65625	4.43013159383554E-05
2	463	95.3243457593292	1.05880737304688	1.05865478515625	2.4530029296875E-06	2.5968834052037E-06	431575.03125	4.45490913989488E-05
2	464	95.4250537590749	1.06887817382813	1.0687255859375	2.430419921875E-06	2.59745206676598E-06	439728.78125	4.47949896624777E-05
2	465	95.5257617588206	1.07894897460938	1.0791015625	2.4041748046875E-06	2.59434864346986E-06	448844.90625	4.50384322903119E-05
2	466	95.6264697585664	1.08901977539063	1.0888671875	2.3760986328125E-06	2.58725572166441E-06	458258.4375	4.52791355201043E-05
2	467	95.7271777583121	1.09909057617188	1.0992431640625	2.34832763671875E-06	2.58138311437506E-06	468096.1875	4.55170302302577E-05
2	468	95.8278857580578	1.10916137695313	1.10870361328125	2.32208251953125E-06	2.57450119534042E-06	477460.90625	4.57522037322633E-05
2	469	95.9285937578036	1.11923217773438	1.11907958984375	2.29766845703125E-06	2.5712736260175E-06	487050.09375	4.59848270111252E-05
2	470	96.0293017575493	1.12930297851563	1.129150390625	2.27569580078125E-06	2.56960288425034E-06	496178.09375	4.62151147075929E-05
2	471	96.1300097572951	1.13937377929688	1.13922119140625	2.255859375E-06	2.56992279901169E-06	505005.4375	4.64432960143313E-05
2	472	96.2307177570408	1.14944458007813	1.1492919921875	2.23846435546875E-06	2.57264900938026E-06	513428.78125	4.6669603761984E-05
2	473	96.3314257567865	1.15951538085938	1.15936279296875	2.222900390625E-06	2.57714782492258E-06	521554.09375	4.68942525913008E-05
2	474	96.4321337565323	1.16958618164063	1.16912841796875	2.20947265625E-06	2.58315708379087E-06	529143.6875	4.7117438953137E-05
2	475	96.532841756278	1.17965698242188	1.17950439453125	2.19818115234375E-06	2.59276430369937E-06	536582	4.73393811262213E-05
2	476	96.6335497560237	1.18972778320313	1.190185546875	2.18841552734375E-06	2.60462047663168E-06	543857.1875	4.75602646474726E-05
2	477	96.7342577557695	1.19979858398438	1.19964599609375	2.18048095703125E-06	2.61580498772673E-06	550175	4.77802568639163E-05
2	478	96.8349657555152	1.20986938476563	1.209716796875	2.17437744140625E-06	2.63038077719102E-06	556350.875	4.79995396744926E-05
2	479	96.935673755261	1.21994018554688	1.21978759765625	2.16949462890625E-06	2.64632262769737E-06	562245.0625	4.82182731502689E-05
2	480	97.0363817550067	1.23001098632813	1.23016357421875	2.16644287109375E-06	2.66507890955836E-06	567826.5	4.84366028103977E-05
2	481	97.1370897547524	1.24008178710938	1.23992919921875	2.16400146484375E-06	2.68320854956983E-06	572979.8125	4.8654659622116E-05
2	482	97.2377977544982	1.25015258789063	1.25030517578125	2.1630859375E-06	2.70451732831134E-06	578019.25	4.88725454488304E-05
2	483	97.3385057542439	1.26022338867188	1.26068115234375	2.1630859375E-06	2.72696161118802E-06	582816.0625	4.90903839818202E-05
2	484	97.4392137539896	1.27029418945313	1.27044677734375	2.1649169921875E-06	2.75041156783118E-06	586834	4.9308317102259E-05
2	485	97.5399217537354	1.28036499023438	1.28021240234375	2.16766357421875E-06	2.77506978818565E-06	590595.5625	4.95264794153627E-05
2	486	97.6406297534811	1.29043579101563	1.29058837890625	2.17193603515625E-06	2.80307517641631E-06	594211.0625	4.97449946124107E-05
2	487	97.7413377532268	1.30050659179688	1.3006591796875	2.17742919921875E-06	2.83209328699741E-06	597337.0625	4.99640045745764E-05
2	488	97.8420457529726	1.31057739257813	1.3104248046875	2.183837890625E-06	2.86175509245368E-06	600055.9375	5.01836111652665E-05
2	489	97.9427537527183	1.32064819335938	1.31988525390625	2.19268798828125E-06	2.89409672404872E-06	601948.5	5.04039853694849E-05
2	490	98.0434617524641	1.33071899414063	1.33056640625	2.2021484375E-06	2.93010475616029E-06	604212.875	5.06252836203203E-05
2	491	98.1441697522098	1.34078979492188	1.34063720703125	2.21343994140625E-06	2.96741995953198E-06	605680.375	5.08476259710733E-05
2	492	98.2448777519555	1.35086059570313	1.3507080078125	2.225341796875E-06	3.0057867661526E-06	606966.5625	5.10711361130234E-05
2	493	98.3455857517013	1.36093139648438	1.361083984375	2.23907470703125E-06	3.04756849800469E-06	607877.9375	5.129593773745E-05
2	494	98.446293751447	1.37100219726563	1.370849609375	2.25372314453125E-06	3.08951553051884E-06	608260	5.15221690875478E-05
2	495	98.5470017511927	1.38107299804688	1.3812255859375	2.26898193359375E-06	3.13397595164133E-06	608742.4375	5.17499065608718E-05
2	496	98.6477097509385	1.39114379882813	1.39129638671875	2.28668212890625E-06	3.18145248456858E-06	608434.5625	5.19793029525317E-05
2	497	98.7484177506842	1.40121459960938	1.40106201171875	2.30438232421875E-06	3.22858227264078E-06	607999	5.22104783158284E-05
2	498	98.8491257504299	1.41128540039063	1.41143798828125	2.3248291015625E-06	3.28135183735867E-06	607114.75	5.2443578169914E-05
2	499	98.9498337501757	1.42135620117188	1.42120361328125	2.3468017578125E-06	3.3352830541844E-06	605591.6875	5.26788135175593E-05
2	500	99.0505417499214	1.43142700195313	1.4312744140625	2.3724365234375E-06	3.39560756401625E-06	603293.0625	5.29164462932386E-05
2	501	99.1512497496672	1.44149780273438	1.44134521484375	2.40325927734375E-06	3.463926304903E-06	599746.0625	5.31569203303661E-05
2	502	99.2519577494129	1.45156860351563	1.4520263671875	2.43927001953125E-06	3.54188432538649E-06	595270.875	5.34007631358691E-05
2	503	99.3526657491586	1.46163940429688	1.46148681640625	2.48077392578125E-06	3.62561831934727E-06	589125.375	5.36485058546532E-05
2	504	99.4533737489044	1.47171020507813	1.47247314453125	2.5311279296875E-06	3.72701788364793E-06	581745.875	5.390087608248E-05
2	505	99.5540817486501	1.48178100585938	1.48223876953125	2.59124755859375E-06	3.84084751203773E-06	572017.4375	5.41588087799028E-05
2	506	99.6547897483958	1.49185180664063	1.49139404296875	2.66326904296875E-06	3.97198346036021E-06	559986.25	5.44233953405637E-05
2	507	99.7554977481416	1.50192260742188	1.5020751953125	2.74688720703125E-06	4.1260309444624E-06	546828.1875	5.46958181075752E-05
2	508	99.8562057478873	1.49185180664063	1.49200439453125	2.50518798828125E-06	3.7377512853709E-06	595565.875	5.49602809769567E-05
2	509	99.9569137476331	1.48178100585938	1.48193359375	2.33184814453125E-06	3.4556439914013E-06	635518.9375	5.52038436580915E-05
2	510	100.057621747379	1.47171020507813	1.47125244140625	2.1954345703125E-06	3.23003837365832E-06	670141.8125	5.54318103240803E-05
2	511	100.158329747125	1.46163940429688	1.4617919921875	2.08526611328125E-06	3.04822515317937E-06	701009.8125	5.56473605684005E-05
2	512	100.25903774687	1.45156860351563	1.45111083984375	1.99462890625E-06	2.89442732537282E-06	727509.25	5.58528008696157E-05
2	513	100.359745746616	1.44149780273438	1.44134521484375	1.9183349609375E-06	2.76498280982196E-06	751352.25	5.60498338018078E-05
2	514	100.460453746362	1.43142700195313	1.43218994140625	1.8536376953125E-06	2.6547611469141E-06	772637.5	5.62397690373473E-05
2	515	100.561161746107	1.42135620117188	1.422119140625	1.79840087890625E-06	2.55754025602073E-06	790768.75	5.64236615900882E-05
2	516	100.661869745853	1.41128540039063	1.4111328125	1.75048828125E-06	2.47017123911064E-06	806136.75	5.66023627470713E-05
2	517	100.762577745599	1.40121459960938	1.4007568359375	1.708984375E-06	2.39387145484216E-06	819642.875	5.67765600862913E-05
2	518	100.863285745345	1.39114379882813	1.3916015625	1.6717529296875E-06	2.32641400543798E-06	832420.625	5.69467956665903E-05
2	519	100.96399374509	1.38107299804688	1.380615234375	1.639404296875E-06	2.26338647735247E-06	842144.5	5.71135242353193E-05
2	520	101.064701744836	1.37100219726563	1.37115478515625	1.6094970703125E-06	2.2068695670896E-06	851915.0625	5.72771205042955E-05
2	521	101.165409744582	1.36093139648438	1.36077880859375	1.583251953125E-06	2.1544556148001E-06	859483.4375	5.74378864257596E-05
2	522	101.266117744328	1.35086059570313	1.3507080078125	1.558837890625E-06	2.10553480428644E-06	866483.9375	5.75961057620589E-05
2	523	101.366825744073	1.34078979492188	1.34063720703125	1.5374755859375E-06	2.061196937575E-06	871973	5.77520149818156E-05
2	524	101.467533743819	1.33071899414063	1.33087158203125	1.51763916015625E-06	2.0197828689561E-06	876935.4375	5.79058541916311E-05
2	525	101.568241743565	1.32064819335938	1.32049560546875	1.497802734375E-06	1.97784197553119E-06	881621.875	5.80576925131027E-05
2	526	101.668949743311	1.31057739257813	1.31072998046875	1.4801025390625E-06	1.9400147266424E-06	885567.0625	5.82076427235734E-05
2	527	101.769657743056	1.30050659179688	1.30035400390625	1.463623046875E-06	1.90322805337928E-06	888448.75	5.83558721700683E-05
2	528	101.870365742802	1.29043579101563	1.29058837890625	1.44683837890625E-06	1.86727277196042E-06	892005.875	5.85024245083332E-05
2	529	101.971073742548	1.28036499023438	1.28021240234375	1.4306640625E-06	1.83155384547717E-06	894837.875	5.86473179282621E-05
2	530	102.071781742294	1.27029418945313	1.27044677734375	1.41571044921875E-06	1.79858466253791E-06	897391.75	5.8790643379325E-05
2	531	102.172489742039	1.26022338867188	1.26007080078125	1.40106201171875E-06	1.76543721863709E-06	899368.375	5.89324808970559E-05
2	532	102.273197741785	1.25015258789063	1.25030517578125	1.3861083984375E-06	1.73305841144611E-06	902025.5625	5.90728268434759E-05
2	533	102.373905741531	1.24008178710938	1.23992919921875	1.3720703125E-06	1.70126998000342E-06	903692.1875	5.92117103224155E-05
2	534	102.474613741276	1.23001098632813	1.22955322265625	1.3580322265625E-06	1.66977281423897E-06	905393.3125	5.93491822655778E-05
2	535	102.575321741022	1.21994018554688	1.21978759765625	1.3446044921875E-06	1.640131813474E-06	907172.0625	5.94852717767935E-05
2	536	102.676029740768	1.20986938476563	1.209716796875	1.3311767578125E-06	1.61034677148564E-06	908757.5	5.9620007959893E-05
2	537	102.776737740514	1.19979858398438	1.1993408203125	1.31805419921875E-06	1.58079615175666E-06	909932.875	5.97534053667914E-05
2	538	102.877445740259	1.18972778320313	1.18988037109375	1.3043212890625E-06	1.55198620177543E-06	912260.1875	5.98854530835524E-05
2	539	102.978153740005	1.17965698242188	1.1798095703125	1.29119873046875E-06	1.52336860992364E-06	913732	6.00161474721972E-05
2	540	103.078861739751	1.16958618164063	1.16912841796875	1.2786865234375E-06	1.49494871948264E-06	914319.875	6.01455540163442E-05
2	541	103.179569739497	1.15951538085938	1.15966796875	1.26556396484375E-06	1.46763397879113E-06	916325.0625	6.0273665440036E-05
2	542	103.280277739242	1.14944458007813	1.14959716796875	1.25244140625E-06	1.43980309985636E-06	917885	6.04004562774207E-05
2	543	103.380985738988	1.13937377929688	1.13922119140625	1.23870849609375E-06	1.4111629980107E-06	919684.6875	6.05258974246681E-05
2	544	103.481693738734	1.12930297851563	1.12945556640625	1.22467041015625E-06	1.38321081522008E-06	922252.6875	6.06499379500747E-05
2	545	103.58240173848	1.11923217773438	1.119384765625	1.20849609375E-06	1.35277207391482E-06	926262.625	6.07724578003399E-05
2	546	103.683109738225	1.10916137695313	1.109619140625	1.19171142578125E-06	1.32234572447487E-06	931114	6.08933187322691E-05
2	547	103.783817737971	1.09909057617188	1.0992431640625	1.17218017578125E-06	1.28851104364003E-06	937776.625	6.10123497608583E-05
2	548	103.884525737717	1.08901977539063	1.0888671875	1.14990234375E-06	1.25209089674172E-06	946921.4375	6.11292780376971E-05
2	549	103.985233737463	1.07894897460938	1.0784912109375	1.12274169921875E-06	1.21086702620232E-06	960587.1875	6.1243714299053E-05
2	550	104.085941737208	1.06887817382813	1.06903076171875	1.0894775390625E-06	1.16468504529621E-06	981232.5	6.13551092101261E-05
2	551	104.186649736954	1.05880737304688	1.0589599609375	1.048583984375E-06	1.11040844785748E-06	1009895.25	6.14627642789856E-05
2	552	104.2873577367	1.04873657226563	1.048583984375	9.9853515625E-07	1.04704793102428E-06	1050122.25	6.15658427705057E-05
2	553	104.388065736445	1.03866577148438	1.03851318359375	9.39331054687501E-07	9.75507646217011E-07	1105588.125	6.16634279140271E-05
2	554	104.488773736191	1.02859497070313	1.0284423828125	8.7249755859375E-07	8.97313441328151E-07	1178733.875	6.17546611465514E-05
2	555	104.589481735937	1.01852416992188	1.01806640625	8.0169677734375E-07	8.16180545371026E-07	1269889.625	6.18389603914693E-05
2	556	104.690189735683	1.00845336914063	1.0089111328125	7.3272705078125E-07	7.39256449833192E-07	1376926.375	6.19162237853743E-05
2	557	104.790897735428	0.998382568359375	0.99822998046875	6.7169189453125E-07	6.70502970478992E-07	1486142.75	6.19869460933842E-05
2	558	104.891605735174	0.988311767578125	0.9881591796875	6.23779296875E-07	6.16393208474619E-07	1584148.75	6.20521750533953E-05
2	559	104.99231373492	0.978240966796875	0.977783203125	5.91430664062501E-07	5.78290951125382E-07	1653250.875	6.21133658569306E-05
2	560	105.093021734666	0.968170166015625	0.9686279296875	5.70068359375001E-07	5.52184076241247E-07	1699143.625	6.21718500042334E-05
2	561	105.193729734411	0.958099365234375	0.958251953125	5.56640625E-07	5.33401930624677E-07	1721491.25	6.22285879217088E-05
2	562	105.294437734157	0.948028564453125	0.94818115234375	5.462646484375E-07	5.17957801093871E-07	1735754.25	6.22841253061779E-05
2	563	105.395145733903	0.937957763671875	0.93780517578125	5.3436279296875E-07	5.01128170071752E-07	1754997.25	6.23385349172167E-05
2	564	105.495853733649	0.927886962890625	0.92803955078125	5.16662597656251E-07	4.79483276194514E-07	1796219.875	6.23914602329023E-05
2	565	105.596561733394	0.917816162109375	0.91796875	4.8980712890625E-07	4.49627634679928E-07	1874143.375	6.24421372776851E-05
2	566	105.69726973314	0.907745361328125	0.90850830078125	4.49523925781251E-07	4.08396203965822E-07	2021045.5	6.24894382781349E-05
2	567	105.797977732886	0.897674560546875	0.8984375	3.91540527343751E-07	3.51774673390537E-07	2294622	6.25317916274071E-05
2	568	105.898685732632	0.887603759765625	0.887451171875	3.125E-07	2.77328496167684E-07	2839843.75	6.25672400929034E-05
2	569	105.999393732377	0.877532958984375	0.87799072265625	2.11486816406251E-07	1.85683447284646E-07	4151515.25	6.25936227152124E-05
2	570	106.100101732123	0.867462158203125	0.8673095703125	9.002685546875E-08	7.80811504341727E-08	9633899	6.26088076387532E-05
2	571	106.200809731869	0.857391357421875	0.85693359375	-4.54711914062503E-08	-3.89657905941476E-08	-18845638	6.26110486336984E-05
2	572	106.301517731614	0.847320556640625	0.84716796875	-1.80969238281251E-07	-1.53311347617091E-07	-4681281.5	6.25996472081169E-05
2	573	106.40222573136	0.837249755859375	0.83709716796875	-3.0517578125E-07	-2.55461770848342E-07	-2743000	6.25751708867028E-05
2	574	106.502933731106	0.827178955078125	0.82794189453125	-4.04968261718749E-07	-3.3529019560774E-07	-2044461.25	6.25394095550291E-05
2	575	106.603641730852	0.817108154296875	0.8172607421875	-4.742431640625E-07	-3.8758031450925E-07	-1723294.75	6.24951426289044E-05
2	576	106.704349730597	0.807037353515625	0.806884765625	-5.108642578125E-07	-4.12208578381978E-07	-1579450.375	6.24455351498909E-05
2	577	106.805057730343	0.796966552734375	0.797119140625	-5.2001953125E-07	-4.14517501212686E-07	-1532863.875	6.23936284682713E-05
2	578	106.905765730089	0.786895751953125	0.787353515625	-5.0811767578125E-07	-4.00068216777072E-07	-1549549.625	6.23418527538888E-05
2	579	107.006473729835	0.776824951171875	0.77667236328125	-4.8248291015625E-07	-3.74731143892859E-07	-1609740.75	6.22919760644436E-05
2	580	107.10718172958	0.766754150390625	0.76690673828125	-4.49523925781251E-07	-3.4474291510378E-07	-1706042.125	6.22450461378321E-05
2	581	107.207889729326	0.756683349609375	0.7568359375	-4.1473388671875E-07	-3.13885493596899E-07	-1824871.25	6.22015286353417E-05
2	582	107.308597729072	0.746612548828125	0.746551513671875	-3.802490234375E-07	-2.83875493778396E-07	-1963322.625	6.21614963165484E-05
2	583	107.409305728818	0.736541748046875	0.736480712890625	-3.48510742187499E-07	-2.56671427223409E-07	-2113222.5	6.21247963863425E-05
2	584	107.510013728563	0.726470947265625	0.726409912109375	-3.21350097656251E-07	-2.33431890706015E-07	-2260494	6.20910723228008E-05
2	585	107.610721728309	0.716400146484375	0.716339111328125	-2.9937744140625E-07	-2.14455766922583E-07	-2392762.5	6.20598148088902E-05
2	586	107.711429728055	0.706329345703125	0.706268310546875	-2.838134765625E-07	-2.00448468490322E-07	-2488494.5	6.20304490439594E-05
2	587	107.812137727801	0.696258544921875	0.696197509765625	-2.7496337890625E-07	-1.91428824791728E-07	-2531964.5	6.20023129158653E-05
2	588	107.912845727546	0.686187744140625	0.68609619140625	-2.703857421875E-07	-1.855106148696E-07	-2537472	6.19748461758718E-05
2	589	108.013553727292	0.676116943359375	0.676025390625	-2.6885986328125E-07	-1.81756078632134E-07	-2514415.5	6.19476995780133E-05
2	590	108.114261727038	0.666046142578125	0.665985107421875	-2.6824951171875E-07	-1.78650168436434E-07	-2482707.75	6.19206475676037E-05
2	591	108.214969726783	0.655975341796875	0.6558837890625	-2.655029296875E-07	-1.7413907471564E-07	-2470344.75	6.18937774561346E-05
2	592	108.315677726529	0.645904541015625	0.64593505859375	-2.5970458984375E-07	-1.67752304491842E-07	-2487191.5	6.1867329350207E-05
2	593	108.416385726275	0.635833740234375	0.635772705078125	-2.5177001953125E-07	-1.60068509558187E-07	-2525212.25	6.18415724602528E-05
2	594	108.517093726021	0.625762939453125	0.625701904296875	-2.40478515625001E-07	-1.50467855064562E-07	-2601903.75	6.18167832726613E-05
2	595	108.617801725766	0.615692138671875	0.6156005859375	-2.288818359375E-07	-1.408997860608E-07	-2689600	6.17931509623304E-05
2	596	108.718509725512	0.605621337890625	0.60552978515625	-2.17285156249999E-07	-1.31572633677024E-07	-2786797.75	6.17706828052178E-05
2	597	108.819217725258	0.595550537109375	0.595611572265625	-2.06604003906249E-07	-1.2305572738569E-07	-2882865.75	6.17493424215354E-05
2	598	108.919925725004	0.585479736328125	0.585418701171875	-1.95922851562499E-07	-1.14696902642208E-07	-2988006.25	6.17290716036223E-05
2	599	109.020633724749	0.575408935546875	0.575439453125	-1.8646240234375E-07	-1.07297822182773E-07	-3086088.5	6.17098194197752E-05
2	600	109.121341724495	0.565338134765625	0.5653076171875	-1.788330078125E-07	-1.01095658067152E-07	-3161092.25	6.16914257989265E-05
2	601	109.222049724241	0.555267333984375	0.55523681640625	-1.71508789062499E-07	-9.52279961552449E-08	-3237366.5	6.16737816017121E-05
2	602	109.322757723987	0.545196533203125	0.545166015625	-1.64184570312501E-07	-8.95078500207092E-08	-3320446	6.16568795521744E-05
2	603	109.423465723732	0.535125732421875	0.53509521484375	-1.568603515625E-07	-8.39352267689719E-08	-3411284	6.16407123743556E-05
2	604	109.524173723478	0.525054931640625	0.525054931640625	-1.495361328125E-07	-7.85146880843968E-08	-3511224.5	6.16252873442136E-05
2	605	109.624881723224	0.514984130859375	0.51495361328125	-1.416015625E-07	-7.29182332293021E-08	-3636638	6.1610626289621E-05
2	606	109.72558972297	0.504913330078125	0.50494384765625	-1.3397216796875E-07	-6.76484219752638E-08	-3769020.5	6.15967510384507E-05
2	607	109.826297722715	0.494842529296875	0.494873046875	-1.251220703125E-07	-6.19195432705055E-08	-3955122	6.15837052464485E-05
2	608	109.927005722461	0.484771728515625	0.484771728515625	-1.1627197265625E-07	-5.63653621554749E-08	-4169291.5	6.15715471212752E-05
2	609	110.027713722207	0.474700927734375	0.47467041015625	-1.07421874999999E-07	-5.0989982014471E-08	-4418750.5	6.15602839388885E-05
2	610	110.128421721952	0.464630126953125	0.464599609375	-9.88769531250003E-08	-4.59381936934733E-08	-4698765.5	6.15498938714154E-05
2	611	110.229129721698	0.454559326171875	0.454559326171875	-8.91113281249995E-08	-4.05063822483953E-08	-5101027.5	6.15404278505594E-05
2	612	110.329837721444	0.444488525390625	0.44451904296875	-8.05664062500003E-08	-3.5813300769405E-08	-5517424.5	6.15318858763203E-05
2	613	110.43054572119	0.434417724609375	0.434417724609375	-7.26318359375006E-08	-3.15525561234153E-08	-5981092.5	6.15241733612493E-05
2	614	110.531253720935	0.424346923828125	0.42437744140625	-6.46972656249994E-08	-2.74560587598671E-08	-6559434.5	6.15172539255582E-05
2	615	110.631961720681	0.414276123046875	0.414215087890625	-5.76782226562503E-08	-2.38911894712146E-08	-7181481.5	6.1511091189459E-05
2	616	110.732669720427	0.404205322265625	0.40423583984375	-5.09643554687494E-08	-2.06016181891755E-08	-7931737	6.15056269452907E-05
2	617	110.833377720173	0.394134521484375	0.394134521484375	-4.48608398437494E-08	-1.76812058327869E-08	-8785714	6.15007957094349E-05
2	618	110.934085719918	0.384063720703125	0.384063720703125	-3.90625000000006E-08	-1.50024881406807E-08	-9832031	6.14965756540187E-05
2	619	111.034793719664	0.373992919921875	0.37408447265625	-3.41796874999994E-08	-1.2786089520489E-08	-10944644	6.14928867435083E-05
2	620	111.13550171941	0.363922119140625	0.364013671875	-2.899169921875E-08	-1.05533741745489E-08	-12555790	6.14897071500309E-05
2	621	111.236209719156	0.353851318359375	0.3538818359375	-2.44140625E-08	-8.63969340514359E-09	-14495000	6.14870150457136E-05
2	622	111.336917718901	0.343780517578125	0.343780517578125	-2.01416015624997E-08	-6.9242895861521E-09	-17068182	6.14847740507685E-05
2	623	111.437625718647	0.333709716796875	0.333770751953125	-1.678466796875E-08	-5.60223112344715E-09	-19885454	6.14829114056192E-05
2	624	111.538333718393	0.323638916015625	0.32366943359375	-1.373291015625E-08	-4.44492309625844E-09	-23568890	6.14813761785626E-05
2	625	111.639041718139	0.313568115234375	0.313629150390625	-1.03759765625003E-08	-3.25420868030335E-09	-30226470	6.14801610936411E-05
2	626	111.739749717884	0.303497314453125	0.303497314453125	-7.62939453125E-09	-2.31550068008346E-09	-39780004	6.14792515989393E-05
2	627	111.84045771763	0.293426513671875	0.293426513671875	-5.79833984375028E-09	-1.70138658717178E-09	-50605264	6.14785749348812E-05
2	628	111.941165717376	0.283355712890625	0.28338623046875	-4.27246093750028E-09	-1.21075660608483E-09	-66328568	6.14780728938058E-05
2	629	112.041873717121	0.273284912109375	0.27325439453125	-2.74658203125028E-09	-7.50515594116763E-10	-99488888	6.14777163718827E-05
2	630	112.142581716867	0.263214111328125	0.263214111328125	-1.83105468749972E-09	-4.81959416820388E-10	-143750000	6.14774835412391E-05
2	631	112.243289716613	0.253143310546875	0.253143310546875	-1.52587890625E-09	-3.86266019170023E-10	-165900000	6.14773161942139E-05
2	632	112.343997716359	0.243072509765625	0.2430419921875	-1.52587890625E-09	-3.70852626385698E-10	-159280000	6.1477163399104E-05
2	633	112.444705716104	0.233001708984375	0.233062744140625	-2.13623046874945E-09	-4.97875685123716E-10	-109100008	6.14769815001637E-05
2	634	112.54541371585	0.222930908203125	0.222900390625	-3.0517578125E-09	-6.80237977057629E-10	-73040000	6.14767195656896E-05
2	635	112.646121715596	0.212860107421875	0.212890625	-4.27246093750028E-09	-9.0956692178068E-10	-49828572	6.14763484918512E-05
2	636	112.746829715342	0.202789306640625	0.202850341796875	-7.01904296875056E-09	-1.42381517687085E-09	-28900002	6.14757809671573E-05
2	637	112.847537715087	0.192718505859375	0.192718505859375	-1.068115234375E-08	-2.05845562817331E-09	-18042858	6.14748933003284E-05
2	638	112.948245714833	0.182647705078125	0.18267822265625	-1.55639648437497E-08	-2.84319723320436E-09	-11737255	6.14735690760426E-05
2	639	113.048953714579	0.172576904296875	0.172515869140625	-2.16674804687497E-08	-3.73798414443627E-09	-7961972	6.14716918789782E-05
2	640	113.149661714325	0.162506103515625	0.162506103515625	-2.96020507812494E-08	-4.81051376510777E-09	-5489691	6.14691089140251E-05
2	641	113.25036971407	0.152435302734375	0.1524658203125	-4.08935546875003E-08	-6.2348690654801E-09	-3728358.25	6.1465565522667E-05
2	642	113.351077713816	0.142364501953125	0.14239501953125	-5.58471679687506E-08	-7.95235877149025E-09	-2549726.75	6.14606906310655E-05
2	643	113.451785713562	0.132293701171875	0.13232421875	-7.62939453125E-08	-1.00955368509403E-08	-1734400	6.14540404058062E-05
2	644	113.552493713308	0.122222900390625	0.12225341796875	-1.0498046875E-07	-1.2834220797231E-08	-1164534.875	6.14449090790004E-05
2	645	113.653201713053	0.112152099609375	0.112152099609375	-1.44348144531251E-07	-1.61889470717824E-08	-776955.625	6.14323580521159E-05
2	646	113.753909712799	0.102081298828125	0.102081298828125	-1.9866943359375E-07	-2.02804333326867E-08	-513824.90625	6.14150849287398E-05
2	647	113.854617712545	0.092010498046875	0.09210205078125	-2.734375E-07	-2.51841534293362E-08	-336830.375	6.13913070992567E-05
2	648	113.95532571229	0.081939697265625	0.082000732421875	-3.74755859375001E-07	-3.07302521207475E-08	-218811.078125	6.13586671533994E-05
2	649	114.056033712036	0.071868896484375	0.07183837890625	-5.0994873046875E-07	-3.6633888811366E-08	-140873.734375	6.13141237408854E-05
2	650	114.156741711782	0.061798095703125	0.06182861328125	-6.82983398437501E-07	-4.2227917163018E-08	-90527.2578125	6.12540534348227E-05
2	651	114.257449711528	0.051727294921875	0.0517578125	-8.96606445312501E-07	-4.6406388065634E-08	-57726.34765625	6.11745126661845E-05
2	652	114.358157711273	0.041656494140625	0.0417633056640625	-1.146240234375E-06	-4.78707775641851E-08	-36435.0390625	6.10716524533927E-05
2	653	114.458865711019	0.031585693359375	0.0316680908203125	-1.41815185546875E-06	-4.49101555943798E-08	-22330.53515625	6.0942522395635E-05
2	654	114.559573710765	0.021514892578125	0.0215728759765625	-1.68853759765625E-06	-3.64266128372037E-08	-12776.072265625	6.07860893069301E-05
2	655	114.660281710511	0.011444091796875	0.011517333984375	-1.932373046875E-06	-2.22557847706639E-08	-5960.20263671875	6.06037610850763E-05
2	656	114.760989710256	0.001373291015625	0.0014617919921875	-2.12493896484375E-06	-3.10621883770068E-09	-687.921936035156	6.03994594712276E-05
2	657	114.861697710002	-0.008697509765625	-0.00858459472656251	-2.25250244140625E-06	1.93368183687426E-08	3811.13671875	6.01790379732847E-05
2	658	114.962405709748	-0.018768310546875	-0.018621826171875	-2.31231689453125E-06	4.3059564802661E-08	8053.31982421875	5.99491795583162E-05
2	659	115.063113709494	-0.028839111328125	-0.0287017822265625	-2.3162841796875E-06	6.64814834294702E-08	12391.3046875	5.97161124460399E-05
2	660	115.163821709239	-0.038909912109375	-0.038800048828125	-2.2796630859375E-06	8.84510384935311E-08	17020.08203125	5.94846860622056E-05
2	661	115.264529708985	-0.048980712890625	-0.048858642578125	-2.21923828125E-06	1.08428970690966E-07	22015.951171875	5.9258149121888E-05
2	662	115.365237708731	-0.059051513671875	-0.058990478515625	-2.1478271484375E-06	1.26701337421764E-07	27465.19140625	5.90382514928933E-05
2	663	115.465945708477	-0.069122314453125	-0.069091796875	-2.07427978515625E-06	1.43315716627512E-07	33308.8125	5.88256516493857E-05
2	664	115.566653708222	-0.079193115234375	-0.0792236328125	-2.00469970703125E-06	1.58819588591541E-07	39518.95703125	5.86202586418949E-05
2	665	115.667361707968	-0.089263916015625	-0.089202880859375	-1.942138671875E-06	1.73244359302771E-07	45930.234375	5.84215194976423E-05
2	666	115.768069707714	-0.099334716796875	-0.099273681640625	-1.88751220703125E-06	1.8738028018106E-07	52594.98828125	5.82286811550148E-05
2	667	115.868777707459	-0.109405517578125	-0.10931396484375	-1.8414306640625E-06	2.0129408540015E-07	59363.609375	5.80409141548444E-05
2	668	115.969485707205	-0.119476318359375	-0.119384765625	-1.8035888671875E-06	2.15321023233628E-07	66192.8984375	5.7857370848069E-05
2	669	116.070193706951	-0.129547119140625	-0.129425048828125	-1.7730712890625E-06	2.29479837798863E-07	72994.8359375	5.76772727072239E-05
2	670	116.170901706697	-0.139617919921875	-0.139556884765625	-1.7498779296875E-06	2.44207512878347E-07	79752.3515625	5.74998775846325E-05
2	671	116.271609706442	-0.149688720703125	-0.1495361328125	-1.73248291015625E-06	2.59068769992155E-07	86313.1953125	5.73245270061307E-05
2	672	116.372317706188	-0.159759521484375	-0.15960693359375	-1.7218017578125E-06	2.74811498002236E-07	92697.625	5.71505916013848E-05
2	673	116.473025705934	-0.169830322265625	-0.169708251953125	-1.71600341796875E-06	2.91219919290597E-07	98897.390625	5.69774820178282E-05
2	674	116.57373370568	-0.179901123046875	-0.17974853515625	-1.71661376953125E-06	3.08558810502291E-07	104711.1171875	5.68046380067244E-05
2	675	116.674441705425	-0.189971923828125	-0.189788818359375	-1.72088623046875E-06	3.2660494753145E-07	110285.515625	5.6631542975083E-05
2	676	116.775149705171	-0.200042724609375	-0.199920654296875	-1.7303466796875E-06	3.45932022582929E-07	115537.921875	5.6457760365447E-05
2	677	116.875857704917	-0.189971923828125	-0.189849853515625	-1.5118408203125E-06	2.87022743350462E-07	125575.296875	5.62945060664788E-05
