Potential - Start -0.2 V, Upper Vertex 1.5 V, Lower Vertex -0.2 V, Stop -0.19 V; Scan - # end cross 5, Rate 0.1 Vps, Step 0.01 V 
Scan	Index	Time (s)	Potential applied (V)	WE(1).Potential (V)	WE(1).Current (A)	WE(1).Power (W)	WE(1).Resistance (Ω)	WE(1).Charge (C)
1	1	68.0385968282191	-0.189971923828125	-0.18988037109375	-1.4068603515625E-07	2.67135149556452E-08	1349674.75	0
1	2	68.1393048279648	-0.179901123046875	-0.1798095703125	-1.15356445312501E-07	2.07421919640183E-08	1558730.25	-1.28927624132302E-08
1	3	68.2400128277105	-0.169830322265625	-0.169708251953125	-9.36889648437495E-08	1.5899789929108E-08	1811400.75	-2.34190355996589E-08
1	4	68.3407208274563	-0.159759521484375	-0.1595458984375	-7.59887695312503E-08	1.21236958250392E-08	2099598.5	-3.19629869238724E-08
1	5	68.441428827202	-0.149688720703125	-0.14959716796875	-5.88989257812506E-08	8.81111184014571E-09	2539896.5	-3.87551217784221E-08
1	6	68.5421368269477	-0.139617919921875	-0.139556884765625	-4.45556640624997E-08	6.21804963074624E-09	3132192	-4.39644729510746E-08
1	7	68.6428448266935	-0.129547119140625	-0.12939453125	-3.08227539062497E-08	3.98829591574668E-09	4198020	-4.77600785586674E-08
1	8	68.7435528264392	-0.119476318359375	-0.11944580078125	-1.73950195312494E-08	2.07776196248233E-09	6866667	-5.01880350611827E-08
1	9	68.844260826185	-0.109405517578125	-0.109344482421875	-4.27246093750028E-09	4.67170024887054E-10	25592856	-5.12790805373697E-08
1	10	68.9449688259307	-0.099334716796875	-0.099273681640625	1.03759765625003E-08	-1.03006136953354E-09	-9567647	-5.09717459351577E-08
1	11	69.0456768256764	-0.089263916015625	-0.089202880859375	2.62451171874997E-08	-2.34113994856955E-09	-3398837.25	-4.91277241110311E-08
1	12	69.1463848254222	-0.079193115234375	-0.079132080078125	4.51660156250006E-08	-3.57408080908783E-09	-1752027	-4.5531891146311E-08
1	13	69.2470928251679	-0.069122314453125	-0.069122314453125	6.80541992187506E-08	-4.70406380514987E-09	-1015695.0625	-3.98307982152346E-08
1	14	69.3478008249136	-0.059051513671875	-0.058990478515625	9.55200195312506E-08	-5.63477131620971E-09	-617571.9375	-3.15941832695898E-08
1	15	69.4485088246594	-0.048980712890625	-0.0488128662109375	1.3092041015625E-07	-6.39060049323348E-09	-372843.8125	-2.01920009601508E-08
1	16	69.5492168244051	-0.038909912109375	-0.0388275146484375	1.76086425781249E-07	-6.83699807879634E-09	-220502.625	-4.73297978587084E-09
1	17	69.6499248241508	-0.028839111328125	-0.0287353515625	2.35900878906251E-07	-6.77869405052434E-09	-121811.125	1.60122279879715E-08
1	18	69.7506328238966	-0.018768310546875	-0.018646240234375	3.14941406249999E-07	-5.87247273031721E-09	-59205.4296875	4.37493383742549E-08
1	19	69.8513408236423	-0.008697509765625	-0.00859375	4.1839599609375E-07	-3.59559049201152E-09	-20539.75390625	8.06758109206385E-08
1	20	69.9520488233881	0.001373291015625	0.00147399902343751	5.511474609375E-07	8.12390765769777E-10	2674.41870117188	1.29496200429458E-07
1	21	70.0527568231338	0.011444091796875	0.0115264892578125	7.1380615234375E-07	8.22767898256416E-09	16147.927734375	1.93191667108294E-07
1	22	70.1534648228795	0.021514892578125	0.0216156005859375	9.01184082031251E-07	1.94796356822735E-08	23985.77734375	2.74512871101251E-07
1	23	70.2541728226253	0.031585693359375	0.0316864013671875	1.10076904296875E-06	3.48794131355135E-08	28785.6953125	3.75319245904393E-07
1	24	70.354880822371	0.041656494140625	0.0417236328125	1.2957763671875E-06	5.40644933266776E-08	32199.716796875	4.95994868288108E-07
1	25	70.4555888221167	0.051727294921875	0.0517578125	1.46575927734375E-06	7.5864491577704E-08	35311.26171875	6.35049218544737E-07
1	26	70.5562968218625	0.061798095703125	0.061798095703125	1.5936279296875E-06	9.84831700634459E-08	38778.24609375	7.89101648024371E-07
1	27	70.6570048216082	0.071868896484375	0.071868896484375	1.67205810546875E-06	1.20168962780554E-07	42982.296875	9.53541984927142E-07
1	28	70.7577128213539	0.081939697265625	0.081939697265625	1.70257568359375E-06	1.39508529173327E-07	48126.90625	1.12346822334075E-06
1	29	70.8584208210997	0.092010498046875	0.092071533203125	1.693115234375E-06	1.55887718733538E-07	54379.95703125	1.29445493257663E-06
1	30	70.9591288208454	0.102081298828125	0.10205078125	1.6571044921875E-06	1.69108801628681E-07	61583.79296875	1.46315187521395E-06
1	31	71.0598368205912	0.112152099609375	0.112152099609375	1.60491943359375E-06	1.79995069515826E-07	69880.2109375	1.62740775522252E-06
1	32	71.1605448203369	0.122222900390625	0.12225341796875	1.54632568359375E-06	1.89043589671201E-07	79060.59375	1.78608559053828E-06
1	33	71.2612528200826	0.132293701171875	0.13232421875	1.48651123046875E-06	1.96701435584146E-07	89016.6328125	1.93880100596289E-06
1	34	71.3619608198284	0.142364501953125	0.142364501953125	1.4288330078125E-06	2.03415098098958E-07	99636.90625	2.0856002720393E-06
1	35	71.4626688195741	0.152435302734375	0.15240478515625	1.3751220703125E-06	2.0957517676834E-07	110830.0078125	2.22679068428988E-06
1	36	71.5633768193198	0.162506103515625	0.162567138671875	1.32720947265625E-06	2.15760650235097E-07	122487.9296875	2.36286382460094E-06
1	37	71.6640848190656	0.172576904296875	0.172576904296875	1.2835693359375E-06	2.21514412146462E-07	134450.78125	2.49432696364238E-06
1	38	71.7647928188113	0.182647705078125	0.182647705078125	1.246337890625E-06	2.2764075424675E-07	146547.5	2.62171806753031E-06
1	39	71.8655008185571	0.192718505859375	0.192718505859375	1.21337890625E-06	2.3384055225506E-07	158827.984375	2.7455744202598E-06
1	40	71.9662088183028	0.202789306640625	0.2027587890625	1.18438720703125E-06	2.40144913732365E-07	171193	2.86631166090956E-06
1	41	72.0669168180485	0.212860107421875	0.2127685546875	1.15875244140625E-06	2.4654607955199E-07	183618.65625	2.98429813483381E-06
1	42	72.1676248177943	0.222930908203125	0.222900390625	1.13555908203125E-06	2.53116553494692E-07	196291.328125	3.09982578983181E-06
1	43	72.26833281754	0.233001708984375	0.233062744140625	1.1138916015625E-06	2.59606622421416E-07	209232.875	3.21309471473796E-06
1	44	72.3690408172857	0.243072509765625	0.2430419921875	1.09466552734375E-06	2.66049681840741E-07	222023.96875	3.32430431626562E-06
1	45	72.4697488170315	0.253143310546875	0.253143310546875	1.0760498046875E-06	2.72394800049369E-07	235252.421875	3.43360852639307E-06
1	46	72.5704568167772	0.263214111328125	0.26318359375	1.0595703125E-06	2.7886153475265E-07	248387.09375	3.54114558831498E-06
1	47	72.6711648165229	0.273284912109375	0.273284912109375	1.0443115234375E-06	2.85394577304032E-07	261689.078125	3.64708444067219E-06
1	48	72.7718728162687	0.283355712890625	0.2833251953125	1.0308837890625E-06	2.92075327479324E-07	274837.1875	3.75157878806931E-06
1	49	72.8725808160144	0.293426513671875	0.29339599609375	1.01776123046875E-06	2.98607062632072E-07	288275.875	3.8547364056285E-06
1	50	72.9732888157602	0.303497314453125	0.303466796875	1.00494384765625E-06	3.04967073816442E-07	301973.90625	3.95658753404859E-06
1	51	73.0739968155059	0.313568115234375	0.31353759765625	9.92736816406251E-07	3.11260293983651E-07	315831.5625	4.05717901230673E-06
1	52	73.1747048152516	0.323638916015625	0.323577880859375	9.80529785156251E-07	3.17277738304256E-07	330003.125	4.15654085372807E-06
1	53	73.2754128149974	0.333709716796875	0.333709716796875	9.686279296875E-07	3.23240527677626E-07	344517.96875	4.25468851972255E-06
1	54	73.3761208147431	0.343780517578125	0.343719482421875	9.57336425781249E-07	3.29055183101445E-07	359037.3125	4.35166839451995E-06
1	55	73.4768288144888	0.353851318359375	0.3538818359375	9.46960449218751E-07	3.35112105176449E-07	373702.875	4.44755733042257E-06
1	56	73.5775368142346	0.363922119140625	0.3638916015625	9.381103515625E-07	3.41370451906187E-07	387898.53125	4.5424785639625E-06
1	57	73.6782448139803	0.373992919921875	0.37396240234375	9.29870605468749E-07	3.47736630601503E-07	402166.09375	4.63653850601986E-06
1	58	73.7789528137261	0.384063720703125	0.38409423828125	9.22241210937499E-07	3.542275237578E-07	416479.15625	4.72979991172906E-06
1	59	73.8796608134718	0.394134521484375	0.394195556640625	9.161376953125E-07	3.6113738133281E-07	430279.84375	4.82236964671756E-06
1	60	73.9803688132175	0.404205322265625	0.404205322265625	9.0972900390625E-07	3.67717291283043E-07	444314	4.91430910187773E-06
1	61	74.0810768129633	0.414276123046875	0.414276123046875	9.0362548828125E-07	3.74350435095039E-07	458460	5.00561918670428E-06
1	62	74.181784812709	0.424346923828125	0.42425537109375	8.98132324218751E-07	3.81037466468115E-07	472375.125	5.09634446643759E-06
1	63	74.2824928124547	0.434417724609375	0.4344482421875	8.93249511718749E-07	3.88070674262053E-07	486368.3125	5.18654769621207E-06
1	64	74.3832008122005	0.444488525390625	0.444427490234375	8.89892578125E-07	3.95492691040999E-07	499417.03125	5.27633619640255E-06
1	65	74.4839088119462	0.454559326171875	0.454620361328125	8.868408203125E-07	4.03175874907902E-07	512629.0625	5.3658018259739E-06
1	66	74.5846168116919	0.464630126953125	0.464599609375	8.84399414062501E-07	4.10891630053811E-07	525327.8125	5.45499096915592E-06
1	67	74.6853248114377	0.474700927734375	0.474700927734375	8.82873535156251E-07	4.19100871340561E-07	537677.1875	5.54398002350354E-06
1	68	74.7860328111834	0.484771728515625	0.4847412109375	8.81042480468749E-07	4.2707759462246E-07	550190.5	5.63280036658398E-06
1	69	74.8867408109292	0.494842529296875	0.4947509765625	8.7921142578125E-07	4.34990710118655E-07	562721.25	5.72143608223996E-06
1	70	74.9874488106749	0.504913330078125	0.5048828125	8.77685546875E-07	4.4312832869764E-07	575243.4375	5.80990308662876E-06
1	71	75.0881568104206	0.514984130859375	0.514923095703125	8.7554931640625E-07	4.5084055955158E-07	588114.3125	5.89818546359311E-06
1	72	75.1888648101664	0.525054931640625	0.524993896484375	8.746337890625E-07	4.59177385891962E-07	600244.25	5.98631413595285E-06
1	73	75.2895728099121	0.535125732421875	0.535064697265625	8.73718261718751E-07	4.67495794964634E-07	612399.5625	6.07435049460037E-06
1	74	75.3902808096578	0.545196533203125	0.545135498046875	8.73413085937499E-07	4.76128462878478E-07	624144	6.16232546235551E-06
1	75	75.4909888094036	0.555267333984375	0.555206298828125	8.7310791015625E-07	4.84754991703085E-07	635896.5625	6.25026996203815E-06
1	76	75.5916968091493	0.565338134765625	0.5653076171875	8.7310791015625E-07	4.93574532356433E-07	647465.9375	6.33819900031085E-06
1	77	75.692404808895	0.575408935546875	0.575286865234375	8.73413085937499E-07	5.02463080920279E-07	658665.3125	6.42614304524614E-06
1	78	75.7931128086408	0.585479736328125	0.585418701171875	8.7249755859375E-07	5.10776374085253E-07	670968.875	6.51405662210891E-06
1	79	75.8938208083865	0.595550537109375	0.595489501953125	8.7158203125E-07	5.19017930855625E-07	683228.3125	6.60187834000681E-06
1	80	75.9945288081323	0.605621337890625	0.605499267578125	8.70361328124999E-07	5.27003123806935E-07	695687.25	6.68959182803519E-06
1	81	76.095236807878	0.615692138671875	0.615692138671875	8.7005615234375E-07	5.35686695002369E-07	707646.5	6.77722891850863E-06
1	82	76.1959448076237	0.625762939453125	0.625732421875	8.70666503906251E-07	5.44804265700805E-07	718682.125	6.86488147039199E-06
1	83	76.2966528073695	0.635833740234375	0.6357421875	8.7127685546875E-07	5.53907455014269E-07	729667.25	6.95259495842038E-06
1	84	76.3973608071152	0.645904541015625	0.64581298828125	8.72192382812501E-07	5.63273147236032E-07	740447.875	7.04038575349841E-06
1	85	76.4980688068609	0.655975341796875	0.655853271484375	8.740234375E-07	5.73231147882325E-07	750384.0625	7.12831479177112E-06
1	86	76.5987768066067	0.666046142578125	0.665985107421875	8.75244140625001E-07	5.82899531309522E-07	760913.5625	7.21639753464842E-06
1	87	76.6994848063524	0.676116943359375	0.67596435546875	8.770751953125E-07	5.92871572280274E-07	770702.875	7.30463352738298E-06
1	88	76.8001928060982	0.686187744140625	0.686126708984375	8.77990722656249E-07	6.02412853822898E-07	781473.75	7.39300821805955E-06
1	89	76.9009008058439	0.696258544921875	0.696197509765625	8.795166015625E-07	6.12317251125205E-07	791568.375	7.48150569052086E-06
1	90	77.0016088055896	0.706329345703125	0.70623779296875	8.8226318359375E-07	6.23087601070438E-07	800484.25	7.57021825847914E-06
1	91	77.1023168053354	0.716400146484375	0.71624755859375	8.85620117187499E-07	6.34323214399046E-07	808752.625	7.65923869039398E-06
1	92	77.2030248050811	0.726470947265625	0.72637939453125	8.9019775390625E-07	6.46621288069582E-07	815975.3125	7.74865839048289E-06
1	93	77.3037328048268	0.736541748046875	0.73651123046875	8.94775390624999E-07	6.59012130199699E-07	823124.125	7.8385382948909E-06
1	94	77.4044408045726	0.746612548828125	0.7464599609375	8.99353027343749E-07	6.71331008561538E-07	829996.625	7.9288802226074E-06
1	95	77.5051488043183	0.756683349609375	0.7568359375	9.03930664062499E-07	6.84127201111551E-07	837272.125	8.01968235464301E-06
1	96	77.605856804064	0.766754150390625	0.7666015625	9.08203125E-07	6.96229903951462E-07	844086.0625	8.11093104857719E-06
1	97	77.7065648038098	0.776824951171875	0.7769775390625	9.1217041015625E-07	7.08735910848191E-07	851789.9375	8.20259356260067E-06
1	98	77.8072728035555	0.786895751953125	0.78704833984375	9.161376953125E-07	7.21044614238053E-07	859094	8.29465625429293E-06
1	99	77.9079808033013	0.796966552734375	0.79681396484375	9.197998046875E-07	7.32909313683194E-07	866290.6875	8.38710366224404E-06
1	100	78.008688803047	0.807037353515625	0.80718994140625	9.25292968749999E-07	7.46887167224486E-07	872361.5	8.48001127451425E-06
1	101	78.1093968027927	0.817108154296875	0.81695556640625	9.29870605468749E-07	7.59662952987128E-07	878569.125	8.57342638482805E-06
1	102	78.2101048025385	0.827178955078125	0.82733154296875	9.3414306640625E-07	7.72846021845908E-07	885658.3125	8.66728623805102E-06
1	103	78.3108128022842	0.837249755859375	0.83740234375	9.38720703125E-07	7.86086900461669E-07	892067.625	8.76159265317256E-06
1	104	78.4115208020299	0.847320556640625	0.84747314453125	9.417724609375E-07	7.98126848167158E-07	899870.375	8.85628287505824E-06
1	105	78.5122288017757	0.857391357421875	0.85723876953125	9.4512939453125E-07	8.10201527201571E-07	907006.8125	8.95129596756306E-06
1	106	78.6129368015214	0.867462158203125	0.867919921875	9.4757080078125E-07	8.22415529455611E-07	915942.0625	9.04660100786714E-06
1	107	78.7136448012672	0.877532958984375	0.877685546875	9.503173828125E-07	8.34079799005849E-07	923571	9.14216707315063E-06
1	108	78.8143528010129	0.887603759765625	0.88714599609375	9.5245361328125E-07	8.44965427404532E-07	931432.25	9.2379796114983E-06
1	109	78.9150608007586	0.897674560546875	0.897216796875	9.55810546875E-07	8.57569204981701E-07	938697.375	9.33406863623532E-06
1	110	79.0157688005044	0.907745361328125	0.9075927734375	9.5855712890625E-07	8.69979430717649E-07	946832.3125	9.43046416068682E-06
1	111	79.1164768002501	0.917816162109375	0.91796875	9.6099853515625E-07	8.82166546034568E-07	955223.9375	9.52712161961244E-06
1	112	79.2171847999958	0.927886962890625	0.92742919921875	9.6466064453125E-07	8.94654476724099E-07	961404.5625	9.62408648774726E-06
1	113	79.3178927997416	0.937957763671875	0.9381103515625	9.66796875000001E-07	9.06962156932423E-07	970328.3125	9.72134330368135E-06
1	114	79.4186007994873	0.948028564453125	0.948486328125	9.686279296875E-07	9.18730336252338E-07	979206.0625	9.81879929895513E-06
1	115	79.519308799233	0.958099365234375	0.95794677734375	9.71069335937499E-07	9.3023271574566E-07	986486.5	9.91647084447322E-06
1	116	79.6200167989788	0.968170166015625	0.96771240234375	9.72595214843749E-07	9.41192467962537E-07	994979.625	1.00143424788257E-05
1	117	79.7207247987245	0.978240966796875	0.9783935546875	9.7503662109375E-07	9.53969561123813E-07	1003442.875	1.01124132925179E-05
1	118	79.8214327984703	0.988311767578125	0.9881591796875	9.7808837890625E-07	9.66506945587753E-07	1010296.4375	1.02107605925994E-05
1	119	79.922140798216	0.998382568359375	0.9979248046875	9.81750488281249E-07	9.79713149718009E-07	1016475.0625	1.030944622471E-05
1	120	80.0228487979617	1.00845336914063	1.00830078125	9.85107421875001E-07	9.93284515971027E-07	1023544.0625	1.04084856502595E-05
1	121	80.1235567977075	1.01852416992188	1.01776123046875	9.8846435546875E-07	1.0060206250273E-06	1029638.8125	1.05078624983435E-05
1	122	80.2242647974532	1.02859497070313	1.029052734375	9.91210937500001E-07	1.02000819879322E-06	1038177.4375	1.06075476651313E-05
1	123	80.3249727971989	1.03866577148438	1.0382080078125	9.93957519531249E-07	1.03193463019124E-06	1044519.5	1.07075084088137E-05
1	124	80.4256807969447	1.04873657226563	1.04827880859375	9.967041015625E-07	1.0448237617311E-06	1051745.25	1.08077465483802E-05
1	125	80.5263887966904	1.05880737304688	1.0589599609375	9.9945068359375E-07	1.05837818864529E-06	1059542	1.09082611743361E-05
1	126	80.6270967964361	1.06887817382813	1.06842041015625	1.0028076171875E-06	1.07142011529504E-06	1065429.125	1.10090823000064E-05
1	127	80.7278047961819	1.07894897460938	1.0784912109375	1.0064697265625E-06	1.08546873889281E-06	1071558.5	1.11102572191157E-05
1	128	80.8285127959276	1.08901977539063	1.08856201171875	1.01104736328125E-06	1.10058772406774E-06	1076667.75	1.12118477773038E-05
1	129	80.9292207956734	1.09909057617188	1.09893798828125	1.01470947265625E-06	1.11510280476068E-06	1083007.5	1.13138521555811E-05
1	130	81.0299287954191	1.10916137695313	1.109619140625	1.01837158203125E-06	1.13000453438872E-06	1089601.5	1.14162266982021E-05
1	131	81.1306367951648	1.11923217773438	1.119384765625	1.021728515625E-06	1.14370732262614E-06	1095579.5	1.15189532152726E-05
1	132	81.2313447949106	1.12930297851563	1.129150390625	1.0235595703125E-06	1.15575267045642E-06	1103160.375	1.16219416668173E-05
1	133	81.3320527946563	1.13937377929688	1.1395263671875	1.02630615234375E-06	1.16950286610518E-06	1110318.25	1.17251611300162E-05
1	134	81.432760794402	1.14944458007813	1.14898681640625	1.029052734375E-06	1.18236789603543E-06	1116548.125	1.18286561701098E-05
1	135	81.5334687941478	1.15951538085938	1.1590576171875	1.03179931640625E-06	1.19591493330518E-06	1123336.25	1.19324286060873E-05
1	136	81.6341767938935	1.16958618164063	1.16943359375	1.03485107421875E-06	1.21018956633634E-06	1130050.125	1.20364929898642E-05
1	137	81.7348847936393	1.17965698242188	1.17919921875	1.038818359375E-06	1.22497385746101E-06	1135135.125	1.21409102575853E-05
1	138	81.835592793385	1.18972778320313	1.18927001953125	1.04095458984375E-06	1.23797599371755E-06	1142480.25	1.22456349345157E-05
1	139	81.9363007931307	1.19979858398438	1.19964599609375	1.04461669921875E-06	1.25317012589221E-06	1148407.875	1.23506515592453E-05
1	140	82.0370087928765	1.20986938476563	1.209716796875	1.0467529296875E-06	1.26627458030271E-06	1155685.125	1.24559610412689E-05
1	141	82.1377167926222	1.21994018554688	1.21978759765625	1.04888916015625E-06	1.27942189465102E-06	1162932.875	1.25614851640421E-05
1	142	82.2384247923679	1.23001098632813	1.23016357421875	1.0516357421875E-06	1.29368402213004E-06	1169762	1.26672548503848E-05
1	143	82.3391327921137	1.24008178710938	1.24053955078125	1.0540771484375E-06	1.30762430217146E-06	1176896.375	1.27732855617069E-05
1	144	82.4398407918594	1.25015258789063	1.25030517578125	1.058349609375E-06	1.32325988033699E-06	1181372.625	1.2879654605058E-05
1	145	82.5405487916051	1.26022338867188	1.259765625	1.063232421875E-06	1.33942364755057E-06	1184845	1.2986484762223E-05
1	146	82.6412567913509	1.27029418945313	1.26983642578125	1.068115234375E-06	1.35633160880388E-06	1188857.125	1.30938069560216E-05
1	147	82.7419647910966	1.28036499023438	1.280517578125	1.07330322265625E-06	1.37438360070519E-06	1193062.25	1.32016357383691E-05
1	148	82.8426727908424	1.29043579101563	1.29058837890625	1.07757568359375E-06	1.39070664317842E-06	1197677.75	1.33099410959403E-05
1	149	82.9433807905881	1.30050659179688	1.3006591796875	1.08245849609375E-06	1.40790950808878E-06	1201578.875	1.34187075673253E-05
1	150	83.0440887903338	1.31057739257813	1.3104248046875	1.08673095703125E-06	1.42407907333109E-06	1205841.125	1.35279351525242E-05
1	151	83.1447967900796	1.32064819335938	1.32110595703125	1.09100341796875E-06	1.44133105095534E-06	1210909.125	1.36375929287169E-05
1	152	83.2455047898253	1.33071899414063	1.33056640625	1.09619140625E-06	1.45855540267803E-06	1213808.5	1.37477263706387E-05
1	153	83.346212789571	1.34078979492188	1.34063720703125	1.10198974609375E-06	1.47736841427104E-06	1216560.5	1.38584136948339E-05
1	154	83.4469207893168	1.35086059570313	1.35040283203125	1.1077880859375E-06	1.49596019127785E-06	1219008.25	1.39696849146276E-05
1	155	83.5476287890625	1.36093139648438	1.361083984375	1.11358642578125E-06	1.51568463024887E-06	1222252.625	1.40815400300198E-05
1	156	83.6483367888083	1.37100219726563	1.37054443359375	1.11907958984375E-06	1.53374833189446E-06	1224706.875	1.41939635796007E-05
1	157	83.749044788554	1.38107299804688	1.38092041015625	1.124267578125E-06	1.5525240542047E-06	1228284.5	1.4306925550045E-05
1	158	83.8497527882997	1.39114379882813	1.3909912109375	1.12884521484375E-06	1.57021372615418E-06	1232225	1.44203786476282E-05
1	159	83.9504607880455	1.40121459960938	1.4013671875	1.13250732421875E-06	1.58705859121255E-06	1237402.25	1.45342464747955E-05
1	160	84.0511687877912	1.41128540039063	1.41082763671875	1.13677978515625E-06	1.60380022862228E-06	1241073.875	1.46485144796316E-05
1	161	84.1518767875369	1.42135620117188	1.42120361328125	1.14166259765625E-06	1.6225349099841E-06	1244854.375	1.47632426887867E-05
1	162	84.2525847872827	1.43142700195313	1.4312744140625	1.1468505859375E-06	1.64145785674918E-06	1248004.25	1.48784783959854E-05
1	163	84.3532927870284	1.44149780273438	1.44134521484375	1.15264892578125E-06	1.66136499046843E-06	1250463.375	1.49942679854576E-05
1	164	84.4540007867741	1.45156860351563	1.45172119140625	1.158447265625E-06	1.68174244663533E-06	1253161.25	1.51106405610335E-05
1	165	84.5547087865199	1.46163940429688	1.4617919921875	1.1639404296875E-06	1.70143880495743E-06	1255899.375	1.52275824802928E-05
1	166	84.6554167862656	1.47171020507813	1.47186279296875	1.168212890625E-06	1.71944907378929E-06	1259926.875	1.53450146171963E-05
1	167	84.7561247860114	1.48178100585938	1.48162841796875	1.171875E-06	1.73628325228492E-06	1264323	1.5462848750758E-05
1	168	84.8568327857571	1.49185180664063	1.49169921875	1.1761474609375E-06	1.7544581396578E-06	1268292.75	1.55810812429991E-05
1	169	84.9575407855028	1.50192260742188	1.50177001953125	1.18072509765625E-06	1.77317758698337E-06	1271904.875	1.56997575686546E-05
1	170	85.0582487852486	1.49185180664063	1.49200439453125	1.083984375E-06	1.61730940817506E-06	1376407.75	1.58137954713311E-05
1	171	85.1589567849943	1.48178100585938	1.48193359375	1.01806640625E-06	1.50870687321003E-06	1455635.5	1.59196424647234E-05
1	172	85.25966478474	1.47171020507813	1.4715576171875	9.6771240234375E-07	1.42404451253242E-06	1520656	1.60196341312258E-05
1	173	85.3603727844858	1.46163940429688	1.46148681640625	9.26513671875E-07	1.35408743062726E-06	1577404.625	1.61150164785795E-05
1	174	85.4610807842315	1.45156860351563	1.45172119140625	8.90502929687501E-07	1.29276190818928E-06	1630226.25	1.62065098265884E-05
1	175	85.5617887839772	1.44149780273438	1.441650390625	8.58459472656251E-07	1.23759832604264E-06	1679346	1.62945780175505E-05
1	176	85.662496783723	1.43142700195313	1.431884765625	8.30078125E-07	1.18857610686973E-06	1725000.125	1.63796012202511E-05
1	177	85.7632047834687	1.42135620117188	1.4215087890625	8.03527832031251E-07	1.14222189040447E-06	1769084.75	1.64618613780476E-05
1	178	85.8639127832145	1.41128540039063	1.41143798828125	7.7972412109375E-07	1.10053213120409E-06	1810176.25	1.65415840456262E-05
1	179	85.9646207829602	1.40121459960938	1.40106201171875	7.5836181640625E-07	1.06251195575169E-06	1847484.875	1.66190329764504E-05
1	180	86.0653287827059	1.39114379882813	1.3909912109375	7.37915039062501E-07	1.0264333241139E-06	1885029	1.66943755175453E-05
1	181	86.1660367824517	1.38107299804688	1.38092041015625	7.19604492187501E-07	9.93716525954369E-07	1918999.125	1.67677681019995E-05
1	182	86.2667447821974	1.37100219726563	1.37054443359375	7.0159912109375E-07	9.61572709456959E-07	1953458.125	1.68393307831138E-05
1	183	86.3674527819431	1.36093139648438	1.3604736328125	6.8389892578125E-07	9.30426438117138E-07	1989290.5	1.69090963026974E-05
1	184	86.4681607816889	1.35086059570313	1.3507080078125	6.6650390625E-07	9.00252132396417E-07	2026556.875	1.69770937645808E-05
1	185	86.5688687814346	1.34078979492188	1.34002685546875	6.49414062500001E-07	8.70232270244742E-07	2063439.875	1.70433559105732E-05
1	186	86.6695767811804	1.33071899414063	1.33087158203125	6.3323974609375E-07	8.42760755404015E-07	2101686.75	1.71079427673249E-05
1	187	86.7702847809261	1.32064819335938	1.32080078125	6.1767578125E-07	8.15826638245198E-07	2138340	1.71709325513802E-05
1	188	86.8709927806718	1.31057739257813	1.3104248046875	6.0272216796875E-07	7.89822024671594E-07	2174177.25	1.72323834704002E-05
1	189	86.9717007804176	1.30050659179688	1.30035400390625	5.88378906250001E-07	7.65100878652447E-07	2210062.25	1.72923610080034E-05
1	190	87.0724087801633	1.29043579101563	1.290283203125	5.7525634765625E-07	7.42243571494328E-07	2242971	1.73509542946704E-05
1	191	87.173116779909	1.28036499023438	1.2799072265625	5.62744140625E-07	7.20260231901193E-07	2274403.5	1.74082560988609E-05
1	192	87.2738247796548	1.27029418945313	1.2701416015625	5.499267578125E-07	6.9848488237767E-07	2309656	1.74642846104689E-05
1	193	87.3745327794005	1.26022338867188	1.2603759765625	5.37109375E-07	6.76959757583973E-07	2346591	1.75190216396004E-05
1	194	87.4752407791462	1.25015258789063	1.25	5.2490234375E-07	6.56127895126701E-07	2381395.5	1.75724981090752E-05
1	195	87.575948778892	1.24008178710938	1.240234375	5.126953125E-07	6.35862306808122E-07	2419047.75	1.76247449417133E-05
1	196	87.6766567786377	1.23001098632813	1.22955322265625	5.01403808593751E-07	6.16502688899345E-07	2452221.5	1.7675809431239E-05
1	197	87.7773647783835	1.21994018554688	1.21978759765625	4.9102783203125E-07	5.98949668528803E-07	2484151.75	1.77257807081332E-05
1	198	87.8780727781292	1.20986938476563	1.209716796875	4.8095703125E-07	5.81821780087921E-07	2515228.5	1.77747242560145E-05
1	199	87.9787807778749	1.19979858398438	1.19964599609375	4.72106933593749E-07	5.66361165965645E-07	2541047.25	1.78227146534482E-05
1	200	88.0794887776207	1.18972778320313	1.1895751953125	4.62951660156249E-07	5.50715810732072E-07	2569545.25	1.7869799194159E-05
1	201	88.1801967773664	1.17965698242188	1.17950439453125	4.5318603515625E-07	5.34534933649411E-07	2602693.5	1.79159305844223E-05
1	202	88.2809047771121	1.16958618164063	1.16943359375	4.43115234374999E-07	5.18193814968981E-07	2639118.5	1.79610633495031E-05
1	203	88.3816127768579	1.15951538085938	1.15936279296875	4.3365478515625E-07	5.02763214171864E-07	2673469.5	1.80052120413166E-05
1	204	88.4823207766036	1.14944458007813	1.148681640625	4.2388916015625E-07	4.86913677377743E-07	2709863.25	1.80483930307673E-05
1	205	88.5830287763494	1.13937377929688	1.138916015625	4.1534423828125E-07	4.73042206294849E-07	2742101.5	1.80906517925905E-05
1	206	88.6837367760951	1.12930297851563	1.12884521484375	4.06494140624999E-07	4.58868953501224E-07	2777027	1.81320338015212E-05
1	207	88.7844447758408	1.11923217773438	1.11907958984375	3.9825439453125E-07	4.45678352889445E-07	2809961.75	1.81725572474534E-05
1	208	88.8851527755866	1.10916137695313	1.10931396484375	3.90625E-07	4.33325766380221E-07	2839843.75	1.8212280338048E-05
1	209	88.9858607753323	1.09909057617188	1.0986328125	3.82080078124999E-07	4.19765683545847E-07	2875399.5	1.82511885213898E-05
1	210	89.086568775078	1.08901977539063	1.08856201171875	3.741455078125E-07	4.0728056660555E-07	2909461.75	1.82892672455637E-05
1	211	89.1872767748238	1.07894897460938	1.07940673828125	3.662109375E-07	3.9529055584353E-07	2947500	1.83265474333894E-05
1	212	89.2879847745695	1.06887817382813	1.0687255859375	3.570556640625E-07	3.81594503551241E-07	2993162.5	1.83629672392271E-05
1	213	89.3886927743152	1.05880737304688	1.05865478515625	3.4912109375E-07	3.69598694760498E-07	3032342.75	1.83985248440877E-05
1	214	89.489400774061	1.04873657226563	1.048583984375	3.40576171875E-07	3.57122701188928E-07	3078853.25	1.84332548087696E-05
1	215	89.5901087738067	1.03866577148438	1.0382080078125	3.326416015625E-07	3.453511681073E-07	3121101	1.8467153495294E-05
1	216	89.6908167735525	1.02859497070313	1.02813720703125	3.253173828125E-07	3.34470911411699E-07	3160412.75	1.85002845682902E-05
1	217	89.7915247732982	1.01852416992188	1.01837158203125	3.1707763671875E-07	3.22902849347884E-07	3211742.25	1.85326316568535E-05
1	218	89.8922327730439	1.00845336914063	1.00830078125	3.0975341796875E-07	3.12324601736691E-07	3255172.5	1.85641947609838E-05
1	219	89.9929407727897	0.998382568359375	0.9991455078125	3.01513671875001E-07	3.01256022794405E-07	3313765.25	1.85949756996706E-05
1	220	90.0936487725354	0.988311767578125	0.98876953125	2.9266357421875E-07	2.89376828277454E-07	3378519.25	1.86248944373801E-05
1	221	90.1943567722811	0.978240966796875	0.97808837890625	2.83203125000001E-07	2.76997695891623E-07	3453663.75	1.86538909474621E-05
1	222	90.2950647720269	0.968170166015625	0.96832275390625	2.74658203125E-07	2.65957766032443E-07	3525555.75	1.8681981600821E-05
1	223	90.3957727717726	0.958099365234375	0.9576416015625	2.66113281249999E-07	2.5484112597951E-07	3598624	1.87092118721921E-05
1	224	90.4964807715183	0.948028564453125	0.94757080078125	2.58789062500001E-07	2.45220945771507E-07	3661556.75	1.8735643607215E-05
1	225	90.5971887712641	0.937957763671875	0.9381103515625	2.5177001953125E-07	2.36188057556319E-07	3726060.75	1.87613513844553E-05
1	226	90.6978967710098	0.927886962890625	0.92742919921875	2.45361328125E-07	2.27555247533928E-07	3779850.75	1.87863843166269E-05
1	227	90.7986047707556	0.917816162109375	0.91796875	2.392578125E-07	2.19631203890458E-07	3836734.75	1.88107860594755E-05
1	228	90.8993127705013	0.907745361328125	0.9075927734375	2.32849121093751E-07	2.11332178423618E-07	3897772	1.88345584319904E-05
1	229	91.000020770247	0.897674560546875	0.8978271484375	2.2705078125E-07	2.0385235188769E-07	3954301.25	1.88577178050764E-05
1	230	91.1007287699928	0.887603759765625	0.887451171875	2.20336914062499E-07	1.95538248703997E-07	4027700.75	1.88802441698499E-05
1	231	91.2014367697385	0.877532958984375	0.8782958984375	2.14538574218751E-07	1.88428344927161E-07	4093883.25	1.89021429832792E-05
1	232	91.3021447694842	0.867462158203125	0.86761474609375	2.09655761718749E-07	1.81900418283476E-07	4138282.5	1.89235015568556E-05
1	233	91.40285276923	0.857391357421875	0.8575439453125	2.0477294921875E-07	1.75601797991476E-07	4187779.5	1.89443708222825E-05
1	234	91.5035607689757	0.847320556640625	0.84747314453125	2.00500488281249E-07	1.69918777714884E-07	4226788.5	1.89647780644009E-05
1	235	91.6042687687215	0.837249755859375	0.83740234375	1.96228027343751E-07	1.64321818374447E-07	4267496	1.89847542060306E-05
1	236	91.7049767684672	0.827178955078125	0.82733154296875	1.9195556640625E-07	1.58810891548455E-07	4310016	1.90043010661611E-05
1	237	91.8056847682129	0.817108154296875	0.8172607421875	1.873779296875E-07	1.53136625158368E-07	4361563.5	1.90234022738878E-05
1	238	91.9063927679587	0.807037353515625	0.80718994140625	1.82189941406249E-07	1.47061882671551E-07	4430486	1.9042010535486E-05
1	239	92.0071007677044	0.796966552734375	0.79742431640625	1.7730712890625E-07	1.4138902315608E-07	4497418	1.90601131180301E-05
1	240	92.1078087674501	0.786895751953125	0.7867431640625	1.73034667968749E-07	1.36133834871544E-07	4546737.5	1.90777536772657E-05
1	241	92.2085167671959	0.776824951171875	0.7763671875	1.6937255859375E-07	1.31495298205664E-07	4583784	1.90949958778219E-05
1	242	92.3092247669416	0.766754150390625	0.7666015625	1.65710449218751E-07	1.27033885632954E-07	4626151	1.91118688235292E-05
1	243	92.4099327666873	0.756683349609375	0.7568359375	1.62353515624999E-07	1.22874979524568E-07	4661654	1.91283888852922E-05
1	244	92.5106407664331	0.746612548828125	0.7464599609375	1.6021728515625E-07	1.19595782166471E-07	4659047.5	1.91446306416765E-05
1	245	92.6113487661788	0.736541748046875	0.7364501953125	1.57470703125E-07	1.15969321257126E-07	4676744.5	1.91606268344913E-05
1	246	92.7120567659246	0.726470947265625	0.726409912109375	1.544189453125E-07	1.12171449018206E-07	4704150.5	1.91763319890015E-05
1	247	92.8127647656703	0.716400146484375	0.716278076171875	1.5228271484375E-07	1.09076765397731E-07	4703607.5	1.9191777028027E-05
1	248	92.913472765416	0.706329345703125	0.70623779296875	1.4984130859375E-07	1.05823588114617E-07	4713238.5	1.92069892364088E-05
1	249	93.0141807651618	0.696258544921875	0.69610595703125	1.4801025390625E-07	1.03030814102567E-07	4703093	1.92219868040411E-05
1	250	93.1148887649075	0.686187744140625	0.686126708984375	1.47094726562499E-07	1.00925618085057E-07	4664523	1.9236847947468E-05
1	251	93.2155967646532	0.676116943359375	0.675994873046875	1.4617919921875E-07	9.88163861848079E-08	4624426	1.9251614503446E-05
1	252	93.316304764399	0.666046142578125	0.665924072265625	1.46484375E-07	9.75474634401508E-08	4546042	1.92663519555936E-05
1	253	93.4170127641447	0.655975341796875	0.65594482421875	1.47094726562499E-07	9.64860262797629E-08	4459336	1.92811348824762E-05
1	254	93.5177207638905	0.645904541015625	0.645843505859375	1.47399902343751E-07	9.51972722873506E-08	4381573.5	1.92959632840939E-05
1	255	93.6184287636362	0.635833740234375	0.6357421875	1.4678955078125E-07	9.33203097019941E-08	4330977.5	1.93107771337964E-05
1	256	93.7191367633819	0.625762939453125	0.625732421875	1.46484375E-07	9.16600200184803E-08	4271667	1.93255436897743E-05
1	257	93.8198447631277	0.615692138671875	0.61566162109375	1.45263671875E-07	8.94332643497364E-08	4238235.5	1.93402356671868E-05
1	258	93.9205527628734	0.605621337890625	0.605621337890625	1.446533203125E-07	8.76051302611813E-08	4186709	1.93548330571502E-05
1	259	94.0212607626191	0.595550537109375	0.595489501953125	1.446533203125E-07	8.61395292872658E-08	4116666.75	1.93694013432832E-05
1	260	94.1219687623649	0.585479736328125	0.585357666015625	1.44348144531251E-07	8.44952907641527E-08	4055180	1.93839532585116E-05
1	261	94.2226767621106	0.575408935546875	0.57537841796875	1.44348144531251E-07	8.30548003705189E-08	3986046.75	1.93984906218247E-05
1	262	94.3233847618563	0.565338134765625	0.565277099609375	1.4373779296875E-07	8.125168449169E-08	3932696.5	1.9412997062318E-05
1	263	94.4240927616021	0.555267333984375	0.55523681640625	1.4312744140625E-07	7.94696219941216E-08	3879317.75	1.94274416571716E-05
1	264	94.5248007613478	0.545196533203125	0.54510498046875	1.41296386718751E-07	7.70213617329318E-08	3857883.5	1.94417643797351E-05
1	265	94.6255087610936	0.535125732421875	0.535125732421875	1.3885498046875E-07	7.43048715889927E-08	3853846.5	1.94558706425596E-05
1	266	94.7262167608393	0.525054931640625	0.5250244140625	1.36718750000001E-07	7.17806827310596E-08	3840178.5	1.94697458937299E-05
1	267	94.826924760585	0.514984130859375	0.514984130859375	1.3458251953125E-07	6.93078661129221E-08	3826530.5	1.94834083231399E-05
1	268	94.9276327603308	0.504913330078125	0.504852294921875	1.3275146484375E-07	6.70198829766377E-08	3802988.5	1.94968688447261E-05
1	269	95.0283407600765	0.494842529296875	0.494842529296875	1.30615234375001E-07	6.4633972840511E-08	3788551.5	1.95101310964674E-05
1	270	95.1290487598222	0.484771728515625	0.484771728515625	1.2939453125E-07	6.27268050834573E-08	3746462.5	1.95232223632047E-05
1	271	95.229756759568	0.474700927734375	0.474700927734375	1.2786865234375E-07	6.06993637575215E-08	3712410.75	1.95361772057367E-05
1	272	95.3304647593137	0.464630126953125	0.464599609375	1.263427734375E-07	5.86988022632795E-08	3677294.75	1.95489774341695E-05
1	273	95.4311727590595	0.454559326171875	0.454498291015625	1.24206542968749E-07	5.6451657570733E-08	3659214	1.95615939446725E-05
1	274	95.5318807588052	0.444488525390625	0.444488525390625	1.21154785156249E-07	5.38519095982792E-08	3668765.75	1.95739485207014E-05
1	275	95.6325887585509	0.434417724609375	0.434417724609375	1.190185546875E-07	5.17037683778199E-08	3650000	1.95860429812456E-05
1	276	95.7332967582967	0.424346923828125	0.42431640625	1.16882324218751E-07	4.95950871481909E-08	3630287.25	1.95979209820507E-05
1	277	95.8340047580424	0.414276123046875	0.41424560546875	1.1566162109375E-07	4.79123194452313E-08	3581530.25	1.96096316358307E-05
1	278	95.9347127577881	0.404205322265625	0.40411376953125	1.15356445312501E-07	4.66171279356331E-08	3503174.75	1.96212640730664E-05
1	279	96.0354207575339	0.394134521484375	0.39410400390625	1.1474609375E-07	4.52218955615535E-08	3434574.5	1.96328492165776E-05
1	280	96.1361287572796	0.384063720703125	0.384033203125	1.15356445312501E-07	4.430070532635E-08	3329100.5	1.96444361790782E-05
1	281	96.2368367570253	0.373992919921875	0.373992919921875	1.15356445312501E-07	4.31424922453516E-08	3242063.5	1.96560540643986E-05
1	282	96.3375447567711	0.363922119140625	0.363861083984375	1.15051269531249E-07	4.18626768805552E-08	3162599.5	1.96676555788144E-05
1	283	96.4382527565168	0.353851318359375	0.353790283203125	1.141357421875E-07	4.03801152515371E-08	3099732.75	1.96791970665799E-05
1	284	96.5389607562626	0.343780517578125	0.343780517578125	1.1260986328125E-07	3.87130754120335E-08	3052845.5	1.9690614863066E-05
1	285	96.6396687560083	0.333709716796875	0.333709716796875	1.1138916015625E-07	3.71716453173576E-08	2995890.5	1.9701892597368E-05
1	286	96.740376755754	0.323638916015625	0.32366943359375	1.1138916015625E-07	3.60532652621259E-08	2905753.5	1.97131103050197E-05
1	287	96.8410847554998	0.313568115234375	0.313568115234375	1.1016845703125E-07	3.45453159411591E-08	2846260.5	1.9724267986021E-05
1	288	96.9417927552455	0.303497314453125	0.303436279296875	1.0955810546875E-07	3.32439036299093E-08	2769638	1.97353310795734E-05
1	289	97.0425007549912	0.293426513671875	0.293365478515625	1.080322265625E-07	3.16929238408648E-08	2715536.75	1.97462886717403E-05
1	290	97.143208754737	0.283355712890625	0.2833251953125	1.0528564453125E-07	2.98300761869541E-08	2691014.5	1.97570298041683E-05
1	291	97.2439167544827	0.273284912109375	0.27325439453125	1.0223388671875E-07	2.79358580712596E-08	2672836	1.97674780793022E-05
1	292	97.3446247542284	0.263214111328125	0.26318359375	9.79614257812497E-08	2.57818406623755E-08	2686604.25	1.97775589185767E-05
1	293	97.4453327539742	0.253143310546875	0.253143310546875	9.27734375000003E-08	2.34849739655374E-08	2728618.5	1.97871631826274E-05
1	294	97.5460407537199	0.243072509765625	0.2430419921875	8.81958007812503E-08	2.14352819938313E-08	2755709.5	1.97962763195392E-05
1	295	97.6467487534657	0.233001708984375	0.232940673828125	8.392333984375E-08	1.9549158736254E-08	2775636.5	1.98049438040471E-05
1	296	97.7474567532114	0.222930908203125	0.22296142578125	7.9345703125E-08	1.76910308624656E-08	2810000	1.98131638171617E-05
1	297	97.8481647529571	0.212860107421875	0.21282958984375	7.44628906250003E-08	1.58479060985428E-08	2858196.75	1.9820909074042E-05
1	298	97.9488727527029	0.202789306640625	0.202789306640625	6.83593750000003E-08	1.38625502188461E-08	2966517.75	1.98281013581436E-05
1	299	98.0495807524486	0.192718505859375	0.19268798828125	6.19506835937506E-08	1.19371517115496E-08	3110345	1.98346624529222E-05
1	300	98.1502887521943	0.182647705078125	0.18267822265625	5.340576171875E-08	9.75606884168201E-09	3420571.5	1.98404704860877E-05
1	301	98.2509967519401	0.172576904296875	0.172576904296875	4.30297851562497E-08	7.42594652436424E-09	4010638.5	1.98453271877952E-05
1	302	98.3517047516858	0.162506103515625	0.16253662109375	3.02124023437503E-08	4.9106216870598E-09	5379798	1.98490142793162E-05
1	303	98.4524127514316	0.152435302734375	0.152435302734375	1.49536132812503E-08	2.27945862185663E-09	10193877	1.985128983506E-05
1	304	98.5531207511773	0.142364501953125	0.142333984375	-5.49316406250056E-09	-7.81863962462381E-10	-25911110	1.98517664102837E-05
1	305	98.653828750923	0.132293701171875	0.132415771484375	-3.204345703125E-08	-4.24305879320741E-09	-4132381	1.98498764802935E-05
1	306	98.7545367506688	0.122222900390625	0.12225341796875	-6.89697265624997E-08	-8.43178504794651E-09	-1772566.375	1.98447887669317E-05
1	307	98.8552447504145	0.112152099609375	0.112213134765625	-1.2054443359375E-07	-1.35266677858681E-08	-930886.125	1.98352463485207E-05
1	308	98.9559527501602	0.102081298828125	0.102081298828125	-1.904296875E-07	-1.94393106056623E-08	-536057.6875	1.9819588487735E-05
1	309	99.056660749906	0.092010498046875	0.092071533203125	-2.8411865234375E-07	-2.61592383310472E-08	-324060.15625	1.97956924239406E-05
1	310	99.1573687496517	0.081939697265625	0.08197021484375	-4.0557861328125E-07	-3.32453637952312E-08	-202106.859375	1.97609624592587E-05
1	311	99.2580767493974	0.071868896484375	0.071868896484375	-5.5755615234375E-07	-4.00709438963531E-08	-128899.84375	1.97124663827708E-05
1	312	99.3587847491432	0.061798095703125	0.061859130859375	-7.366943359375E-07	-4.55712694247268E-08	-83968.5234375	1.96472956304206E-05
1	313	99.4594927488889	0.051727294921875	0.05169677734375	-9.33837890625E-07	-4.82764050957485E-08	-55359.48046875	1.95631764654536E-05
1	314	99.5602007486347	0.041656494140625	0.0417572021484375	-1.131591796875E-06	-4.72521044514451E-08	-36901.296875	1.94591739273164E-05
1	315	99.6609087483804	0.031585693359375	0.0316802978515625	-1.31072998046875E-06	-4.15243164297863E-08	-24169.96484375	1.93361938727321E-05
1	316	99.7616167481261	0.021514892578125	0.021588134765625	-1.45477294921875E-06	-3.14058361539082E-08	-14839.5224609375	1.91969393199543E-05
1	317	99.8623247478719	0.011444091796875	0.011529541015625	-1.55120849609375E-06	-1.78847212595201E-08	-7432.61865234375	1.9045575754717E-05
1	318	99.9630327476176	0.001373291015625	0.00147094726562499	-1.59942626953125E-06	-2.35267161308172E-09	-919.671875	1.88869289559079E-05
1	319	100.063740747363	-0.008697509765625	-0.0086181640625	-1.6009521484375E-06	1.37972682168197E-08	5383.14892578125	1.87257774086902E-05
1	320	100.164448747109	-0.018768310546875	-0.01865234375	-1.57257080078125E-06	2.93321313904471E-08	11861.0517578125	1.85659773705993E-05
1	321	100.265156746855	-0.028839111328125	-0.0287200927734375	-1.5240478515625E-06	4.37707932121612E-08	18844.61328125	1.84100499609485E-05
1	322	100.365864746601	-0.038909912109375	-0.0387725830078125	-1.463623046875E-06	5.67484441660326E-08	26490.826171875	1.82596086233389E-05
1	323	100.466572746346	-0.048980712890625	-0.0488555908203125	-1.40228271484375E-06	6.85093510810475E-08	34840.04296875	1.81152990990086E-05
1	324	100.567280746092	-0.059051513671875	-0.059051513671875	-1.3427734375E-06	7.92928034343277E-08	43977.2734375	1.79770759132225E-05
1	325	100.667988745838	-0.069122314453125	-0.069061279296875	-1.28692626953125E-06	8.88767743845165E-08	53663.7421875	1.78446589416126E-05
1	326	100.768696745583	-0.079193115234375	-0.079132080078125	-1.23687744140625E-06	9.78766863113378E-08	63977.30078125	1.77175752469338E-05
1	327	100.869404745329	-0.089263916015625	-0.08917236328125	-1.19232177734375E-06	1.06322147530591E-07	74788.84375	1.7595255485503E-05
1	328	100.970112745075	-0.099334716796875	-0.099273681640625	-1.15325927734375E-06	1.14488294400417E-07	86080.9765625	1.74771466845414E-05
1	329	101.070820744821	-0.109405517578125	-0.109283447265625	-1.11785888671875E-06	1.22163470450687E-07	97761.3984375	1.73627868207404E-05
1	330	101.171528744566	-0.119476318359375	-0.119415283203125	-1.0870361328125E-06	1.29808725546354E-07	109854.015625	1.72517611645162E-05
1	331	101.272236744312	-0.129547119140625	-0.1295166015625	-1.058349609375E-06	1.3707384027839E-07	122376.015625	1.7143733202829E-05
1	332	101.372944744058	-0.139617919921875	-0.1395263671875	-1.03271484375E-06	1.44090947173936E-07	135106.375	1.70384391822154E-05
1	333	101.473652743804	-0.149688720703125	-0.14959716796875	-1.0089111328125E-06	1.50930247855285E-07	148275.859375	1.69356353580952E-05
1	334	101.574360743549	-0.159759521484375	-0.15966796875	-9.8846435546875E-07	1.57826093527547E-07	161531.34375	1.68350597959943E-05
1	335	101.675068743295	-0.169830322265625	-0.169708251953125	-9.71069335937499E-07	1.64798478863304E-07	174764.296875	1.6736388715799E-05
1	336	101.775776743041	-0.179901123046875	-0.179779052734375	-9.552001953125E-07	1.71724991560041E-07	188210.859375	1.66393929248443E-05
1	337	101.876484742787	-0.189971923828125	-0.1898193359375	-9.42382812500001E-07	1.78882473278463E-07	201424.875	1.65438432304654E-05
1	338	101.977192742532	-0.200042724609375	-0.199951171875	-9.307861328125E-07	1.86111762445762E-07	214819.6875	1.6449521353934E-05
1	339	102.077900742278	-0.189971923828125	-0.18988037109375	-8.0902099609375E-07	1.53617207843126E-07	234703.890625	1.63619151862804E-05
2	340	102.178608742024	-0.179901123046875	-0.17974853515625	-7.2601318359375E-07	1.30499799411155E-07	247583.015625	1.62846190505661E-05
2	341	102.27931674177	-0.169830322265625	-0.169708251953125	-6.60095214843751E-07	1.12023606391176E-07	257096.625	1.62148226081626E-05
2	342	102.380024741515	-0.159759521484375	-0.159698486328125	-6.05163574218751E-07	9.66437028182554E-08	263893.09375	1.61511125043035E-05
2	343	102.480732741261	-0.149688720703125	-0.149566650390625	-5.57861328125001E-07	8.34374489500078E-08	268107.21875	1.60925501404563E-05
2	344	102.581440741007	-0.139617919921875	-0.1395263671875	-5.1605224609375E-07	7.20028907608139E-08	270372.5625	1.60384734044783E-05
2	345	102.682148740752	-0.129547119140625	-0.12957763671875	-4.7943115234375E-07	6.2123554300797E-08	270273.71875	1.59883475134848E-05
2	346	102.782856740498	-0.119476318359375	-0.119415283203125	-4.4586181640625E-07	5.32427151256343E-08	267830.25	1.59417559189023E-05
2	347	102.883564740244	-0.109405517578125	-0.109344482421875	-4.14123535156249E-07	4.52821211638366E-08	264038.34375	1.58984512381721E-05
2	348	102.98427273999	-0.099334716796875	-0.099212646484375	-3.8330078125E-07	3.80282827450173E-08	258837.578125	1.58582970470889E-05
2	349	103.084980739735	-0.089263916015625	-0.089202880859375	-3.51562499999999E-07	3.13603862878153E-08	253732.65625	1.58212951646419E-05
2	350	103.185688739481	-0.079193115234375	-0.0792236328125	-3.192138671875E-07	2.52892817798056E-08	248183.5625	1.57875183504075E-05
2	351	103.286396739227	-0.069122314453125	-0.069000244140625	-2.83203125000001E-07	1.95410851944189E-08	243642.25	1.5757184883114E-05
2	352	103.387104738973	-0.059051513671875	-0.0589599609375	-2.43530273437501E-07	1.43585356937592E-08	242105.25	1.57306603796314E-05
2	353	103.487812738718	-0.048980712890625	-0.0488677978515625	-1.971435546875E-07	9.63397184250425E-09	247879.265625	1.57084705278976E-05
2	354	103.588520738464	-0.038909912109375	-0.038775634765625	-1.4007568359375E-07	5.43152367527E-09	276819.15625	1.56914902618155E-05
2	355	103.68922873821	-0.028839111328125	-0.0287139892578125	-6.74438476562497E-08	1.9365817838235E-09	425746.65625	1.56810419866815E-05
2	356	103.789936737956	-0.018768310546875	-0.0186798095703125	2.62451171874997E-08	-4.9025378201506E-10	-711744.1875	1.56789665197721E-05
2	357	103.890644737701	-0.008697509765625	-0.008587646484375	1.446533203125E-07	-1.24223153985525E-09	-59367.08984375	1.56875721586403E-05
2	358	103.991352737447	0.001373291015625	0.00150451660156251	2.93884277343751E-07	4.42153785806809E-10	5119.41845703125	1.57096546899993E-05
2	359	104.092060737193	0.011444091796875	0.01151123046875	4.718017578125E-07	5.4310187458384E-09	24398.44921875	1.57482099893969E-05
2	360	104.192768736939	0.021514892578125	0.0215972900390625	6.73522949218749E-07	1.45462708545097E-08	32066.154296875	1.58058810484363E-05
2	361	104.293476736684	0.031585693359375	0.0316680908203125	8.85009765625E-07	2.80265677332636E-08	35782.7578125	1.58843595272629E-05
2	362	104.39418473643	0.041656494140625	0.0417266845703125	1.090087890625E-06	4.54857520537644E-08	38278.27734375	1.59838145918911E-05
2	363	104.494892736176	0.051727294921875	0.051727294921875	1.2664794921875E-06	6.55115570680209E-08	40843.375	1.61024763656314E-05
2	364	104.595600735921	0.061798095703125	0.061767578125	1.39984130859375E-06	8.6464801540842E-08	44124.703125	1.62367359735072E-05
2	365	104.696308735667	0.071868896484375	0.07183837890625	1.4825439453125E-06	1.0650354909103E-07	48456.15625	1.63818767759949E-05
2	366	104.797016735413	0.081939697265625	0.08203125	1.51702880859375E-06	1.24443758409143E-07	54073.62890625	1.65329165611183E-05
2	367	104.897724735159	0.092010498046875	0.092041015625	1.51275634765625E-06	1.39235623919376E-07	60843.25390625	1.66854788403725E-05
2	368	104.998432734904	0.102081298828125	0.10211181640625	1.4813232421875E-06	1.5126060759485E-07	68932.8359375	1.68362421391066E-05
2	369	105.09914073465	0.112152099609375	0.112152099609375	1.4337158203125E-06	1.60794229486783E-07	78224.78125	1.69830254890257E-05
2	370	105.199848734396	0.122222900390625	0.12225341796875	1.37908935546875E-06	1.68598390359875E-07	88647.9296875	1.71246629179223E-05
2	371	105.300556734142	0.132293701171875	0.132293701171875	1.3226318359375E-06	1.74975852473835E-07	100023.078125	1.72607051354134E-05
2	372	105.401264733887	0.142364501953125	0.14239501953125	1.2677001953125E-06	1.80514192038572E-07	112325.46875	1.73911375895841E-05
2	373	105.501972733633	0.152435302734375	0.15252685546875	1.217041015625E-06	1.85631435556388E-07	125325.9765625	1.75162549567176E-05
2	374	105.602680733379	0.162506103515625	0.16253662109375	1.171875E-06	1.90472590588797E-07	138697.921875	1.76365465449635E-05
2	375	105.703388733125	0.172576904296875	0.172637939453125	1.1322021484375E-06	1.95461041130329E-07	152479.796875	1.77525653271005E-05
2	376	105.80409673287	0.182647705078125	0.182586669921875	1.09649658203125E-06	2.00205661826658E-07	166518.234375	1.78647896973416E-05
2	377	105.904804732616	0.192718505859375	0.1927490234375	1.065673828125E-06	2.05407587827722E-07	180870.5625	1.79736634891015E-05
2	378	106.005512732362	0.202789306640625	0.2027587890625	1.03851318359375E-06	2.10567662861649E-07	195239.5	1.80796178028686E-05
2	379	106.106220732108	0.212860107421875	0.21282958984375	1.0137939453125E-06	2.15765354028008E-07	209933.765625	1.81829600478522E-05
2	380	106.206928731853	0.222930908203125	0.222991943359375	9.91210937500001E-07	2.21032038894009E-07	224969.234375	1.82839194167173E-05
2	381	106.307636731599	0.233001708984375	0.232940673828125	9.716796875E-07	2.26343729536893E-07	239729.890625	1.83827596629271E-05
2	382	106.408344731345	0.243072509765625	0.24310302734375	9.54589843750001E-07	2.3206368382489E-07	254667.515625	1.84797554538818E-05
2	383	106.50905273109	0.253143310546875	0.253173828125	9.3963623046875E-07	2.3789129954821E-07	269438.125	1.85751359822461E-05
2	384	106.609760730836	0.263214111328125	0.263214111328125	9.27124023437501E-07	2.44032122509452E-07	283903.875	1.86691358976532E-05
2	385	106.710468730582	0.273284912109375	0.273223876953125	9.1552734375E-07	2.50143926905366E-07	298433.34375	1.87619207281386E-05
2	386	106.811176730328	0.283355712890625	0.283355712890625	9.063720703125E-07	2.56825700262198E-07	312626.25	1.88536596397171E-05
2	387	106.911884730073	0.293426513671875	0.29339599609375	8.97216796875E-07	2.63239797959613E-07	327006.8125	1.89444781426573E-05
2	388	107.012592729819	0.303497314453125	0.30340576171875	8.8836669921875E-07	2.69535576080671E-07	341532.125	1.90343889698852E-05
2	389	107.113300729565	0.313568115234375	0.31353759765625	8.79821777343751E-07	2.758571895356E-07	356364.90625	1.91234248632099E-05
2	390	107.214008729311	0.323638916015625	0.323638916015625	8.7310791015625E-07	2.82571676279986E-07	370674.59375	1.9211691324017E-05
2	391	107.314716729056	0.333709716796875	0.33367919921875	8.66088867187501E-07	2.8899583526254E-07	385271.34375	1.92992665688507E-05
2	392	107.415424728802	0.343780517578125	0.343780517578125	8.59680175781249E-07	2.95541298100943E-07	399893.53125	1.93861669686157E-05
2	393	107.516132728548	0.353851318359375	0.35382080078125	8.5418701171875E-07	3.02229125281883E-07	414219.375	1.94724671018776E-05
2	394	107.616840728294	0.363922119140625	0.363861083984375	8.4991455078125E-07	3.09250822283502E-07	428114.90625	1.9558274289011E-05
2	395	107.717548728039	0.373992919921875	0.373992919921875	8.453369140625E-07	3.16150021717476E-07	442418.78125	1.964363764273E-05
2	396	107.818256727785	0.384063720703125	0.384033203125	8.39843749999999E-07	3.22527881735368E-07	457267.46875	1.97284934984054E-05
2	397	107.918964727531	0.394134521484375	0.394073486328125	8.349609375E-07	3.2903597002587E-07	471966.375	1.98128254851326E-05
2	398	108.019672727277	0.404205322265625	0.40411376953125	8.30078125E-07	3.35445974997128E-07	486838.25	1.98966681637103E-05
2	399	108.120380727022	0.414276123046875	0.414276123046875	8.251953125E-07	3.41858708452492E-07	502034.03125	1.99800178961596E-05
2	400	108.221088726768	0.424346923828125	0.424346923828125	8.209228515625E-07	3.48356081758538E-07	516914.53125	2.00629056053003E-05
2	401	108.321796726514	0.434417724609375	0.434356689453125	8.1787109375E-07	3.55247777861223E-07	531082.125	2.01454258785816E-05
2	402	108.422504726259	0.444488525390625	0.44451904296875	8.14208984375001E-07	3.61931398629167E-07	545952	2.02276078198338E-05
2	403	108.523212726005	0.454559326171875	0.45452880859375	8.1146240234375E-07	3.68833013908443E-07	560135.4375	2.03094659809722E-05
2	404	108.623920725751	0.464630126953125	0.46453857421875	8.0902099609375E-07	3.75821457510028E-07	574198.4375	2.03910640266258E-05
2	405	108.724628725497	0.474700927734375	0.47467041015625	8.06274414062499E-07	3.82714603119894E-07	588720.6875	2.04724001378054E-05
2	406	108.825336725242	0.484771728515625	0.484710693359375	8.0413818359375E-07	3.8977435679044E-07	602770.4375	2.05534925044049E-05
2	407	108.926044724988	0.494842529296875	0.494842529296875	8.013916015625E-07	3.96562654714216E-07	617479.0625	2.0634335669456E-05
2	408	109.026752724734	0.504913330078125	0.5048828125	7.99560546875E-07	4.03684367711321E-07	631450.375	2.07149514608318E-05
2	409	109.12746072448	0.514984130859375	0.5150146484375	7.98645019531249E-07	4.11313862969109E-07	644860.5625	2.07954271900235E-05
2	410	109.228168724225	0.525054931640625	0.52496337890625	7.98645019531249E-07	4.19259379214054E-07	657317.5625	2.08758574444801E-05
2	411	109.328876723971	0.535125732421875	0.535064697265625	7.98950195312501E-07	4.27490022048005E-07	669709.75	2.09563022508519E-05
2	412	109.429584723717	0.545196533203125	0.545074462890625	8.00170898437499E-07	4.36152703287007E-07	681197.5625	2.10368234547786E-05
2	413	109.530292723463	0.555267333984375	0.55517578125	8.0108642578125E-07	4.44743761818245E-07	693028.5625	2.11174537980696E-05
2	414	109.631000723208	0.565338134765625	0.565277099609375	8.0230712890625E-07	4.53525842658564E-07	704564.5	2.11981914617354E-05
2	415	109.731708722954	0.575408935546875	0.5753173828125	8.03222656249999E-07	4.62107948351331E-07	716261.4375	2.1279036445776E-05
2	416	109.8324167227	0.585479736328125	0.58544921875	8.0474853515625E-07	4.71139401270193E-07	727493.375	2.13600033021066E-05
2	417	109.933124722446	0.595550537109375	0.59552001953125	8.056640625E-07	4.79789093787986E-07	739166.6875	2.14410938497167E-05
2	418	110.033832722191	0.605621337890625	0.605499267578125	8.06884765625E-07	4.88568161927105E-07	750416.0625	2.1522293536691E-05
2	419	110.134540721937	0.615692138671875	0.615631103515625	8.09326171875E-07	4.98246322422347E-07	760671.25	2.16036751226056E-05
2	420	110.235248721683	0.625762939453125	0.625701904296875	8.1207275390625E-07	5.0811547680496E-07	770499.8125	2.16853186429944E-05
2	421	110.335956721428	0.635833740234375	0.635772705078125	8.148193359375E-07	5.18039882990706E-07	780262.1875	2.17672404687619E-05
2	422	110.436664721174	0.645904541015625	0.645843505859375	8.1634521484375E-07	5.27231236446823E-07	791140.1875	2.18493751162896E-05
2	423	110.53737272092	0.655975341796875	0.655914306640625	8.18481445312499E-07	5.36853633548162E-07	801379.625	2.19316953007365E-05
2	424	110.638080720666	0.666046142578125	0.665924072265625	8.19091796875E-07	5.45452962796844E-07	813003	2.2014153728378E-05
2	425	110.738788720411	0.676116943359375	0.676025390625	8.2061767578125E-07	5.54758344151196E-07	823800.6875	2.20967194763944E-05
2	426	110.839496720157	0.686187744140625	0.68603515625	8.221435546875E-07	5.64019387638837E-07	834446.9375	2.217943983851E-05
2	427	110.940204719903	0.696258544921875	0.6961669921875	8.24584960937499E-07	5.74048840462638E-07	844263.5	2.22623584704706E-05
2	428	111.040912719649	0.706329345703125	0.70623779296875	8.270263671875E-07	5.84077270104899E-07	853948.375	2.23455244849902E-05
2	429	111.141620719394	0.716400146484375	0.71624755859375	8.3038330078125E-07	5.94759967498248E-07	862550.5625	2.24289815378143E-05
2	430	111.24232871914	0.726470947265625	0.726348876953125	8.33740234374999E-07	6.0558625136764E-07	871193.3125	2.25127769226674E-05
2	431	111.343036718886	0.736541748046875	0.7364501953125	8.3740234375E-07	6.16705108313909E-07	879446.125	2.25969251914648E-05
2	432	111.443744718632	0.746612548828125	0.746490478515625	8.4075927734375E-07	6.27618760518089E-07	887876.625	2.2681428163196E-05
2	433	111.544452718377	0.756683349609375	0.7568359375	8.43505859375E-07	6.38395533769653E-07	897250.375	2.27662367251469E-05
2	434	111.645160718123	0.766754150390625	0.76690673828125	8.47473144531249E-07	6.49932871965575E-07	904933.375	2.28513854381163E-05
2	435	111.745868717869	0.776824951171875	0.77667236328125	8.52355957031251E-07	6.62001298223913E-07	911206.625	2.29369779845001E-05
2	436	111.846576717615	0.786895751953125	0.787353515625	8.56933593750001E-07	6.74709667691786E-07	918803.4375	2.30230471061077E-05
2	437	111.94728471736	0.796966552734375	0.797119140625	8.62731933593749E-07	6.87700094204047E-07	923947.6875	2.31096400966635E-05
2	438	112.047992717106	0.807037353515625	0.80718994140625	8.6944580078125E-07	7.01807891800854E-07	928395.9375	2.31968606385635E-05
2	439	112.148700716852	0.817108154296875	0.8172607421875	8.7554931640625E-07	7.15552062047209E-07	933426.3125	2.32847287406912E-05
2	440	112.249408716597	0.827178955078125	0.82733154296875	8.81347656250001E-07	7.29166742985399E-07	938711.9375	2.33731952903327E-05
2	441	112.350116716343	0.837249755859375	0.83770751953125	8.8653564453125E-07	7.42657562113891E-07	944922.5625	2.34622166317422E-05
2	442	112.450824716089	0.847320556640625	0.8477783203125	8.92333984375E-07	7.56501378873509E-07	950068.4375	2.3551789126941E-05
2	443	112.551532715835	0.857391357421875	0.8575439453125	8.96606445312501E-07	7.68879431234382E-07	956433	2.36418691201834E-05
2	444	112.65224071558	0.867462158203125	0.86761474609375	9.02404785156249E-07	7.82939650889602E-07	961447.4375	2.37324566114694E-05
2	445	112.752948715326	0.877532958984375	0.877685546875	9.0789794921875E-07	7.96848894424329E-07	966722.75	2.38236134464387E-05
2	446	112.853656715072	0.887603759765625	0.88775634765625	9.130859375E-07	8.10597782674449E-07	972259.375	2.3915306883282E-05
2	447	112.954364714818	0.897674560546875	0.8978271484375	9.1827392578125E-07	8.24451205971855E-07	977733.5	2.40075223700842E-05
2	448	113.055072714563	0.907745361328125	0.90789794921875	9.2315673828125E-07	8.38132109493017E-07	983471.0625	2.41002453549299E-05
2	449	113.155780714309	0.917816162109375	0.91796875	9.27124023437501E-07	8.51070865337533E-07	990125.125	2.4193415811169E-05
2	450	113.256488714055	0.927886962890625	0.92803955078125	9.30175781250001E-07	8.63239904447255E-07	997703.4375	2.42869373323629E-05
2	451	113.357196713801	0.937957763671875	0.938720703125	9.326171875E-07	8.75467037531052E-07	1006544.5	2.43807371589355E-05
2	452	113.457904713546	0.948028564453125	0.94757080078125	9.3505859375E-07	8.86034172253858E-07	1013381.25	2.44747825490776E-05
2	453	113.558612713292	0.958099365234375	0.958251953125	9.3719482421875E-07	8.98068719834555E-07	1022468.3125	2.45690571318846E-05
2	454	113.659320713038	0.968170166015625	0.96832275390625	9.4024658203125E-07	9.1046211991852E-07	1029860.5	2.46635936491657E-05
2	455	113.760028712784	0.978240966796875	0.9783935546875	9.42382812500001E-07	9.22021229143866E-07	1038212.5	2.47583921009209E-05
2	456	113.860736712529	0.988311767578125	0.98846435546875	9.45434570312501E-07	9.34528316065553E-07	1045513.3125	2.48534506681608E-05
2	457	113.961444712275	0.998382568359375	0.9979248046875	9.478759765625E-07	9.45908936955675E-07	1052801.125	2.494878572179E-05
2	458	114.062152712021	1.00845336914063	1.00830078125	9.50012207031251E-07	9.57898009801283E-07	1061355.625	2.50443536060629E-05
2	459	114.162860711766	1.01852416992188	1.01837158203125	9.5184326171875E-07	9.69330130828894E-07	1069894.25	2.51401197601808E-05
2	460	114.263568711512	1.02859497070313	1.0284423828125	9.5367431640625E-07	9.80799086391926E-07	1078400	2.52360696322285E-05
2	461	114.364276711258	1.03866577148438	1.03851318359375	9.564208984375E-07	9.93255639514246E-07	1085832.875	2.53322505159304E-05
2	462	114.464984711004	1.04873657226563	1.04888916015625	9.5794677734375E-07	1.00477996056725E-06	1094934.75	2.54286460403819E-05
2	463	114.565692710749	1.05880737304688	1.05926513671875	9.6160888671875E-07	1.01859870937915E-06	1101555.125	2.55253034993075E-05
2	464	114.666400710495	1.06887817382813	1.0687255859375	9.6588134765625E-07	1.03226204828388E-06	1106477.125	2.56223611359019E-05
2	465	114.767108710241	1.07894897460938	1.07879638671875	9.70458984375E-07	1.04692753666313E-06	1111635.25	2.57198626059107E-05
2	466	114.867816709987	1.08901977539063	1.0888671875	9.74121093749999E-07	1.06068853256147E-06	1117794.5	2.5817780624493E-05
2	467	114.968524709732	1.09909057617188	1.09893798828125	9.783935546875E-07	1.07519383618637E-06	1123206.5	2.59160970017547E-05
2	468	115.069232709478	1.10916137695313	1.1090087890625	9.82055664062501E-07	1.08910830931563E-06	1129272.875	2.60148135566851E-05
2	469	115.169940709224	1.11923217773438	1.119384765625	9.86328124999999E-07	1.1040806384699E-06	1134901	2.61139302892843E-05
2	470	115.27064870897	1.12930297851563	1.12945556640625	9.906005859375E-07	1.11883935005608E-06	1140172.5	2.62134763033828E-05
2	471	115.371356708715	1.13937377929688	1.13922119140625	9.94873046875E-07	1.13338046503486E-06	1145092	2.63134534179699E-05
2	472	115.472064708461	1.14944458007813	1.14959716796875	9.99755859375E-07	1.14931640382565E-06	1149878	2.64138907368761E-05
2	473	115.572772708207	1.15951538085938	1.15966796875	1.004638671875E-06	1.16504725156119E-06	1154313.5	2.65148191829212E-05
2	474	115.673480707953	1.16958618164063	1.16943359375	1.0089111328125E-06	1.17985450742708E-06	1159104.625	2.66162096522748E-05
2	475	115.774188707698	1.17965698242188	1.17950439453125	1.01348876953125E-06	1.19541437015869E-06	1163806.125	2.67180457740324E-05
2	476	115.874896707444	1.18972778320313	1.1895751953125	1.01654052734375E-06	1.20925142255146E-06	1170219.125	2.6820265702554E-05
2	477	115.97560470719	1.19979858398438	1.1993408203125	1.01898193359375E-06	1.22210667541367E-06	1176999.125	2.6922762117465E-05
2	478	116.076312706935	1.20986938476563	1.21002197265625	1.0211181640625E-06	1.23557538245223E-06	1184997	2.70254895440303E-05
2	479	116.177020706681	1.21994018554688	1.21978759765625	1.0235595703125E-06	1.24852522276342E-06	1191711.375	2.71284479822498E-05
2	480	116.277728706427	1.23001098632813	1.2298583984375	1.02630615234375E-06	1.26221118534886E-06	1198334.875	2.7231666535954E-05
2	481	116.378436706173	1.24008178710938	1.240234375	1.02935791015625E-06	1.27664509363967E-06	1204862.125	2.73351779469522E-05
2	482	116.479144705918	1.25015258789063	1.25030517578125	1.03179931640625E-06	1.29006400584331E-06	1211771.625	2.74389640253503E-05
2	483	116.579852705664	1.26022338867188	1.26007080078125	1.03515625E-06	1.30437001644168E-06	1217276	2.75430447800318E-05
2	484	116.68056070541	1.27029418945313	1.2701416015625	1.0382080078125E-06	1.31867113850603E-06	1223398	2.76474456768483E-05
2	485	116.781268705156	1.28036499023438	1.2799072265625	1.0406494140625E-06	1.33193475448934E-06	1229912	2.77521248790435E-05
2	486	116.881976704901	1.29043579101563	1.290283203125	1.0430908203125E-06	1.34588253786205E-06	1236980.625	2.78570496448083E-05
2	487	116.982684704647	1.30050659179688	1.300048828125	1.04583740234375E-06	1.35963966840791E-06	1243069.75	2.79622363450471E-05
2	488	117.083392704393	1.31057739257813	1.3104248046875	1.05010986328125E-06	1.37609004013939E-06	1247893	2.80677741102409E-05
2	489	117.184100704139	1.32064819335938	1.32049560546875	1.0552978515625E-06	1.39351618599903E-06	1251301.375	2.81737902696477E-05
2	490	117.284808703884	1.33071899414063	1.33056640625	1.0614013671875E-06	1.41226496452873E-06	1253594	2.82803757727379E-05
2	491	117.38551670363	1.34078979492188	1.3409423828125	1.0675048828125E-06	1.43146246500692E-06	1256146.375	2.83875742752571E-05
2	492	117.486224703376	1.35086059570313	1.35009765625	1.07391357421875E-06	1.44988814554381E-06	1257175.375	2.84954021481099E-05
2	493	117.586932703122	1.36093139648438	1.3604736328125	1.08123779296875E-06	1.47099547120888E-06	1258255.75	2.86039230559254E-05
2	494	117.687640702867	1.37100219726563	1.37115478515625	1.087646484375E-06	1.49133154536685E-06	1260662.25	2.87131351797143E-05
2	495	117.788348702613	1.38107299804688	1.3812255859375	1.0943603515625E-06	1.5115584801606E-06	1262130.625	2.88230075966567E-05
2	496	117.889056702359	1.39114379882813	1.3909912109375	1.10076904296875E-06	1.53116002366005E-06	1263654	2.8933542125742E-05
2	497	117.989764702104	1.40121459960938	1.40106201171875	1.10748291015625E-06	1.55165207615937E-06	1265086.875	2.90447351289913E-05
2	498	118.09047270185	1.41128540039063	1.4111328125	1.11541748046875E-06	1.57400222633441E-06	1265116.25	2.91566684609279E-05
2	499	118.191180701596	1.42135620117188	1.42120361328125	1.123046875E-06	1.59607827754371E-06	1265489.125	2.9269383958308E-05
2	500	118.291888701342	1.43142700195313	1.43157958984375	1.1309814453125E-06	1.61908997142746E-06	1265785.25	2.93828834401211E-05
2	501	118.392596701087	1.44149780273438	1.441650390625	1.1383056640625E-06	1.6410386933785E-06	1266488	2.94971505354624E-05
2	502	118.493304700833	1.45156860351563	1.45172119140625	1.14532470703125E-06	1.66269205692515E-06	1267519.375	2.9612139769597E-05
2	503	118.594012700579	1.46163940429688	1.46148681640625	1.15081787109375E-06	1.68190513250011E-06	1269954.875	2.97277601930546E-05
2	504	118.694720700325	1.47171020507813	1.47186279296875	1.156005859375E-06	1.70148200595577E-06	1273231.25	2.98439190373756E-05
2	505	118.79542870007	1.48178100585938	1.48193359375	1.160888671875E-06	1.72035981904628E-06	1276551.125	2.99605835607508E-05
2	506	118.896136699816	1.49185180664063	1.4910888671875	1.1663818359375E-06	1.73917896972853E-06	1278388.25	3.00777701340849E-05
2	507	118.996844699562	1.50192260742188	1.50115966796875	1.17095947265625E-06	1.75779700839485E-06	1281991.25	3.01954642054625E-05
2	508	119.097552699308	1.49185180664063	1.49139404296875	1.075439453125E-06	1.60390391101828E-06	1386776.5	3.03085798805114E-05
2	509	119.198260699053	1.48178100585938	1.48223876953125	1.01104736328125E-06	1.49861352838343E-06	1466043	3.04136428894708E-05
2	510	119.298968698799	1.47171020507813	1.47186279296875	9.613037109375E-07	1.41490716032422E-06	1531111.125	3.05129597109044E-05
2	511	119.399676698545	1.46163940429688	1.46148681640625	9.185791015625E-07	1.34249125949282E-06	1591030	3.06076181004755E-05
2	512	119.500384698291	1.45156860351563	1.451416015625	8.819580078125E-07	1.28008798583323E-06	1645674.75	3.06982838083059E-05
2	513	119.601092698036	1.44149780273438	1.44134521484375	8.4991455078125E-07	1.2250202416908E-06	1695870.75	3.07854897982907E-05
2	514	119.701800697782	1.43142700195313	1.43157958984375	8.21533203124999E-07	1.17609022254328E-06	1742570.625	3.08696544379927E-05
2	515	119.802508697528	1.42135620117188	1.4215087890625	7.9620361328125E-07	1.13181044980593E-06	1785358.375	3.09511124214623E-05
2	516	119.903216697273	1.41128540039063	1.4111328125	7.7392578125E-07	1.09211202925508E-06	1823343.875	3.10301766148768E-05
2	517	120.003924697019	1.40121459960938	1.4007568359375	7.5408935546875E-07	1.05629578683875E-06	1857547.625	3.1107116228668E-05
2	518	120.104632696765	1.39114379882813	1.3909912109375	7.34863281250001E-07	1.02218837128021E-06	1892857.25	3.11820913339034E-05
2	519	120.205340696511	1.38107299804688	1.380615234375	7.17773437499999E-07	9.90968942460313E-07	1923469.375	3.12552365357988E-05
2	520	120.306048696256	1.37100219726563	1.370849609375	7.0037841796875E-07	9.60113425207965E-07	1957298.5	3.13266464218032E-05
2	521	120.406756696002	1.36093139648438	1.36077880859375	6.84204101562499E-07	9.31050465169392E-07	1988849.25	3.13963682856411E-05
2	522	120.507464695748	1.35086059570313	1.35040283203125	6.683349609375E-07	9.02521435364179E-07	2020548	3.14644712489098E-05
2	523	120.608172695494	1.34078979492188	1.34033203125	6.53076171875E-07	8.75338855621521E-07	2052336.5	3.15310098812915E-05
2	524	120.708880695239	1.33071899414063	1.33056640625	6.390380859375E-07	8.5028261764819E-07	2082139.375	3.15960751322564E-05
2	525	120.809588694985	1.32064819335938	1.32049560546875	6.256103515625E-07	8.26115694962937E-07	2110731.75	3.16597543132957E-05
2	526	120.910296694731	1.31057739257813	1.31103515625	6.121826171875E-07	8.02592921900214E-07	2141575.25	3.17220801662188E-05
2	527	121.011004694477	1.30050659179688	1.3006591796875	5.999755859375E-07	7.80363734520506E-07	2167853.5	3.17831181746442E-05
2	528	121.111712694222	1.29043579101563	1.29058837890625	5.8624267578125E-07	7.56597955842153E-07	2201457.5	3.18428501486778E-05
2	529	121.212420693968	1.28036499023438	1.28021240234375	5.7220458984375E-07	7.32543355752568E-07	2237333.5	3.19011815008707E-05
2	530	121.313128693714	1.27029418945313	1.2701416015625	5.5816650390625E-07	7.0895049475439E-07	2275560.5	3.19581013172865E-05
2	531	121.41383669346	1.26022338867188	1.26007080078125	5.4473876953125E-07	6.86409407535393E-07	2313165.25	3.20136350637767E-05
2	532	121.514544693205	1.25015258789063	1.24969482421875	5.3131103515625E-07	6.63976607029326E-07	2352096.75	3.20678191201296E-05
2	533	121.615252692951	1.24008178710938	1.240234375	5.1849365234375E-07	6.4305368141504E-07	2391995.25	3.21206825901754E-05
2	534	121.715960692697	1.23001098632813	1.229248046875	5.06591796875E-07	6.22726986421185E-07	2426506	3.21722982334904E-05
2	535	121.816668692442	1.21994018554688	1.219482421875	4.9560546875E-07	6.04382137225912E-07	2460591.25	3.22227642755024E-05
2	536	121.917376692188	1.20986938476563	1.2103271484375	4.833984375E-07	5.8507021094556E-07	2503788	3.22720588883385E-05
2	537	122.018084691934	1.19979858398438	1.19964599609375	4.72412109375001E-07	5.66727294426528E-07	2539405.75	3.23201893479563E-05
2	538	122.11879269168	1.18972778320313	1.18927001953125	4.608154296875E-07	5.48033938230219E-07	2580794.75	3.23671811202075E-05
2	539	122.219500691425	1.17965698242188	1.17950439453125	4.5013427734375E-07	5.30935380993469E-07	2620339	3.24130523949862E-05
2	540	122.320208691171	1.16958618164063	1.16973876953125	4.3914794921875E-07	5.13688348746655E-07	2663655.5	3.24578286381438E-05
2	541	122.420916690917	1.15951538085938	1.1590576171875	4.302978515625E-07	4.98739950671734E-07	2693617.25	3.25016080751084E-05
2	542	122.521624690663	1.14944458007813	1.1492919921875	4.2144775390625E-07	4.8436652377859E-07	2727009.5	3.2544499845244E-05
2	543	122.622332690408	1.13937377929688	1.1395263671875	4.14123535156249E-07	4.71904655796607E-07	2751658.25	3.2586573070148E-05
2	544	122.723040690154	1.12930297851563	1.129150390625	4.0740966796875E-07	4.6002676867829E-07	2771535.75	3.26279405271634E-05
2	545	122.8237486899	1.11923217773438	1.1187744140625	4.0008544921875E-07	4.47605344788826E-07	2796338.75	3.26686022162903E-05
2	546	122.924456689646	1.10916137695313	1.10870361328125	3.93066406250001E-07	4.35794135000833E-07	2820652.25	3.27085399476346E-05
2	547	123.025164689391	1.09909057617188	1.0986328125	3.857421875E-07	4.23789003889397E-07	2848101.5	3.2747757359175E-05
2	548	123.125872689137	1.08901977539063	1.08856201171875	3.7872314453125E-07	4.12263631233145E-07	2874295	3.27862508129328E-05
2	549	123.226580688883	1.07894897460938	1.0791015625	3.7200927734375E-07	4.01435784169735E-07	2900738.25	3.28240530507173E-05
2	550	123.327288688629	1.06887817382813	1.06903076171875	3.643798828125E-07	3.89533283851051E-07	2933836	3.28611313307192E-05
2	551	123.427996688374	1.05880737304688	1.05865478515625	3.570556640625E-07	3.77998674139235E-07	2964957.25	3.28974601870868E-05
2	552	123.52870468812	1.04873657226563	1.048583984375	3.4942626953125E-07	3.66402787221887E-07	3000873.25	3.29330323438626E-05
2	553	123.629412687866	1.03866577148438	1.03851318359375	3.40881347656249E-07	3.54009756620144E-07	3046553.25	3.29677932313643E-05
2	554	123.730120687611	1.02859497070313	1.02813720703125	3.32031250000001E-07	3.41373691981062E-07	3096507.25	3.30016773659736E-05
2	555	123.830828687357	1.01852416992188	1.0186767578125	3.22265625E-07	3.28284471606821E-07	3160985	3.30346229020506E-05
2	556	123.931536687103	1.00845336914063	1.00830078125	3.1158447265625E-07	3.1417087598129E-07	3236043	3.30665388901252E-05
2	557	124.032244686849	0.998382568359375	0.9979248046875	3.0029296875E-07	2.99669778769385E-07	3323171	3.30973525706213E-05
2	558	124.132952686594	0.988311767578125	0.98846435546875	2.89306640625001E-07	2.85969292690424E-07	3416666.75	3.31270384776872E-05
2	559	124.23366068634	0.978240966796875	0.977783203125	2.78625488281251E-07	2.72435329407017E-07	3509310	3.31556366290897E-05
2	560	124.334368686086	0.968170166015625	0.9686279296875	2.69165039062499E-07	2.60720781852797E-07	3598639.5	3.31832197844051E-05
2	561	124.435076685832	0.958099365234375	0.958251953125	2.5970458984375E-07	2.48862420448859E-07	3689776.75	3.3209849789273E-05
2	562	124.535784685577	0.948028564453125	0.94818115234375	2.50854492187499E-07	2.37855502405182E-07	3779805.25	3.32355593855027E-05
2	563	124.636492685323	0.937957763671875	0.93780517578125	2.423095703125E-07	2.27239169703353E-07	3870277	3.32603922288399E-05
2	564	124.737200685069	0.927886962890625	0.92803955078125	2.33154296875E-07	2.16376406569907E-07	3980366.5	3.32843337673694E-05
2	565	124.837908684815	0.917816162109375	0.91766357421875	2.24914550781249E-07	2.0639588171889E-07	4080054.5	3.33073985530064E-05
2	566	124.93861668456	0.907745361328125	0.90728759765625	2.1697998046875E-07	1.96863240375933E-07	4181434.75	3.33296520693693E-05
2	567	125.039324684306	0.897674560546875	0.8978271484375	2.09960937500001E-07	1.88508622045447E-07	4276163	3.33511488861404E-05
2	568	125.140032684052	0.887603759765625	0.88775634765625	2.044677734375E-07	1.81517563646594E-07	4341791	3.33720163325779E-05
2	569	125.240740683798	0.877532958984375	0.87738037109375	1.995849609375E-07	1.75111921407733E-07	4396024.5	3.3392363548046E-05
2	570	125.341448683543	0.867462158203125	0.86700439453125	1.9561767578125E-07	1.6960137827482E-07	4432137.5	3.34122632921208E-05
2	571	125.442156683289	0.857391357421875	0.85723876953125	1.9195556640625E-07	1.64551750003739E-07	4465819	3.3431777410442E-05
2	572	125.542864683035	0.847320556640625	0.84747314453125	1.8798828125E-07	1.59315021619477E-07	4508117	3.34509095409885E-05
2	573	125.64357268278	0.837249755859375	0.83740234375	1.8463134765625E-07	1.54610717117976E-07	4535537	3.34696742356755E-05
2	574	125.744280682526	0.827178955078125	0.82733154296875	1.80969238281251E-07	1.49721557818339E-07	4571669.5	3.34880824084394E-05
2	575	125.844988682272	0.817108154296875	0.816650390625	1.7730712890625E-07	1.44797937196017E-07	4605852	3.35061231453437E-05
2	576	125.945696682018	0.807037353515625	0.80718994140625	1.739501953125E-07	1.40410833182614E-07	4640351	3.35238109983038E-05
2	577	126.046404681763	0.796966552734375	0.79681396484375	1.71813964843751E-07	1.36903764769158E-07	4637655.5	3.35412223648746E-05
2	578	126.147112681509	0.786895751953125	0.787353515625	1.6937255859375E-07	1.33356081732927E-07	4648648.5	3.35584009008016E-05
2	579	126.247820681255	0.776824951171875	0.7769775390625	1.66931152343749E-07	1.29701746232058E-07	4654479	3.35753356921487E-05
2	580	126.348528681001	0.766754150390625	0.7666015625	1.6448974609375E-07	1.26098100849958E-07	4660482.5	3.35920231009368E-05
2	581	126.449236680746	0.756683349609375	0.7568359375	1.6143798828125E-07	1.22182072459509E-07	4688091	3.36084376613144E-05
2	582	126.549944680492	0.746612548828125	0.7464599609375	1.57775878906249E-07	1.17773375052366E-07	4731141.5	3.36245102516841E-05
2	583	126.650652680238	0.736541748046875	0.73651123046875	1.5411376953125E-07	1.13506516186135E-07	4779010	3.36402154061943E-05
2	584	126.751360679984	0.726470947265625	0.726318359375	1.507568359375E-07	1.09497456435292E-07	4817814	3.36555676767603E-05
2	585	126.852068679729	0.716400146484375	0.716278076171875	1.47705078125E-07	1.05797909100147E-07	4849380	3.36705961672124E-05
2	586	126.952776679475	0.706329345703125	0.70623779296875	1.45568847656249E-07	1.02806218649221E-07	4851572.5	3.36853627231903E-05
2	587	127.053484679221	0.696258544921875	0.696197509765625	1.434326171875E-07	9.98574307686795E-08	4853830	3.36999146384187E-05
2	588	127.154192678967	0.686187744140625	0.68603515625	1.4190673828125E-07	9.73530092096553E-08	4834408.5	3.37142810167279E-05
2	589	127.254900678712	0.676116943359375	0.675994873046875	1.4007568359375E-07	9.4690442153933E-08	4825926	3.3728480048012E-05
2	590	127.355608678458	0.666046142578125	0.665985107421875	1.38244628906251E-07	9.20688663086366E-08	4817439.5	3.37424971803557E-05
2	591	127.456316678204	0.655975341796875	0.6558837890625	1.36413574218749E-07	8.94714560217835E-08	4808053.5	3.37563251378015E-05
2	592	127.557024677949	0.645904541015625	0.645843505859375	1.34887695312499E-07	8.71163337023972E-08	4788009.5	3.37699857482221E-05
2	593	127.657732677695	0.635833740234375	0.635711669921875	1.33056640625E-07	8.45856504838594E-08	4777752.5	3.37834790116176E-05
2	594	127.758440677441	0.625762939453125	0.62567138671875	1.324462890625E-07	8.28678565767405E-08	4723963	3.37968485837337E-05
2	595	127.859148677187	0.615692138671875	0.615570068359375	1.324462890625E-07	8.15299685541504E-08	4647696	3.38101854140405E-05
2	596	127.959856676932	0.605621337890625	0.60552978515625	1.33056640625E-07	8.05697553118989E-08	4550918	3.38235549861565E-05
2	597	128.060564676678	0.595550537109375	0.595489501953125	1.33666992187501E-07	7.95972852074556E-08	4455023	3.38369864039123E-05
2	598	128.161272676424	0.585479736328125	0.58538818359375	1.3427734375E-07	7.86043727885044E-08	4359545.5	3.38504796673078E-05
2	599	128.26198067617	0.575408935546875	0.5753173828125	1.3427734375E-07	7.72520891700879E-08	4284545.5	3.38640020345338E-05
2	600	128.362688675915	0.565338134765625	0.565277099609375	1.3458251953125E-07	7.60764180540718E-08	4200226.5	3.3877538953675E-05
2	601	128.463396675661	0.555267333984375	0.55517578125	1.3458251953125E-07	7.47169579540241E-08	4125170	3.38910940627102E-05
2	602	128.564104675407	0.545196533203125	0.545166015625	1.33666992187501E-07	7.28706979202798E-08	4078539	3.39046018780209E-05
2	603	128.664812675153	0.535125732421875	0.535003662109375	1.3397216796875E-07	7.16756005658681E-08	3993394.25	3.39180769515224E-05
2	604	128.765520674898	0.525054931640625	0.524993896484375	1.3458251953125E-07	7.06550054019317E-08	3900907	3.39315993187483E-05
2	605	128.866228674644	0.514984130859375	0.51495361328125	1.3458251953125E-07	6.9303752070482E-08	3826303.75	3.39451544277836E-05
2	606	128.96693667439	0.504913330078125	0.504913330078125	1.3458251953125E-07	6.79525058444597E-08	3751700.75	3.395870589884E-05
2	607	129.067644674136	0.494842529296875	0.494781494140625	1.3427734375E-07	6.64379413706229E-08	3684772.75	3.397224645596E-05
2	608	129.168352673881	0.484771728515625	0.484710693359375	1.324462890625E-07	6.41981330318231E-08	3659677.5	3.3985674235737E-05
2	609	129.269060673627	0.474700927734375	0.474639892578125	1.300048828125E-07	6.17054993767852E-08	3650939	3.39988910127431E-05
2	610	129.369768673373	0.464630126953125	0.464630126953125	1.27563476562501E-07	5.92698299328731E-08	3642344.75	3.40118604071904E-05
2	611	129.470476673118	0.454559326171875	0.45452880859375	1.24511718750001E-07	5.65941604691034E-08	3650490.25	3.40245533152483E-05
2	612	129.571184672864	0.444488525390625	0.4444580078125	1.21459960937501E-07	5.39838538315962E-08	3659296.5	3.40369406330865E-05
2	613	129.67189267261	0.434417724609375	0.434417724609375	1.19628906249999E-07	5.19689180578098E-08	3631377.5	3.40490805683658E-05
2	614	129.772600672356	0.424346923828125	0.42431640625	1.1749267578125E-07	4.98540693172345E-08	3611428.5	3.40610204148106E-05
2	615	129.873308672101	0.414276123046875	0.41424560546875	1.1566162109375E-07	4.79123194452313E-08	3581530.25	3.40727601724211E-05
2	616	129.974016671847	0.404205322265625	0.4041748046875	1.13525390624999E-07	4.58841000749999E-08	3560215.25	3.40842998411972E-05
2	617	130.074724671593	0.394134521484375	0.3941650390625	1.11083984375E-07	4.37854232870905E-08	3548351.75	3.40956103173085E-05
2	618	130.175432671339	0.384063720703125	0.384063720703125	1.0955810546875E-07	4.20772927611779E-08	3505571.25	3.41067207045853E-05
2	619	130.276140671084	0.373992919921875	0.3740234375	1.0711669921875E-07	4.00641546605129E-08	3491738	3.41176310030278E-05
2	620	130.37684867083	0.363922119140625	0.363861083984375	1.055908203125E-07	3.84203886483192E-08	3445954	3.41283412126359E-05
2	621	130.477556670576	0.353851318359375	0.353759765625	1.04675292968751E-07	3.70299062524282E-08	3379592	3.41389277309645E-05
2	622	130.578264670322	0.343780517578125	0.34381103515625	1.04675292968751E-07	3.59885170553298E-08	3284548.25	3.41494705935474E-05
2	623	130.678972670067	0.333709716796875	0.33380126953125	1.0528564453125E-07	3.51444811030888E-08	3170434.75	3.41600425599609E-05
2	624	130.779680669813	0.323638916015625	0.323638916015625	1.055908203125E-07	3.41732970809971E-08	3065029	3.41706618200988E-05
2	625	130.880388669559	0.313568115234375	0.31353759765625	1.055908203125E-07	3.31066907222066E-08	2969364.25	3.41812956321519E-05
2	626	130.981096669305	0.303497314453125	0.303497314453125	1.04370117187499E-07	3.16760484508904E-08	2907894.75	3.41918675985653E-05
2	627	131.08180466905	0.293426513671875	0.293426513671875	1.03149414062501E-07	3.02667721996386E-08	2844674.75	3.42023158736993E-05
2	628	131.182512668796	0.283355712890625	0.2833251953125	1.0101318359375E-07	2.86195778187448E-08	2804834	3.42125968018081E-05
2	629	131.283220668542	0.273284912109375	0.27325439453125	9.94873046874997E-08	2.71853419775425E-08	2746625.75	3.42226921929978E-05
2	630	131.383928668287	0.263214111328125	0.26318359375	9.73510742187503E-08	2.56212047133886E-08	2703448.5	3.42326056852471E-05
2	631	131.484636668033	0.253143310546875	0.253173828125	9.58251953125003E-08	2.42604301092797E-08	2642038.25	3.42423336405773E-05
2	632	131.585344667779	0.243072509765625	0.24298095703125	9.27734375000003E-08	2.25421779020962E-08	2619079	3.42518287652638E-05
2	633	131.686052667525	0.233001708984375	0.232940673828125	8.97216796875003E-08	2.08998294226603E-08	2596258.5	3.42610182997305E-05
2	634	131.78676066727	0.222930908203125	0.222869873046875	8.57543945312497E-08	1.9112070148708E-08	2598932.5	3.42698549502529E-05
2	635	131.887468667016	0.212860107421875	0.212921142578125	7.96508789062497E-08	1.69593548093872E-08	2673180.25	3.42781822837424E-05
2	636	131.988176666762	0.202789306640625	0.202789306640625	7.26318359375006E-08	1.47289593854794E-08	2792016.75	3.42858511430677E-05
2	637	132.088884666508	0.192718505859375	0.19268798828125	6.40869140625E-08	1.23487780001597E-08	3006666.75	3.42927341989707E-05
2	638	132.189592666253	0.182647705078125	0.1826171875	5.46264648437503E-08	9.9757313520854E-09	3343016.75	3.42987150361296E-05
2	639	132.290300665999	0.172576904296875	0.172515869140625	4.36401367187506E-08	7.52861595287868E-09	3953147	3.43036626873072E-05
2	640	132.391008665745	0.162506103515625	0.16253662109375	2.99072265625006E-08	4.86101958685481E-09	5434694	3.43073661497328E-05
2	641	132.491716665491	0.152435302734375	0.1524658203125	1.220703125E-08	1.86115500788731E-09	12490000	3.43094870913774E-05
2	642	132.592424665236	0.142364501953125	0.14239501953125	-1.09863281249997E-08	-1.56439827758703E-09	-12961112	3.43095452990383E-05
2	643	132.693132664982	0.132293701171875	0.13232421875	-4.2724609375E-08	-5.65350033454592E-09	-3097143	3.43068422807846E-05
2	644	132.793840664728	0.122222900390625	0.12225341796875	-8.544921875E-08	-1.04464588090991E-08	-1430714.375	3.43003885063808E-05
2	645	132.894548664474	0.112152099609375	0.112152099609375	-1.4495849609375E-07	-1.62573989825887E-08	-773684.25	3.4288786991965E-05
2	646	132.995256664219	0.102081298828125	0.10211181640625	-2.2308349609375E-07	-2.27794600959896E-08	-457729.15625	3.42702551279217E-05
2	647	133.095964663965	0.092010498046875	0.092041015625	-3.2684326171875E-07	-3.00829867683206E-08	-281605.96875	3.42425628332421E-05
2	648	133.196672663711	0.081939697265625	0.08197021484375	-4.58984375E-07	-3.76230460119586E-08	-178590.421875	3.42029925377574E-05
2	649	133.297380663456	0.071868896484375	0.071929931640625	-6.2103271484375E-07	-4.46708412482621E-08	-115823.09375	3.4148612030549E-05
2	650	133.398088663202	0.061798095703125	0.061859130859375	-8.087158203125E-07	-5.00264576430709E-08	-76490.5703125	3.40766164299566E-05
2	651	133.498796662948	0.051727294921875	0.051788330078125	-1.0113525390625E-06	-5.23762579973663E-08	-51207	3.39849684678484E-05
2	652	133.599504662694	0.041656494140625	0.041754150390625	-1.2115478515625E-06	-5.05871469158592E-08	-34463.4765625	3.38730387738906E-05
2	653	133.700212662439	0.031585693359375	0.0316741943359375	-1.38916015625E-06	-4.40005294422008E-08	-22800.966796875	3.37420824507717E-05
2	654	133.800920662185	0.021514892578125	0.02161865234375	-1.52496337890625E-06	-3.29676517196731E-08	-14176.5068359375	3.35953445755877E-05
2	655	133.901628661931	0.011444091796875	0.011517333984375	-1.610107421875E-06	-1.8544143998156E-08	-7153.146484375	3.34374817612115E-05
2	656	134.002336661677	0.001373291015625	0.0014617919921875	-1.64276123046875E-06	-2.40137509877059E-09	-889.838439941406	3.3273685403401E-05
2	657	134.103044661422	-0.008697509765625	-0.00861206054687499	-1.63238525390625E-06	1.40582008256729E-08	5275.7529296875	3.3108768548118E-05
2	658	134.203752661168	-0.018768310546875	-0.0186431884765625	-1.59210205078125E-06	2.96818587486314E-08	11709.7958984375	3.29464019159786E-05
2	659	134.304460660914	-0.028839111328125	-0.0286956787109375	-1.53564453125E-06	4.4066361226669E-08	18686.40625	3.2788906537462E-05
2	660	134.40516866066	-0.038909912109375	-0.0387939453125	-1.4715576171875E-06	5.70875222649647E-08	26362.505859375	3.26374829455744E-05
2	661	134.505876660405	-0.048980712890625	-0.048834228515625	-1.40869140625E-06	6.87923531472734E-08	34666.37890625	3.24924512824509E-05
2	662	134.606584660151	-0.059051513671875	-0.058990478515625	-1.34979248046875E-06	7.96249040035946E-08	43703.37109375	3.23535496136174E-05
2	663	134.707292659897	-0.069122314453125	-0.069061279296875	-1.2957763671875E-06	8.94879690349626E-08	53297.22265625	3.22203341056593E-05
2	664	134.808000659643	-0.079193115234375	-0.07916259765625	-1.24755859375E-06	9.87599761970159E-08	63454.015625	3.2092269975692E-05
2	665	134.908708659388	-0.089263916015625	-0.08917236328125	-1.20391845703125E-06	1.07356243006507E-07	74068.4453125	3.19688260788098E-05
2	666	135.009416659134	-0.099334716796875	-0.099212646484375	-1.1651611328125E-06	1.1559870927158E-07	85149.296875	3.18495331157465E-05
2	667	135.11012465888	-0.109405517578125	-0.10931396484375	-1.131591796875E-06	1.23698782772408E-07	96601.9453125	3.1733881769469E-05
2	668	135.210832658625	-0.119476318359375	-0.119476318359375	-1.1016845703125E-06	1.3162521383947E-07	108448.75	3.1621428206563E-05
2	669	135.311540658371	-0.129547119140625	-0.129425048828125	-1.07666015625E-06	1.39346795435813E-07	120209.75	3.15117395075504E-05
2	670	135.412248658117	-0.139617919921875	-0.139556884765625	-1.0552978515625E-06	1.47274079154158E-07	132244.078125	3.14043863909319E-05
2	671	135.512956657863	-0.149688720703125	-0.1495361328125	-1.03607177734375E-06	1.54930177131973E-07	144329.890625	3.1299077818403E-05
2	672	135.613664657608	-0.159759521484375	-0.159576416015625	-1.02020263671875E-06	1.62800276370945E-07	156416.390625	3.11955373035744E-05
2	673	135.714372657354	-0.169830322265625	-0.169647216796875	-1.00555419921875E-06	1.70589459003168E-07	168710.171875	3.10935320158023E-05
2	674	135.8150806571	-0.179901123046875	-0.179779052734375	-9.9212646484375E-07	1.78363535496828E-07	181205.796875	3.09929419017863E-05
2	675	135.915788656846	-0.189971923828125	-0.189910888671875	-9.7930908203125E-07	1.85981463118878E-07	193923.328125	3.08936723740771E-05
2	676	136.016496656591	-0.200042724609375	-0.199920654296875	-9.68017578125E-07	1.93526688008205E-07	206525.875	3.07956179312896E-05
2	677	136.117204656337	-0.189971923828125	-0.189910888671875	-8.41064453125E-07	1.5972729272562E-07	225798.265625	3.070452294196E-05
