Potential - Start -0.2 V, Upper Vertex 1.5 V, Lower Vertex -0.2 V, Stop -0.19 V; Scan - # end cross 5, Rate 0.1 Vps, Step 0.01 V 
Scan	Index	Time (s)	Potential applied (V)	WE(1).Potential (V)	WE(1).Current (A)	WE(1).Power (W)	WE(1).Resistance (Ω)	WE(1).Charge (C)
1	1	65.8135758338367	-0.189971923828125	-0.18988037109375	-2.520751953125E-07	4.78641304368921E-08	753268.8125	0
1	2	65.9142838335824	-0.179901123046875	-0.1798095703125	-2.215576171875E-07	3.98381807542592E-08	811570.25	-2.38493065296552E-08
1	3	66.0149918333282	-0.169830322265625	-0.169677734375	-1.9683837890625E-07	3.33990897161129E-08	862015.5625	-4.49172183891733E-08
1	4	66.1156998330739	-0.159759521484375	-0.15960693359375	-1.7578125E-07	2.80559042664663E-08	907986.1875	-6.36801047448898E-08
1	5	66.2164078328196	-0.149688720703125	-0.149627685546875	-1.57470703125E-07	2.35619754818117E-08	950193.875	-8.0460672791105E-08
1	6	66.3171158325654	-0.139617919921875	-0.139495849609375	-1.4007568359375E-07	1.95399767477511E-08	995860.5625	-9.5443326131317E-08
1	7	66.4178238323111	-0.129547119140625	-0.129486083984375	-1.2359619140625E-07	1.60039874685936E-08	1047654.3125	-1.08720257685491E-07
1	8	66.5185318320569	-0.119476318359375	-0.11944580078125	-1.068115234375E-07	1.27581873954341E-08	1118285.75	-1.20322212637802E-07
1	9	66.6192398318026	-0.109405517578125	-0.109283447265625	-9.03320312499997E-08	9.87179582523368E-09	1209797.375	-1.30249176777397E-07
1	10	66.7199478315483	-0.099334716796875	-0.099273681640625	-7.23266601562494E-08	7.18013337674961E-09	1372573.875	-1.38439688157632E-07
1	11	66.8206558312941	-0.089263916015625	-0.089141845703125	-5.27954101562506E-08	4.70628025439623E-09	1688439.375	-1.44740084806472E-07
1	12	66.9213638310398	-0.079193115234375	-0.079193115234375	-2.899169921875E-08	2.29594276923706E-09	2731579	-1.48858390502937E-07
1	13	67.0220718307855	-0.069122314453125	-0.069061279296875	3.05175781249722E-10	-2.10758285823509E-11	-226300000	-1.50302881252173E-07
1	14	67.1227798305313	-0.059051513671875	-0.058990478515625	3.75366210937506E-08	-2.21430318525506E-09	-1571544.75	-1.48397390375976E-07
1	15	67.223487830277	-0.048980712890625	-0.048828125	8.63647460937506E-08	-4.21702850417205E-09	-565371.0625	-1.4215845567378E-07
1	16	67.3241958300227	-0.038909912109375	-0.038787841796875	1.5228271484375E-07	-5.90671778155638E-09	-254709.421875	-1.30141600607203E-07
1	17	67.4249038297685	-0.028839111328125	-0.028704833984375	2.3956298828125E-07	-6.87661527720707E-09	-119821.65625	-1.10410610432154E-07
1	18	67.5256118295142	-0.018768310546875	-0.0186676025390625	3.558349609375E-07	-6.6425855926866E-09	-52461.41015625	-8.04299418177834E-08
1	19	67.62631982926	-0.008697509765625	-0.00859985351562501	5.0628662109375E-07	-4.35399050147112E-09	-16986.13671875	-3.70186725717758E-08
1	20	67.7270278290057	0.001373291015625	0.0014495849609375	6.927490234375E-07	1.00419850213029E-09	2092.51123046875	2.33575647712314E-08
1	21	67.8277358287514	0.011444091796875	0.0115478515625	9.112548828125E-07	1.05230357760888E-08	12672.4716796875	1.04125575717262E-07
1	22	67.9284438284972	0.021514892578125	0.0215850830078125	1.1505126953125E-06	2.48339091513117E-08	18761.2734375	2.07943813279599E-07
1	23	68.0291518282429	0.031585693359375	0.0316741943359375	1.38916015625E-06	4.40005294422008E-08	22800.966796875	3.35826484842983E-07
1	24	68.1298598279886	0.041656494140625	0.0417755126953125	1.605224609375E-06	6.70590836193696E-08	26024.71484375	4.86605756577774E-07
1	25	68.2305678277344	0.051727294921875	0.0517578125	1.7742919921875E-06	9.18334706057067E-08	29170.966796875	6.56777899621375E-07
1	26	68.3312758274801	0.061798095703125	0.06182861328125	1.88568115234375E-06	1.16589042420401E-07	32788.48046875	8.41072221646755E-07
1	27	68.4319838272258	0.071868896484375	0.071929931640625	1.93756103515625E-06	1.39368623308656E-07	37123.95703125	1.03358775049855E-06
1	28	68.5326918269716	0.081939697265625	0.082000732421875	1.94000244140625E-06	1.59081622541635E-07	42268.3671875	1.22883852782252E-06
1	29	68.6333998267173	0.092010498046875	0.092071533203125	1.9049072265625E-06	1.75387725676046E-07	48333.8671875	1.42244516609935E-06
1	30	68.7341078264631	0.102081298828125	0.102142333984375	1.8475341796875E-06	1.88711453574797E-07	55285.76171875	1.61139553256362E-06
1	31	68.8348158262088	0.112152099609375	0.112213134765625	1.7803955078125E-06	1.99783755761018E-07	63027.0859375	1.79407629730122E-06
1	32	68.9355238259545	0.122222900390625	0.12225341796875	1.70989990234375E-06	2.09041104426433E-07	71497.4140625	1.96982659872447E-06
1	33	69.0362318257003	0.132293701171875	0.132293701171875	1.64093017578125E-06	2.17084718201477E-07	80621.1640625	2.13855446418165E-06
1	34	69.136939825446	0.142364501953125	0.142364501953125	1.5765380859375E-06	2.2444304192959E-07	90301.9765625	2.30056684813462E-06
1	35	69.2376478251917	0.152435302734375	0.1524658203125	1.517333984375E-06	2.31341573453392E-07	100482.703125	2.45635555984336E-06
1	36	69.3383558249375	0.162506103515625	0.16253662109375	1.46453857421875E-06	2.38041138800327E-07	110981.4609375	2.60650472228008E-06
1	37	69.4390638246832	0.172576904296875	0.172576904296875	1.41693115234375E-06	2.44529587689613E-07	121796.2578125	2.75159823104332E-06
1	38	69.539771824429	0.182647705078125	0.18267822265625	1.37359619140625E-06	2.509261207706E-07	132992.671875	2.89211243398313E-06
1	39	69.6404798241747	0.192718505859375	0.192657470703125	1.33636474609375E-06	2.57460641250873E-07	144165.34375	3.02856983580568E-06
1	40	69.7411878239204	0.202789306640625	0.20281982421875	1.30218505859375E-06	2.64108933833995E-07	155753.453125	3.1614313229511E-06
1	41	69.8418958236662	0.212860107421875	0.21295166015625	1.27197265625E-06	2.70868696361504E-07	167418.421875	3.2910504614847E-06
1	42	69.9426038234119	0.222930908203125	0.222930908203125	1.2445068359375E-06	2.77439028195658E-07	179131.921875	3.41776535606186E-06
1	43	70.0433118231576	0.233001708984375	0.233001708984375	1.2200927734375E-06	2.84283686369236E-07	190970.5	3.54186772710818E-06
1	44	70.1440198229034	0.243072509765625	0.24310302734375	1.19842529296875E-06	2.91340796820805E-07	202852.0625	3.66364997717028E-06
1	45	70.2447278226491	0.253143310546875	0.253082275390625	1.17828369140625E-06	2.98202706972006E-07	214788.90625	3.78332674699777E-06
1	46	70.3454358223948	0.263214111328125	0.26318359375	1.16058349609375E-06	3.05446519632824E-07	226768.34375	3.90109789805138E-06
1	47	70.4461438221406	0.273284912109375	0.2733154296875	1.14410400390625E-06	3.12701274651772E-07	238890.375	4.01714805775555E-06
1	48	70.5468518218863	0.283355712890625	0.2833251953125	1.12945556640625E-06	3.20003209708375E-07	250851.125	4.13163115808857E-06
1	49	70.6475598216321	0.293426513671875	0.29339599609375	1.1163330078125E-06	3.27527629906399E-07	262821.21875	4.24471545557026E-06
1	50	70.7482678213778	0.303497314453125	0.303436279296875	1.10443115234375E-06	3.35124468620052E-07	274744.40625	4.35653964814264E-06
1	51	70.8489758211235	0.313568115234375	0.3135986328125	1.09405517578125E-06	3.43094200161431E-07	286638.78125	4.46724243374774E-06
1	52	70.9496838208693	0.323638916015625	0.323638916015625	1.08428955078125E-06	3.50918298863689E-07	298480.15625	4.57693067801301E-06
1	53	71.050391820615	0.333709716796875	0.333709716796875	1.07513427734375E-06	3.58782756393339E-07	310388.875	4.68566622657818E-06
1	54	71.1510998203607	0.343780517578125	0.34375	1.06689453125E-06	3.66744984603429E-07	322196.8125	4.79352593174553E-06
1	55	71.2518078201065	0.353851318359375	0.35382080078125	1.060791015625E-06	3.75329904045429E-07	333544.3125	4.90066349811968E-06
1	56	71.3525158198522	0.363922119140625	0.3638916015625	1.0546875E-06	3.83791899594144E-07	345023.15625	5.00718624607543E-06
1	57	71.453223819598	0.373992919921875	0.3740234375	1.0498046875E-06	3.92651514857789E-07	356279.09375	5.11315602125251E-06
1	58	71.5539318193437	0.384063720703125	0.384063720703125	1.04522705078125E-06	4.01433766228365E-07	367445.28125	5.21864922120585E-06
1	59	71.6546398190894	0.394134521484375	0.3941650390625	1.0418701171875E-06	4.10668747008458E-07	378324.5625	5.32374269823777E-06
1	60	71.7553478188352	0.404205322265625	0.404205322265625	1.03912353515625E-06	4.20019262037385E-07	388986.78125	5.42852922080783E-06
1	61	71.8560558185809	0.414276123046875	0.414306640625	1.03790283203125E-06	4.30010032914652E-07	399176.71875	5.53311565454351E-06
1	62	71.9567638183266	0.424346923828125	0.42437744140625	1.0357666015625E-06	4.39555975617623E-07	409723.0625	5.63753337701201E-06
1	63	72.0574718180724	0.434417724609375	0.43438720703125	1.03515625E-06	4.49658585921497E-07	419634.46875	5.74181240153848E-06
1	64	72.1581798178181	0.444488525390625	0.444549560546875	1.03485107421875E-06	4.60042571148733E-07	429578.3125	5.84604595132987E-06
1	65	72.2588878175638	0.454559326171875	0.454498291015625	1.0345458984375E-06	4.70199353230782E-07	439321.53125	5.95024812355405E-06
1	66	72.3595958173096	0.464630126953125	0.46466064453125	1.03515625E-06	4.80996334317751E-07	448879.75	6.05446575718815E-06
1	67	72.4603038170553	0.474700927734375	0.47467041015625	1.0357666015625E-06	4.91647710987309E-07	458279.34375	6.15874523646198E-06
1	68	72.5610118168011	0.484771728515625	0.484710693359375	1.0382080078125E-06	5.03230523918319E-07	466872.4375	6.26317796559306E-06
1	69	72.6617198165468	0.494842529296875	0.494842529296875	1.0400390625E-06	5.14655539518571E-07	475792.28125	6.36782624496846E-06
1	70	72.7624278162925	0.504913330078125	0.504913330078125	1.0430908203125E-06	5.26670476119762E-07	484055	6.47272008791333E-06
1	71	72.8631358160383	0.514984130859375	0.51495361328125	1.046142578125E-06	5.38714857611922E-07	492240.40625	6.57792134006741E-06
1	72	72.963843815784	0.525054931640625	0.5250244140625	1.0498046875E-06	5.51173059193388E-07	500116.3125	6.68346046950319E-06
1	73	73.0645518155297	0.535125732421875	0.535003662109375	1.0546875E-06	5.64261654290021E-07	507262.75	6.78943024468026E-06
1	74	73.1652598152755	0.545196533203125	0.545135498046875	1.058349609375E-06	5.76943875785219E-07	515080.78125	6.89583021085127E-06
1	75	73.2659678150212	0.555267333984375	0.555328369140625	1.0638427734375E-06	5.90782065046369E-07	522002.28125	7.00269083608873E-06
1	76	73.3666758147669	0.565338134765625	0.565338134765625	1.0699462890625E-06	6.04881449817185E-07	528379.9375	7.11013581167208E-06
1	77	73.4673838145127	0.575408935546875	0.575347900390625	1.07635498046875E-06	6.19278523572575E-07	534533.625	7.21821061233641E-06
1	78	73.5680918142584	0.585479736328125	0.58538818359375	1.083984375E-06	6.34551611256029E-07	540033.8125	7.32699254513136E-06
1	79	73.6687998140042	0.595550537109375	0.5955810546875	1.09222412109375E-06	6.50508013677609E-07	545292	7.43657301427447E-06
1	80	73.7695078137499	0.605621337890625	0.60552978515625	1.1016845703125E-06	6.67102824536414E-07	549639.875	7.54704524297267E-06
1	81	73.8702158134956	0.615692138671875	0.615631103515625	1.11328125E-06	6.85370537212293E-07	552987.9375	7.65857748774579E-06
1	82	73.9709238132414	0.625762939453125	0.625732421875	1.126708984375E-06	7.05018351254694E-07	555362.9375	7.77137029217556E-06
1	83	74.0716318129871	0.635833740234375	0.63580322265625	1.1431884765625E-06	7.2684292717895E-07	556166.5625	7.88566831033677E-06
1	84	74.1723398127328	0.645904541015625	0.6458740234375	1.1627197265625E-06	7.50970457374933E-07	555485.5625	8.00177986093331E-06
1	85	74.2730478124786	0.655975341796875	0.6558837890625	1.18560791015625E-06	7.77620982717053E-07	553204.6875	8.12002781458432E-06
1	86	74.3737558122243	0.666046142578125	0.665985107421875	1.21337890625E-06	8.08092238457903E-07	548868.25	8.2408269008738E-06
1	87	74.4744638119701	0.676116943359375	0.676055908203125	1.2432861328125E-06	8.40530901768943E-07	543765.375	8.36452909425134E-06
1	88	74.5751718117158	0.686187744140625	0.686126708984375	1.27471923828125E-06	8.74618933721649E-07	538257.125	8.4913208411308E-06
1	89	74.6758798114615	0.696258544921875	0.6961669921875	1.30401611328125E-06	9.07812989225931E-07	533863.8125	8.62117030919762E-06
1	90	74.7765878112073	0.706329345703125	0.706268310546875	1.3287353515625E-06	9.38443633913266E-07	531534.25	8.75374007591745E-06
1	91	74.877295810953	0.716400146484375	0.716278076171875	1.34765625E-06	9.65296521826531E-07	531499.125	8.88850718183676E-06
1	92	74.9780038106987	0.726470947265625	0.726409912109375	1.35955810546875E-06	9.87596422419301E-07	534298.5625	9.02482588571729E-06
1	93	75.0787118104445	0.736541748046875	0.736480712890625	1.365966796875E-06	1.00600823316199E-06	539164.4375	9.16206772672012E-06
1	94	75.1794198101902	0.746612548828125	0.746551513671875	1.36810302734375E-06	1.02135936685954E-06	545683.6875	9.29973884922219E-06
1	95	75.2801278099359	0.756683349609375	0.75714111328125	1.36871337890625E-06	1.03630918601993E-06	553177.25	9.43754821491893E-06
1	96	75.3808358096817	0.766754150390625	0.76751708984375	1.36932373046875E-06	1.05097933555953E-06	560508.125	9.57541942625539E-06
1	97	75.4815438094274	0.776824951171875	0.7769775390625	1.3720703125E-06	1.06606785266194E-06	566281.125	9.71345980360638E-06
1	98	75.5822518091732	0.786895751953125	0.7867431640625	1.3787841796875E-06	1.0847489875232E-06	570606.4375	9.8519758466864E-06
1	99	75.6829598089189	0.796966552734375	0.797119140625	1.39068603515625E-06	1.10854239210312E-06	573184.125	9.99143048829865E-06
1	100	75.7836678086646	0.807037353515625	0.8074951171875	1.40960693359375E-06	1.13825069547602E-06	572851.3125	1.01324358183774E-05
1	101	75.8843758084104	0.817108154296875	0.81756591796875	1.436767578125E-06	1.17465219773294E-06	569031.4375	1.02757621789351E-05
1	102	75.9850838081561	0.827178955078125	0.8270263671875	1.4727783203125E-06	1.21802645480784E-06	561541.625	1.04222699519596E-05
1	103	76.0857918079018	0.837249755859375	0.83770751953125	1.51519775390625E-06	1.26929251109686E-06	552870.125	1.05727258414845E-05
1	104	76.1864998076476	0.847320556640625	0.84747314453125	1.563720703125E-06	1.32521120121964E-06	541959.4375	1.07277619463275E-05
1	105	76.2872078073933	0.857391357421875	0.85723876953125	1.611328125E-06	1.38129291826772E-06	532007.5625	1.08876383819734E-05
1	106	76.3879158071391	0.867462158203125	0.8673095703125	1.65435791015625E-06	1.43484044201614E-06	524257.53125	1.10520786620327E-05
1	107	76.4886238068848	0.877532958984375	0.87799072265625	1.688232421875E-06	1.48225240081956E-06	520065.09375	1.12203915705322E-05
1	108	76.5893318066305	0.887603759765625	0.88775634765625	1.7108154296875E-06	1.51878714405029E-06	518908.34375	1.13915475594695E-05
1	109	76.6900398063763	0.897674560546875	0.8978271484375	1.72149658203125E-06	1.54560632381617E-06	521538.75	1.15643779281527E-05
1	110	76.790747806122	0.907745361328125	0.90789794921875	1.72332763671875E-06	1.56460555444937E-06	526828.4375	1.17378385766642E-05
1	111	76.8914558058677	0.917816162109375	0.91796875	1.71844482421875E-06	1.57747854245827E-06	534185.75	1.19111455205712E-05
1	112	76.9921638056135	0.927886962890625	0.927734375	1.7083740234375E-06	1.58491718593723E-06	543051.125	1.2083699402865E-05
1	113	77.0928718053592	0.937957763671875	0.93780517578125	1.69708251953125E-06	1.59153273671109E-06	552598.5	1.22551782624214E-05
1	114	77.1935798051049	0.948028564453125	0.9478759765625	1.68426513671875E-06	1.59647436248633E-06	562783.125	1.24254420370562E-05
1	115	77.2942878048507	0.958099365234375	0.95794677734375	1.67205810546875E-06	1.60174261054635E-06	572914.8125	1.2594446161529E-05
1	116	77.3949958045964	0.968170166015625	0.96771240234375	1.66046142578125E-06	1.60684908223629E-06	582797.3125	1.27622524814797E-05
1	117	77.4957038043422	0.978240966796875	0.97808837890625	1.6510009765625E-06	1.61482489602349E-06	592421.4375	1.29289974211133E-05
1	118	77.5964118040879	0.988311767578125	0.9881591796875	1.64215087890625E-06	1.62270646342222E-06	601746.875	1.30948210426141E-05
1	119	77.6971198038336	0.998382568359375	0.99853515625	1.6339111328125E-06	1.63151764809299E-06	611131.875	1.32597842821269E-05
1	120	77.7978278035794	1.00845336914063	1.00830078125	1.627197265625E-06	1.64070422670193E-06	619654.9375	1.3423993550532E-05
1	121	77.8985358033251	1.01852416992188	1.0186767578125	1.62139892578125E-06	1.65168125931814E-06	628270.3125	1.35875734486035E-05
1	122	77.9992438030708	1.02859497070313	1.0284423828125	1.61651611328125E-06	1.66249367339333E-06	636209.1875	1.37506158353062E-05
1	123	78.0999518028166	1.03866577148438	1.0382080078125	1.61285400390625E-06	1.67447785770491E-06	643708.625	1.39132271215203E-05
1	124	78.2006598025623	1.04873657226563	1.04827880859375	1.610107421875E-06	1.68784140441858E-06	651061.4375	1.407551644661E-05
1	125	78.3013678023081	1.05880737304688	1.05987548828125	1.6070556640625E-06	1.7032789401128E-06	659513.875	1.42375129144057E-05
1	126	78.4020758020538	1.06887817382813	1.06903076171875	1.60552978515625E-06	1.71636065715575E-06	665843	1.43992792800418E-05
1	127	78.5027838017995	1.07894897460938	1.07940673828125	1.60430908203125E-06	1.73170201378525E-06	672817.1875	1.4560908311978E-05
1	128	78.6034918015453	1.08901977539063	1.08917236328125	1.60369873046875E-06	1.74670435626467E-06	679162.6875	1.47224436659599E-05
1	129	78.704199801291	1.09909057617188	1.0992431640625	1.60369873046875E-06	1.76285482211824E-06	685442.4375	1.48839490066166E-05
1	130	78.8049078010367	1.10916137695313	1.10931396484375	1.60369873046875E-06	1.77900540165865E-06	691722.1875	1.50454543472733E-05
1	131	78.9056158007825	1.11923217773438	1.11907958984375	1.60491943359375E-06	1.79603250671789E-06	697280.875	1.52070215335698E-05
1	132	79.0063238005282	1.12930297851563	1.12884521484375	1.6064453125E-06	1.81342807081819E-06	702697.5625	1.53687269630609E-05
1	133	79.1070318002739	1.13937377929688	1.13983154296875	1.6082763671875E-06	1.83316410584666E-06	708728.6875	1.55306006490719E-05
1	134	79.2077398000197	1.14944458007813	1.1492919921875	1.61041259765625E-06	1.8508343373469E-06	713663.0625	1.56926744239172E-05
1	135	79.3084477997654	1.15951538085938	1.1590576171875	1.61285400390625E-06	1.86939064406033E-06	718637.6875	1.58549792104168E-05
1	136	79.4091557995112	1.16958618164063	1.16973876953125	1.61651611328125E-06	1.89090155799931E-06	723617.125	1.60175895871362E-05
1	137	79.5098637992569	1.17965698242188	1.1798095703125	1.62078857421875E-06	1.91222193279827E-06	727923.1875	1.61806019605137E-05
1	138	79.6105717990026	1.18972778320313	1.18988037109375	1.6259765625E-06	1.9347176021256E-06	731794.3125	1.63440890901256E-05
1	139	79.7112797987484	1.19979858398438	1.199951171875	1.63116455078125E-06	1.95731786334363E-06	735640.8125	1.65081000886858E-05
1	140	79.8119877984941	1.20986938476563	1.21002197265625	1.636962890625E-06	1.98076099877653E-06	739187.1875	1.66726622410351E-05
1	141	79.9126957982398	1.21994018554688	1.2200927734375	1.64337158203125E-06	2.00506565306569E-06	742432.6875	1.68378410307923E-05
1	142	80.0134037979856	1.23001098632813	1.23016357421875	1.6510009765625E-06	2.03100125872879E-06	745101.6875	1.70037255884381E-05
1	143	80.1141117977313	1.24008178710938	1.240234375	1.65863037109375E-06	2.05709034162282E-06	747746.0625	1.71703777596122E-05
1	144	80.214819797477	1.25015258789063	1.25	1.6668701171875E-06	2.08358756026428E-06	749908.5	1.73378302861238E-05
1	145	80.3155277972228	1.26022338867188	1.2603759765625	1.676025390625E-06	2.11242218028929E-06	752002.9375	1.75061595655279E-05
1	146	80.4162357969685	1.27029418945313	1.2701416015625	1.685791015625E-06	2.14119313568517E-06	753439.5625	1.76754401763901E-05
1	147	80.5169437967143	1.28036499023438	1.28082275390625	1.6961669921875E-06	2.17248907574685E-06	755127.75	1.78457357833395E-05
1	148	80.61765179646	1.29043579101563	1.2908935546875	1.70623779296875E-06	2.20257129512902E-06	756573.0625	1.80170591193018E-05
1	149	80.7183597962057	1.30050659179688	1.3006591796875	1.71783447265625E-06	2.23431698032073E-06	757150.5	1.81894756678957E-05
1	150	80.8190677959515	1.31057739257813	1.31072998046875	1.72943115234375E-06	2.26681731874123E-06	757896.625	1.83630581886973E-05
1	151	80.9197757956972	1.32064819335938	1.32049560546875	1.74072265625E-06	2.29861666412035E-06	758590.5	1.85377957677701E-05
1	152	81.0204837954429	1.33071899414063	1.33056640625	1.75323486328125E-06	2.33279547501297E-06	758920.8125	1.87137302418705E-05
1	153	81.1211917951887	1.34078979492188	1.34063720703125	1.76605224609375E-06	2.36763526118011E-06	759115.3125	1.88909398275428E-05
1	154	81.2218997949344	1.35086059570313	1.35101318359375	1.77978515625E-06	2.40451299760025E-06	759087.8125	1.90694863704266E-05
1	155	81.3226077946802	1.36093139648438	1.361083984375	1.79229736328125E-06	2.43946715272614E-06	759407.5	1.92493553186068E-05
1	156	81.4233157944259	1.37100219726563	1.370849609375	1.806640625E-06	2.47663251684571E-06	758783.8125	1.94305757759139E-05
1	157	81.5240237941716	1.38107299804688	1.3812255859375	1.8212890625E-06	2.51561095865327E-06	758378	1.9613256881712E-05
1	158	81.6247317939174	1.39114379882813	1.39129638671875	1.83624267578125E-06	2.55475765698066E-06	757686.5625	1.9797429558821E-05
1	159	81.7254397936631	1.40121459960938	1.4013671875	1.85272216796875E-06	2.59634407484555E-06	756382.8125	1.99831829377217E-05
1	160	81.8261477934088	1.41128540039063	1.41143798828125	1.87255859375E-06	2.6430002435518E-06	753748.375	2.01707662199624E-05
1	161	81.9268557931546	1.42135620117188	1.4208984375	1.89453125E-06	2.69193651547539E-06	750000	2.0360454072943E-05
1	162	82.0275637929003	1.43142700195313	1.4312744140625	1.9207763671875E-06	2.74915805675846E-06	745154.125	2.05525702767773E-05
1	163	82.128271792646	1.44149780273438	1.4410400390625	1.95159912109375E-06	2.81233224086463E-06	738389.4375	2.07475586648798E-05
1	164	82.2289797923918	1.45156860351563	1.45172119140625	1.98974609375E-06	2.88855653707287E-06	729601.1875	2.0946021322743E-05
1	165	82.3296877921375	1.46163940429688	1.4617919921875	2.03521728515625E-06	2.97506426250038E-06	718248.625	2.11486949410755E-05
1	166	82.4303957918833	1.47171020507813	1.4715576171875	2.09136962890625E-06	3.07757090922678E-06	703633.4375	2.13564853766002E-05
1	167	82.531103791629	1.48178100585938	1.48162841796875	2.1588134765625E-06	3.1985593977879E-06	686316.0625	2.15704985748744E-05
1	168	82.6318117913747	1.49185180664063	1.49139404296875	2.23907470703125E-06	3.33934235641209E-06	666076.125	2.17919496208197E-05
1	169	82.7325197911205	1.50192260742188	1.50146484375	2.33001708984375E-06	3.4984386729775E-06	644400.8125	2.20220226765377E-05
1	170	82.8332277908662	1.49185180664063	1.49200439453125	2.06817626953125E-06	3.0857279398333E-06	721410.6875	2.22434882743983E-05
1	171	82.9339357906119	1.48178100585938	1.48162841796875	1.8798828125E-06	2.78528773378639E-06	788149.375	2.24422892642906E-05
1	172	83.0346437903577	1.47171020507813	1.47186279296875	1.73370361328125E-06	2.55177383223781E-06	848970.25	2.26242482312955E-05
1	173	83.1353517901034	1.46163940429688	1.46148681640625	1.614990234375E-06	2.36028677136346E-06	904950.875	2.27928685490042E-05
1	174	83.2360597898492	1.45156860351563	1.451416015625	1.51641845703125E-06	2.20095398617559E-06	957134.3125	2.29505476454506E-05
1	175	83.3367677895949	1.44149780273438	1.441650390625	1.43402099609375E-06	2.06735694519011E-06	1005320.3125	2.30991136049852E-05
1	176	83.4374757893406	1.43142700195313	1.431884765625	1.36505126953125E-06	1.95459620044858E-06	1048960.375	2.32400579989189E-05
1	177	83.5381837890864	1.42135620117188	1.4215087890625	1.30584716796875E-06	1.85627322935034E-06	1088572.125	2.33745486184489E-05
1	178	83.6388917888321	1.41128540039063	1.4117431640625	1.25518798828125E-06	1.77200297457603E-06	1124726.5	2.35035058722133E-05
1	179	83.7395997885778	1.40121459960938	1.40167236328125	1.2109375E-06	1.69733766597346E-06	1157510.125	2.3627686459804E-05
1	180	83.8403077883236	1.39114379882813	1.3909912109375	1.17279052734375E-06	1.63134120612085E-06	1186052.625	2.37477161135757E-05
1	181	83.9410157880693	1.38107299804688	1.38092041015625	1.13861083984375E-06	1.57233091613307E-06	1212811.5	2.38641041505616E-05
1	182	84.041723787815	1.37100219726563	1.370849609375	1.10809326171875E-06	1.5190291833278E-06	1237124.75	2.39772343775257E-05
1	183	84.1424317875608	1.36093139648438	1.361083984375	1.08154296875E-06	1.47207072132005E-06	1258465.125	2.40874924202217E-05
1	184	84.2431397873065	1.35086059570313	1.35101318359375	1.05682373046875E-06	1.42778276313038E-06	1278371.375	2.41951674979646E-05
1	185	84.3438477870523	1.34078979492188	1.3409423828125	1.03485107421875E-06	1.38767563839792E-06	1295783	2.43004906224087E-05
1	186	84.444555786798	1.33071899414063	1.33087158203125	1.014404296875E-06	1.3500417708201E-06	1311973.625	2.44036800722824E-05
1	187	84.5452637865437	1.32064819335938	1.32049560546875	9.94873046875E-07	1.31372553369147E-06	1327300.625	2.45048540818971E-05
1	188	84.6459717862895	1.31057739257813	1.31072998046875	9.7686767578125E-07	1.28040971958399E-06	1341768.25	2.46041399805108E-05
1	189	84.7466797860352	1.30050659179688	1.3006591796875	9.6038818359375E-07	1.24913776744506E-06	1354305.625	2.47016887442442E-05
1	190	84.8473877857809	1.29043579101563	1.2896728515625	9.4451904296875E-07	1.21812047382264E-06	1365428.125	2.47976076934719E-05
1	191	84.9480957855267	1.28036499023438	1.2799072265625	9.30175781250001E-07	1.19053868274932E-06	1375984.25	2.48920059675584E-05
1	192	85.0488037852724	1.27029418945313	1.27044677734375	9.161376953125E-07	1.1639041304079E-06	1386742.25	2.4984976334963E-05
1	193	85.1495117850181	1.26022338867188	1.2603759765625	9.0301513671875E-07	1.13813860025402E-06	1395741.875	2.50765770033468E-05
1	194	85.2502197847639	1.25015258789063	1.25	8.9019775390625E-07	1.11274721348309E-06	1404182.375	2.51668734563282E-05
1	195	85.3509277845096	1.24008178710938	1.240234375	8.77685546875E-07	1.08853578240087E-06	1413073.75	2.52558929787483E-05
1	196	85.4516357842554	1.23001098632813	1.23046875	8.6639404296875E-07	1.06607080851973E-06	1420218.375	2.53437137871515E-05
1	197	85.5523437840011	1.21994018554688	1.22039794921875	8.55712890625E-07	1.04431023828511E-06	1426176.875	2.54304286499973E-05
1	198	85.6530517837468	1.20986938476563	1.209716796875	8.441162109375E-07	1.02114154287847E-06	1433116.5	2.55160230153706E-05
1	199	85.7537597834926	1.19979858398438	1.199951171875	8.3343505859375E-07	1.00008128356421E-06	1439765.75	2.56004932452925E-05
1	200	85.8544677832383	1.18972778320313	1.18988037109375	8.23059082031249E-07	9.7934184850601E-07	1445680.375	2.56839048233815E-05
1	201	85.955175782984	1.17965698242188	1.1798095703125	8.1298828125E-07	9.59171302383766E-07	1451201.25	2.5766286853468E-05
1	202	86.0558837827298	1.16958618164063	1.16943359375	8.026123046875E-07	9.38601772304537E-07	1457034.25	2.58476375165628E-05
1	203	86.1565917824755	1.15951538085938	1.15936279296875	7.92541503906249E-07	9.18843113595358E-07	1462841.75	2.59279604506446E-05
1	204	86.2572997822213	1.14944458007813	1.14990234375	7.8277587890625E-07	9.00115821877989E-07	1469005.875	2.60072847595438E-05
1	205	86.358007781967	1.13937377929688	1.1395263671875	7.73010253906251E-07	8.80865570707101E-07	1474141.375	2.60856249951757E-05
1	206	86.4587157817127	1.12930297851563	1.12884521484375	7.63549804687499E-07	8.61929549955676E-07	1478417.25	2.61629957094556E-05
1	207	86.5594237814585	1.11923217773438	1.11907958984375	7.53173828125001E-07	8.42861425098818E-07	1485818.5	2.62393696175423E-05
1	208	86.6601317812042	1.10916137695313	1.10931396484375	7.43713378906249E-07	8.25011625238403E-07	1491588	2.6314743081457E-05
1	209	86.7608397809499	1.09909057617188	1.09893798828125	7.33642578125E-07	8.0622766063243E-07	1497920.25	2.63891342910938E-05
1	210	86.8615477806957	1.08901977539063	1.0894775390625	7.24182128906251E-07	7.88980116794846E-07	1504424.875	2.64625414274633E-05
1	211	86.9622557804414	1.07894897460938	1.0784912109375	7.1441650390625E-07	7.70491908497206E-07	1509611.25	2.65349808614701E-05
1	212	87.0629637801871	1.06887817382813	1.06903076171875	7.049560546875E-07	7.5361970175436E-07	1516450.25	2.66064525931142E-05
1	213	87.1636717799329	1.05880737304688	1.0589599609375	6.94885253906249E-07	7.35855621769588E-07	1523935.125	2.6676940251491E-05
1	214	87.2643797796786	1.04873657226563	1.048583984375	6.85729980468749E-07	7.19045431196719E-07	1529150	2.67464583885157E-05
1	215	87.3650877794244	1.03866577148438	1.03912353515625	6.756591796875E-07	7.02093359450373E-07	1537940.375	2.68150106421672E-05
1	216	87.4657957791701	1.02859497070313	1.0284423828125	6.6558837890625E-07	6.84519250171434E-07	1545162.875	2.68825478997314E-05
1	217	87.5665037789158	1.01852416992188	1.01776123046875	6.5582275390625E-07	6.67470999360376E-07	1551884.625	2.69490865321131E-05
1	218	87.6672117786616	1.00845336914063	1.00860595703125	6.4605712890625E-07	6.51617028779583E-07	1561171.5	2.70146410912275E-05
1	219	87.7679197784073	0.998382568359375	0.99822998046875	6.35986328125E-07	6.34860612080956E-07	1569577.75	2.70791970251594E-05
1	220	87.868627778153	0.988311767578125	0.98785400390625	6.2530517578125E-07	6.17710213646205E-07	1579795	2.71427070401842E-05
1	221	87.9693357778988	0.978240966796875	0.9783935546875	6.14013671874999E-07	6.00747000589763E-07	1593439.5	2.7205112928641E-05
1	222	88.0700437776445	0.968170166015625	0.96832275390625	6.01806640625E-07	5.82743041377398E-07	1609026.375	2.72663346549962E-05
1	223	88.1707517773903	0.958099365234375	0.95855712890625	5.877685546875E-07	5.63409741971554E-07	1630841.125	2.73262339760549E-05
1	224	88.271459777136	0.948028564453125	0.94818115234375	5.72509765625E-07	5.42842940376431E-07	1656183.375	2.73846580967074E-05
1	225	88.3721677768817	0.937957763671875	0.93841552734375	5.5419921875E-07	5.20069193044037E-07	1693281.875	2.7441392376204E-05
1	226	88.4728757766275	0.927886962890625	0.927734375	5.31921386718751E-07	4.93481763896852E-07	1744119.375	2.74960839306004E-05
1	227	88.5735837763732	0.917816162109375	0.91827392578125	5.047607421875E-07	4.6350862703548E-07	1819226.125	2.7548283469514E-05
1	228	88.6742917761189	0.907745361328125	0.90789794921875	4.7149658203125E-07	4.28070762836796E-07	1925566.375	2.75974434771342E-05
1	229	88.7749997758647	0.897674560546875	0.8978271484375	4.30908203124999E-07	3.86881055192134E-07	2083569.5	2.76428818324348E-05
1	230	88.8757077756104	0.887603759765625	0.8880615234375	3.826904296875E-07	3.39852647357475E-07	2320574.25	2.76838509307709E-05
1	231	88.9764157753561	0.877532958984375	0.877685546875	3.277587890625E-07	2.87669138288038E-07	2677840	2.77196249953704E-05
1	232	89.0771237751019	0.867462158203125	0.8673095703125	2.69775390625E-07	2.3397876702802E-07	3214932.25	2.77497128990944E-05
1	233	89.1778317748476	0.857391357421875	0.85784912109375	2.1331787109375E-07	1.82994540409709E-07	4021459.5	2.77740382443881E-05
1	234	89.2785397745934	0.847320556640625	0.8477783203125	1.6326904296875E-07	1.38415941819403E-07	5192523.5	2.779300120892E-05
1	235	89.3792477743391	0.837249755859375	0.83770751953125	1.24206542968749E-07	1.04048751836672E-07	6744472	2.78074767265934E-05
1	236	89.4799557740848	0.827178955078125	0.82763671875	9.765625E-08	8.08238951321982E-08	8475000	2.781864895951E-05
1	237	89.5806637738306	0.817108154296875	0.8172607421875	8.36181640625003E-08	6.83378402754897E-08	9773723	2.7827776648337E-05
1	238	89.6813717735763	0.807037353515625	0.806884765625	8.087158203125E-08	6.52540421697267E-08	9977359	2.78360585070914E-05
1	239	89.782079773322	0.796966552734375	0.79681396484375	8.45336914062495E-08	6.73576252552266E-08	9425993	2.78443876595702E-05
1	240	89.8827877730678	0.786895751953125	0.787353515625	9.18579101562497E-08	7.23246458278481E-08	8571429	2.78532697848277E-05
1	241	89.9834957728135	0.776824951171875	0.77728271484375	9.97924804687495E-08	7.75669732888673E-08	7788991	2.78629195236135E-05
1	242	90.0842037725592	0.766754150390625	0.7666015625	1.055908203125E-07	8.09460800610395E-08	7260116	2.78732622973621E-05
1	243	90.184911772305	0.756683349609375	0.7562255859375	1.080322265625E-07	8.16967329342333E-08	7000000	2.78840179817053E-05
1	244	90.2856197720507	0.746612548828125	0.7464599609375	1.055908203125E-07	7.88193119660718E-08	7069364.5	2.78947754850378E-05
1	245	90.3863277717965	0.736541748046875	0.7364501953125	9.82666015624995E-08	7.23684507875078E-08	7494410.5	2.7905040042242E-05
1	246	90.4870357715422	0.726470947265625	0.72637939453125	8.48388671875006E-08	6.16252080476443E-08	8561871	2.79142604995286E-05
1	247	90.5877437712879	0.716400146484375	0.716339111328125	6.561279296875E-08	4.70010057540549E-08	10917675	2.79218365903944E-05
1	248	90.6884517710337	0.706329345703125	0.70623779296875	4.21142578125006E-08	2.97426794304556E-08	16769566	2.79272608167958E-05
1	249	90.7891597707794	0.696258544921875	0.69622802734375	1.64794921875003E-08	1.14734834966157E-08	42248148	2.79302112176083E-05
1	250	90.8898677705251	0.686187744140625	0.6861572265625	-7.93457031249972E-09	-5.44436273841598E-09	-86476920	2.79306423180969E-05
1	251	90.9905757702709	0.676116943359375	0.676055908203125	-2.62451171874997E-08	-1.77431651593452E-08	-25759304	2.79289197351318E-05
1	252	91.0912837700166	0.666046142578125	0.6658935546875	-3.72314453124994E-08	-2.47921789764405E-08	-17885246	2.79257237707498E-05
1	253	91.1919917697624	0.655975341796875	0.65594482421875	-3.96728515625E-08	-2.60232013715722E-08	-16533846	2.79218511423096E-05
1	254	91.2926997695081	0.645904541015625	0.645904541015625	-3.44848632812506E-08	-2.22739302557784E-08	-18730088	2.79181167570641E-05
1	255	91.3934077692538	0.635833740234375	0.6357421875	-2.41088867187503E-08	-1.53270356406665E-08	-26369622	2.79151663562516E-05
1	256	91.4941157689996	0.625762939453125	0.625732421875	-1.15966796875006E-08	-7.25641813303923E-09	-53957896	2.79133691947209E-05
1	257	91.5948237687453	0.615692138671875	0.615692138671875	1.83105468749972E-09	1.12736597834839E-09	336250016	2.79128780675819E-05
1	258	91.695531768491	0.605621337890625	0.6055908203125	1.34277343750003E-08	8.1317130806724E-09	45100000	2.79136456811102E-05
1	259	91.7962397682368	0.595550537109375	0.595489501953125	2.41088867187503E-08	1.43565879184848E-08	24700002	2.79155356111005E-05
1	260	91.8969477679825	0.585479736328125	0.58551025390625	3.23486328124997E-08	1.89404545380967E-08	18100002	2.79183786915382E-05
1	261	91.9976557677282	0.575408935546875	0.575408935546875	4.119873046875E-08	2.3706116181188E-08	13966668	2.79220821539639E-05
1	262	92.098363767474	0.565338134765625	0.565277099609375	4.79125976562494E-08	2.70838942384444E-08	11798089	2.79265696008224E-05
1	263	92.1990717672197	0.555267333984375	0.555206298828125	5.37109374999997E-08	2.98206508375642E-08	10336932	2.79316864180146E-05
1	264	92.2997797669655	0.545196533203125	0.545166015625	5.85937499999994E-08	3.19433191009466E-08	9304167	2.79373416560702E-05
1	265	92.4004877667112	0.535125732421875	0.535064697265625	6.31713867187495E-08	3.38007772882065E-08	8470049	2.79434734693496E-05
1	266	92.5011957664569	0.525054931640625	0.5250244140625	6.68334960937503E-08	3.50892150891013E-08	7855708	2.79500181932235E-05
1	267	92.6019037662027	0.514984130859375	0.5150146484375	7.01904296875E-08	3.61490997136116E-08	7337391	2.79569194390206E-05
1	268	92.7026117659484	0.504913330078125	0.5048828125	7.26318359375006E-08	3.66705634746722E-08	6951260.5	2.79641099041328E-05
1	269	92.8033197656941	0.494842529296875	0.4947509765625	7.50732421874997E-08	3.71425592504693E-08	6590244	2.79715477518039E-05
1	270	92.9040277654399	0.484771728515625	0.4847412109375	7.75146484375003E-08	3.75745443648157E-08	6253543.5	2.79792311630445E-05
1	271	93.0047357651856	0.474700927734375	0.47467041015625	7.9345703125E-08	3.76630566734093E-08	5982307.5	2.79871292150347E-05
1	272	93.1054437649314	0.464630126953125	0.46466064453125	8.087158203125E-08	3.75778412831096E-08	5745660.5	2.79951982520288E-05
1	273	93.2061517646771	0.454559326171875	0.45452880859375	8.20922851562503E-08	3.73133097752998E-08	5536803	2.80034037132282E-05
1	274	93.3068597644228	0.444488525390625	0.444488525390625	8.36181640625003E-08	3.71673145593832E-08	5315693.5	2.80117474176222E-05
1	275	93.4075677641686	0.434417724609375	0.43438720703125	8.42285156249997E-08	3.65877887986699E-08	5157246.5	2.80201984423911E-05
1	276	93.5082757639143	0.424346923828125	0.42431640625	8.392333984375E-08	3.56100500198409E-08	5056000	2.80286658380646E-05
1	277	93.60898376366	0.414276123046875	0.414276123046875	8.36181640625003E-08	3.46410082840976E-08	4954379.5	2.80371023109183E-05
1	278	93.7096917634058	0.404205322265625	0.404205322265625	8.392333984375E-08	3.39222587797394E-08	4816363.5	2.80455387837719E-05
1	279	93.8103997631515	0.394134521484375	0.394134521484375	8.45336914062495E-08	3.33176437550264E-08	4662455	2.80540225503501E-05
1	280	93.9111077628972	0.384063720703125	0.384063720703125	8.42285156249997E-08	3.23491136100529E-08	4559783	2.8062519049854E-05
1	281	94.011815762643	0.373992919921875	0.37396240234375	8.45336914062495E-08	3.16124229016168E-08	4423827	2.80710173683474E-05
1	282	94.1125237623887	0.363922119140625	0.36395263671875	8.51440429687503E-08	3.09883958493629E-08	4274552	2.80795611615758E-05
1	283	94.2132317621345	0.353851318359375	0.35382080078125	8.48388671875006E-08	3.00177553924641E-08	4170503.75	2.80881213257089E-05
1	284	94.3139397618802	0.343780517578125	0.34375	8.48388671875006E-08	2.91633597271357E-08	4051798.5	2.80966651189374E-05
1	285	94.4146477616259	0.333709716796875	0.333740234375	8.45336914062495E-08	2.82122929462503E-08	3948014.5	2.81051925412612E-05
1	286	94.5153557613717	0.323638916015625	0.32366943359375	8.42285156249997E-08	2.72621942798423E-08	3842753.75	2.81136908597546E-05
1	287	94.6160637611174	0.313568115234375	0.313568115234375	8.36181640625003E-08	2.62199897349547E-08	3750000	2.81221418845234E-05
1	288	94.7167717608631	0.303497314453125	0.303466796875	8.30078124999995E-08	2.51901148828892E-08	3655882.25	2.8130532882642E-05
1	289	94.8174797606089	0.293426513671875	0.293365478515625	8.23974609375E-08	2.41725697236461E-08	3560370.5	2.81388620351208E-05
1	290	94.9181877603546	0.283355712890625	0.28338623046875	8.17871093750006E-08	2.31773391590195E-08	3464925.5	2.814712934196E-05
1	291	95.0188957601003	0.273284912109375	0.2733154296875	8.02612304687506E-08	2.19366320663994E-08	3405323.25	2.81552893284243E-05
1	292	95.1196037598461	0.263214111328125	0.263153076171875	7.81249999999997E-08	2.05588328583417E-08	3368359.5	2.81632637779694E-05
1	293	95.2203117595918	0.253143310546875	0.25311279296875	7.65991210937497E-08	1.93882172538906E-08	3304382.5	2.81710545095848E-05
1	294	95.3210197593376	0.243072509765625	0.243011474609375	7.44628906250003E-08	1.80953367845405E-08	3263524.75	2.81786615232704E-05
1	295	95.4217277590833	0.233001708984375	0.233001708984375	7.171630859375E-08	1.67100218106953E-08	3248936.25	2.81860229733866E-05
1	296	95.522435758829	0.222930908203125	0.222930908203125	6.95800781250006E-08	1.55115493782887E-08	3203947.5	2.81931370409438E-05
1	297	95.6231437585748	0.212860107421875	0.21282958984375	6.561279296875E-08	1.39643425711711E-08	3243721.25	2.81999455182813E-05
1	298	95.7238517583205	0.202789306640625	0.20281982421875	6.13403320312497E-08	1.24410348689707E-08	3306467.75	2.82063374470454E-05
1	299	95.8245597580662	0.192718505859375	0.19268798828125	5.61523437500003E-08	1.08198818793426E-08	3431522	2.82122546195751E-05
1	300	95.925267757812	0.182647705078125	0.18267822265625	4.94384765624994E-08	9.0313330147751E-09	3695061.75	2.82175715256017E-05
1	301	96.0259757575577	0.172576904296875	0.172607421875	4.15039062499997E-08	7.16388237620436E-09	4158823.5	2.82221499219304E-05
1	302	96.1266837573035	0.162506103515625	0.162506103515625	3.14331054687506E-08	5.10807129927571E-09	5169903.5	2.82258224615362E-05
1	303	96.2273917570492	0.152435302734375	0.1524658203125	1.678466796875E-08	2.55908805257832E-09	9083636	2.82282508123899E-05
1	304	96.3280997567949	0.142364501953125	0.142425537109375	-3.66210937499945E-09	-5.2157789198759E-10	-38891668	2.82289111055434E-05
1	305	96.4288077565407	0.132293701171875	0.132293701171875	-2.96020507812494E-08	-3.91616472583678E-09	-4469072	2.82272358163027E-05
1	306	96.5295157562864	0.122222900390625	0.1221923828125	-6.561279296875E-08	-8.01738320177492E-09	-1862325.75	2.82224427792244E-05
1	307	96.6302237560321	0.112152099609375	0.112152099609375	-1.15966796875E-07	-1.30059190084353E-08	-967105.3125	2.82132987194927E-05
1	308	96.7309317557779	0.102081298828125	0.10205078125	-1.8463134765625E-07	-1.88417725865975E-08	-552727.25	2.81981629086658E-05
1	309	96.8316397555236	0.092010498046875	0.092041015625	-2.7801513671875E-07	-2.55887950828537E-08	-331064.75	2.81748671113746E-05
1	310	96.9323477552693	0.081939697265625	0.082000732421875	-4.0252685546875E-07	-3.30074954035808E-08	-203714.9375	2.81405991700012E-05
1	311	97.0330557550151	0.071868896484375	0.07196044921875	-5.62744140625E-07	-4.04953190979995E-08	-127874.1953125	2.80919939541491E-05
1	312	97.1337637547608	0.061798095703125	0.061859130859375	-7.586669921875E-07	-4.6930480834817E-08	-81536.6015625	2.80254553217674E-05
1	313	97.2344717545066	0.051727294921875	0.0517578125	-9.86328124999999E-07	-5.1050186300472E-08	-52475.24609375	2.79375872196397E-05
1	314	97.3351797542523	0.041656494140625	0.0417236328125	-1.22955322265625E-06	-5.13014235536957E-08	-33933.98046875	2.78260085906368E-05
1	315	97.435887753998	0.031585693359375	0.0316650390625	-1.46881103515625E-06	-4.65099567747984E-08	-21558.279296875	2.76901355391601E-05
1	316	97.5365957537438	0.021514892578125	0.0216217041015625	-1.67572021484375E-06	-3.62319276803191E-08	-12902.931640625	2.75317961495603E-05
1	317	97.6373037534895	0.011444091796875	0.0115234375	-1.83197021484375E-06	-2.11105941616552E-08	-6290.1884765625	2.73551686404971E-05
1	318	97.7380117532352	0.001373291015625	0.001483154296875	-1.92718505859375E-06	-2.85831247559543E-09	-769.596252441406	2.71658809651854E-05
1	319	97.838719752981	-0.008697509765625	-0.0085906982421875	-1.9622802734375E-06	1.68573581760256E-08	4377.916015625	2.69700303761056E-05
1	320	97.9394277527267	-0.018768310546875	-0.0186737060546875	-1.94793701171875E-06	3.63752015175578E-08	9586.40234375	2.67731356871082E-05
1	321	98.0401357524725	-0.028839111328125	-0.0287322998046875	-1.9012451171875E-06	5.46271401447029E-08	15112.3603515625	2.65793132712133E-05
1	322	98.1408437522182	-0.038909912109375	-0.0387664794921875	-1.83502197265625E-06	7.11373431272477E-08	21125.89453125	2.63911788351834E-05
1	323	98.2415517519639	-0.048980712890625	-0.0488311767578125	-1.76116943359375E-06	8.59999715885351E-08	27726.564453125	2.62100948020816E-05
1	324	98.3422597517097	-0.059051513671875	-0.059051513671875	-1.68609619140625E-06	9.95665345726593E-08	35022.625	2.603651228128E-05
1	325	98.4429677514554	-0.069122314453125	-0.06903076171875	-1.614990234375E-06	1.11484006026785E-07	42743.765625	2.58702893916052E-05
1	326	98.5436757512011	-0.079193115234375	-0.0791015625	-1.55029296875E-06	1.2263059545603E-07	51023.62109375	2.57109040830983E-05
1	327	98.6443837509469	-0.089263916015625	-0.089202880859375	-1.4910888671875E-06	1.33009422143004E-07	59823.98828125	2.55577579082455E-05
1	328	98.7450917506926	-0.099334716796875	-0.0992431640625	-1.43951416015625E-06	1.42861935614746E-07	68942.125	2.54101905738935E-05
1	329	98.8457997504383	-0.109405517578125	-0.10931396484375	-1.39312744140625E-06	1.52288279764434E-07	78466.59375	2.52675563388038E-05
1	330	98.9465077501841	-0.119476318359375	-0.119384765625	-1.3531494140625E-06	1.61545429477883E-07	88227.3359375	2.51292694883887E-05
1	331	99.0472157499298	-0.129547119140625	-0.12939453125	-1.31866455078125E-06	1.706279846303E-07	98125.4375	2.49947333941236E-05
1	332	99.1479237496756	-0.139617919921875	-0.139495849609375	-1.2884521484375E-06	1.79733731897613E-07	108266.2265625	2.48634551098803E-05
1	333	99.2486317494213	-0.149688720703125	-0.149658203125	-1.26220703125E-06	1.88899633712936E-07	118568.671875	2.47350180870853E-05
1	334	99.349339749167	-0.159759521484375	-0.159637451171875	-1.2396240234375E-06	1.97890415165602E-07	128778.9296875	2.46090421569534E-05
1	335	99.4500477489128	-0.169830322265625	-0.169677734375	-1.21978759765625E-06	2.06970796057249E-07	139104.328125	2.44851999013918E-05
1	336	99.5507557486585	-0.179901123046875	-0.179718017578125	-1.20330810546875E-06	2.16256140106452E-07	149353.28125	2.43631875491701E-05
1	337	99.6514637484042	-0.189971923828125	-0.189849853515625	-1.18896484375E-06	2.25724789970627E-07	159676.59375	2.42427267949097E-05
1	338	99.75217174815	-0.200042724609375	-0.199951171875	-1.17767333984375E-06	2.35477159549191E-07	169784.921875	2.41235575231258E-05
1	339	99.8528797478957	-0.189971923828125	-0.189849853515625	-1.04156494140625E-06	1.97740945395708E-07	182273.65625	2.40118097281083E-05
2	340	99.9535877476414	-0.179901123046875	-0.17974853515625	-9.490966796875E-07	1.70598738691297E-07	189389.078125	2.39115724980365E-05
2	341	100.054295747387	-0.169830322265625	-0.169677734375	-8.7493896484375E-07	1.48457658610823E-07	193930.9375	2.38197244470939E-05
2	342	100.155003747133	-0.159759521484375	-0.159637451171875	-8.123779296875E-07	1.2968592955076E-07	196506.390625	2.37347612710437E-05
2	343	100.255711746879	-0.149688720703125	-0.149658203125	-7.574462890625E-07	1.13358048281498E-07	197582.59375	2.36557152675232E-05
2	344	100.356419746624	-0.139617919921875	-0.13958740234375	-7.07397460937501E-07	9.87437687172132E-08	197325.296875	2.358195342822E-05
2	345	100.45712774637	-0.129547119140625	-0.12945556640625	-6.6253662109375E-07	8.57690523048404E-08	195393.84375	2.35129718930693E-05
2	346	100.557835746116	-0.119476318359375	-0.119354248046875	-6.201171875E-07	7.40136201216046E-08	192470.46875	2.34483850363176E-05
2	347	100.658543745862	-0.109405517578125	-0.10931396484375	-5.7952880859375E-07	6.33505905511811E-08	188625.609375	2.33879782172153E-05
2	348	100.759251745607	-0.099334716796875	-0.099273681640625	-5.40771484374999E-07	5.3684374279328E-08	183577.890625	2.33315677178325E-05
2	349	100.859959745353	-0.089263916015625	-0.089202880859375	-5.0018310546875E-07	4.46177743640419E-08	178340.453125	2.32791517191799E-05
2	350	100.960667745099	-0.079193115234375	-0.079132080078125	-4.57763671875E-07	3.62237919659947E-08	172866.671875	2.32309139391873E-05
2	351	101.061375744845	-0.069122314453125	-0.069061279296875	-4.107666015625E-07	2.83680670065678E-08	168127.78125	2.31871799769579E-05
2	352	101.16208374459	-0.059051513671875	-0.059051513671875	-3.56445312500001E-07	2.10486348350969E-08	165667.8125	2.31485482800053E-05
2	353	101.262791744336	-0.048980712890625	-0.048846435546875	-2.90832519531251E-07	1.42061304941876E-08	167953.84375	2.31159556278726E-05
2	354	101.363499744082	-0.038909912109375	-0.0387847900390625	-2.08740234375E-07	8.09594613571107E-09	185804.09375	2.30907990044216E-05
2	355	101.464207743828	-0.028839111328125	-0.028692626953125	-1.04675292968751E-07	3.00340907699592E-09	274110.8125	2.30750174523564E-05
2	356	101.564915743573	-0.018768310546875	-0.0186737060546875	2.80761718749994E-08	-5.24286170033861E-10	-665108.75	2.30711611948209E-05
2	357	101.665623743319	-0.008697509765625	-0.0085906982421875	1.9561767578125E-07	-1.68049241189294E-09	-43915.7578125	2.30824243772076E-05
2	358	101.766331743065	0.001373291015625	0.0014617919921875	3.985595703125E-07	5.82611181521031E-10	3667.68774414063	2.31123449339066E-05
2	359	101.86703974281	0.011444091796875	0.0115570068359375	6.33850097656249E-07	7.3254100563247E-09	18233.029296875	2.31643298320705E-05
2	360	101.967747742556	0.021514892578125	0.0215728759765625	8.87451171875001E-07	1.91448741304612E-08	24308.8046875	2.3240932932822E-05
2	361	102.068455742302	0.031585693359375	0.0316680908203125	1.138916015625E-06	3.60672949284435E-08	27805.46484375	2.33429691434139E-05
2	362	102.169163742048	0.041656494140625	0.0417266845703125	1.36444091796875E-06	5.6933597392117E-08	30581.52734375	2.34690232900903E-05
2	363	102.269871741793	0.051727294921875	0.051788330078125	1.54144287109375E-06	7.98287516090568E-08	33597.30859375	2.36153464356903E-05
2	364	102.370579741539	0.061798095703125	0.061798095703125	1.65679931640625E-06	1.02387041067686E-07	37299.6875	2.37763906625332E-05
2	365	102.471287741285	0.071868896484375	0.0718994140625	1.71234130859375E-06	1.23116336681051E-07	41988.953125	2.39460405282443E-05
2	366	102.571995741031	0.081939697265625	0.081939697265625	1.71783447265625E-06	1.4075882859288E-07	47699.41796875	2.4118762667058E-05
2	367	102.672703740776	0.092010498046875	0.092010498046875	1.68701171875E-06	1.55222792841414E-07	54540.51953125	2.42902115132893E-05
2	368	102.773411740522	0.102081298828125	0.1021728515625	1.63360595703125E-06	1.66910183452273E-07	62544.3671875	2.4457416657242E-05
2	369	102.874119740268	0.112152099609375	0.112213134765625	1.56982421875E-06	1.76154898667846E-07	71481.3359375	2.4618722818559E-05
2	370	102.974827740014	0.122222900390625	0.12225341796875	1.50360107421875E-06	1.83820375809773E-07	81307.0859375	2.47734824370127E-05
2	371	103.075535739759	0.132293701171875	0.132354736328125	1.43951416015625E-06	1.90526506571587E-07	91944.0390625	2.49216791416984E-05
2	372	103.176243739505	0.142364501953125	0.142425537109375	1.37969970703125E-06	1.96504473137793E-07	103229.375	2.50636385317193E-05
2	373	103.276951739251	0.152435302734375	0.1524658203125	1.3250732421875E-06	2.02028374474139E-07	115062.1875	2.51998353633098E-05
2	374	103.377659738996	0.162506103515625	0.162506103515625	1.27685546875E-06	2.07496796633677E-07	127270.5625	2.5330851713079E-05
2	375	103.478367738742	0.172576904296875	0.172637939453125	1.23291015625E-06	2.12847055536258E-07	140024.765625	2.54572296398692E-05
2	376	103.579075738488	0.182647705078125	0.182647705078125	1.19476318359375E-06	2.18220748138265E-07	152873.5625	2.55794711847557E-05
2	377	103.679783738234	0.192718505859375	0.1927490234375	1.16058349609375E-06	2.23701320578584E-07	166079.421875	2.56980729318457E-05
2	378	103.780491737979	0.202789306640625	0.20281982421875	1.13037109375E-06	2.2926165854642E-07	179427.65625	2.58134314208291E-05
2	379	103.881199737725	0.212860107421875	0.21282958984375	1.10321044921875E-06	2.34795805909016E-07	192918.40625	2.59259013546398E-05
2	380	103.981907737471	0.222930908203125	0.222930908203125	1.08062744140625E-06	2.40905251303047E-07	206297.671875	2.60358665400418E-05
2	381	104.082615737217	0.233001708984375	0.233001708984375	1.0595703125E-06	2.46881683096944E-07	219902.078125	2.61436343862442E-05
2	382	104.183323736962	0.243072509765625	0.2430419921875	1.0406494140625E-06	2.52921495302871E-07	233548.390625	2.6249388611177E-05
2	383	104.284031736708	0.253143310546875	0.253143310546875	1.02386474609375E-06	2.59184503192955E-07	247242.9375	2.6353345674579E-05
2	384	104.384739736454	0.263214111328125	0.26318359375	1.00860595703125E-06	2.65448534264578E-07	260937.96875	2.64556874753907E-05
2	385	104.4854477362	0.273284912109375	0.2733154296875	9.9609375E-07	2.72247774546486E-07	274387.25	2.65566322923405E-05
2	386	104.586155735945	0.283355712890625	0.283355712890625	9.8419189453125E-07	2.78876370884973E-07	287907	2.66563474724535E-05
2	387	104.686863735691	0.293426513671875	0.29339599609375	9.735107421875E-07	2.85624139451102E-07	301379.3125	2.67549257841893E-05
2	388	104.787571735437	0.303497314453125	0.303466796875	9.6405029296875E-07	2.92557245984426E-07	314783.15625	2.68524890998378E-05
2	389	104.888279735183	0.313568115234375	0.3135986328125	9.552001953125E-07	2.99549469673366E-07	328306.6875	2.69491320068482E-05
2	390	104.988987734928	0.323638916015625	0.32366943359375	9.4757080078125E-07	3.06699689645029E-07	341578.125	2.70449436357012E-05
2	391	105.089695734674	0.333709716796875	0.333770751953125	9.40856933593751E-07	3.14030529580123E-07	354751.875	2.7140033125761E-05
2	392	105.19040373442	0.343780517578125	0.34375	9.3536376953125E-07	3.21531274494191E-07	367504.09375	2.72345096163917E-05
2	393	105.291111734165	0.353851318359375	0.35394287109375	9.307861328125E-07	3.29445100533121E-07	380262.3125	2.73284767899895E-05
2	394	105.391819733911	0.363922119140625	0.363922119140625	9.26513671875E-07	3.37178789777681E-07	392786.59375	2.74220001301728E-05
2	395	105.492527733657	0.373992919921875	0.3740234375	9.228515625E-07	3.45168103876858E-07	405291	2.75151232926873E-05
2	396	105.593235733403	0.384063720703125	0.384002685546875	9.197998046875E-07	3.5320559277352E-07	417485.0625	2.76079081231728E-05
2	397	105.693943733148	0.394134521484375	0.394134521484375	9.17968750000001E-07	3.61803159876217E-07	429355.0625	2.77004473900888E-05
2	398	105.794651732894	0.404205322265625	0.4041748046875	9.1583251953125E-07	3.70156413964651E-07	441319.5625	2.77927865681704E-05
2	399	105.89535973264	0.414276123046875	0.414337158203125	9.1552734375E-07	3.79336995592894E-07	452566.6875	2.78850020549726E-05
2	400	105.996067732386	0.424346923828125	0.424346923828125	9.14306640625E-07	3.87983192240426E-07	464118.84375	2.79771411442198E-05
2	401	106.096775732131	0.434417724609375	0.434417724609375	9.14306640625E-07	3.97191001866304E-07	475133.53125	2.80692202068167E-05
2	402	106.197483731877	0.444488525390625	0.444488525390625	9.14916992187501E-07	4.06670096708694E-07	485823.875	2.8161328373244E-05
2	403	106.298191731623	0.454559326171875	0.454559326171875	9.1552734375E-07	4.16161469729559E-07	496500	2.82534983853111E-05
2	404	106.398899731369	0.464630126953125	0.464691162109375	9.161376953125E-07	4.25721083274766E-07	507228.53125	2.83457302430179E-05
2	405	106.499607731114	0.474700927734375	0.47467041015625	9.173583984375E-07	4.35442871093983E-07	517431.8125	2.84380530501949E-05
2	406	106.60031573086	0.484771728515625	0.48480224609375	9.185791015625E-07	4.45329192189092E-07	527774.125	2.85305013676407E-05
2	407	106.701023730606	0.494842529296875	0.49481201171875	9.2041015625E-07	4.55429983503564E-07	537599.5	2.8623100661207E-05
2	408	106.801731730352	0.504913330078125	0.5048828125	9.22546386718751E-07	4.65777787894694E-07	547270.9375	2.87159018625971E-05
2	409	106.902439730097	0.514984130859375	0.51495361328125	9.25292968749999E-07	4.76482966860203E-07	556530.375	2.88089468085673E-05
2	410	107.003147729843	0.525054931640625	0.52508544921875	9.28344726562499E-07	4.87460283693508E-07	565614.75	2.89022864308208E-05
2	411	107.103855729589	0.535125732421875	0.535064697265625	9.320068359375E-07	4.98683959904156E-07	574099.5625	2.8995962566114E-05
2	412	107.204563729334	0.545196533203125	0.545196533203125	9.36279296875001E-07	5.10456231950229E-07	582301.1875	2.90900370600866E-05
2	413	107.30527172908	0.555267333984375	0.5552978515625	9.40856933593751E-07	5.22455820828327E-07	590204.375	2.91845590254525E-05
2	414	107.405979728826	0.565338134765625	0.5653076171875	9.46044921875E-07	5.3480641781789E-07	597548.375	2.92795721179573E-05
2	415	107.506687728572	0.575408935546875	0.575347900390625	9.521484375E-07	5.47816568996495E-07	604262.8125	2.9375152735156E-05
2	416	107.607395728317	0.585479736328125	0.585418701171875	9.59167480468751E-07	5.61514582386735E-07	610340.4375	2.94713954644976E-05
2	417	107.708103728063	0.595550537109375	0.595458984375	9.68017578125E-07	5.76414720399043E-07	615132.4375	2.95684367301874E-05
2	418	107.808811727809	0.605621337890625	0.60552978515625	9.771728515625E-07	5.91707248531748E-07	619675.25	2.96663856715895E-05
2	419	107.909519727555	0.615692138671875	0.61566162109375	9.8907470703125E-07	6.08935351920081E-07	622462.1875	2.97653932648245E-05
2	420	108.0102277273	0.625762939453125	0.625701904296875	1.00341796875E-06	6.27840563538484E-07	623570.5625	2.98657232633559E-05
2	421	108.110935727046	0.635833740234375	0.635772705078125	1.0198974609375E-06	6.48422997073794E-07	623369.25	2.99676066788379E-05
2	422	108.211643726792	0.645904541015625	0.64581298828125	1.04095458984375E-06	6.7226199007564E-07	620404.625	3.00713782053208E-05
2	423	108.312351726538	0.655975341796875	0.6558837890625	1.065673828125E-06	6.98958160683105E-07	615463.9375	3.0177454391378E-05
2	424	108.413059726283	0.666046142578125	0.665985107421875	1.0943603515625E-06	7.28827671991894E-07	608561.125	3.0286220862763E-05
2	425	108.513767726029	0.676116943359375	0.676116943359375	1.12640380859375E-06	7.61580622565816E-07	600243.875	3.03980450553354E-05
2	426	108.614475725775	0.686187744140625	0.68609619140625	1.15936279296875E-06	7.95434402789397E-07	591787.3125	3.05131434288342E-05
2	427	108.715183725521	0.696258544921875	0.6961669921875	1.18988037109375E-06	8.28355382509471E-07	585073.125	3.06314359477255E-05
2	428	108.815891725266	0.706329345703125	0.706268310546875	1.21673583984375E-06	8.59341923842294E-07	580461.5625	3.07526206597686E-05
2	429	108.916599725012	0.716400146484375	0.716278076171875	1.2371826171875E-06	8.86166731106641E-07	578959.0625	3.08761846099515E-05
2	430	109.017307724758	0.726470947265625	0.726409912109375	1.251220703125E-06	9.08899039586686E-07	580561	3.10014838760253E-05
2	431	109.118015724503	0.736541748046875	0.7364501953125	1.26068115234375E-06	9.28428846691531E-07	584168.5	3.11279691231903E-05
2	432	109.218723724249	0.746612548828125	0.746490478515625	1.265869140625E-06	9.44959197113349E-07	589705.9375	3.12551928800531E-05
2	433	109.319431723995	0.756683349609375	0.7568359375	1.26983642578125E-06	9.61057821768918E-07	596010.5625	3.13828750222456E-05
2	434	109.420139723741	0.766754150390625	0.7672119140625	1.27349853515625E-06	9.77043214334117E-07	602444.3125	3.15109427901916E-05
2	435	109.520847723486	0.776824951171875	0.77728271484375	1.279296875E-06	9.94375341178966E-07	607585.875	3.16394834953826E-05
2	436	109.621555723232	0.786895751953125	0.78704833984375	1.28875732421875E-06	1.01431430721277E-06	610703.3125	3.17687954520807E-05
2	437	109.722263722978	0.796966552734375	0.797119140625	1.30218505859375E-06	1.03799663975224E-06	612139.6875	3.18992606480606E-05
2	438	109.822971722724	0.807037353515625	0.806884765625	1.32232666015625E-06	1.06696518287208E-06	610200.8125	3.20314175041858E-05
2	439	109.923679722469	0.817108154296875	0.8172607421875	1.34857177734375E-06	1.10213477455545E-06	606019.4375	3.21659063047264E-05
2	440	110.024387722215	0.827178955078125	0.82763671875	1.38153076171875E-06	1.14340559775883E-06	599072.25	3.23033782478888E-05
2	441	110.125095721961	0.837249755859375	0.83770751953125	1.419677734375E-06	1.18927471248753E-06	590068.8125	3.24444299621973E-05
2	442	110.225803721707	0.847320556640625	0.8477783203125	1.46148681640625E-06	1.2390167967169E-06	580079.375	3.25895089190453E-05
2	443	110.326511721452	0.857391357421875	0.85784912109375	1.50360107421875E-06	1.28986289382738E-06	570529.75	3.27388115692884E-05
2	444	110.427219721198	0.867462158203125	0.8673095703125	1.54083251953125E-06	1.33637877297588E-06	562883.75	3.28921123582404E-05
2	445	110.527927720944	0.877532958984375	0.877685546875	1.56951904296875E-06	1.37754409479385E-06	559206.6875	3.30487309838645E-05
2	446	110.62863572069	0.887603759765625	0.88775634765625	1.5899658203125E-06	1.41150223953446E-06	558349.3125	3.32078234350774E-05
2	447	110.729343720435	0.897674560546875	0.89752197265625	1.59912109375E-06	1.4352463040268E-06	561259.5625	3.33684074576013E-05
2	448	110.830051720181	0.907745361328125	0.90789794921875	1.60125732421875E-06	1.45377816807013E-06	566990.6875	3.3529559004819E-05
2	449	110.930759719927	0.917816162109375	0.91796875	1.5972900390625E-06	1.46626223340718E-06	574703.875	3.36906159645878E-05
2	450	111.031467719672	0.927886962890625	0.92803955078125	1.58935546875E-06	1.47498462865769E-06	583909.375	3.38510762958322E-05
2	451	111.132175719418	0.937957763671875	0.938720703125	1.58050537109375E-06	1.48365313634713E-06	593937.0625	3.40106926159933E-05
2	452	111.232883719164	0.948028564453125	0.94818115234375	1.5704345703125E-06	1.48905644437036E-06	603769.9375	3.4169355785707E-05
2	453	111.33359171891	0.958099365234375	0.958251953125	1.56036376953125E-06	1.49522168158001E-06	614120.875	3.43270039593335E-05
2	454	111.434299718655	0.968170166015625	0.968017578125	1.55181884765625E-06	1.50218795624824E-06	623795.5	3.44837135344278E-05
2	455	111.535007718401	0.978240966796875	0.97869873046875	1.54388427734375E-06	1.51099754930328E-06	633919.75	3.46395972883329E-05
2	456	111.635715718147	0.988311767578125	0.98846435546875	1.536865234375E-06	1.51913639001577E-06	643169.1875	3.47947243426461E-05
2	457	111.736423717893	0.998382568359375	0.99853515625	1.53076171875E-06	1.52851930579345E-06	652312.625	3.49491892848164E-05
2	458	111.837131717638	1.00845336914063	1.00860595703125	1.52557373046875E-06	1.53870269059553E-06	661132.25	3.51030903402716E-05
2	459	111.937839717384	1.01852416992188	1.0186767578125	1.52099609375E-06	1.54940335050924E-06	669743.1875	3.5256496630609E-05
2	460	112.03854771713	1.02859497070313	1.0284423828125	1.51702880859375E-06	1.56017665631225E-06	677932.0625	3.54094736394472E-05
2	461	112.139255716876	1.03866577148438	1.038818359375	1.51397705078125E-06	1.57274712364597E-06	686152	3.55620977643412E-05
2	462	112.239963716621	1.04873657226563	1.0491943359375	1.51123046875E-06	1.5855744095461E-06	694265	3.57144272129517E-05
2	463	112.340671716367	1.05880737304688	1.0589599609375	1.50909423828125E-06	1.59807029831427E-06	701718.9375	3.58665129169822E-05
2	464	112.441379716113	1.06887817382813	1.06903076171875	1.50726318359375E-06	1.61131072218268E-06	709252.875	3.60183985321783E-05
2	465	112.542087715859	1.07894897460938	1.0791015625	1.50543212890625E-06	1.62451419782883E-06	716805.1875	3.61700986104552E-05
2	466	112.642795715604	1.08901977539063	1.08856201171875	1.50390625E-06	1.63709512435162E-06	723823.0625	3.6321631341707E-05
2	467	112.74350371535	1.09909057617188	1.09954833984375	1.50299072265625E-06	1.65261087659019E-06	731573.625	3.64730403816793E-05
2	468	112.844211715096	1.10916137695313	1.1090087890625	1.50299072265625E-06	1.66682991675771E-06	737868.0625	3.6624405765906E-05
2	469	112.944919714841	1.11923217773438	1.1187744140625	1.50238037109375E-06	1.6808246527944E-06	744667.9375	3.67757384083234E-05
2	470	113.045627714587	1.12930297851563	1.1297607421875	1.50360107421875E-06	1.69870952504425E-06	751370	3.69271001545712E-05
2	471	113.146335714333	1.13937377929688	1.13861083984375	1.50360107421875E-06	1.71201645571273E-06	757255.9375	3.70785237464588E-05
2	472	113.247043714079	1.14944458007813	1.14959716796875	1.50482177734375E-06	1.72993884461903E-06	763942.4375	3.72300128219649E-05
2	473	113.347751713824	1.15951538085938	1.15966796875	1.50634765625E-06	1.74686306309013E-06	769854.125	3.73816365026869E-05
2	474	113.44845971357	1.16958618164063	1.16973876953125	1.5087890625E-06	1.7648890207056E-06	775283.1875	3.75334602722432E-05
2	475	113.549167713316	1.17965698242188	1.1798095703125	1.51214599609375E-06	1.78404434336699E-06	780222	3.76855750801042E-05
2	476	113.649875713062	1.18972778320313	1.1895751953125	1.51580810546875E-06	1.80316772002698E-06	784779.5625	3.78380464098882E-05
2	477	113.750583712807	1.19979858398438	1.19964599609375	1.52008056640625E-06	1.82355859124073E-06	789198.9375	3.79909142793622E-05
2	478	113.851291712553	1.20986938476563	1.21002197265625	1.5252685546875E-06	1.84560849447735E-06	793317.3125	3.81442587240599E-05
2	479	113.951999712299	1.21994018554688	1.21978759765625	1.5313720703125E-06	1.86794864021067E-06	796532.5	3.82981743314303E-05
2	480	114.052707712045	1.23001098632813	1.23077392578125	1.53778076171875E-06	1.8926604070657E-06	800357.25	3.84527193091344E-05
2	481	114.15341571179	1.24008178710938	1.2396240234375	1.5447998046875E-06	1.91497088053438E-06	802449.6875	3.86079373129178E-05
2	482	114.254123711536	1.25015258789063	1.25	1.5533447265625E-06	1.94168069356238E-06	804715.1875	3.87639411201235E-05
2	483	114.354831711282	1.26022338867188	1.26068115234375	1.56280517578125E-06	1.97019903680484E-06	806678.4375	3.8920854422031E-05
2	484	114.455539711028	1.27029418945313	1.2701416015625	1.5728759765625E-06	1.99777514353627E-06	807528.1875	3.90787463402376E-05
2	485	114.556247710773	1.28036499023438	1.28021240234375	1.583251953125E-06	2.02689875550277E-06	808596.8125	3.92376714444254E-05
2	486	114.656955710519	1.29043579101563	1.29058837890625	1.595458984375E-06	2.05908077077765E-06	808913.5625	3.9397731598001E-05
2	487	114.757663710265	1.30050659179688	1.30035400390625	1.6082763671875E-06	2.09132849704474E-06	808538.9375	3.95590541302226E-05
2	488	114.85837171001	1.31057739257813	1.31072998046875	1.62200927734375E-06	2.12601617022301E-06	808090.3125	3.97217118006665E-05
2	489	114.959079709756	1.32064819335938	1.32080078125	1.63665771484375E-06	2.16169860323134E-06	807011	3.98857991967816E-05
2	490	115.059787709502	1.33071899414063	1.33056640625	1.6522216796875E-06	2.19839057535864E-06	805319.5625	4.0051407268038E-05
2	491	115.160495709248	1.34078979492188	1.34124755859375	1.668701171875E-06	2.23814117816801E-06	803767.4375	4.0218626963906E-05
2	492	115.261203708993	1.35086059570313	1.3507080078125	1.68548583984375E-06	2.27659916163248E-06	801376.0625	4.0387523768004E-05
2	493	115.361911708739	1.36093139648438	1.36138916015625	1.70318603515625E-06	2.31869898925652E-06	799319.1875	4.05581558879931E-05
2	494	115.462619708485	1.37100219726563	1.370849609375	1.72119140625E-06	2.35949437410454E-06	796453.9375	4.07305888074916E-05
2	495	115.563327708231	1.38107299804688	1.38092041015625	1.73919677734375E-06	2.4016921997827E-06	793999	4.09048334404361E-05
2	496	115.664035707976	1.39114379882813	1.39068603515625	1.75811767578125E-06	2.4449896045553E-06	791008.5625	4.10809370805509E-05
2	497	115.764743707722	1.40121459960938	1.4013671875	1.778564453125E-06	2.49242179961584E-06	787920.375	4.12590234191157E-05
2	498	115.865451707468	1.41128540039063	1.4111328125	1.80023193359375E-06	2.54036626756715E-06	783861.6875	4.1439230699325E-05
2	499	115.966159707214	1.42135620117188	1.4215087890625	1.82525634765625E-06	2.59461785390158E-06	778799.5625	4.16217881138436E-05
2	500	116.066867706959	1.43142700195313	1.4312744140625	1.85394287109375E-06	2.65350104200479E-06	772016.4375	4.1807048546616E-05
2	501	116.167575706705	1.44149780273438	1.441650390625	1.88751220703125E-06	2.72113265964435E-06	763783.375	4.19954485550988E-05
2	502	116.268283706451	1.45156860351563	1.451416015625	1.92596435546875E-06	2.79537562164478E-06	753604.8125	4.21874719904736E-05
2	503	116.368991706197	1.46163940429688	1.46148681640625	1.9732666015625E-06	2.88390310743125E-06	740643.375	4.23838137066923E-05
2	504	116.469699705942	1.47171020507813	1.47186279296875	2.0281982421875E-06	2.98522945740842E-06	725699.6875	4.25853031629231E-05
2	505	116.570407705688	1.48178100585938	1.48193359375	2.0941162109375E-06	3.10334098685416E-06	707665.4375	4.27928789576981E-05
2	506	116.671115705434	1.49185180664063	1.49169921875	2.17254638671875E-06	3.24078564517549E-06	686613.3125	4.30077197961509E-05
2	507	116.771823705179	1.50192260742188	1.50146484375	2.2625732421875E-06	3.39717416864005E-06	663609.4375	4.32310480391607E-05
2	508	116.872531704925	1.49185180664063	1.49200439453125	2.01568603515625E-06	3.00741248793202E-06	740196.8125	4.34464745922014E-05
2	509	116.973239704671	1.48178100585938	1.48162841796875	1.8402099609375E-06	2.72650731858448E-06	805140.9375	4.36406335211359E-05
2	510	117.073947704417	1.47171020507813	1.4715576171875	1.7041015625E-06	2.50768357545894E-06	863538.75	4.38191054854542E-05
2	511	117.174655704162	1.46163940429688	1.46209716796875	1.59423828125E-06	2.33093123824801E-06	917113.3125	4.39851901319344E-05
2	512	117.275363703908	1.45156860351563	1.45172119140625	1.50390625E-06	2.18325249079498E-06	965300.375	4.41411939391401E-05
2	513	117.376071703654	1.44149780273438	1.44134521484375	1.4288330078125E-06	2.05944161280058E-06	1008756.9375	4.42888667748775E-05
2	514	117.4767797034	1.43142700195313	1.43157958984375	1.36505126953125E-06	1.95417965187517E-06	1048736.875	4.44295510533266E-05
2	515	117.577487703145	1.42135620117188	1.4208984375	1.31195068359375E-06	1.86414865765983E-06	1083042.625	4.45643490820657E-05
2	516	117.678195702891	1.41128540039063	1.4111328125	1.26617431640625E-06	1.78674008566304E-06	1114485.375	4.4694166717818E-05
2	517	117.778903702637	1.40121459960938	1.4013671875	1.2261962890625E-06	1.71835119999741E-06	1142857.25	4.48196697107051E-05
2	518	117.879611702383	1.39114379882813	1.3909912109375	1.19110107421875E-06	1.65681115049665E-06	1167819.625	4.49413892056327E-05
2	519	117.980319702128	1.38107299804688	1.380615234375	1.15997314453125E-06	1.60147646965925E-06	1190213.125	4.50597763119731E-05
2	520	118.081027701874	1.37100219726563	1.37115478515625	1.1328125E-06	1.55326131334732E-06	1210398.75	4.51752275694162E-05
2	521	118.18173570162	1.36093139648438	1.361083984375	1.10809326171875E-06	1.50820790167927E-06	1228311.75	4.52880667580757E-05
2	522	118.282443701366	1.35086059570313	1.3507080078125	1.0858154296875E-06	1.46661955113814E-06	1243957.375	4.53985376225319E-05
2	523	118.383151701111	1.34078979492188	1.341552734375	1.0650634765625E-06	1.42883880016598E-06	1259598.875	4.55068438895978E-05
2	524	118.483859700857	1.33071899414063	1.33026123046875	1.04644775390625E-06	1.3920489436714E-06	1271216.125	4.56131638202351E-05
2	525	118.584567700603	1.32064819335938	1.32080078125	1.02874755859375E-06	1.35877053253353E-06	1283892	4.571766112349E-05
2	526	118.685275700348	1.31057739257813	1.31134033203125	1.011962890625E-06	1.32702768951276E-06	1295838.5	4.58204194728751E-05
2	527	118.785983700094	1.30050659179688	1.3006591796875	9.967041015625E-07	1.29637237478164E-06	1304960.25	4.59215625596698E-05
2	528	118.88669169984	1.29043579101563	1.290283203125	9.81750488281249E-07	1.26673603517702E-06	1314268	4.60211849713232E-05
2	529	118.987399699586	1.28036499023438	1.28082275390625	9.66796875000001E-07	1.23829545373155E-06	1324810.625	4.61193012597505E-05
2	530	119.088107699331	1.27029418945313	1.270751953125	9.53369140625E-07	1.21149571441492E-06	1332906.5	4.62159914604854E-05
2	531	119.188815699077	1.26022338867188	1.259765625	9.3963623046875E-07	1.18372145152534E-06	1340695	4.631131014321E-05
2	532	119.289523698823	1.25015258789063	1.25	9.27124023437501E-07	1.15890497909277E-06	1348255.5	4.64053082396276E-05
2	533	119.390231698569	1.24008178710938	1.23992919921875	9.14611816406249E-07	1.13405383217469E-06	1355689	4.6498047595378E-05
2	534	119.490939698314	1.23001098632813	1.23016357421875	9.02709960937501E-07	1.11048086637311E-06	1362745.125	4.65895573142916E-05
2	535	119.59164769806	1.21994018554688	1.21978759765625	8.9019775390625E-07	1.08585209090961E-06	1370243.5	4.66798373963684E-05
2	536	119.692355697806	1.20986938476563	1.209716796875	8.78295898437501E-07	1.06248921838414E-06	1377345.5	4.67688878416084E-05
2	537	119.793063697552	1.19979858398438	1.19964599609375	8.66088867187501E-07	1.03900003978197E-06	1385130.375	4.68567268399056E-05
2	538	119.893771697297	1.18972778320313	1.190185546875	8.5479736328125E-07	1.01736748092662E-06	1392359.875	4.69433798571117E-05
2	539	119.994479697043	1.17965698242188	1.17889404296875	8.43200683593751E-07	9.9404428510752E-07	1398118	4.7028879635036E-05
2	540	120.095187696789	1.16958618164063	1.16943359375	8.306884765625E-07	9.71435042629309E-07	1407788.375	4.71131679660175E-05
2	541	120.195895696535	1.15951538085938	1.15966796875	8.197021484375E-07	9.50582261793897E-07	1414743.125	4.71962703159079E-05
2	542	120.29660369628	1.14944458007813	1.14898681640625	8.08105468750001E-07	9.28502458918956E-07	1421827.875	4.72782376164105E-05
2	543	120.397311696026	1.13937377929688	1.13983154296875	7.965087890625E-07	9.07885805645492E-07	1431034.625	4.7359037125716E-05
2	544	120.498019695772	1.12930297851563	1.129150390625	7.8460693359375E-07	8.8593924374436E-07	1439128.75	4.74386506539304E-05
2	545	120.598727695517	1.11923217773438	1.11907958984375	7.72705078124999E-07	8.64718458615243E-07	1448262.25	4.75170672871172E-05
2	546	120.699435695263	1.10916137695313	1.10931396484375	7.60803222656251E-07	8.43969587549509E-07	1458082.75	4.75942870252766E-05
2	547	120.800143695009	1.09909057617188	1.0992431640625	7.4920654296875E-07	8.23560185381211E-07	1467209.75	4.76703207823448E-05
2	548	120.900851694755	1.08901977539063	1.0888671875	7.37609863281249E-07	8.03159196038905E-07	1476210.125	4.77451903861947E-05
2	549	121.0015596945	1.07894897460938	1.07879638671875	7.2601318359375E-07	7.83220400535356E-07	1485918.5	4.78188885608688E-05
2	550	121.102267694246	1.06887817382813	1.06903076171875	7.14111328125E-07	7.63406944770395E-07	1497008.625	4.78914043924306E-05
2	551	121.202975693992	1.05880737304688	1.0589599609375	7.0343017578125E-07	7.44904355087783E-07	1505423	4.79627815366257E-05
2	552	121.303683693738	1.04873657226563	1.04827880859375	6.9091796875E-07	7.24274627827981E-07	1517226.25	4.80329945276026E-05
2	553	121.404391693483	1.03866577148438	1.0382080078125	6.793212890625E-07	7.05276761436835E-07	1528302	4.81019924336579E-05
2	554	121.505099693229	1.02859497070313	1.02874755859375	6.683349609375E-07	6.87547981215175E-07	1539269.375	4.81698516523466E-05
2	555	121.605807692975	1.01852416992188	1.01806640625	6.56738281249999E-07	6.68603206577245E-07	1550185.875	4.82365721836686E-05
2	556	121.706515692721	1.00845336914063	1.00860595703125	6.44531249999999E-07	6.50077993213927E-07	1564867.5	4.83020994579419E-05
2	557	121.807223692466	0.998382568359375	0.99853515625	6.3323974609375E-07	6.3231215108317E-07	1576867.5	4.83664371131454E-05
2	558	121.907931692212	0.988311767578125	0.98876953125	6.2103271484375E-07	6.14058251358074E-07	1592137.625	4.84295960632153E-05
2	559	122.008639691958	0.978240966796875	0.97808837890625	6.07910156249999E-07	5.94589835145598E-07	1608935.875	4.84914780827239E-05
2	560	122.109347691704	0.968170166015625	0.968017578125	5.9478759765625E-07	5.75764829591208E-07	1627501.25	4.85520395159256E-05
2	561	122.210055691449	0.958099365234375	0.9576416015625	5.80749511718751E-07	5.56149871044909E-07	1648975.375	4.86112330690958E-05
2	562	122.310763691195	0.948028564453125	0.94818115234375	5.65185546875E-07	5.35898266207369E-07	1677645.875	4.8668935050955E-05
2	563	122.411471690941	0.937957763671875	0.93841552734375	5.47180175781251E-07	5.13482348196703E-07	1715002.875	4.8724945372669E-05
2	564	122.512179690686	0.927886962890625	0.927734375	5.25817871093751E-07	4.87819306727033E-07	1764364.5	4.8778976633912E-05
2	565	122.612887690432	0.917816162109375	0.91796875	5.0079345703125E-07	4.59712708789084E-07	1833028.75	4.88306686747819E-05
2	566	122.713595690178	0.907745361328125	0.9075927734375	4.7119140625E-07	4.27649894163551E-07	1926165.875	4.88796140416525E-05
2	567	122.814303689924	0.897674560546875	0.8978271484375	4.3487548828125E-07	3.904430059265E-07	2064561.375	4.89252379338723E-05
2	568	122.915011689669	0.887603759765625	0.88775634765625	3.9337158203125E-07	3.49218112205563E-07	2256788.25	4.89669437229168E-05
2	569	123.015719689415	0.877532958984375	0.877685546875	3.4637451171875E-07	3.04007897966585E-07	2533920.75	4.90041929879226E-05
2	570	123.116427689161	0.867462158203125	0.867919921875	2.960205078125E-07	2.56922078278876E-07	2931959	4.90365382574964E-05
2	571	123.217135688907	0.857391357421875	0.85784912109375	2.46276855468749E-07	2.11268371685946E-07	3483271.5	4.90638449264225E-05
2	572	123.317843688652	0.847320556640625	0.84747314453125	2.0172119140625E-07	1.70953299516441E-07	4201210.5	4.90864040330052E-05
2	573	123.418551688398	0.837249755859375	0.83740234375	1.6510009765625E-07	1.38255202841719E-07	5072089	4.91048776893876E-05
2	574	123.519259688144	0.827178955078125	0.8270263671875	1.385498046875E-07	1.14584345567437E-07	5969163	4.9120164476335E-05
2	575	123.61996768789	0.817108154296875	0.8172607421875	1.22985839843751E-07	1.00511499567801E-07	6645161.5	4.91333339596167E-05
2	576	123.720675687635	0.807037353515625	0.8074951171875	1.1566162109375E-07	9.33961956661733E-08	6981530.5	4.91453538415954E-05
2	577	123.821383687381	0.796966552734375	0.79681396484375	1.13830566406251E-07	9.07017820850342E-08	7000000	4.91569080622867E-05
2	578	123.922091687127	0.786895751953125	0.78765869140625	1.1474609375E-07	9.03807588770178E-08	6864361.5	4.91684186272323E-05
2	579	124.022799686873	0.776824951171875	0.7769775390625	1.1627197265625E-07	9.0340705583003E-08	6682415	4.91800492454786E-05
2	580	124.123507686618	0.766754150390625	0.76690673828125	1.1627197265625E-07	8.91697595761798E-08	6595800.5	4.91917598992586E-05
2	581	124.224215686364	0.756683349609375	0.75714111328125	1.1322021484375E-07	8.57236770457348E-08	6687332	4.92033141199499E-05
2	582	124.32492368611	0.746612548828125	0.7464599609375	1.0650634765625E-07	7.95027190747533E-08	7008596.5	4.92143808514811E-05
2	583	124.425631685855	0.736541748046875	0.736419677734375	9.52148437499995E-08	7.01180837836546E-08	7734295	4.92245380883105E-05
2	584	124.526339685601	0.726470947265625	0.726409912109375	7.96508789062497E-08	5.78591858868549E-08	9119924	4.92333419970237E-05
2	585	124.627047685347	0.716400146484375	0.71630859375	5.79833984375E-08	4.15340046799884E-08	12353685	4.92402723466512E-05
2	586	124.727755685093	0.706329345703125	0.706298828125	3.32641601562503E-08	2.3494434842064E-08	21233030	4.92448671138845E-05
2	587	124.828463684838	0.696258544921875	0.6961669921875	6.40869140624972E-09	4.46151959820895E-09	108628576	4.92468643642496E-05
2	588	124.929171684584	0.686187744140625	0.6861572265625	-1.89208984374994E-08	-1.29827109063285E-08	-36264516	4.9246234993916E-05
2	589	125.02987968433	0.676116943359375	0.676025390625	-3.96728515625E-08	-2.68198547814791E-08	-17040000	4.92432845931035E-05
2	590	125.130587684076	0.666046142578125	0.66595458984375	-5.27954101562506E-08	-3.51593421044072E-08	-12613874	4.92386279802304E-05
2	591	125.231295683821	0.655975341796875	0.655914306640625	-5.76782226562503E-08	-3.78319704452679E-08	-11371958	4.92330655106343E-05
2	592	125.332003683567	0.645904541015625	0.645904541015625	-5.31005859375003E-08	-3.42979085132811E-08	-12163793	4.92274884891231E-05
2	593	125.432711683313	0.635833740234375	0.635772705078125	-4.33349609374994E-08	-2.75511844449738E-08	-14671127	4.92226317874156E-05
2	594	125.533419683059	0.625762939453125	0.625701904296875	-3.204345703125E-08	-2.00496508284687E-08	-19526668	4.92188373755198E-05
2	595	125.634127682804	0.615692138671875	0.61566162109375	-2.01416015624997E-08	-1.24004104762321E-08	-30566668	4.92162071168423E-05
2	596	125.73483568255	0.605621337890625	0.605560302734375	-9.1552734375E-09	-5.54407009190072E-09	-66143336	4.92147337354254E-05
2	597	125.835543682296	0.595550537109375	0.595550537109375	1.52587890625E-09	9.08737973759344E-10	390300000	4.92143481096718E-05
2	598	125.936251682042	0.585479736328125	0.58544921875	1.15966796875006E-08	6.78926692643245E-09	50484212	4.92150102218147E-05
2	599	126.036959681787	0.575408935546875	0.575408935546875	2.04467773437494E-08	1.1765258101093E-08	28141792	4.92166218464263E-05
2	600	126.137667681533	0.565338134765625	0.5653076171875	2.74658203125E-08	1.55266377532826E-08	20582222	4.92190374643542E-05
2	601	126.238375681279	0.555267333984375	0.555206298828125	3.47900390625003E-08	1.93156477479306E-08	15958773	4.92221697641071E-05
2	602	126.339083681024	0.545196533203125	0.545196533203125	4.08935546875003E-08	2.22950227168894E-08	13332090	4.92259823658969E-05
2	603	126.43979168077	0.535125732421875	0.535064697265625	4.63867187499994E-08	2.48198936958488E-08	11534869	4.92303770442959E-05
2	604	126.540499680516	0.525054931640625	0.52508544921875	5.09643554687494E-08	2.67606399262377E-08	10302995	4.9235277401749E-05
2	605	126.641207680262	0.514984130859375	0.514984130859375	5.4931640625E-08	2.82889232039452E-08	9375000	4.92406106786802E-05
2	606	126.741915680007	0.504913330078125	0.5048828125	5.88989257812506E-08	2.97370537083452E-08	8572021	4.92463441332802E-05
2	607	126.842623679753	0.494842529296875	0.4947509765625	6.16455078124994E-08	3.0499176517651E-08	8025742.5	4.92524122819304E-05
2	608	126.943331679499	0.484771728515625	0.4847412109375	6.46972656249994E-08	3.13614272329232E-08	7492453.5	4.92587751068641E-05
2	609	127.044039679245	0.474700927734375	0.47467041015625	6.7138671875E-08	3.18687405354012E-08	7070000	4.9265414418187E-05
2	610	127.14474767899	0.464630126953125	0.464691162109375	6.95800781250006E-08	3.23332471907634E-08	6678509	4.927229747409E-05
2	611	127.245455678736	0.454559326171875	0.454498291015625	7.14111328125003E-08	3.24562350328961E-08	6364530	4.92793951707426E-05
2	612	127.346163678482	0.444488525390625	0.44451904296875	7.29370117187503E-08	3.24218909497631E-08	6094560.5	4.92866638523992E-05
2	613	127.446871678228	0.434417724609375	0.434417724609375	7.44628906250003E-08	3.23479980579577E-08	5834016.5	4.92940889671445E-05
2	614	127.547579677973	0.424346923828125	0.424346923828125	7.56835937500006E-08	3.21161017780014E-08	5606855	4.93016486871056E-05
2	615	127.648287677719	0.414276123046875	0.41424560546875	7.59887695312503E-08	3.14780130850068E-08	5451406	4.93092848046217E-05
2	616	127.748995677465	0.404205322265625	0.404205322265625	7.72094726562506E-08	3.12084793563372E-08	5235178	4.93170009576716E-05
2	617	127.849703677211	0.394134521484375	0.394073486328125	7.781982421875E-08	3.06667260474569E-08	5063922	4.93248044222128E-05
2	618	127.950411676956	0.384063720703125	0.38409423828125	7.81249999999997E-08	3.00073601522399E-08	4916406.5	4.93326588184573E-05
2	619	128.051119676702	0.373992919921875	0.373992919921875	7.9345703125E-08	2.96747320049917E-08	4713461.5	4.93405859742779E-05
2	620	128.151827676448	0.363922119140625	0.363922119140625	8.02612304687506E-08	2.92088362385812E-08	4534220.5	4.93486259074416E-05
2	621	128.252535676193	0.353851318359375	0.35382080078125	8.087158203125E-08	2.86140462435469E-08	4375094.5	4.93567386001814E-05
2	622	128.353243675939	0.343780517578125	0.343719482421875	8.17871093750006E-08	2.81118222034138E-08	4202612	4.93649276904762E-05
2	623	128.453951675685	0.333709716796875	0.333740234375	8.27026367187497E-08	2.76011959954303E-08	4035424.5	4.93732113682199E-05
2	624	128.554659675431	0.323638916015625	0.32366943359375	8.23974609375E-08	2.66695376893722E-08	3928148.5	4.93815241497941E-05
2	625	128.655367675176	0.313568115234375	0.3135986328125	8.23974609375E-08	2.58397303554148E-08	3805926.25	4.93898223794531E-05
2	626	128.756075674922	0.303497314453125	0.303466796875	8.20922851562503E-08	2.4912282015066E-08	3696654.25	4.93981060571969E-05
2	627	128.856783674668	0.293426513671875	0.293426513671875	8.14819335937494E-08	2.39089583686791E-08	3601123.75	4.94063424412161E-05
2	628	128.957491674414	0.283355712890625	0.2833251953125	8.05664062500003E-08	2.28264909196696E-08	3516666.75	4.94145024276804E-05
2	629	129.058199674159	0.273284912109375	0.273284912109375	7.96508789062497E-08	2.17673825630982E-08	3431034.75	4.94225678266957E-05
2	630	129.158907673905	0.263214111328125	0.263214111328125	7.781982421875E-08	2.04832755201778E-08	3382353.25	4.94304986204952E-05
2	631	129.259615673651	0.253143310546875	0.253143310546875	7.59887695312503E-08	1.92360474216002E-08	3331325.5	4.94382438773755E-05
2	632	129.360323673397	0.243072509765625	0.24310302734375	7.44628906250003E-08	1.81021544420901E-08	3264754.25	4.94458181492519E-05
2	633	129.461031673142	0.233001708984375	0.232940673828125	7.14111328125003E-08	1.6634556843087E-08	3261966	4.94531632284634E-05
2	634	129.561739672888	0.222930908203125	0.22296142578125	6.92749023437495E-08	1.54456305523354E-08	3218502	4.94602500111796E-05
2	635	129.662447672634	0.212860107421875	0.212921142578125	6.561279296875E-08	1.39703502100019E-08	3245116.5	4.94670421176124E-05
2	636	129.76315567238	0.202789306640625	0.202789306640625	6.13403320312497E-08	1.2439162588862E-08	3305970.25	4.94734340463765E-05
2	637	129.863863672125	0.192718505859375	0.19268798828125	5.58471679687506E-08	1.07610782507095E-08	3450273.25	4.94793348480016E-05
2	638	129.964571671871	0.182647705078125	0.182708740234375	4.97436523437506E-08	9.08860009474211E-09	3673006.25	4.94846499350388E-05
2	639	130.065279671617	0.172576904296875	0.172607421875	4.18090820312494E-08	7.21655757374151E-09	4128467.25	4.94892628921662E-05
2	640	130.165987671362	0.162506103515625	0.162567138671875	3.14331054687506E-08	5.10998976466226E-09	5171845	4.94929481646977E-05
2	641	130.266695671108	0.152435302734375	0.152435302734375	1.73950195312494E-08	2.651614927629E-09	8763158	4.94954074383713E-05
2	642	130.367403670854	0.142364501953125	0.14239501953125	-3.0517578125E-09	-4.34555114114943E-10	-46660000	4.94961313961539E-05
2	643	130.4681116706	0.132293701171875	0.132293701171875	-2.899169921875E-08	-3.83541909343421E-09	-4563158	4.94945161335636E-05
2	644	130.568819670345	0.122222900390625	0.1221923828125	-6.50024414062506E-08	-7.9428028598727E-09	-1879812.25	4.94897831231356E-05
2	645	130.669527670091	0.112152099609375	0.112213134765625	-1.15051269531249E-07	-1.2910263080812E-08	-975331.625	4.94807172799483E-05
2	646	130.770235669837	0.102081298828125	0.10205078125	-1.83715820312499E-07	-1.87483415459155E-08	-555481.75	4.9465674237581E-05
2	647	130.870943669583	0.092010498046875	0.092041015625	-2.7740478515625E-07	-2.55326177978077E-08	-331793.1875	4.94424530188553E-05
2	648	130.971651669328	0.081939697265625	0.08197021484375	-4.01916503906249E-07	-3.29451808056547E-08	-203948.375	4.9408248742111E-05
2	649	131.072359669074	0.071868896484375	0.0718994140625	-5.62133789062499E-07	-4.04170883427923E-08	-127904.453125	4.93597035529092E-05
2	650	131.17306766882	0.061798095703125	0.061798095703125	-7.598876953125E-07	-4.69596095342695E-08	-81325.3046875	4.9293135816697E-05
2	651	131.273775668566	0.051727294921875	0.05181884765625	-9.89379882812499E-07	-5.12685218723163E-08	-52375.078125	4.92050530738197E-05
2	652	131.374483668311	0.041656494140625	0.0417572021484375	-1.2347412109375E-06	-5.15593363559219E-08	-33818.58984375	4.90930578962434E-05
2	653	131.475191668057	0.031585693359375	0.0316741943359375	-1.478271484375E-06	-4.68230574313111E-08	-21426.5078125	4.89564481540583E-05
2	654	131.575899667803	0.021514892578125	0.021624755859375	-1.68975830078125E-06	-3.65406087610154E-08	-12797.5439453125	4.87969264213461E-05
2	655	131.676607667549	0.011444091796875	0.0115081787109375	-1.8505859375E-06	-2.12968735979757E-08	-6218.66748046875	4.86186545458622E-05
2	656	131.777315667294	0.001373291015625	0.00147705078125	-1.949462890625E-06	-2.87945556287639E-09	-757.670715332031	4.84273077745456E-05
2	657	131.87802366704	-0.008697509765625	-0.00858459472656251	-1.9866943359375E-06	1.7054965439911E-08	4321.04443359375	4.82291070511565E-05
2	658	131.978731666786	-0.018768310546875	-0.0186676025390625	-1.97540283203125E-06	3.68760346702857E-08	9450.0244140625	4.80295966553967E-05
2	659	132.079439666531	-0.028839111328125	-0.02872314453125	-1.92962646484375E-06	5.54249410811281E-08	14885.3388671875	4.78329639008734E-05
2	660	132.180147666277	-0.038909912109375	-0.038818359375	-1.86279296875E-06	7.23105628708254E-08	20838.794921875	4.76419991173316E-05
2	661	132.280855666023	-0.048980712890625	-0.0488372802734375	-1.7889404296875E-06	8.7366984757864E-08	27299.55859375	4.74581211165059E-05
2	662	132.381563665769	-0.059051513671875	-0.0589599609375	-1.71417236328125E-06	1.0106753478567E-07	34395.5859375	4.72817264380865E-05
2	663	132.482271665514	-0.069122314453125	-0.069091796875	-1.64215087890625E-06	1.13459158512796E-07	42073.96484375	4.71127204946242E-05
2	664	132.58297966526	-0.079193115234375	-0.079193115234375	-1.5765380859375E-06	1.24850956240152E-07	50232.2890625	4.69506485387683E-05
2	665	132.683687665006	-0.089263916015625	-0.08917236328125	-1.5179443359375E-06	1.35358675379393E-07	58745.48046875	4.67948266305029E-05
2	666	132.784395664752	-0.099334716796875	-0.099212646484375	-1.46575927734375E-06	1.45421850561434E-07	67686.859375	4.66445853817277E-05
2	667	132.885103664497	-0.109405517578125	-0.109283447265625	-1.419677734375E-06	1.55147276359457E-07	76977.6484375	4.649929178413E-05
2	668	132.985811664243	-0.119476318359375	-0.119384765625	-1.3800048828125E-06	1.64751554621034E-07	86510.3984375	4.63583164673764E-05
2	669	133.086519663989	-0.129547119140625	-0.129486083984375	-1.3458251953125E-06	1.74265622376879E-07	96213.15625	4.62210628029425E-05
2	670	133.187227663735	-0.139617919921875	-0.13958740234375	-1.31622314453125E-06	1.83728161573526E-07	106051.4765625	4.60870178358164E-05
2	671	133.28793566348	-0.149688720703125	-0.1495361328125	-1.2908935546875E-06	1.9303523401959E-07	115839.2421875	4.59557377325837E-05
2	672	133.388643663226	-0.159759521484375	-0.159637451171875	-1.26922607421875E-06	2.02616007527467E-07	125775.4375	4.58268259535544E-05
2	673	133.489351662972	-0.169830322265625	-0.169708251953125	-1.251220703125E-06	2.12342470717886E-07	135634.15625	4.56999114248902E-05
2	674	133.590059662718	-0.179901123046875	-0.17974853515625	-1.23626708984375E-06	2.22217195755547E-07	145396.203125	4.5574655814562E-05
2	675	133.690767662463	-0.189971923828125	-0.189788818359375	-1.22406005859375E-06	2.32312913794885E-07	155048.625	4.54507680842653E-05
2	676	133.791475662209	-0.200042724609375	-0.19989013671875	-1.214599609375E-06	2.42786484250246E-07	164572.859375	4.53279717476107E-05
2	677	133.892183661955	-0.189971923828125	-0.189788818359375	-1.07421875E-06	2.03874705562157E-07	176676.140625	4.52127205790021E-05
