Potential,Current,Normalized_Potential,Normalized_Current
-0.204925537109375,8.258056640625e-07,-0.196380615234375,0.12744913338357197
-0.19989013671875,1.063232421875e-06,-0.19134521484375,0.1640919366993218
-0.194854736328125,1.07330322265625e-06,-0.186309814453125,0.16564619442351167
-0.1898193359375,1.07696533203125e-06,-0.1812744140625,0.16621137905048983
-0.184783935546875,1.08306884765625e-06,-0.176239013671875,0.16715335342878673
-0.17974853515625,1.08917236328125e-06,-0.17120361328125,0.16809532780708364
-0.174713134765625,1.09771728515625e-06,-0.166168212890625,0.16941409193669932
-0.169677734375,1.10809326171875e-06,-0.1611328125,0.17101544837980406
-0.164642333984375,1.1224365234375e-06,-0.156097412109375,0.1732290881688018
-0.15960693359375,1.1395263671875e-06,-0.15106201171875,0.17586661642803314
-0.154571533203125,1.16180419921875e-06,-0.146026611328125,0.17930482290881686
-0.1495361328125,1.18743896484375e-06,-0.1409912109375,0.1832611152976639
-0.144500732421875,1.219482421875e-06,-0.135955810546875,0.18820648078372268
-0.13946533203125,1.2579345703125e-06,-0.13092041015625,0.1941409193669932
-0.134429931640625,1.304931640625e-06,-0.125885009765625,0.20139412207987942
-0.12939453125,1.36016845703125e-06,-0.120849609375,0.20991899020346644
-0.124359130859375,1.4276123046875e-06,-0.115814208984375,0.22032780708364733
-0.11932373046875,1.507568359375e-06,-0.11077880859375,0.23266767143933684
-0.114288330078125,1.6021728515625e-06,-0.105743408203125,0.24726827430293893
-0.1092529296875,1.7132568359375e-06,-0.1007080078125,0.26441220798794274
-0.104217529296875,1.8438720703125e-06,-0.095672607421875,0.2845704596834966
-0.09918212890625,1.9927978515625e-06,-0.09063720703125,0.3075546345139412
-0.094146728515625,2.17010498046875e-06,-0.085601806640625,0.3349189902034665
-0.089111328125,2.37060546875e-06,-0.08056640625,0.3658628485305199
-0.084075927734375,2.59796142578125e-06,-0.075531005859375,0.40095139412207986
-0.07904052734375,2.85186767578125e-06,-0.07049560546875,0.44013752825923136
-0.074005126953125,3.13079833984375e-06,-0.065460205078125,0.48318575734740016
-0.0689697265625,3.4344482421875e-06,-0.0604248046875,0.5300489826676714
-0.063934326171875,3.759765625e-06,-0.055389404296875,0.5802562170308968
-0.05889892578125,4.1009521484375e-06,-0.05035400390625,0.632912584777694
-0.053863525390625,4.45281982421875e-06,-0.045318603515625,0.687217407686511
-0.048828125,4.80438232421875e-06,-0.040283203125,0.7414751318764129
-0.043792724609375,5.1544189453125e-06,-0.035247802734375,0.7954973624717407
-0.03875732421875,5.48248291015625e-06,-0.03021240234375,0.8461284853051997
-0.033721923828125,5.78033447265625e-06,-0.025177001953125,0.8920968349660888
-0.0286865234375,6.03851318359375e-06,-0.0201416015625,0.9319423511680481
-0.023651123046875,6.24725341796875e-06,-0.015106201171875,0.9641578749058025
-0.01861572265625,6.39251708984375e-06,-0.01007080078125,0.9865768651092689
-0.013580322265625,6.47186279296875e-06,-0.005035400390625,0.9988225320271289
-0.008544921875,6.4794921875e-06,0.0,1.0
-0.003509521484375,6.41571044921875e-06,0.005035400390625,0.9901563677467973
0.00152587890625,6.2835693359375e-06,0.01007080078125,0.9697626224566691
0.006561279296875,6.0711669921875e-06,0.015106201171875,0.9369819140919367
0.0115966796875,5.80780029296875e-06,0.0201416015625,0.8963357196684251
0.016632080078125,5.49713134765625e-06,0.025177001953125,0.8483892238131123
0.02166748046875,5.152587890625e-06,0.03021240234375,0.7952147701582516
0.026702880859375,4.7821044921875e-06,0.035247802734375,0.7380369253956293
0.03173828125,4.40765380859375e-06,0.040283203125,0.6802467972871138
0.036773681640625,4.03106689453125e-06,0.045318603515625,0.6221269781461944
0.04180908203125,3.663330078125e-06,0.05035400390625,0.5653730218538056
0.046844482421875,3.3160400390625e-06,0.055389404296875,0.5117746797287114
0.0518798828125,2.99560546875e-06,0.0604248046875,0.46232102486812354
0.056915283203125,2.698974609375e-06,0.065460205078125,0.41654107008289376
0.06195068359375,2.43194580078125e-06,0.07049560546875,0.3753296910324039
0.066986083984375,2.196044921875e-06,0.075531005859375,0.3389223813112283
0.072021484375,1.98883056640625e-06,0.08056640625,0.30694235116804824
0.077056884765625,1.80816650390625e-06,0.085601806640625,0.2790599095704597
0.08209228515625,1.65130615234375e-06,0.09063720703125,0.25485116804822905
0.087127685546875,1.5167236328125e-06,0.095672607421875,0.23408063300678222
0.0921630859375,1.40350341796875e-06,0.1007080078125,0.21660700828937454
0.097198486328125,1.30584716796875e-06,0.105743408203125,0.20153541823662396
0.10223388671875,1.22314453125e-06,0.11077880859375,0.1887716654107008
0.107269287109375,1.15264892578125e-06,0.115814208984375,0.1778918613413715
0.1123046875,1.09344482421875e-06,0.120849609375,0.16875470987189148
0.117340087890625,1.04278564453125e-06,0.125885009765625,0.1609363225320271
0.12237548828125,9.99145507812499e-07,0.13092041015625,0.15420120572720408
0.127410888671875,9.63134765625e-07,0.135955810546875,0.14864355689525244
0.1324462890625,9.31091308593751e-07,0.1409912109375,0.14369819140919382
0.137481689453125,9.0362548828125e-07,0.146026611328125,0.13945930670685758
0.14251708984375,8.7890625e-07,0.15106201171875,0.1356443104747551
0.147552490234375,8.58764648437499e-07,0.156097412109375,0.13253579502637514
0.152587890625,8.41674804687499e-07,0.1611328125,0.12989826676714378
0.157623291015625,8.25805664062501e-07,0.166168212890625,0.1274491333835721
0.16265869140625,8.11157226562501e-07,0.17120361328125,0.12518839487565953
0.167694091796875,7.9864501953125e-07,0.176239013671875,0.12325734740015071
0.1727294921875,7.87048339843749e-07,0.1812744140625,0.12146759608138642
0.177764892578125,7.7667236328125e-07,0.186309814453125,0.11986623963828183
0.18280029296875,7.672119140625e-07,0.19134521484375,0.11840617935192162
0.187835693359375,7.586669921875e-07,0.196380615234375,0.11708741522230595
0.19287109375,7.5042724609375e-07,0.201416015625,0.11581574981160513
0.197906494140625,7.427978515625e-07,0.206451416015625,0.11463828183873398
0.20294189453125,7.36083984374999e-07,0.21148681640625,0.11360211002260723
0.207977294921875,7.293701171875e-07,0.216522216796875,0.11256593820648078
0.2130126953125,7.232666015625e-07,0.2215576171875,0.11162396382818386
0.218048095703125,7.171630859375e-07,0.226593017578125,0.11068198944988696
0.22308349609375,7.11975097656251e-07,0.23162841796875,0.10988131122833474
0.228118896484375,7.0709228515625e-07,0.236663818359375,0.10912773172569705
0.233154296875,7.02819824218749e-07,0.24169921875,0.10846834966088907
0.238189697265625,6.988525390625e-07,0.246734619140625,0.10785606631499622
0.24322509765625,6.9427490234375e-07,0.25177001953125,0.10714958553127354
0.248260498046875,6.9122314453125e-07,0.256805419921875,0.10667859834212509
0.2532958984375,6.878662109375e-07,0.2618408203125,0.1061605124340618
0.258331298828125,6.8511962890625e-07,0.266876220703125,0.10573662396382819
0.26336669921875,6.82983398437501e-07,0.27191162109375,0.1054069329314244
0.268402099609375,6.8023681640625e-07,0.276947021484375,0.10498304446119065
0.2734375,6.793212890625e-07,0.281982421875,0.1048417483044461
0.278472900390625,6.7718505859375e-07,0.287017822265625,0.1045120572720422
0.28350830078125,6.76574707031251e-07,0.29205322265625,0.10441785983421266
0.288543701171875,6.75354003906249e-07,0.297088623046875,0.10422946495855297
0.2935791015625,6.75354003906251e-07,0.3021240234375,0.10422946495855327
0.298614501953125,6.7596435546875e-07,0.307159423828125,0.10432366239638281
0.30364990234375,6.76574707031249e-07,0.31219482421875,0.10441785983421235
0.308685302734375,6.7718505859375e-07,0.317230224609375,0.1045120572720422
0.313720703125,6.7779541015625e-07,0.322265625,0.1046062547098719
0.318756103515625,6.793212890625e-07,0.327301025390625,0.1048417483044461
0.32379150390625,6.8084716796875e-07,0.33233642578125,0.10507724189902035
0.328826904296875,6.8359375e-07,0.337371826171875,0.10550113036925395
0.3338623046875,6.8572998046875e-07,0.3424072265625,0.10583082140165788
0.338897705078125,6.884765625e-07,0.347442626953125,0.10625470987189148
0.34393310546875,6.915283203125e-07,0.35247802734375,0.10672569706103993
0.348968505859375,6.9427490234375e-07,0.357513427734375,0.10714958553127354
0.35400390625,6.96716308593751e-07,0.362548828125,0.10752637528259247
0.359039306640625,6.99768066406249e-07,0.367584228515625,0.10799736247174062
0.36407470703125,7.025146484375e-07,0.37261962890625,0.10842125094197437
0.369110107421875,7.0556640625e-07,0.377655029296875,0.10889223813112284
0.3741455078125,7.06787109375e-07,0.3826904296875,0.10908063300678221
0.379180908203125,7.08923339843751e-07,0.387725830078125,0.10941032403918628
0.38421630859375,7.11975097656249e-07,0.39276123046875,0.10988131122833444
0.389251708984375,7.13500976562501e-07,0.397796630859375,0.11011680482290896
0.394287109375,7.15026855468749e-07,0.40283203125,0.1103522984174829
0.399322509765625,7.16247558593751e-07,0.407867431640625,0.11054069329314258
0.40435791015625,7.18383789062499e-07,0.41290283203125,0.11087038432554619
0.409393310546875,7.19909667968749e-07,0.417938232421875,0.11110587792012042
0.4144287109375,7.21435546874999e-07,0.4229736328125,0.11134137151469464
0.419464111328125,7.23876953125e-07,0.428009033203125,0.11171816126601357
0.42449951171875,7.2662353515625e-07,0.43304443359375,0.11214204973624718
0.429534912109375,7.29064941406249e-07,0.438079833984375,0.11251883948756577
0.4345703125,7.32421875e-07,0.443115234375,0.11303692539562923
0.439605712890625,7.35778808593751e-07,0.448150634765625,0.1135550113036927
0.44464111328125,7.39135742187499e-07,0.45318603515625,0.11407309721175568
0.449676513671875,7.42797851562499e-07,0.458221435546875,0.11463828183873383
0.4547119140625,7.46459960937501e-07,0.4632568359375,0.11520346646571229
0.459747314453125,7.51342773437501e-07,0.468292236328125,0.11595704596834981
0.46478271484375,7.55615234375001e-07,0.47332763671875,0.11661642803315764
0.469818115234375,7.6019287109375e-07,0.478363037109375,0.11732290881688018
0.474853515625,7.63854980468751e-07,0.4833984375,0.11788809344385846
0.479888916015625,7.6904296875e-07,0.488433837890625,0.1186887716654107
0.48492431640625,7.7392578125e-07,0.49346923828125,0.11944235116804823
0.489959716796875,7.781982421875e-07,0.498504638671875,0.12010173323285606
0.4949951171875,7.8399658203125e-07,0.5035400390625,0.12099660889223814
0.500030517578125,7.8887939453125e-07,0.508575439453125,0.12175018839487566
0.50506591796875,7.94372558593751e-07,0.51361083984375,0.12259796533534302
0.510101318359375,7.9986572265625e-07,0.518646240234375,0.1234457422758101
0.51513671875,8.06274414062501e-07,0.523681640625,0.124434815373022
0.520172119140625,8.1207275390625e-07,0.528717041015625,0.12532969103240393
0.52520751953125,8.1939697265625e-07,0.53375244140625,0.1264600602863602
0.530242919921875,8.270263671875e-07,0.538787841796875,0.12763752825923133
0.5352783203125,8.3465576171875e-07,0.5438232421875,0.1288149962321025
0.540313720703125,8.43200683593751e-07,0.548858642578125,0.1301337603617183
0.54534912109375,8.5174560546875e-07,0.55389404296875,0.13145252449133382
0.550384521484375,8.624267578125e-07,0.558929443359375,0.13310097965335344
0.555419921875,8.72802734375e-07,0.56396484375,0.13470233609645818
0.560455322265625,8.85314941406251e-07,0.569000244140625,0.136633383571967
0.56549072265625,8.97827148437501e-07,0.57403564453125,0.13856443104747565
0.570526123046875,9.124755859375e-07,0.579071044921875,0.1408251695553881
0.5755615234375,9.2926025390625e-07,0.5841064453125,0.1434155990957046
0.580596923828125,9.47265625e-07,0.589141845703125,0.1461944235116805
0.58563232421875,9.6588134765625e-07,0.59417724609375,0.14906744536548605
0.590667724609375,9.86328125e-07,0.599212646484375,0.1522230595327807
0.595703125,1.00860595703125e-06,0.604248046875,0.15566126601356445
0.600738525390625,1.031494140625e-06,0.609283447265625,0.15919366993217782
0.60577392578125,1.05560302734375e-06,0.61431884765625,0.16291446872645066
0.610809326171875,1.0791015625e-06,0.619354248046875,0.16654107008289376
0.6158447265625,1.10321044921875e-06,0.6243896484375,0.17026186887716654
0.620880126953125,1.1260986328125e-06,0.629425048828125,0.17379427279577997
0.62591552734375,1.1456298828125e-06,0.63446044921875,0.17680859080633005
0.630950927734375,1.163330078125e-06,0.639495849609375,0.1795403165033911
0.635986328125,1.1767578125e-06,0.64453125,0.18161266013564428
0.641021728515625,1.18621826171875e-06,0.649566650390625,0.1830727204220045
0.64605712890625,1.18927001953125e-06,0.65460205078125,0.18354370761115296
0.651092529296875,1.187744140625e-06,0.659637451171875,0.18330821401657876
0.6561279296875,1.18133544921875e-06,0.6646728515625,0.182319140919367
0.661163330078125,1.16912841796875e-06,0.669708251953125,0.18043519216277315
0.66619873046875,1.15264892578125e-06,0.67474365234375,0.1778918613413715
0.671234130859375,1.1328125e-06,0.679779052734375,0.17483044461190655
0.67626953125,1.11083984375e-06,0.684814453125,0.17143933685003768
0.681304931640625,1.08673095703125e-06,0.689849853515625,0.1677185380557649
0.68634033203125,1.0626220703125e-06,0.69488525390625,0.16399773926149205
0.691375732421875,1.03759765625e-06,0.699920654296875,0.16013564431047475
0.6964111328125,1.01409912109375e-06,0.7049560546875,0.15650904295403165
0.701446533203125,9.9029541015625e-07,0.709991455078125,0.1528353428786737
0.70648193359375,9.6954345703125e-07,0.71502685546875,0.14963262999246418
0.711517333984375,9.503173828125e-07,0.720062255859375,0.14666541070082895
0.716552734375,9.32922363281251e-07,0.72509765625,0.1439807837226829
0.721588134765625,9.1583251953125e-07,0.730133056640625,0.1413432554634514
0.72662353515625,9.02404785156251e-07,0.73516845703125,0.13927091183119836
0.731658935546875,8.89892578125e-07,0.740203857421875,0.1373398643556895
0.7366943359375,8.7860107421875e-07,0.7452392578125,0.13559721175584025
0.741729736328125,8.69445800781249e-07,0.750274658203125,0.13418425018839472
0.74676513671875,8.6029052734375e-07,0.75531005859375,0.1327712886209495
0.751800537109375,8.526611328125e-07,0.760345458984375,0.13159382064807837
0.7568359375,8.4686279296875e-07,0.765380859375,0.1306989449886963
0.761871337890625,8.41369628906251e-07,0.770416259765625,0.12985116804822924
0.76690673828125,8.36791992187499e-07,0.77545166015625,0.12914468726450626
0.771942138671875,8.3282470703125e-07,0.780487060546875,0.1285324039186134
0.7769775390625,8.30078125e-07,0.7855224609375,0.12810851544837978
0.782012939453125,8.26416015625001e-07,0.790557861328125,0.1275433308214018
0.78704833984375,8.24584960937499e-07,0.79559326171875,0.12726073850791242
0.792083740234375,8.2122802734375e-07,0.800628662109375,0.12674265259984926
0.797119140625,8.2000732421875e-07,0.8056640625,0.1265542577241899
0.802154541015625,8.1787109375e-07,0.810699462890625,0.12622456669178597
0.80718994140625,8.160400390625e-07,0.81573486328125,0.1259419743782969
0.812225341796875,8.15734863281251e-07,0.820770263671875,0.1258948756593822
0.8172607421875,8.14208984375001e-07,0.8258056640625,0.12565938206480798
0.822296142578125,8.1298828125e-07,0.830841064453125,0.12547098718914845
0.82733154296875,8.1298828125e-07,0.83587646484375,0.12547098718914845
0.832366943359375,8.12683105468751e-07,0.840911865234375,0.12542388847023375
0.83740234375,8.11767578125e-07,0.845947265625,0.12528259231348907
0.842437744140625,8.11767578125e-07,0.850982666015625,0.12528259231348907
0.84747314453125,8.1146240234375e-07,0.85601806640625,0.12523549359457423
0.852508544921875,8.12377929687501e-07,0.861053466796875,0.1253767897513189
0.8575439453125,8.123779296875e-07,0.8660888671875,0.12537678975131877
0.862579345703125,8.123779296875e-07,0.871124267578125,0.12537678975131877
0.86761474609375,8.13598632812501e-07,0.87615966796875,0.1255651846269783
0.872650146484375,8.1329345703125e-07,0.881195068359375,0.1255180859080633
0.877685546875,8.148193359375e-07,0.88623046875,0.12575357950263752
0.882720947265625,8.160400390625e-07,0.891265869140625,0.1259419743782969
0.88775634765625,8.1756591796875e-07,0.89630126953125,0.12617746797287113
0.892791748046875,8.197021484375e-07,0.901336669921875,0.12650715900527504
0.8978271484375,8.221435546875e-07,0.9063720703125,0.1268839487565938
0.902862548828125,8.2366943359375e-07,0.911407470703125,0.12711944235116804
0.90789794921875,8.2550048828125e-07,0.91644287109375,0.12740203466465713
0.912933349609375,8.28857421875e-07,0.921478271484375,0.12792012057272042
0.91796875,8.30078125e-07,0.926513671875,0.12810851544837978
0.923004150390625,8.32519531250001e-07,0.931549072265625,0.12848530519969872
0.92803955078125,8.36181640625e-07,0.93658447265625,0.12905048982667672
0.933074951171875,8.38623046875001e-07,0.941619873046875,0.12942727957799563
0.9381103515625,8.404541015625e-07,0.9466552734375,0.12970987189148453
0.943145751953125,8.42590332031251e-07,0.951690673828125,0.13003956292388863
0.94818115234375,8.44421386718751e-07,0.95672607421875,0.1303221552373777
0.953216552734375,8.45947265625e-07,0.961761474609375,0.13055764883195178
0.958251953125,8.46252441406251e-07,0.966796875,0.13060474755086676
0.963287353515625,8.465576171875e-07,0.971832275390625,0.13065184626978146
0.96832275390625,8.45947265625001e-07,0.97686767578125,0.13055764883195192
0.973358154296875,8.4564208984375e-07,0.981903076171875,0.13051055011303692
0.9783935546875,8.43200683593751e-07,0.9869384765625,0.1301337603617183
0.983428955078125,8.404541015625e-07,0.991973876953125,0.12970987189148453
0.98846435546875,8.36791992187499e-07,0.99700927734375,0.12914468726450626
0.993499755859375,8.32519531249999e-07,1.002044677734375,0.12848530519969842
0.99853515625,8.27636718750001e-07,1.007080078125,0.12773172569706118
1.00357055664063,8.2275390625e-07,1.01211547851563,0.12697814619442352
1.00860595703125,8.16955566406251e-07,1.01715087890625,0.1260832705350416
1.01364135742188,8.1146240234375e-07,1.02218627929688,0.12523549359457423
1.0186767578125,8.0535888671875e-07,1.0272216796875,0.1242935192162773
1.02371215820313,7.9925537109375e-07,1.03225708007813,0.12335154483798041
1.02874755859375,7.9315185546875e-07,1.03729248046875,0.12240957045968348
1.03378295898438,7.87353515625e-07,1.04232788085938,0.12151469480030143
1.038818359375,7.82165527343751e-07,1.04736328125,0.1207140165787492
1.04385375976563,7.763671875e-07,1.05239868164063,0.11981914091936699
1.04888916015625,7.7239990234375e-07,1.05743408203125,0.11920685757347399
1.05392456054688,7.67822265625e-07,1.06246948242188,0.11850037678975131
1.0589599609375,7.63244628906251e-07,1.0675048828125,0.11779389600602878
1.06399536132813,7.58972167968749e-07,1.07254028320313,0.11713451394122065
1.06903076171875,7.55004882812499e-07,1.07757568359375,0.11652223059532765
1.07406616210938,7.51953125e-07,1.08261108398438,0.11605124340617934
1.0791015625,7.489013671875e-07,1.087646484375,0.11558025621703089
1.08413696289063,7.4615478515625e-07,1.09268188476563,0.11515636774679729
1.08917236328125,7.4432373046875e-07,1.09771728515625,0.1148737754333082
1.09420776367188,7.4188232421875e-07,1.10275268554688,0.11449698568198943
1.0992431640625,7.39440917968749e-07,1.1077880859375,0.11412019593067052
1.10427856445313,7.3760986328125e-07,1.11282348632813,0.1138376036171816
1.10931396484375,7.36083984374999e-07,1.11785888671875,0.11360211002260723
1.11434936523438,7.3455810546875e-07,1.12289428710938,0.11336661642803315
1.119384765625,7.32421875e-07,1.1279296875,0.11303692539562923
1.12442016601563,7.3211669921875e-07,1.13296508789063,0.1129898266767144
1.12945556640625,7.31201171875e-07,1.13800048828125,0.11284853051996985
1.13449096679688,7.29980468749999e-07,1.14303588867188,0.11266013564431031
1.1395263671875,7.29980468750001e-07,1.1480712890625,0.11266013564431061
1.14456176757813,7.2906494140625e-07,1.15310668945313,0.11251883948756594
1.14959716796875,7.29980468749999e-07,1.15814208984375,0.11266013564431031
1.15463256835938,7.28454589843749e-07,1.16317749023438,0.1124246420497361
