Potential - Start -0.2 V, Upper Vertex 1.5 V, Lower Vertex -0.2 V, Stop -0.19 V; Scan - # end cross 5, Rate 0.1 Vps, Step 0.01 V 
Scan	Index	Time (s)	Potential applied (V)	WE(1).Potential (V)	WE(1).Current (A)	WE(1).Power (W)	WE(1).Resistance (Ω)	WE(1).Charge (C)
1	1	52.9993378661895	-0.189971923828125	-0.189788818359375	-2.05383300781251E-07	3.89794543309563E-08	924071.3125	0
1	2	53.1000458659353	-0.179901123046875	-0.1796875	-1.7242431640625E-07	3.09824912392287E-08	1042123.9375	-1.90241244979461E-08
1	3	53.200753865681	-0.169830322265625	-0.16961669921875	-1.4678955078125E-07	2.48979574735131E-08	1155509.375	-3.50978197616314E-08
1	4	53.3014618654267	-0.159759521484375	-0.159637451171875	-1.2359619140625E-07	1.97305816129756E-08	1291604.875	-4.8712823996766E-08
1	5	53.4021698651725	-0.149688720703125	-0.1495361328125	-1.0223388671875E-07	1.52876591386075E-08	1462686.625	-6.00842682274561E-08
1	6	53.5028778649182	-0.139617919921875	-0.13946533203125	-8.20922851562503E-08	1.14490275038293E-08	1698884.75	-6.93658321893054E-08
1	7	53.603585864664	-0.129547119140625	-0.1295166015625	-6.16455078124994E-08	7.98411647906505E-09	2100990	-7.6603605236869E-08
1	8	53.7042938644097	-0.119476318359375	-0.119354248046875	-3.99780273437497E-08	4.77154715738948E-09	2985496.25	-8.17207563841293E-08
1	9	53.8050018641554	-0.109405517578125	-0.109344482421875	-1.46484375000006E-08	1.60172575203177E-09	7464583.5	-8.44714165282312E-08
1	10	53.9057098639012	-0.099334716796875	-0.09930419921875	1.55639648437497E-08	-1.54556700771025E-09	-6380392.5	-8.44253165155351E-08
1	11	54.0064178636469	-0.089263916015625	-0.089202880859375	5.21850585937497E-08	-4.6550576726645E-09	-1709356.75	-8.10138800488858E-08
1	12	54.1071258633926	-0.079193115234375	-0.079071044921875	9.97924804687495E-08	-7.89069609652415E-09	-792354.75	-7.33612068870571E-08
1	13	54.2078338631384	-0.069122314453125	-0.069061279296875	1.62353515624999E-07	-1.12123412776555E-08	-425375.9375	-6.01611063189011E-08
1	14	54.3085418628841	-0.059051513671875	-0.05902099609375	2.46276855468749E-07	-1.45355043557061E-08	-239653.046875	-3.95849326650932E-08
1	15	54.4092498626298	-0.048980712890625	-0.0488311767578125	3.56445312500001E-07	-1.74056431490044E-08	-136994.859375	-9.23546039643952E-09
1	16	54.5099578623756	-0.038909912109375	-0.03873291015625	4.98046875E-07	-1.92908036211747E-08	-77769.609375	3.3791636155911E-08
1	17	54.6106658621213	-0.028839111328125	-0.028729248046875	6.73828125000001E-07	-1.93585751873115E-08	-42635.875	9.28002279465545E-08
1	18	54.7113738618671	-0.018768310546875	-0.0186492919921875	8.819580078125E-07	-1.64478919373323E-08	-21145.328125	1.71140285942784E-07
1	19	54.8120818616128	-0.008697509765625	-0.0085723876953125	1.11053466796875E-06	-9.51993328612843E-09	-7719.15380859375	2.71470241841598E-07
1	20	54.9127898613585	0.001373291015625	0.0014923095703125	1.34246826171875E-06	2.00337813005547E-09	1111.61633300781	3.94988745711089E-07
1	21	55.0134978611043	0.011444091796875	0.011566162109375	1.55609130859375E-06	1.79980048642392E-08	7432.830078125	5.40942835414171E-07
1	22	55.11420586085	0.021514892578125	0.021630859375	1.72821044921875E-06	3.73826729571647E-08	12516.3349609375	7.06320577137376E-07
1	23	55.2149138605957	0.031585693359375	0.03167724609375	1.84661865234375E-06	5.84957930982455E-08	17154.189453125	8.8632748429518E-07
1	24	55.3156218603415	0.041656494140625	0.041748046875	1.90643310546875E-06	7.95898600358669E-08	21898.51171875	1.07530865989247E-06
1	25	55.4163298600872	0.051727294921875	0.05181884765625	1.9158935546875E-06	9.92793971477113E-08	27046.830078125	1.26777808873157E-06
1	26	55.517037859833	0.061798095703125	0.06182861328125	1.88690185546875E-06	1.16664523375221E-07	32767.265625	1.45926401273755E-06
1	27	55.6177458595787	0.071868896484375	0.071990966796875	1.834716796875E-06	1.32083030734975E-07	39238.19140625	1.64666244018008E-06
1	28	55.7184538593244	0.081939697265625	0.08203125	1.77032470703125E-06	1.45221946468155E-07	46336.83984375	1.82819064775686E-06
1	29	55.8191618590702	0.092010498046875	0.092071533203125	1.7022705078125E-06	1.56730649791825E-07	54087.48828125	2.00304975805921E-06
1	30	55.9198698588159	0.102081298828125	0.102142333984375	1.63543701171875E-06	1.67047346621985E-07	62455.68359375	2.17111664824188E-06
1	31	56.0205778585616	0.112152099609375	0.112213134765625	1.57196044921875E-06	1.76394607365182E-07	71384.1953125	2.33262198889861E-06
1	32	56.1212858583074	0.122222900390625	0.122314453125	1.5142822265625E-06	1.85218596016057E-07	80773.8828125	2.48802666646952E-06
1	33	56.2219938580531	0.132293701171875	0.132354736328125	1.4630126953125E-06	1.93636651601992E-07	90467.2578125	2.63794527199934E-06
1	34	56.3227018577988	0.142364501953125	0.14239501953125	1.41510009765625E-06	2.01503198127284E-07	100625.40625	2.78286984212173E-06
1	35	56.4234098575446	0.152435302734375	0.15252685546875	1.37359619140625E-06	2.09510304216565E-07	111041.9921875	2.92329173134931E-06
1	36	56.5241178572903	0.162506103515625	0.16253662109375	1.33636474609375E-06	2.17208196318097E-07	121625.9453125	3.05974913317186E-06
1	37	56.6248258570361	0.172576904296875	0.17266845703125	1.3031005859375E-06	2.2500437069084E-07	132505.859375	3.1926567771734E-06
1	38	56.7255338567818	0.182647705078125	0.182708740234375	1.273193359375E-06	2.32623548868105E-07	143504.3125	3.32238346345548E-06
1	39	56.8262418565275	0.192718505859375	0.19281005859375	1.246337890625E-06	2.40306491150477E-07	154701.28125	3.44925206263724E-06
1	40	56.9269498562733	0.202789306640625	0.20281982421875	1.22222900390625E-06	2.47892273819161E-07	165942.578125	3.57355429514428E-06
1	41	57.027657856019	0.212860107421875	0.212890625	1.20025634765625E-06	2.55523303849259E-07	177370.96875	3.69553595191974E-06
1	42	57.1283658557647	0.222930908203125	0.222930908203125	1.18011474609375E-06	2.63084046991935E-07	188906.125	3.81539712179801E-06
1	43	57.2290738555105	0.233001708984375	0.233001708984375	1.16241455078125E-06	2.70844566330197E-07	200446.328125	3.93335312764975E-06
1	44	57.3297818552562	0.243072509765625	0.243133544921875	1.146240234375E-06	2.78689441302049E-07	212113.96875	4.04960292144096E-06
1	45	57.430489855002	0.253143310546875	0.253173828125	1.13067626953125E-06	2.86257630932596E-07	223913.640625	4.16425473304116E-06
1	46	57.5311978547477	0.263214111328125	0.263214111328125	1.11663818359375E-06	2.93914922622207E-07	235720.15625	4.27741588282515E-06
1	47	57.6319058544934	0.273284912109375	0.2733154296875	1.1041259765625E-06	3.01774662148091E-07	247540.078125	4.38924053014489E-06
1	48	57.7326138542392	0.283355712890625	0.283355712890625	1.09283447265625E-06	3.09660862285455E-07	259285.140625	4.49986600870034E-06
1	49	57.8333218539849	0.293426513671875	0.293426513671875	1.08184814453125E-06	3.17442925279465E-07	271227.0625	4.6093700802885E-06
1	50	57.9340298537306	0.303497314453125	0.30352783203125	1.0723876953125E-06	3.25499513564864E-07	283039.28125	4.71784460387425E-06
1	51	58.0347378534764	0.313568115234375	0.313629150390625	1.06353759765625E-06	3.33556357645648E-07	294892.40625	4.82539689983241E-06
1	52	58.1354458532221	0.323638916015625	0.323638916015625	1.05621337890625E-06	3.41831736250242E-07	306414.34375	4.93213474328513E-06
1	53	58.2361538529678	0.333709716796875	0.333740234375	1.04949951171875E-06	3.50260194181828E-07	317999.4375	5.03816590935457E-06
1	54	58.3368618527136	0.343780517578125	0.343780517578125	1.0430908203125E-06	3.58594320459815E-07	329578.6875	5.14353632752318E-06
1	55	58.4375698524593	0.353851318359375	0.35382080078125	1.03759765625E-06	3.67123618616461E-07	341000.03125	5.24830738868332E-06
1	56	58.5382778522051	0.363922119140625	0.3638916015625	1.0333251953125E-06	3.76018334691253E-07	352155.96875	5.35258641320979E-06
1	57	58.6389858519508	0.373992919921875	0.37396240234375	1.029052734375E-06	3.84827018251599E-07	363404.53125	5.45643524674233E-06
1	58	58.7396938516965	0.384063720703125	0.384063720703125	1.02630615234375E-06	3.94166931982909E-07	374219.46875	5.55993074158323E-06
1	59	58.8404018514423	0.394134521484375	0.394134521484375	1.02386474609375E-06	4.03540411753056E-07	384947.875	5.66316521144472E-06
1	60	58.941109851188	0.404205322265625	0.40423583984375	1.02142333984375E-06	4.12895900581134E-07	395757.4375	5.76615366298938E-06
1	61	59.0418178509337	0.414276123046875	0.414337158203125	1.019287109375E-06	4.22328525928606E-07	406497.03125	5.86891155762714E-06
1	62	59.1425258506795	0.424346923828125	0.42437744140625	1.01837158203125E-06	4.32173919762135E-07	416721.625	5.97151574766031E-06
1	63	59.2432338504252	0.434417724609375	0.434478759765625	1.01715087890625E-06	4.41930467331986E-07	427152.71875	6.07401261731866E-06
1	64	59.3439418501709	0.444488525390625	0.444549560546875	1.01654052734375E-06	4.51902650411284E-07	437316.125	6.17641717326478E-06
1	65	59.4446498499167	0.454559326171875	0.45458984375	1.01654052734375E-06	4.6210899995458E-07	447193.03125	6.27879080639104E-06
1	66	59.5453578496624	0.464630126953125	0.464599609375	1.01654052734375E-06	4.72284341412887E-07	457039.9375	6.38116443951731E-06
1	67	59.6460658494082	0.474700927734375	0.474700927734375	1.0174560546875E-06	4.8298733190677E-07	466556.6875	6.48358445687336E-06
1	68	59.7467738491539	0.484771728515625	0.484832763671875	1.01959228515625E-06	4.94331686695659E-07	475516.34375	6.58615817883401E-06
1	69	59.8474818488996	0.494842529296875	0.4947509765625	1.0223388671875E-06	5.05803143369121E-07	483940.28125	6.68897746436414E-06
1	70	59.9481898486454	0.504913330078125	0.504974365234375	1.02569580078125E-06	5.17950070388906E-07	492323.75	6.79210415910347E-06
1	71	60.0488978483911	0.514984130859375	0.5150146484375	1.03057861328125E-06	5.30763088590902E-07	499733.5	6.89564558342681E-06
1	72	60.1496058481368	0.525054931640625	0.524993896484375	1.03729248046875E-06	5.44572230865015E-07	506119.46875	6.99977135809604E-06
1	73	60.2503138478826	0.535125732421875	0.535186767578125	1.046142578125E-06	5.59881641493121E-07	511581.125	7.10468066245085E-06
1	74	60.3510218476283	0.545196533203125	0.545196533203125	1.05712890625E-06	5.76342984004441E-07	515733.28125	7.2105885919882E-06
1	75	60.4517298473741	0.555267333984375	0.555206298828125	1.07269287109375E-06	5.95565836647438E-07	517581.8125	7.31783393348451E-06
1	76	60.5524378471198	0.565338134765625	0.56536865234375	1.0943603515625E-06	6.18717024281068E-07	516620.21875	7.42695374356117E-06
1	77	60.6531458468655	0.575408935546875	0.57537841796875	1.124267578125E-06	6.46879300347791E-07	511780.6875	7.5386701610114E-06
1	78	60.7538538466113	0.585479736328125	0.585418701171875	1.1663818359375E-06	6.82821735153993E-07	501910	7.65401364333229E-06
1	79	60.854561846357	0.595550537109375	0.59552001953125	1.2261962890625E-06	7.30224371636723E-07	485664.53125	7.77448985900264E-06
1	80	60.9552698461027	0.605621337890625	0.605560302734375	1.30889892578125E-06	7.92617186107236E-07	462648.65625	7.90214198786998E-06
1	81	61.0559778458485	0.615692138671875	0.61566162109375	1.4202880859375E-06	8.74416855367599E-07	433476.59375	8.03956754680257E-06
1	82	61.1566858455942	0.625762939453125	0.625762939453125	1.563720703125E-06	9.78518414740392E-07	400175.65625	8.18982425698778E-06
1	83	61.2573938453399	0.635833740234375	0.635772705078125	1.73797607421875E-06	1.10495773242292E-06	365812.125	8.35607806948246E-06
1	84	61.3581018450857	0.645904541015625	0.6458740234375	1.93634033203125E-06	1.25063195355324E-06	333553.96875	8.54109384818003E-06
1	85	61.4588098448314	0.655975341796875	0.65594482421875	2.14569091796875E-06	1.40745476073789E-06	305703.34375	8.74664056027541E-06
1	86	61.5595178445772	0.666046142578125	0.66595458984375	2.34832763671875E-06	1.56387955030368E-06	283586.75	8.97293284651823E-06
1	87	61.6602258443229	0.676116943359375	0.676055908203125	2.52471923828125E-06	1.70685120792768E-06	267774.71875	9.21830996958306E-06
1	88	61.7609338440686	0.686187744140625	0.686187744140625	2.66021728515625E-06	1.82540838977729E-06	257944.25	9.4793922471581E-06
1	89	61.8616418438144	0.696258544921875	0.6961669921875	2.74932861328125E-06	1.91399180948792E-06	253213.453125	9.75178409134969E-06
1	90	61.9623498435601	0.706329345703125	0.706298828125	2.79754638671875E-06	1.97590361494804E-06	252470.828125	1.00310917332536E-05
1	91	62.0630578433058	0.716400146484375	0.71636962890625	2.81646728515625E-06	2.01763168661273E-06	254350.421875	1.03137799669639E-05
1	92	62.1637658430516	0.726470947265625	0.726348876953125	2.823486328125E-06	2.05083620130608E-06	257252.484375	1.0597774235066E-05
1	93	62.2644738427973	0.736541748046875	0.73651123046875	2.83447265625E-06	2.08762094189296E-06	259840.671875	1.08826752693858E-05
1	94	62.3651818425431	0.746612548828125	0.746551513671875	2.8680419921875E-06	2.14114106711349E-06	260300.0625	1.11698191176401E-05
1	95	62.4658898422888	0.756683349609375	0.7568359375	2.9376220703125E-06	2.22329776988772E-06	257635.578125	1.1462157999631E-05
1	96	62.5665978420345	0.766754150390625	0.76690673828125	3.0609130859375E-06	2.34743492910638E-06	250548.359375	1.17642084660474E-05
1	97	62.6673058417803	0.776824951171875	0.77667236328125	3.25042724609375E-06	2.52451695814671E-06	238944.703125	1.20820095617091E-05
1	98	62.768013841526	0.786895751953125	0.78704833984375	3.5162353515625E-06	2.76744708571641E-06	223832.671875	1.24227381093078E-05
1	99	62.8687218412717	0.796966552734375	0.79681396484375	3.8604736328125E-06	3.0760791105422E-06	206403.171875	1.27941848404589E-05
1	100	62.9694298410175	0.807037353515625	0.8074951171875	4.27276611328125E-06	3.45023772752029E-06	188986.5	1.32037257571938E-05
1	101	63.0701378407632	0.817108154296875	0.816650390625	4.73358154296875E-06	3.86568126486964E-06	172522.71875	1.36572316478123E-05
1	102	63.1708458405089	0.827178955078125	0.82733154296875	5.218505859375E-06	4.31743410445051E-06	158538.015625	1.41583586810157E-05
1	103	63.2715538402547	0.837249755859375	0.83709716796875	5.67626953125E-06	4.75158867629943E-06	147473.125	1.4706954061694E-05
1	104	63.3722618400004	0.847320556640625	0.84747314453125	6.0791015625E-06	5.15187502969638E-06	139407.640625	1.52988850459224E-05
1	105	63.4729698397462	0.857391357421875	0.85723876953125	6.3873291015625E-06	5.47546596862958E-06	134209.265625	1.5926618289086E-05
1	106	63.5736778394919	0.867462158203125	0.86761474609375	6.5765380859375E-06	5.70590145798633E-06	131925.75	1.65794008353259E-05
1	107	63.6743858392376	0.877532958984375	0.877685546875	6.6375732421875E-06	5.82570191909326E-06	132229.890625	1.72447853401536E-05
1	108	63.7750938389834	0.887603759765625	0.8880615234375	6.591796875E-06	5.85392081120517E-06	134722.234375	1.79109356395202E-05
1	109	63.8758018387291	0.897674560546875	0.89813232421875	6.4697265625E-06	5.81067070015706E-06	138820.75	1.85686367331073E-05
1	110	63.9765098384748	0.907745361328125	0.90789794921875	6.3079833984375E-06	5.72700491829892E-06	143928.40625	1.92120442079613E-05
1	111	64.0772178382206	0.917816162109375	0.91827392578125	6.1309814453125E-06	5.62991999686346E-06	149776.015625	1.98383968381677E-05
1	112	64.1779258379663	0.927886962890625	0.9283447265625	5.9661865234375E-06	5.5386776693922E-06	155601.015625	2.04475381906377E-05
1	113	64.2786338377121	0.937957763671875	0.93780517578125	5.8258056640625E-06	5.46347064300789E-06	160974.328125	2.10413109016372E-05
1	114	64.3793418374578	0.948028564453125	0.948486328125	5.718994140625E-06	5.42438783668331E-06	165848.453125	2.16226380871376E-05
1	115	64.4800498372035	0.958099365234375	0.95855712890625	5.6488037109375E-06	5.41470080861473E-06	169692.0625	2.21950522245606E-05
1	116	64.5807578369493	0.968170166015625	0.968017578125	5.615234375E-06	5.43564556210185E-06	172391.296875	2.27622422244167E-05
1	117	64.681465836695	0.978240966796875	0.97869873046875	5.621337890625E-06	5.50159575141151E-06	174104.25	2.33280479733367E-05
1	118	64.7821738364407	0.988311767578125	0.9881591796875	5.6488037109375E-06	5.58191686650389E-06	174932.484375	2.38955453824019E-05
1	119	64.8828818361865	0.998382568359375	0.99884033203125	5.6884765625E-06	5.6818798839231E-06	175590.125	2.44664224737789E-05
1	120	64.9835898359322	1.00845336914063	1.00830078125	5.718994140625E-06	5.76646607441944E-06	176307.359375	2.50408338615671E-05
1	121	65.0842978356779	1.01852416992188	1.0186767578125	5.7281494140625E-06	5.83513246965595E-06	177836.984375	2.56172424997203E-05
1	122	65.1850058354237	1.02859497070313	1.0284423828125	5.706787109375E-06	5.86910164201981E-06	180213.90625	2.61930381384445E-05
1	123	65.2857138351694	1.03866577148438	1.03912353515625	5.6549072265625E-06	5.8761470427271E-06	183756.078125	2.67651448666584E-05
1	124	65.3864218349152	1.04873657226563	1.0491943359375	5.5816650390625E-06	5.85625139137846E-06	187971.578125	2.73309506155783E-05
1	125	65.4871298346609	1.05880737304688	1.05865478515625	5.4931640625E-06	5.81536414756556E-06	192722.234375	2.78886127489386E-05
1	126	65.5878378344066	1.06887817382813	1.06903076171875	5.3985595703125E-06	5.77122636968852E-06	198021.484375	2.84370544250123E-05
1	127	65.6885458341524	1.07894897460938	1.07879638671875	5.303955078125E-06	5.72188719161204E-06	203394.71875	2.89759700535797E-05
1	128	65.7892538338981	1.08901977539063	1.08917236328125	5.2093505859375E-06	5.67388042327366E-06	209080.265625	2.95053559966618E-05
1	129	65.8899618336438	1.09909057617188	1.09893798828125	5.120849609375E-06	5.62749619348324E-06	214600.71875	3.00255233014468E-05
1	130	65.9906698333896	1.10916137695313	1.10931396484375	5.04150390625E-06	5.59261070520733E-06	220036.328125	3.05372377624735E-05
1	131	66.0913778331353	1.11923217773438	1.1199951171875	4.96307373046875E-06	5.55861788598122E-06	225665.625	3.10410105157644E-05
1	132	66.192085832881	1.12930297851563	1.12945556640625	4.89532470703125E-06	5.52905157746864E-06	230721.28125	3.15374199999496E-05
1	133	66.2927938326268	1.13937377929688	1.138916015625	4.83306884765625E-06	5.5044597502274E-06	235650.6875	3.20272811222821E-05
1	134	66.3935018323725	1.14944458007813	1.1492919921875	4.77630615234375E-06	5.48937032363028E-06	240623.609375	3.25111541314982E-05
1	135	66.4942098321183	1.15951538085938	1.15997314453125	4.72442626953125E-06	5.48020761925727E-06	245526.78125	3.29895519826096E-05
1	136	66.594917831864	1.16958618164063	1.16943359375	4.677734375E-06	5.47029958397616E-06	250000.015625	3.3462987630628E-05
1	137	66.6956258316097	1.17965698242188	1.17950439453125	4.635009765625E-06	5.467014034366E-06	254477.21875	3.39319230988622E-05
1	138	66.7963338313555	1.18972778320313	1.18988037109375	4.5965576171875E-06	5.46935370948631E-06	258863.375	3.43967694789171E-05
1	139	66.8970418311012	1.19979858398438	1.1993408203125	4.5611572265625E-06	5.47038234799402E-06	262946.59375	3.48578978446312E-05
1	140	66.9977498308469	1.20986938476563	1.20941162109375	4.52850341796875E-06	5.47682429896668E-06	267066.53125	3.5315599234309E-05
1	141	67.0984578305927	1.21994018554688	1.219482421875	4.49951171875E-06	5.48707566849771E-06	271025.5	3.57701937900856E-05
1	142	67.1991658303384	1.23001098632813	1.2298583984375	4.47235107421875E-06	5.50035838386975E-06	274991.46875	3.62219616363291E-05
1	143	67.2998738300842	1.24008178710938	1.2396240234375	4.44793701171875E-06	5.5137697927421E-06	278696.40625	3.66711356036831E-05
1	144	67.4005818298299	1.25015258789063	1.25	4.42626953125E-06	5.53283643967006E-06	282404.875	3.71179885405581E-05
1	145	67.5012898295756	1.26022338867188	1.26007080078125	4.40673828125E-06	5.55280212211073E-06	285941.8125	3.75627641915344E-05
1	146	67.6019978293214	1.27029418945313	1.27044677734375	4.3896484375E-06	5.57681460122694E-06	289418.8125	3.80056990252342E-05
1	147	67.7027058290671	1.28036499023438	1.28021240234375	4.373779296875E-06	5.5993664318521E-06	292701.65625	3.84469713026192E-05
1	148	67.8034138288128	1.29043579101563	1.29058837890625	4.361572265625E-06	5.62899458600441E-06	295899.8125	3.8886832044227E-05
1	149	67.9041218285586	1.30050659179688	1.3006591796875	4.3505859375E-06	5.65862910661963E-06	298961.875	3.93255249946378E-05
1	150	68.0048298283043	1.31057739257813	1.3104248046875	4.3426513671875E-06	5.69071789868758E-06	301756.875	3.97632611566223E-05
1	151	68.10553782805	1.32064819335938	1.32080078125	4.33624267578125E-06	5.72731232750812E-06	304595.6875	4.02002806367818E-05
1	152	68.2062458277958	1.33071899414063	1.33087158203125	4.33258056640625E-06	5.76610818825429E-06	307177.59375	4.06367907999083E-05
1	153	68.3069538275415	1.34078979492188	1.34063720703125	4.33074951171875E-06	5.80596406507539E-06	309562.40625	4.10730244766455E-05
1	154	68.4076618272873	1.35086059570313	1.35101318359375	4.3304443359375E-06	5.85048746870598E-06	311980.25	4.15091490140185E-05
1	155	68.508369827033	1.36093139648438	1.3604736328125	4.3328857421875E-06	5.89477667745086E-06	313987.90625	4.19453826907557E-05
1	156	68.6090778267787	1.37100219726563	1.370849609375	4.33807373046875E-06	5.94684661336942E-06	316004.21875	4.23819983552676E-05
1	157	68.7097858265245	1.38107299804688	1.3812255859375	4.3463134765625E-06	6.00323892285815E-06	317792.46875	4.28192943218164E-05
1	158	68.8104938262702	1.39114379882813	1.39068603515625	4.35821533203125E-06	6.06090907240286E-06	319095.3125	4.32576016464736E-05
1	159	68.9112018260159	1.40121459960938	1.4013671875	4.37469482421875E-06	6.13055317444378E-06	320334.875	4.3697338696802E-05
1	160	69.0119098257617	1.41128540039063	1.41143798828125	4.3963623046875E-06	6.20519267613417E-06	321046.78125	4.41389965999406E-05
1	161	69.1126178255074	1.42135620117188	1.42120361328125	4.4244384765625E-06	6.2880280893296E-06	321216.71875	4.45831574324984E-05
1	162	69.2133258252532	1.43142700195313	1.43157958984375	4.46014404296875E-06	6.38505071037798E-06	320971.625	4.50305342383217E-05
1	163	69.3140338249989	1.44149780273438	1.441650390625	4.50408935546875E-06	6.49332196189789E-06	320075.90625	4.54819164588116E-05
1	164	69.4147418247446	1.45156860351563	1.451416015625	4.5599365234375E-06	6.61836475046584E-06	318297.4375	4.59383263660129E-05
1	165	69.5154498244904	1.46163940429688	1.46148681640625	4.62890625E-06	6.76508534525055E-06	315730.5	4.64010227005929E-05
1	166	69.6161578242361	1.47171020507813	1.4715576171875	4.716796875E-06	6.9410384639923E-06	311982.40625	4.6871617087163E-05
1	167	69.7168658239818	1.48178100585938	1.48223876953125	4.8236083984375E-06	7.14973930371343E-06	307288.375	4.73520121886395E-05
1	168	69.8175738237276	1.49185180664063	1.49169921875	4.9493408203125E-06	7.3829273787851E-06	301393.53125	4.78441215818748E-05
1	169	69.9182818234733	1.50192260742188	1.50177001953125	5.09033203125E-06	7.64450760470936E-06	295024	4.83496587548871E-05
1	170	70.018989823219	1.49185180664063	1.49200439453125	4.8004150390625E-06	7.1622403083893E-06	310807.375	4.88476980535779E-05
1	171	70.1196978229648	1.48178100585938	1.48193359375	4.59625244140625E-06	6.81134088154067E-06	322422.15625	4.93208572152071E-05
1	172	70.2204058227105	1.47171020507813	1.47125244140625	4.44000244140625E-06	6.5323638409609E-06	331363	4.97758665005676E-05
1	173	70.3211138224563	1.46163940429688	1.4617919921875	4.31488037109375E-06	6.30745716989622E-06	338779.28125	5.02167131344322E-05
1	174	70.421821822202	1.45156860351563	1.451416015625	4.212646484375E-06	6.1143023231125E-06	344537.84375	5.06461074110121E-05
1	175	70.5225298219477	1.44149780273438	1.44134521484375	4.12750244140625E-06	5.94915582041722E-06	349205.15625	5.10660647705663E-05
1	176	70.6232378216935	1.43142700195313	1.43157958984375	4.05548095703125E-06	5.80574396735756E-06	352998.71875	5.14781131641939E-05
1	177	70.7239458214392	1.42135620117188	1.42120361328125	3.992919921875E-06	5.67475217394531E-06	355930.90625	5.18833803653251E-05
1	178	70.8246538211849	1.41128540039063	1.41143798828125	3.9373779296875E-06	5.55736460228218E-06	358471.59375	5.22827031090856E-05
1	179	70.9253618209307	1.40121459960938	1.40167236328125	3.88824462890625E-06	5.45004468222032E-06	360489.78125	5.26767544215545E-05
1	180	71.0260698206764	1.39114379882813	1.3909912109375	3.8433837890625E-06	5.34611308466992E-06	361918.375	5.30660727235954E-05
1	181	71.1267778204221	1.38107299804688	1.3812255859375	3.80279541015625E-06	5.25251834915252E-06	363213.21875	5.34510909346864E-05
1	182	71.2274858201679	1.37100219726563	1.370849609375	3.76434326171875E-06	5.16034833708545E-06	364167.03125	5.38321255589835E-05
1	183	71.3281938199136	1.36093139648438	1.36077880859375	3.72894287109375E-06	5.07426648255205E-06	364923.46875	5.42094421689399E-05
1	184	71.4289018196594	1.35086059570313	1.3507080078125	3.69537353515625E-06	4.99137058795895E-06	365513.28125	5.45832845091354E-05
1	185	71.5296098194051	1.34078979492188	1.3409423828125	3.66363525390625E-06	4.91272385261254E-06	366014.15625	5.49538417544682E-05
1	186	71.6303178191508	1.33071899414063	1.33026123046875	3.63311767578125E-06	4.83299527331837E-06	366148.6875	5.53212630620692E-05
1	187	71.7310258188966	1.32064819335938	1.32080078125	3.60321044921875E-06	4.75912293040892E-06	366562.21875	5.56856393814087E-05
1	188	71.8317338186423	1.31057739257813	1.3104248046875	3.57421875E-06	4.68374491902068E-06	366632.53125	5.60470507480204E-05
1	189	71.932441818388	1.30050659179688	1.30035400390625	3.54644775390625E-06	4.61163745058002E-06	366663.8125	5.64056063012686E-05
1	190	72.0331498181338	1.29043579101563	1.290283203125	3.51959228515625E-06	4.54127075499855E-06	366600.21875	5.67614115425386E-05
1	191	72.1338578178795	1.28036499023438	1.28021240234375	3.4930419921875E-06	4.47183583673905E-06	366503.59375	5.71145246794913E-05
1	192	72.2345658176253	1.27029418945313	1.27044677734375	3.46710205078125E-06	4.40476878793561E-06	366429	5.74649966438301E-05
1	193	72.335273817371	1.26022338867188	1.26007080078125	3.44207763671875E-06	4.33726154369651E-06	366078.5625	5.78129001951311E-05
1	194	72.4359818171167	1.25015258789063	1.25030517578125	3.41766357421875E-06	4.27312215833808E-06	365836.25	5.8158315368928E-05
1	195	72.5366898168625	1.24008178710938	1.240234375	3.3935546875E-06	4.20880314777605E-06	365467.625	5.85012858209666E-05
1	196	72.6373978166082	1.23001098632813	1.23016357421875	3.37005615234375E-06	4.14572014051373E-06	365027.625	5.88418624829501E-05
1	197	72.7381058163539	1.21994018554688	1.21978759765625	3.34747314453125E-06	4.08320602218737E-06	364390.5625	5.91801181144547E-05
1	198	72.8388138160997	1.20986938476563	1.209716796875	3.3251953125E-06	4.02254454456852E-06	363803.25	5.95161109231412E-05
1	199	72.9395218158454	1.19979858398438	1.199951171875	3.3038330078125E-06	3.9644382923143E-06	363199.71875	5.98499100306071E-05
1	200	73.0402298155911	1.18972778320313	1.1895751953125	3.2830810546875E-06	3.9054716580722E-06	362335	6.01815881964285E-05
1	201	73.1409378153369	1.17965698242188	1.1798095703125	3.26263427734375E-06	3.84928716812283E-06	361612.59375	6.0511189076351E-05
1	202	73.2416458150826	1.16958618164063	1.16973876953125	3.2415771484375E-06	3.79179846277111E-06	360854.84375	6.0838705394417E-05
1	203	73.3423538148284	1.15951538085938	1.15966796875	3.22113037109375E-06	3.73544162357575E-06	360018.96875	6.1164129874669E-05
1	204	73.4430618145741	1.14944458007813	1.14959716796875	3.19976806640625E-06	3.67844404536299E-06	359275.1875	6.14874443272129E-05
1	205	73.5437698143198	1.13937377929688	1.13922119140625	3.17840576171875E-06	3.62090713679208E-06	358425.34375	6.18086123722605E-05
1	206	73.6444778140656	1.12930297851563	1.12884521484375	3.15582275390625E-06	3.56243526766775E-06	357702.34375	6.21275685261935E-05
1	207	73.7451858138113	1.11923217773438	1.11907958984375	3.131103515625E-06	3.50395407622273E-06	357407.40625	6.2444138166029E-05
1	208	73.845893813557	1.10916137695313	1.10931396484375	3.104248046875E-06	3.44358568327152E-06	357353.53125	6.27581102889962E-05
1	209	73.9466018133028	1.09909057617188	1.0992431640625	3.07342529296875E-06	3.37844153364131E-06	357660.625	6.30691793048754E-05
1	210	74.0473098130485	1.08901977539063	1.08917236328125	3.037109375E-06	3.30793545799679E-06	358621.375	6.33768722764216E-05
1	211	74.1480178127943	1.07894897460938	1.0791015625	2.99346923828125E-06	3.23025733450777E-06	360485.28125	6.36805343674496E-05
1	212	74.24872581254	1.06887817382813	1.06903076171875	2.93914794921875E-06	3.14203953166725E-06	363721.3125	6.39792706351727E-05
1	213	74.3494338122857	1.05880737304688	1.05926513671875	2.8704833984375E-06	3.04060290545749E-06	369019.78125	6.42718077870086E-05
1	214	74.4501418120315	1.04873657226563	1.048583984375	2.78350830078125E-06	2.91874221147737E-06	376713.09375	6.4556508732494E-05
1	215	74.5508498117772	1.03866577148438	1.03851318359375	2.6751708984375E-06	2.77820026894915E-06	388204.4375	6.4831372583285E-05
1	216	74.6515578115229	1.02859497070313	1.02874755859375	2.54425048828125E-06	2.6173913738603E-06	404342.09375	6.50941947242245E-05
1	217	74.7522658112687	1.01852416992188	1.01898193359375	2.3931884765625E-06	2.43861586568528E-06	425784.25	6.53428141959012E-05
1	218	74.8529738110144	1.00845336914063	1.00830078125	2.22930908203125E-06	2.24781410906871E-06	452292.9375	6.55755720799789E-05
1	219	74.9536818107601	0.998382568359375	0.99884033203125	2.06573486328125E-06	2.06333925234503E-06	483527.84375	6.57918426441029E-05
1	220	75.0543898105059	0.988311767578125	0.98846435546875	1.91497802734375E-06	1.89288743968063E-06	516175.3125	6.5992288000416E-05
1	221	75.1550978102516	0.978240966796875	0.97900390625	1.793212890625E-06	1.75556237991259E-06	545949.625	6.61790109006688E-05
1	222	75.2558058099974	0.968170166015625	0.96832275390625	1.7041015625E-06	1.65012022534938E-06	568230.6875	6.63551181787625E-05
1	223	75.3565138097431	0.958099365234375	0.9576416015625	1.6473388671875E-06	1.57756028329459E-06	581326.4375	6.65238767396659E-05
1	224	75.4572218094888	0.948028564453125	0.94818115234375	1.61102294921875E-06	1.52754148530221E-06	588558.5	6.66879423079081E-05
1	225	75.5579298092346	0.937957763671875	0.9381103515625	1.58416748046875E-06	1.48612389239133E-06	592178.8125	6.68488355586305E-05
1	226	75.6586378089803	0.927886962890625	0.92742919921875	1.55303955078125E-06	1.4403342447622E-06	597170.375	6.70068038743921E-05
1	227	75.759345808726	0.917816162109375	0.91827392578125	1.50543212890625E-06	1.38239909119875E-06	609973.625	6.71608140692115E-05
1	228	75.8600538084718	0.907745361328125	0.9075927734375	1.429443359375E-06	1.2973523553228E-06	634927.4375	6.73085960443132E-05
1	229	75.9607618082175	0.897674560546875	0.89813232421875	1.31134033203125E-06	1.17775709895795E-06	684896.5	6.7446606408339E-05
1	230	76.0614698079632	0.887603759765625	0.88775634765625	1.14105224609375E-06	1.01297632681963E-06	778015.5625	6.75700939609669E-05
1	231	76.162177807709	0.877532958984375	0.877685546875	9.08203125E-07	7.97116740614001E-07	966397.875	6.76732815918513E-05
1	232	76.2628858074547	0.867462158203125	0.86669921875	6.09130859375E-07	5.27933195826336E-07	1422845.75	6.77496864227578E-05
1	233	76.3635938072005	0.857391357421875	0.85784912109375	2.4383544921875E-07	2.09174018550584E-07	3518147.75	6.77926364005543E-05
1	234	76.4643018069462	0.847320556640625	0.84716796875	-1.68762207031251E-07	-1.42969923899727E-07	-5019891.5	6.77964126225561E-05
1	235	76.5650098066919	0.837249755859375	0.83770751953125	-6.0577392578125E-07	-5.0746132274071E-07	-1382871.625	6.77574134897441E-05
1	236	76.6657178064377	0.827178955078125	0.8270263671875	-1.03485107421875E-06	-8.55849123126973E-07	-799174.3125	6.76748022669926E-05
1	237	76.7664258061834	0.817108154296875	0.8172607421875	-1.42120361328125E-06	-1.16149385576136E-06	-575048.3125	6.75511328154244E-05
1	238	76.8671338059291	0.807037353515625	0.80718994140625	-1.729736328125E-06	-1.39622568440245E-06	-466654.9375	6.73924660077319E-05
1	239	76.9678418056749	0.796966552734375	0.797119140625	-1.94305419921875E-06	-1.54884571657021E-06	-410240.28125	6.72075257170945E-05
1	240	77.0685498054206	0.786895751953125	0.78704833984375	-2.054443359375E-06	-1.61694617872854E-06	-383095.6875	6.70062363496982E-05
1	241	77.1692578051664	0.776824951171875	0.77728271484375	-2.07672119140625E-06	-1.61419939104235E-06	-374283.625	6.67982167215087E-05
1	242	77.2699658049121	0.766754150390625	0.76690673828125	-2.032470703125E-06	-1.55871532570018E-06	-377327.34375	6.65913030388765E-05
1	243	77.3706738046578	0.756683349609375	0.75714111328125	-1.95068359375E-06	-1.47694277075061E-06	-388141.4375	6.63907339912839E-05
1	244	77.4713818044036	0.746612548828125	0.74652099609375	-1.85394287109375E-06	-1.38400730520516E-06	-402666.65625	6.61991580273025E-05
1	245	77.5720898041493	0.736541748046875	0.7364501953125	-1.7620849609375E-06	-1.29768784518092E-06	-417942.5	6.60170771880075E-05
1	246	77.672797803895	0.726470947265625	0.726409912109375	-1.6888427734375E-06	-1.22679216474353E-06	-430122.875	6.5843305492308E-05
1	247	77.7735058036408	0.716400146484375	0.716339111328125	-1.64398193359375E-06	-1.17764852802793E-06	-435734.1875	6.56754855299369E-05
1	248	77.8742138033865	0.706329345703125	0.70623779296875	-1.634521484375E-06	-1.1543608025022E-06	-432076.1875	6.55104013276286E-05
1	249	77.9749218031322	0.696258544921875	0.696258544921875	-1.66351318359375E-06	-1.15823524993175E-06	-418547.0625	6.53443348710425E-05
1	250	78.075629802878	0.686187744140625	0.68609619140625	-1.72760009765625E-06	-1.18529987958027E-06	-397138.3125	6.51735754217952E-05
1	251	78.1763378026237	0.676116943359375	0.675994873046875	-1.820068359375E-06	-1.23035681554029E-06	-371411.8125	6.49949361104518E-05
1	252	78.2770458023695	0.666046142578125	0.666015625	-1.92657470703125E-06	-1.28312888136861E-06	-345699.34375	6.48062778054737E-05
1	253	78.3777538021152	0.655975341796875	0.65594482421875	-2.02972412109375E-06	-1.3313870113052E-06	-323169.4375	6.46070620859973E-05
1	254	78.4784618018609	0.645904541015625	0.645843505859375	-2.11151123046875E-06	-1.36370567815902E-06	-305867.90625	6.43985331407748E-05
1	255	78.5791698016067	0.635833740234375	0.635772705078125	-2.158203125E-06	-1.3721265759159E-06	-294584.3125	6.41835358692333E-05
1	256	78.6798778013524	0.625762939453125	0.625701904296875	-2.16583251953125E-06	-1.35516552290937E-06	-288896.71875	6.39658028376289E-05
1	257	78.7805858010981	0.615692138671875	0.615631103515625	-2.1356201171875E-06	-1.31475405851234E-06	-288268.09375	6.37492121313699E-05
1	258	78.8812938008439	0.605621337890625	0.605560302734375	-2.0782470703125E-06	-1.25850385757076E-06	-291380.34375	6.35370233794674E-05
1	259	78.9820018005896	0.595550537109375	0.595550537109375	-2.00225830078125E-06	-1.19244600682578E-06	-297439.40625	6.33315576124005E-05
1	260	79.0827098003354	0.585479736328125	0.58544921875	-1.9171142578125E-06	-1.12237296434614E-06	-305380.46875	6.31341972621158E-05
1	261	79.1834178000811	0.575408935546875	0.57537841796875	-1.82891845703125E-06	-1.05232015812362E-06	-314600.375	6.29455753369257E-05
1	262	79.2841257998268	0.565338134765625	0.565338134765625	-1.7425537109375E-06	-9.8513203283801E-07	-324430.84375	6.27657354925759E-05
1	263	79.3848337995726	0.555267333984375	0.55523681640625	-1.66046142578125E-06	-9.21949322219007E-07	-334387.0625	6.25943794148043E-05
1	264	79.4855417993183	0.545196533203125	0.545257568359375	-1.58416748046875E-06	-8.63779291648825E-07	-344191.875	6.24309977865778E-05
1	265	79.586249799064	0.535125732421875	0.535125732421875	-1.513671875E-06	-8.10004735285474E-07	-353528.25	6.22750085312873E-05
1	266	79.6869577988098	0.525054931640625	0.524993896484375	-1.44866943359375E-06	-7.60542604893999E-07	-362397.3125	6.21258441242389E-05
1	267	79.7876657985555	0.514984130859375	0.514984130859375	-1.38946533203125E-06	-7.15552573637979E-07	-370634.75	6.19829297647811E-05
1	268	79.8883737983012	0.504913330078125	0.504913330078125	-1.33575439453125E-06	-6.74440229886386E-07	-377998.625	6.18457052041776E-05
1	269	79.989081798047	0.494842529296875	0.49481201171875	-1.28662109375E-06	-6.36635604678304E-07	-384582.53125	6.17136611253954E-05
1	270	80.0897897977927	0.484771728515625	0.4847412109375	-1.241455078125E-06	-6.01784392983973E-07	-390462.15625	6.15863609709777E-05
1	271	80.1904977975385	0.474700927734375	0.4747314453125	-1.199951171875E-06	-5.69654559967603E-07	-395625.65625	6.14634263911285E-05
1	272	80.2912057972842	0.464630126953125	0.464599609375	-1.162109375E-06	-5.39915561148518E-07	-399789.9375	6.13444863120094E-05
1	273	80.3919137970299	0.454559326171875	0.454620361328125	-1.1273193359375E-06	-5.12502310812124E-07	-403275.625	6.12292060395703E-05
1	274	80.4926217967757	0.444488525390625	0.44451904296875	-1.0943603515625E-06	-4.86463989091135E-07	-406190.75	6.11173381912522E-05
1	275	80.5933297965214	0.434417724609375	0.43438720703125	-1.064453125E-06	-4.62384775801183E-07	-408084.90625	6.10086317465175E-05
1	276	80.6940377962671	0.424346923828125	0.42437744140625	-1.03607177734375E-06	-4.39685493347497E-07	-409602.34375	6.09028611506801E-05
1	277	80.7947457960129	0.414276123046875	0.414306640625	-1.0101318359375E-06	-4.18504299659617E-07	-410151.09375	6.07998263149057E-05
1	278	80.8954537957586	0.404205322265625	0.4041748046875	-9.857177734375E-07	-3.98402278278809E-07	-410030.96875	6.06993271503597E-05
1	279	80.9961617955043	0.394134521484375	0.394134521484375	-9.63439941406249E-07	-3.79724923504909E-07	-409090.9375	6.06011781201232E-05
1	280	81.0968697952501	0.384063720703125	0.384124755859375	-9.429931640625E-07	-3.62227012828953E-07	-407346.28125	6.05051827733405E-05
1	281	81.1975777949958	0.373992919921875	0.373992919921875	-9.2437744140625E-07	-3.45710617466466E-07	-404588.96875	6.04111519351136E-05
1	282	81.2982857947416	0.363922119140625	0.363922119140625	-9.063720703125E-07	-3.2984883091558E-07	-401515.15625	6.03189655521419E-05
1	283	81.3989937944873	0.353851318359375	0.353851318359375	-8.89892578125E-07	-3.14889632591075E-07	-397633.75	6.022851812304E-05
1	284	81.499701794233	0.343780517578125	0.34381103515625	-8.73718261718751E-07	-3.00393963925671E-07	-393503.3125	6.01397150603589E-05
1	285	81.6004097939788	0.333709716796875	0.333770751953125	-8.58154296874999E-07	-2.86426796947126E-07	-388940.25	6.00525054323953E-05
1	286	81.7011177937245	0.323638916015625	0.323638916015625	-8.4381103515625E-07	-2.73090080327165E-07	-383544.3125	5.99668055656366E-05
1	287	81.8018257934702	0.313568115234375	0.313568115234375	-8.306884765625E-07	-2.60477406754944E-07	-377479.8125	5.98824881308246E-05
1	288	81.902533793216	0.303497314453125	0.303466796875	-8.18481445312499E-07	-2.48381923029228E-07	-370768.09375	5.97994439885952E-05
1	289	82.0032417929617	0.293426513671875	0.29345703125	-8.06274414062499E-07	-2.3660689407734E-07	-363966.71875	5.97176331211813E-05
1	290	82.1039497927075	0.283355712890625	0.28338623046875	-7.95593261718749E-07	-2.25460169644975E-07	-356194.875	5.96369718550704E-05
1	291	82.2046577924532	0.273284912109375	0.27325439453125	-7.85217285156251E-07	-2.14564067846368E-07	-347998.46875	5.95573728787713E-05
1	292	82.3053657921989	0.263214111328125	0.263214111328125	-7.7545166015625E-07	-2.0410982415342E-07	-339433.28125	5.94787852605805E-05
1	293	82.4060737919447	0.253143310546875	0.253143310546875	-7.6629638671875E-07	-1.93982799601145E-07	-330346.5	5.9401154430816E-05
1	294	82.5067817916904	0.243072509765625	0.24310302734375	-7.57751464843751E-07	-1.84211671694356E-07	-320821.59375	5.93244112678804E-05
1	295	82.6074897914361	0.233001708984375	0.233123779296875	-7.5103759765625E-07	-1.75084721831809E-07	-310402.28125	5.92484393564519E-05
1	296	82.7081977911819	0.222930908203125	0.22296142578125	-7.4432373046875E-07	-1.65955469810797E-07	-299549	5.91731404711027E-05
1	297	82.8089057909276	0.212860107421875	0.212860107421875	-7.391357421875E-07	-1.57332507910724E-07	-287985.15625	5.90984418522567E-05
1	298	82.9096137906733	0.202789306640625	0.202850341796875	-7.34863281250001E-07	-1.49067261645541E-07	-276038.21875	5.90242198086344E-05
1	299	83.0103217904191	0.192718505859375	0.1927490234375	-7.3211669921875E-07	-1.41114782081786E-07	-263276.375	5.89503506489564E-05
1	300	83.1110297901648	0.182647705078125	0.182708740234375	-7.305908203125E-07	-1.33485315245707E-07	-250083.546875	5.88766997680068E-05
1	301	83.2117377899106	0.172576904296875	0.172698974609375	-7.29980468749999E-07	-1.26066879602149E-07	-236580.265625	5.88031543884426E-05
1	302	83.3124457896563	0.162506103515625	0.162567138671875	-7.32421875E-07	-1.19067728121536E-07	-221958.328125	5.87295144214295E-05
1	303	83.413153789402	0.152435302734375	0.152496337890625	-7.3699951171875E-07	-1.12389720641204E-07	-206915.125	5.86555252084509E-05
1	304	83.5138617891478	0.142364501953125	0.142364501953125	-7.45239257812499E-07	-1.06095612295576E-07	-191031.953125	5.85808884352446E-05
1	305	83.6145697888935	0.132293701171875	0.132354736328125	-7.5714111328125E-07	-1.00211209996814E-07	-174808.546875	5.85052366659511E-05
1	306	83.7152777886392	0.122222900390625	0.122314453125	-7.75146484375E-07	-9.48116181120895E-08	-157795.28125	5.84280787734315E-05
1	307	83.815985788385	0.112152099609375	0.112213134765625	-7.99560546875E-07	-8.97211975825485E-08	-140343.515625	5.83487853873521E-05
1	308	83.9166937881307	0.102081298828125	0.10211181640625	-8.32214355468749E-07	-8.49789145718205E-08	-122698.9453125	5.82666216359939E-05
1	309	84.0174017878765	0.092010498046875	0.092132568359375	-8.758544921875E-07	-8.06947255682644E-08	-105191.640625	5.81806125410367E-05
1	310	84.1181097876222	0.081939697265625	0.082000732421875	-9.33837890625E-07	-7.6575389584832E-08	-87810.4609375	5.80894884478766E-05
1	311	84.2188177873679	0.071868896484375	0.071929931640625	-1.00921630859375E-06	-7.25928543943155E-08	-71273.0625	5.79916486458387E-05
1	312	84.3195257871137	0.061798095703125	0.06182861328125	-1.10748291015625E-06	-6.84741294776359E-08	-55828.0546875	5.78850631427485E-05
1	313	84.4202337868594	0.051727294921875	0.051788330078125	-1.23321533203125E-06	-6.3866167465676E-08	-41994.5546875	5.77671999053564E-05
1	314	84.5209417866051	0.041656494140625	0.04176025390625	-1.3897705078125E-06	-5.80371661840218E-08	-30048.310546875	5.76351194467861E-05
1	315	84.6216497863509	0.031585693359375	0.031683349609375	-1.57745361328125E-06	-4.99790111518905E-08	-20085.123046875	5.74857112951577E-05
1	316	84.7223577860966	0.021514892578125	0.02159423828125	-1.790771484375E-06	-3.86703433719049E-08	-12058.623046875	5.73161050851922E-05
1	317	84.8230657858423	0.011444091796875	0.011572265625	-2.01812744140625E-06	-2.33543069327879E-08	-5734.16015625	5.71243144804612E-05
1	318	84.9237737855881	0.001373291015625	0.0014984130859375	-2.23724365234375E-06	-3.35231487014198E-09	-669.758605957031	5.69100375287235E-05
1	319	85.0244817853338	-0.008697509765625	-0.00855712890625	-2.42889404296875E-06	2.0784359122672E-08	3523.0556640625	5.66750786674675E-05
1	320	85.1251897850796	-0.018768310546875	-0.018658447265625	-2.5726318359375E-06	4.80013149228853E-08	7252.66943359375	5.64232323085889E-05
1	321	85.2258977848253	-0.028839111328125	-0.0287200927734375	-2.6611328125E-06	7.64279803888712E-08	10792.4306640625	5.61596898478456E-05
1	322	85.326605784571	-0.038909912109375	-0.0388092041015625	-2.69439697265625E-06	1.04567398295785E-07	14403.6689453125	5.58900173928123E-05
1	323	85.4273137843168	-0.048980712890625	-0.048834228515625	-2.68280029296875E-06	1.3101247020586E-07	18202.70703125	5.56192571821157E-05
1	324	85.5280217840625	-0.059051513671875	-0.058929443359375	-2.64068603515625E-06	1.55614159780271E-07	22315.958984375	5.53511963516939E-05
1	325	85.6287297838082	-0.069122314453125	-0.06903076171875	-2.57965087890625E-06	1.78075254098076E-07	26759.732421875	5.50883305550087E-05
1	326	85.729437783554	-0.079193115234375	-0.0791015625	-2.51129150390625E-06	1.98647086335768E-07	31498.359375	5.48319840163458E-05
1	327	85.8301457832997	-0.089263916015625	-0.08917236328125	-2.44140625E-06	2.17705959926207E-07	36525	5.45825932931621E-05
1	328	85.9308537830454	-0.099334716796875	-0.099212646484375	-2.37548828125E-06	2.35678484727941E-07	41765.16015625	5.43400456081145E-05
1	329	86.0315617827912	-0.109405517578125	-0.109283447265625	-2.31475830078125E-06	2.52964753144624E-07	47211.60546875	5.41038716619369E-05
1	330	86.1322697825369	-0.119476318359375	-0.119415283203125	-2.2601318359375E-06	2.69894286475392E-07	52835.5390625	5.38735075679142E-05
1	331	86.2329777822827	-0.129547119140625	-0.12939453125	-2.2113037109375E-06	2.86130585891442E-07	58515.046875	5.36483530595433E-05
1	332	86.3336857820284	-0.139617919921875	-0.13946533203125	-2.169189453125E-06	3.02526729001329E-07	64293.75390625	5.34277787664905E-05
1	333	86.4343937817741	-0.149688720703125	-0.149566650390625	-2.1319580078125E-06	3.18869808779709E-07	70154.6015625	5.32111989741679E-05
1	334	86.5351017815199	-0.159759521484375	-0.159637451171875	-2.1002197265625E-06	3.35273711016271E-07	76009.8828125	5.29980898136273E-05
1	335	86.6358097812656	-0.169830322265625	-0.169677734375	-2.07244873046875E-06	3.51648395735538E-07	81873.0703125	5.27879819856025E-05
1	336	86.7365177810113	-0.179901123046875	-0.179840087890625	-2.0501708984375E-06	3.6870292774438E-07	87719.5625	5.25803916389123E-05
1	337	86.8372257807571	-0.189971923828125	-0.1898193359375	-2.0306396484375E-06	3.85454654860951E-07	93477.6171875	5.23749040439725E-05
1	338	86.9379337805028	-0.200042724609375	-0.19989013671875	-2.0159912109375E-06	4.02976752411632E-07	99152.2890625	5.21711408509873E-05
1	339	87.0386417802486	-0.189971923828125	-0.189849853515625	-1.80023193359375E-06	3.41773755963004E-07	105458.5546875	5.19789791724179E-05
2	340	87.1393497799943	-0.179901123046875	-0.17974853515625	-1.6461181640625E-06	2.95887332413258E-07	109195.40625	5.1805440307362E-05
2	341	87.24005777974	-0.169830322265625	-0.16973876953125	-1.52191162109375E-06	2.58327389701662E-07	111529.9765625	5.16459185746498E-05
2	342	87.3407657794858	-0.159759521484375	-0.159576416015625	-1.41571044921875E-06	2.25913979079451E-07	112718.265625	5.14979983563535E-05
2	343	87.4414737792315	-0.149688720703125	-0.1495361328125	-1.3226318359375E-06	1.97781233168826E-07	113059.5390625	5.13601116836071E-05
2	344	87.5421817789772	-0.139617919921875	-0.1395263671875	-1.23870849609375E-06	1.72832500311415E-07	112638.5859375	5.12311380589381E-05
2	345	87.642889778723	-0.129547119140625	-0.129425048828125	-1.160888671875E-06	1.50248055774682E-07	111487.9140625	5.11103062308393E-05
2	346	87.7435977784687	-0.119476318359375	-0.119354248046875	-1.087646484375E-06	1.29815219906959E-07	109736.2578125	5.0997085054405E-05
2	347	87.8443057782144	-0.109405517578125	-0.109283447265625	-1.01593017578125E-06	1.11024348825595E-07	107569.84375	5.08911616634578E-05
2	348	87.9450137779602	-0.099334716796875	-0.099273681640625	-9.43908691406251E-07	9.37052888616563E-08	105172.9765625	5.07924742123578E-05
2	349	88.0457217777059	-0.089263916015625	-0.089141845703125	-8.67919921875E-07	7.73679786902903E-08	102707.4609375	5.07012446178123E-05
2	350	88.1464297774517	-0.079193115234375	-0.07916259765625	-7.8460693359375E-07	6.21115248122805E-08	100894.59375	5.06180331285577E-05
2	351	88.2471377771974	-0.069122314453125	-0.069122314453125	-6.88781738281249E-07	4.76101860158451E-08	100354.453125	5.05438401887659E-05
2	352	88.3478457769431	-0.059051513671875	-0.05902099609375	-5.74951171875E-07	3.39341923449865E-08	102653.9296875	5.04802083014511E-05
2	353	88.4485537766889	-0.048980712890625	-0.0488311767578125	-4.37316894531251E-07	2.13546975658119E-08	111660.8515625	5.04292365803849E-05
2	354	88.5492617764346	-0.038909912109375	-0.0387847900390625	-2.7008056640625E-07	1.04750181861846E-08	143604.53125	5.03936134919059E-05
2	355	88.6499697761803	-0.028839111328125	-0.0286773681640625	-7.20214843749997E-08	2.06538675051604E-09	398177.96875	5.03763876622543E-05
2	356	88.7506777759261	-0.018768310546875	-0.018646240234375	1.5594482421875E-07	-2.90778445766193E-09	-119569.4765625	5.03806149936281E-05
2	357	88.8513857756718	-0.008697509765625	-0.0086212158203125	4.01611328125E-07	-3.46237793991122E-09	-21466.56640625	5.04086892760824E-05
2	358	88.9520937754176	0.001373291015625	0.00150146484374999	6.5032958984375E-07	9.76447034339856E-10	2308.775390625	5.04616582475137E-05
2	359	89.0528017751633	0.011444091796875	0.011553955078125	8.7890625E-07	1.0154843188559E-08	13145.833984375	5.05386633449234E-05
2	360	89.153509774909	0.021514892578125	0.02161865234375	1.06719970703125E-06	2.30714203297566E-08	20257.36328125	5.06366559420712E-05
2	361	89.2542177746548	0.031585693359375	0.0316802978515625	1.2017822265625E-06	3.80728160109811E-08	26361.09765625	5.07509066665079E-05
2	362	89.3549257744005	0.041656494140625	0.0417633056640625	1.27838134765625E-06	5.33894315424277E-08	32668.89453125	5.08757948409766E-05
2	363	89.4556337741462	0.051727294921875	0.05181884765625	1.30462646484375E-06	6.76042333225269E-08	39719.30078125	5.10058598592877E-05
2	364	89.556341773892	0.061798095703125	0.0618896484375	1.29302978515625E-06	8.00251598320756E-08	47864.0546875	5.11366633872967E-05
2	365	89.6570497736377	0.071868896484375	0.0718994140625	1.25732421875E-06	9.04008743418672E-08	57184.46484375	5.12650840391871E-05
2	366	89.7577577733834	0.081939697265625	0.082061767578125	1.2091064453125E-06	9.92214026496185E-08	67869.765625	5.13892773597036E-05
2	367	89.8584657731292	0.092010498046875	0.092041015625	1.15631103515625E-06	1.06428039714501E-07	79598.84375	5.15083847858477E-05
2	368	89.9591737728749	0.102081298828125	0.102142333984375	1.1041259765625E-06	1.12778003824587E-07	92509.671875	5.16222062287852E-05
2	369	90.0598817726207	0.112152099609375	0.1121826171875	1.05438232421875E-06	1.18283367100958E-07	106396.5234375	5.17308981216047E-05
2	370	90.1605897723664	0.122222900390625	0.1221923828125	1.00982666015625E-06	1.23393121498339E-07	121003.328125	5.18348388141021E-05
2	371	90.2612977721121	0.132293701171875	0.13238525390625	9.70458984375E-07	1.28474454186289E-07	136415.109375	5.19345521752257E-05
2	372	90.3620057718579	0.142364501953125	0.14239501953125	9.356689453125E-07	1.33234593135967E-07	152185.265625	5.20305329700932E-05
2	373	90.4627137716036	0.152435302734375	0.1524658203125	9.0545654296875E-07	1.38051177600573E-07	168385.578125	5.21232432220131E-05
2	374	90.5634217713493	0.162506103515625	0.162567138671875	8.7890625E-07	1.42881276588014E-07	184965.28125	5.22130903846119E-05
2	375	90.6641297710951	0.172576904296875	0.172576904296875	8.5601806640625E-07	1.47728940191882E-07	201604.28125	5.23004528076854E-05
2	376	90.7648377708408	0.182647705078125	0.182647705078125	8.3648681640625E-07	1.52782391182882E-07	218350.984375	5.23856760992203E-05
2	377	90.8655457705866	0.192718505859375	0.1927490234375	8.19091796875E-07	1.57879142648198E-07	235320.421875	5.24690403835848E-05
2	378	90.9662537703323	0.202789306640625	0.20281982421875	8.0474853515625E-07	1.63218956572564E-07	252028.8125	5.2550807595253E-05
2	379	91.066961770078	0.212860107421875	0.212799072265625	7.91320800781251E-07	1.6839231875565E-07	268916.3125	5.26311778230593E-05
2	380	91.1676697698238	0.222930908203125	0.22296142578125	7.80334472656249E-07	1.73984489038048E-07	285725.46875	5.27103147760499E-05
2	381	91.2683777695695	0.233001708984375	0.233062744140625	7.7056884765625E-07	1.79590884386016E-07	302455.46875	5.27884112671018E-05
2	382	91.3690857693152	0.243072509765625	0.24310302734375	7.62939453125E-07	1.85472885050331E-07	318640.03125	5.28656273672823E-05
2	383	91.469793769061	0.253143310546875	0.253143310546875	7.55615234375E-07	1.91278928696192E-07	335016.1875	5.29420940438285E-05
2	384	91.5705017688067	0.263214111328125	0.26318359375	7.489013671875E-07	1.97098543708307E-07	351426.25	5.30178513145074E-05
2	385	91.6712097685524	0.273284912109375	0.273223876953125	7.43408203125E-07	2.03116869101905E-07	367528.75	5.30929974047467E-05
2	386	91.7719177682982	0.283355712890625	0.283355712890625	7.391357421875E-07	2.09438326237432E-07	383360.875	5.31676487298682E-05
2	387	91.8726257680439	0.293426513671875	0.293426513671875	7.3516845703125E-07	2.15717918194969E-07	399128.28125	5.32418853254057E-05
2	388	91.9733337677897	0.303497314453125	0.303466796875	7.3211669921875E-07	2.22173099473366E-07	414506.0625	5.3315769036999E-05
2	389	92.0740417675354	0.313568115234375	0.313629150390625	7.2967529296875E-07	2.28847426342327E-07	429820.1875	5.33893762622029E-05
2	390	92.1747497672811	0.323638916015625	0.323638916015625	7.275390625E-07	2.35459950204131E-07	444840.625	5.34627542947419E-05
2	391	92.2754577670269	0.333709716796875	0.333770751953125	7.26928710937499E-07	2.42627550051111E-07	459151.96875	5.35359904461075E-05
2	392	92.3761657667726	0.343780517578125	0.343841552734375	7.26318359375E-07	2.49738405955213E-07	473403.375	5.36091683898121E-05
2	393	92.4768737665183	0.353851318359375	0.35382080078125	7.2601318359375E-07	2.56878564641738E-07	487347.625	5.36822990397923E-05
2	394	92.5775817662641	0.363922119140625	0.3638916015625	7.26928710937499E-07	2.64523237092362E-07	500587.75	5.37554587936029E-05
2	395	92.6782897660098	0.373992919921875	0.3740234375	7.2784423828125E-07	2.72230806785956E-07	513878.40625	5.38287131348625E-05
2	396	92.7789977657555	0.384063720703125	0.38409423828125	7.2906494140625E-07	2.8002963858853E-07	526831.3125	5.39020766154863E-05
2	397	92.8797057655013	0.394134521484375	0.3941650390625	7.3089599609375E-07	2.88093644940091E-07	539290.1875	5.39755892532412E-05
2	398	92.980413765247	0.404205322265625	0.404205322265625	7.33032226562499E-07	2.96295525004098E-07	551415.5	5.40493056178093E-05
2	399	93.0811217649928	0.414276123046875	0.414306640625	7.3516845703125E-07	3.04585171306826E-07	563553.375	5.41232329851482E-05
2	400	93.1818297647385	0.424346923828125	0.424285888671875	7.37609863281249E-07	3.12957467940578E-07	575217.1875	5.41973931831308E-05
2	401	93.2825377644842	0.434417724609375	0.434417724609375	7.39440917968751E-07	3.21226224286875E-07	587494.875	5.4271768021863E-05
2	402	93.38324576423	0.444488525390625	0.44451904296875	7.427978515625E-07	3.30187788222247E-07	598438.8125	5.43464047950692E-05
2	403	93.4839537639757	0.454559326171875	0.45452880859375	7.45544433593751E-07	3.388714162611E-07	609660.25	5.44213507964741E-05
2	404	93.5846617637214	0.464630126953125	0.464599609375	7.489013671875E-07	3.47939277389742E-07	620374.9375	5.44966023880988E-05
2	405	93.6853697634672	0.474700927734375	0.474700927734375	7.52868652343749E-07	3.57387449412272E-07	630522.9375	5.4572221415583E-05
2	406	93.7860777632129	0.484771728515625	0.48480224609375	7.5653076171875E-07	3.66767807236101E-07	640822.9375	5.46482260688208E-05
2	407	93.8867857629587	0.494842529296875	0.494842529296875	7.6171875E-07	3.76930842094225E-07	649639.4375	5.4724674555473E-05
2	408	93.9874937627044	0.504913330078125	0.504852294921875	7.672119140625E-07	3.87328668693954E-07	658035.0625	5.48016651009675E-05
2	409	94.0882017624501	0.514984130859375	0.514984130859375	7.74230957031249E-07	3.98716650806819E-07	665155.6875	5.48792813788168E-05
2	410	94.1889097621959	0.525054931640625	0.5250244140625	7.82470703125E-07	4.10816227258692E-07	670982.875	5.49576689081732E-05
2	411	94.2896177619416	0.535125732421875	0.53509521484375	7.92846679687501E-07	4.24248469244048E-07	674903.8125	5.5036991398083E-05
2	412	94.3903257616873	0.545196533203125	0.545135498046875	8.056640625E-07	4.39196071511105E-07	676628.8125	5.511748167919E-05
2	413	94.4910337614331	0.555267333984375	0.555267333984375	8.23059082031249E-07	4.57017819144312E-07	674638.5	5.5199496273417E-05
2	414	94.5917417611788	0.565338134765625	0.5653076171875	8.4503173828125E-07	4.77702883472375E-07	668978	5.52834899281152E-05
2	415	94.6924497609245	0.575408935546875	0.5753173828125	8.76770019531251E-07	5.04420995639521E-07	656178.25	5.53701902390458E-05
2	416	94.7931577606703	0.585479736328125	0.58551025390625	9.19189453124999E-07	5.38194797172764E-07	636985.4375	5.54606231162325E-05
2	417	94.893865760416	0.595550537109375	0.595489501953125	9.80529785156251E-07	5.83895200634288E-07	607314.0625	5.55562837689649E-05
2	418	94.9945737601618	0.605621337890625	0.6055908203125	1.06231689453125E-06	6.43329371996515E-07	570066.0625	5.56591476197354E-05
2	419	95.0952817599075	0.615692138671875	0.615631103515625	1.17218017578125E-06	7.21630556199671E-07	525201.75	5.57716630282812E-05
2	420	95.1959897596532	0.625762939453125	0.62567138671875	1.3128662109375E-06	8.21422815988626E-07	476569.0625	5.58967949473299E-05
2	421	95.296697759399	0.635833740234375	0.635772705078125	1.483154296875E-06	9.42948986448755E-07	428662.5625	5.60375883651432E-05
2	422	95.3974057591447	0.645904541015625	0.645904541015625	1.67724609375E-06	1.08334086235118E-06	385098.28125	5.61967244721018E-05
2	423	95.4981137588904	0.655975341796875	0.655914306640625	1.8841552734375E-06	1.23584436551027E-06	348121.15625	5.63760549994186E-05
2	424	95.5988217586362	0.666046142578125	0.666015625	2.086181640625E-06	1.38942959893029E-06	319251.03125	5.65759801247623E-05
2	425	95.6995297583819	0.676116943359375	0.676025390625	2.26348876953125E-06	1.53017595039273E-06	298665.21875	5.67950010008644E-05
2	426	95.8002377581277	0.686187744140625	0.68603515625	2.4029541015625E-06	1.64851098816143E-06	285496.5625	5.70299744140357E-05
2	427	95.9009457578734	0.696258544921875	0.6961669921875	2.49786376953125E-06	1.73893033661443E-06	278704.9375	5.72767530684359E-05
2	428	96.0016537576191	0.706329345703125	0.706268310546875	2.55340576171875E-06	1.80338952304737E-06	276598.5625	5.75311023567338E-05
2	429	96.1023617573649	0.716400146484375	0.71636962890625	2.57965087890625E-06	1.84798341251735E-06	277700.25	5.778957347502E-05
2	430	96.2030697571106	0.726470947265625	0.726409912109375	2.59307861328125E-06	1.88363799225044E-06	280134.1875	5.80500418436714E-05
2	431	96.3037777568563	0.736541748046875	0.7364501953125	2.6092529296875E-06	1.92158472600568E-06	282245.625	5.83119981456548E-05
2	432	96.4044857566021	0.746612548828125	0.746551513671875	2.64495849609375E-06	1.97459758055629E-06	282254.53125	5.85765701544005E-05
2	433	96.5051937563478	0.756683349609375	0.75653076171875	2.71453857421875E-06	2.05363198801933E-06	278695.90625	5.88464426982682E-05
2	434	96.6059017560935	0.766754150390625	0.76690673828125	2.83294677734375E-06	2.17260594581603E-06	270709.90625	5.91257812629919E-05
2	435	96.7066097558393	0.776824951171875	0.7769775390625	3.01422119140625E-06	2.3419820536219E-06	257770.578125	5.94202065258287E-05
2	436	96.807317755585	0.786895751953125	0.78704833984375	3.26690673828125E-06	2.57121337199351E-06	240915.46875	5.97364887653384E-05
2	437	96.9080257553308	0.796966552734375	0.7977294921875	3.59405517578125E-06	2.86708359453769E-06	221958.0625	6.00819657847751E-05
2	438	97.0087337550765	0.807037353515625	0.80718994140625	3.98834228515625E-06	3.21934953717573E-06	202387.34375	6.04637680226006E-05
2	439	97.1094417548222	0.817108154296875	0.81695556640625	4.43023681640625E-06	3.61930665349064E-06	184404.484375	6.08876762271393E-05
2	440	97.210149754568	0.827178955078125	0.82672119140625	4.89349365234375E-06	4.04555476052337E-06	168942.9375	6.13571683061309E-05
2	441	97.3108577543137	0.837249755859375	0.83740234375	5.340576171875E-06	4.47221100330353E-06	156800	6.18724880041555E-05
2	442	97.4115657540594	0.847320556640625	0.84747314453125	5.731201171875E-06	4.85703867525444E-06	147870.078125	6.24300009803846E-05
2	443	97.5122737538052	0.857391357421875	0.8575439453125	6.0333251953125E-06	5.1738411457336E-06	142134.546875	6.30223876214586E-05
2	444	97.6129817535509	0.867462158203125	0.8673095703125	6.2225341796875E-06	5.3968633437762E-06	139382.046875	6.36395197943784E-05
2	445	97.7136897532966	0.877532958984375	0.877685546875	6.292724609375E-06	5.52303299627965E-06	139476.25	6.42697123112157E-05
2	446	97.8143977530424	0.887603759765625	0.887451171875	6.2591552734375E-06	5.55469478058512E-06	141784.5	6.4901752921287E-05
2	447	97.9151057527881	0.897674560546875	0.8978271484375	6.1492919921875E-06	5.52100118511589E-06	146004.96875	6.55265685054474E-05
2	448	98.0158137525339	0.907745361328125	0.90789794921875	6.0028076171875E-06	5.44993645235081E-06	151245.5625	6.61384765408002E-05
2	449	98.1165217522796	0.917816162109375	0.91796875	5.841064453125E-06	5.36191419087118E-06	157157.796875	6.67348576826043E-05
2	450	98.2172297520253	0.927886962890625	0.92803955078125	5.6915283203125E-06	5.28196324012242E-06	163056.296875	6.73155736876652E-05
2	451	98.3179377517711	0.937957763671875	0.93780517578125	5.560302734375E-06	5.21448055224027E-06	168660.8125	6.7882145231124E-05
2	452	98.4186457515168	0.948028564453125	0.94818115234375	5.4595947265625E-06	5.1766846809187E-06	173672.453125	6.84370461385697E-05
2	453	98.5193537512625	0.958099365234375	0.958251953125	5.3985595703125E-06	5.17318039783277E-06	177501.40625	6.89837979734875E-05
2	454	98.6200617510083	0.968170166015625	0.968017578125	5.3741455078125E-06	5.20226740263752E-06	180124.921875	6.95262424414977E-05
2	455	98.720769750754	0.978240966796875	0.9783935546875	5.3863525390625E-06	5.26997246197425E-06	181643.0625	7.00680757290684E-05
2	456	98.8214777504998	0.988311767578125	0.9881591796875	5.4229736328125E-06	5.35876097274013E-06	182217.21875	7.06123682903126E-05
2	457	98.9221857502455	0.998382568359375	0.99822998046875	5.4718017578125E-06	5.46211640539696E-06	182431.6875	7.11609682184644E-05
2	458	99.0228937499912	1.00845336914063	1.00860595703125	5.5145263671875E-06	5.56198392587248E-06	182899.84375	7.1714173827786E-05
2	459	99.123601749737	1.01852416992188	1.0186767578125	5.5389404296875E-06	5.64239007871947E-06	183911.84375	7.22707554814406E-05
2	460	99.2243097494827	1.02859497070313	1.029052734375	5.5328369140625E-06	5.69358098800876E-06	185990.078125	7.28282684576698E-05
2	461	99.3250177492284	1.03866577148438	1.0382080078125	5.4962158203125E-06	5.70621523365844E-06	188895.0625	7.33836204744875E-05
2	462	99.4257257489742	1.04873657226563	1.0491943359375	5.4351806640625E-06	5.70256042919937E-06	193037.625	7.39340612199157E-05
2	463	99.5264337487199	1.05880737304688	1.05926513671875	5.35888671875E-06	5.67648157812073E-06	197665.15625	7.44775898056105E-05
2	464	99.6271417484656	1.06887817382813	1.0687255859375	5.2734375E-06	5.63585717827664E-06	202662.046875	7.50129693187773E-05
2	465	99.7278497482114	1.07894897460938	1.07879638671875	5.18798828125E-06	5.59678301215172E-06	207941.171875	7.55397413740866E-05
2	466	99.8285577479571	1.08901977539063	1.08917236328125	5.1025390625E-06	5.55754468223313E-06	213456.9375	7.60579132474959E-05
2	467	99.9292657477029	1.09909057617188	1.0992431640625	5.023193359375E-06	5.52171104573063E-06	218833.53125	7.65677832532674E-05
2	468	100.029973747449	1.10916137695313	1.10870361328125	4.95086669921875E-06	5.48904381503235E-06	223941.3125	7.7070013503544E-05
2	469	100.130681747194	1.11923217773438	1.119384765625	4.88677978515625E-06	5.47018680663314E-06	229063.890625	7.75653825257905E-05
2	470	100.23138974694	1.12930297851563	1.129150390625	4.8297119140625E-06	5.45347120350925E-06	233792.484375	7.80546470195986E-05
2	471	100.332097746686	1.13937377929688	1.13922119140625	4.7784423828125E-06	5.44370277566486E-06	238408.484375	7.85384545451961E-05
2	472	100.432805746432	1.14944458007813	1.1492919921875	4.73419189453125E-06	5.44096883459133E-06	242764.140625	7.90174526628107E-05
2	473	100.533513746177	1.15951538085938	1.15936279296875	4.69451904296875E-06	5.44265049029491E-06	246960.9375	7.94922234490514E-05
2	474	100.634221745923	1.16958618164063	1.1688232421875	4.65972900390625E-06	5.44639942745562E-06	250835.03125	7.99632471171208E-05
2	475	100.734929745669	1.17965698242188	1.17919921875	4.6295166015625E-06	5.45912189409137E-06	254713.265625	8.04310038802214E-05
2	476	100.835637745414	1.18972778320313	1.18988037109375	4.60296630859375E-06	5.47697936781333E-06	258502.953125	8.0895893916022E-05
2	477	100.93634574516	1.19979858398438	1.199951171875	4.5794677734375E-06	5.49513742953422E-06	262028.53125	8.13582664704882E-05
2	478	101.037053744906	1.20986938476563	1.209716796875	4.55810546875E-06	5.51401672055363E-06	265399.03125	8.18183762021363E-05
2	479	101.137761744652	1.21994018554688	1.21978759765625	4.53948974609375E-06	5.53721292817499E-06	268705.90625	8.22764777694829E-05
2	480	101.238469744397	1.23001098632813	1.22955322265625	4.52239990234375E-06	5.5605310080864E-06	271880.71875	8.27327821752988E-05
2	481	101.339177744143	1.24008178710938	1.23992919921875	4.50653076171875E-06	5.58777901460417E-06	275140.5	8.31874276627786E-05
2	482	101.439885743889	1.25015258789063	1.2506103515625	4.49249267578125E-06	5.61835804546718E-06	278377.8125	8.36405597510748E-05
2	483	101.540593743635	1.26022338867188	1.26007080078125	4.47998046875E-06	5.64509264222579E-06	281267.03125	8.40923603391275E-05
2	484	101.64130174338	1.27029418945313	1.27044677734375	4.46868896484375E-06	5.67723145650234E-06	284299.65625	8.45429603941739E-05
2	485	101.742009743126	1.28036499023438	1.28021240234375	4.45770263671875E-06	5.70680640521459E-06	287191.0625	8.49924399517477E-05
2	486	101.842717742872	1.29043579101563	1.28997802734375	4.4482421875E-06	5.73813485971186E-06	289997.25	8.54408935992979E-05
2	487	101.943425742618	1.30050659179688	1.30096435546875	4.44000244140625E-06	5.77628452447243E-06	293009.84375	8.58884523040615E-05
2	488	102.044133742363	1.31057739257813	1.31072998046875	4.43328857421875E-06	5.81084395889775E-06	295656.375	8.63352543092333E-05
2	489	102.144841742109	1.32064819335938	1.32049560546875	4.4268798828125E-06	5.8456753322389E-06	298290.34375	8.67814014782198E-05
2	490	102.245549741855	1.33071899414063	1.33056640625	4.42108154296875E-06	5.88254260946997E-06	300959.5	8.72269301908091E-05
2	491	102.346257741601	1.34078979492188	1.3409423828125	4.41680908203125E-06	5.92268634136417E-06	303599.8125	8.7671956862323E-05
2	492	102.446965741346	1.35086059570313	1.351318359375	4.41375732421875E-06	5.96439122091397E-06	306160.5625	8.81166124599986E-05
2	493	102.547673741092	1.36093139648438	1.36077880859375	4.41162109375E-06	6.0032402871002E-06	308453.25	8.85609988472424E-05
2	494	102.648381740838	1.37100219726563	1.370849609375	4.41070556640625E-06	6.04641400059336E-06	310800.53125	8.9005239715334E-05
2	495	102.749089740583	1.38107299804688	1.38092041015625	4.41162109375E-06	6.09209746471606E-06	313018.8125	8.94494805834256E-05
2	496	102.849797740329	1.39114379882813	1.39129638671875	4.41497802734375E-06	6.1425425883499E-06	315131	8.9893932454288E-05
2	497	102.950505740075	1.40121459960938	1.40106201171875	4.42047119140625E-06	6.19335423834855E-06	316948.5625	9.03388354345225E-05
2	498	103.051213739821	1.41128540039063	1.41143798828125	4.4287109375E-06	6.25085067440523E-06	318701.78125	9.07844296307303E-05
2	499	103.151921739566	1.42135620117188	1.4215087890625	4.44000244140625E-06	6.31150214758236E-06	320159.46875	9.1231006081216E-05
2	500	103.252629739312	1.43142700195313	1.43157958984375	4.45648193359375E-06	6.37980838291696E-06	321235.375	9.16789795155637E-05
2	501	103.353337739058	1.44149780273438	1.44134521484375	4.476318359375E-06	6.45191994408378E-06	321993.46875	9.21287792152725E-05
2	502	103.454045738804	1.45156860351563	1.451416015625	4.50225830078125E-06	6.53464940114645E-06	322375.125	9.2580885393545E-05
2	503	103.554753738549	1.46163940429688	1.4617919921875	4.5355224609375E-06	6.62999036649126E-06	322298.5	9.30359747144394E-05
2	504	103.655461738295	1.47171020507813	1.47186279296875	4.57672119140625E-06	6.73630529490765E-06	321597.65625	9.3494811153505E-05
2	505	103.756169738041	1.48178100585938	1.48162841796875	4.62677001953125E-06	6.85515396980918E-06	320229.53125	9.39582459977828E-05
2	506	103.856877737787	1.49185180664063	1.49169921875	4.68963623046875E-06	6.99552674632287E-06	318084.21875	9.44273633649573E-05
2	507	103.957585737532	1.50192260742188	1.50146484375	4.765625E-06	7.1554181886313E-06	315061.46875	9.4903472927399E-05
2	508	104.058293737278	1.49185180664063	1.49169921875	4.539794921875E-06	6.7720079641731E-06	328582.96875	9.53720373217948E-05
2	509	104.159001737024	1.48178100585938	1.48193359375	4.373779296875E-06	6.48165041639004E-06	338822.21875	9.58208693191409E-05
2	510	104.25970973677	1.47171020507813	1.4715576171875	4.2425537109375E-06	6.24316226094379E-06	346856.5625	9.62547419476323E-05
2	511	104.360417736515	1.46163940429688	1.4617919921875	4.1351318359375E-06	6.04470233156462E-06	353505.53125	9.66765874181874E-05
2	512	104.461125736261	1.45156860351563	1.45172119140625	4.0447998046875E-06	5.87192153034266E-06	358910.5	9.70884793787263E-05
2	513	104.561833736007	1.44149780273438	1.44134521484375	3.96728515625E-06	5.71822738493211E-06	363307.71875	9.74919239524752E-05
2	514	104.662541735752	1.43142700195313	1.43096923828125	3.900146484375E-06	5.58098963665543E-06	366901.40625	9.78880780166946E-05
2	515	104.763249735498	1.42135620117188	1.4215087890625	3.84124755859375E-06	5.46036653759074E-06	370064.375	9.82778874458745E-05
2	516	104.863957735244	1.41128540039063	1.4111328125	3.78875732421875E-06	5.34643959326786E-06	372452.6875	9.86620871117339E-05
2	517	104.96466573499	1.40121459960938	1.4007568359375	3.7420654296875E-06	5.24172355653718E-06	374327.21875	9.90412954706699E-05
2	518	105.065373734735	1.39114379882813	1.3909912109375	3.69903564453125E-06	5.14532575834892E-06	376041.59375	9.94159854599275E-05
2	519	105.166081734481	1.38107299804688	1.3812255859375	3.6602783203125E-06	5.0556700443849E-06	377355.34375	9.97865572571754E-05
2	520	105.266789734227	1.37100219726563	1.3714599609375	3.6236572265625E-06	4.96970096719451E-06	378473.96875	0.000100153331004549
2	521	105.367497733973	1.36093139648438	1.361083984375	3.5894775390625E-06	4.88558043798548E-06	379187.21875	0.000100516539532691
2	522	105.468205733718	1.35086059570313	1.3507080078125	3.55743408203125E-06	4.80505468658521E-06	379686.03125	0.000100876415672246
2	523	105.568913733464	1.34078979492188	1.3409423828125	3.52691650390625E-06	4.72939154860796E-06	380202.5	0.000101233141322155
2	524	105.66962173321	1.33071899414063	1.3311767578125	3.49822998046875E-06	4.65676248495583E-06	380528.65625	0.000101586891105399
2	525	105.770329732956	1.32064819335938	1.32080078125	3.47015380859375E-06	4.58338172393269E-06	380617.375	0.000101937774161343
2	526	105.871037732701	1.31057739257813	1.3104248046875	3.4429931640625E-06	4.51178357252502E-06	380606.28125	0.000102285877801478
2	527	105.971745732447	1.30050659179688	1.30035400390625	3.4173583984375E-06	4.4437756514526E-06	380514.375	0.000102631325717084
2	528	106.072453732193	1.29043579101563	1.290283203125	3.39202880859375E-06	4.3766776798293E-06	380386.875	0.000102974205219653
2	529	106.173161731939	1.28036499023438	1.28021240234375	3.367919921875E-06	4.31165290137869E-06	380119.625	0.000103314596344717
2	530	106.273869731684	1.27029418945313	1.27044677734375	3.3441162109375E-06	4.24852169089718E-06	379905.09375	0.000103652571851853
2	531	106.37457773143	1.26022338867188	1.2603759765625	3.321533203125E-06	4.18638046539854E-06	379456.09375	0.000103988211776596
2	532	106.475285731176	1.25015258789063	1.25030517578125	3.2989501953125E-06	4.12469444199814E-06	379000.9375	0.000104321581602562
2	533	106.575993730921	1.24008178710938	1.240234375	3.27667236328125E-06	4.06384151574457E-06	378504.25	0.000104652688605711
2	534	106.676701730667	1.23001098632813	1.23016357421875	3.255615234375E-06	4.00493900087895E-06	377859.03125	0.000104981620097533
2	535	106.777409730413	1.21994018554688	1.22039794921875	3.23486328125E-06	3.94782045987085E-06	377264.15625	0.000105308441561647
2	536	106.878117730159	1.20986938476563	1.209716796875	3.21441650390625E-06	3.88853368349373E-06	376341.03125	0.000105633189377841
2	537	106.978825729904	1.19979858398438	1.19964599609375	3.19427490234375E-06	3.83199903808418E-06	375561.3125	0.000105955892649945
2	538	107.07953372965	1.18972778320313	1.1895751953125	3.175048828125E-06	3.77695914721699E-06	374663.59375	0.00010627660958562
2	539	107.180241729396	1.17965698242188	1.17950439453125	3.15582275390625E-06	3.72230670109275E-06	373754.96875	0.000106595398392528
2	540	107.280949729142	1.16958618164063	1.16973876953125	3.135986328125E-06	3.66828453479684E-06	373005.09375	0.000106912215414923
2	541	107.381657728887	1.15951538085938	1.15966796875	3.11676025390625E-06	3.61440697815851E-06	372074.8125	0.000107227060652804
2	542	107.482365728633	1.14944458007813	1.1492919921875	3.09661865234375E-06	3.5589191611507E-06	371144.1875	0.000107539934106171
2	543	107.583073728379	1.13937377929688	1.13922119140625	3.07586669921875E-06	3.5040923194174E-06	370374.0625	0.000107850741187576
2	544	107.683781728125	1.12930297851563	1.1297607421875	3.0535888671875E-06	3.44982481692568E-06	369978	0.00010815938730957
2	545	107.78448972787	1.11923217773438	1.11907958984375	3.0303955078125E-06	3.39125358550518E-06	369285	0.000108465734228957
2	546	107.885197727616	1.10916137695313	1.1090087890625	3.0035400390625E-06	3.33095204041456E-06	369233.90625	0.000108769570942968
2	547	107.985905727362	1.09909057617188	1.09954833984375	2.97332763671875E-06	3.26931740346481E-06	369803.96875	0.000109070526377764
2	548	108.086613727108	1.08901977539063	1.08917236328125	2.93731689453125E-06	3.19924424729834E-06	370805.21875	0.000109368156699929
2	549	108.187321726853	1.07894897460938	1.0791015625	2.89306640625E-06	3.12191241391702E-06	372995.8125	0.000109661734313704
2	550	108.288029726599	1.06887817382813	1.0687255859375	2.83782958984375E-06	3.03286105918232E-06	376599.65625	0.000109950313344598
2	551	108.388737726345	1.05880737304688	1.05865478515625	2.76763916015625E-06	2.92997424367059E-06	382511.875	0.000110232569568325
2	552	108.48944572609	1.04873657226563	1.04888916015625	2.67974853515625E-06	2.81075904240424E-06	391413.3125	0.000110506865894422
2	553	108.590153725836	1.03866577148438	1.03851318359375	2.56927490234375E-06	2.66822576122649E-06	404204.78125	0.000110771172330715
2	554	108.690861725582	1.02859497070313	1.02874755859375	2.4365234375E-06	2.50656739808619E-06	422219.46875	0.000111023240606301
2	555	108.791569725328	1.01852416992188	1.01837158203125	2.28363037109375E-06	2.32558409152261E-06	445944.15625	0.000111260917037725
2	556	108.892277725073	1.00845336914063	1.00830078125	2.11822509765625E-06	2.13580801755597E-06	476012.125	0.000111482564534526
2	557	108.992985724819	0.998382568359375	0.99853515625	1.954345703125E-06	1.95148277271073E-06	510930.6875	0.000111687637399882
2	558	109.093693724565	0.988311767578125	0.9881591796875	1.80511474609375E-06	1.78374068582343E-06	547421.8125	0.000111876943265088
2	559	109.194401724311	0.978240966796875	0.97808837890625	1.68548583984375E-06	1.64855407547293E-06	580300.5625	0.000112052708573174
2	560	109.295109724056	0.968170166015625	0.9686279296875	1.60064697265625E-06	1.55043130689592E-06	605147.8125	0.000112218178401235
2	561	109.395817723802	0.958099365234375	0.95855712890625	1.54693603515625E-06	1.48282651935006E-06	619648.875	0.000112376670585945
2	562	109.496525723548	0.948028564453125	0.9478759765625	1.514892578125E-06	1.43593024404254E-06	625705.0625	0.00011253084812779
2	563	109.597233723294	0.937957763671875	0.93780517578125	1.49017333984375E-06	1.39749226946151E-06	629326.25	0.000112682158942334
2	564	109.697941723039	0.927886962890625	0.92803955078125	1.46026611328125E-06	1.35518462229811E-06	635527.75	0.000112830726720858
2	565	109.798649722785	0.917816162109375	0.91827392578125	1.412353515625E-06	1.2969273939234E-06	650172.875	0.000112975380034186
2	566	109.899357722531	0.907745361328125	0.908203125	1.33514404296875E-06	1.21258199214935E-06	680228.5625	0.000113113725092262
2	567	110.000065722277	0.897674560546875	0.89813232421875	1.2158203125E-06	1.09196741959749E-06	738704.875	0.000113242174847983
2	568	110.100773722022	0.887603759765625	0.88775634765625	1.04461669921875E-06	9.27365022107551E-07	849839.375	0.000113355999928899
2	569	110.201481721768	0.877532958984375	0.877685546875	8.0902099609375E-07	7.10066046849533E-07	1084873.625	0.000113449335913174
2	570	110.302189721514	0.867462158203125	0.8673095703125	5.07507324218751E-07	4.40165933923709E-07	1708959.75	0.000113515627162997
2	571	110.402897721259	0.857391357421875	0.85784912109375	1.422119140625E-07	1.21996365010091E-07	6032188.5	0.000113548347144388
2	572	110.503605721005	0.847320556640625	0.84747314453125	-2.69775390625E-07	-2.28627385467917E-07	-3141403	0.000113541922473814
2	573	110.604313720751	0.837249755859375	0.83740234375	-7.04040527343749E-07	-5.89565217978816E-07	-1189423.5	0.000113492882519495
2	574	110.705021720497	0.827178955078125	0.82763671875	-1.1260986328125E-06	-9.32000546072231E-07	-734959.375	0.000113400732516311
2	575	110.805729720242	0.817108154296875	0.81787109375	-1.50390625E-06	-1.23000143048557E-06	-543831.1875	0.000113268295535818
2	576	110.906437719988	0.807037353515625	0.80718994140625	-1.8023681640625E-06	-1.4548534181813E-06	-447849.65625	0.000113101814349648
2	577	111.007145719734	0.796966552734375	0.797119140625	-2.0050048828125E-06	-1.59822786827135E-06	-397564.6875	0.000112910100142471
2	578	111.10785371948	0.786895751953125	0.78704833984375	-2.10662841796875E-06	-1.65801839102642E-06	-373605.65625	0.00011270306276856
2	579	111.208561719225	0.776824951171875	0.7769775390625	-2.122802734375E-06	-1.64937000590726E-06	-366014.96875	0.000112490095489193
2	580	111.309269718971	0.766754150390625	0.7672119140625	-2.0770263671875E-06	-1.59351930051344E-06	-369379.96875	0.000112278612505179
2	581	111.409977718717	0.756683349609375	0.7562255859375	-1.99462890625E-06	-1.50838934587227E-06	-379131	0.000112073590571526
2	582	111.510685718463	0.746612548828125	0.74652099609375	-1.90032958984375E-06	-1.41863586122781E-06	-392837.65625	0.000111877467134036
2	583	111.611393718208	0.736541748046875	0.736480712890625	-1.81304931640625E-06	-1.3352757832763E-06	-406211.09375	0.000111690482299309
2	584	111.712101717954	0.726470947265625	0.7264404296875	-1.74407958984375E-06	-1.26696988900221E-06	-416517.9375	0.000111511362774763
2	585	111.8128097177	0.716400146484375	0.716339111328125	-1.7041015625E-06	-1.22071458008577E-06	-420361.78125	0.000111337736598216
2	586	111.913517717446	0.706329345703125	0.70623779296875	-1.69921875E-06	-1.20005245207722E-06	-415625	0.000111166365968529
2	587	112.014225717191	0.696258544921875	0.6961669921875	-1.732177734375E-06	-1.20588492791285E-06	-401902.75	0.000110993576527108
2	588	112.114933716937	0.686187744140625	0.686126708984375	-1.7999267578125E-06	-1.23497784443316E-06	-381197.03125	0.000110815723019186
2	589	112.215641716683	0.676116943359375	0.676055908203125	-1.89483642578125E-06	-1.28101532936853E-06	-356788.53125	0.000110629676782992
2	590	112.316349716428	0.666046142578125	0.666015625	-2.0013427734375E-06	-1.33292542159325E-06	-332784.40625	0.000110433487861883
2	591	112.417057716174	0.655975341796875	0.655914306640625	-2.10296630859375E-06	-1.37936558530782E-06	-311899.59375	0.00011022682156181
2	592	112.51776571592	0.645904541015625	0.645843505859375	-2.18048095703125E-06	-1.40824931804673E-06	-296193.15625	0.000110011133074295
2	593	112.618473715666	0.635833740234375	0.635772705078125	-2.22320556640625E-06	-1.41345333304344E-06	-285971.1875	0.000109789390990045
2	594	112.719181715411	0.625762939453125	0.625732421875	-2.22747802734375E-06	-1.39380517794052E-06	-280915.1875	0.000109565276943613
2	595	112.819889715157	0.615692138671875	0.615692138671875	-2.1954345703125E-06	-1.35171171677939E-06	-280442.03125	0.000109342567157
2	596	112.920597714903	0.605621337890625	0.605560302734375	-2.13592529296875E-06	-1.2934316373503E-06	-283511.9375	0.000109124470327515
2	597	113.021305714649	0.595550537109375	0.595489501953125	-2.060546875E-06	-1.22703397664736E-06	-288995.84375	0.000108913154690526
2	598	113.122013714394	0.585479736328125	0.585418701171875	-1.976318359375E-06	-1.15697366709355E-06	-296216.8125	0.000108709886262659
2	599	113.22272171414	0.575408935546875	0.57537841796875	-1.8896484375E-06	-1.08726294456574E-06	-304489.6875	0.000108515218016692
2	600	113.323429713886	0.565338134765625	0.565338134765625	-1.80572509765625E-06	-1.02084527497937E-06	-313080.9375	0.000108329142676666
2	601	113.424137713632	0.555267333984375	0.555206298828125	-1.7254638671875E-06	-9.57988390837272E-07	-321772.21875	0.000108151332824491
2	602	113.524845713377	0.545196533203125	0.545166015625	-1.65130615234375E-06	-9.00235988865461E-07	-330142.3125	0.000107981300971005
2	603	113.625553713123	0.535125732421875	0.53515625	-1.5826416015625E-06	-8.46960517719708E-07	-338141.15625	0.000107818457763642
2	604	113.726261712869	0.525054931640625	0.52508544921875	-1.5203857421875E-06	-7.98332393969758E-07	-345363.3125	0.000107662206573877
2	605	113.826969712615	0.514984130859375	0.51495361328125	-1.46270751953125E-06	-7.532265158261E-07	-352055.09375	0.000107511994428933
2	606	113.92767771236	0.504913330078125	0.50494384765625	-1.41021728515625E-06	-7.12080520770542E-07	-358061.03125	0.000107367333839647
2	607	114.028385712106	0.494842529296875	0.49481201171875	-1.3629150390625E-06	-6.74386683385819E-07	-363054.1875	0.000107227693661116
2	608	114.129093711852	0.484771728515625	0.48468017578125	-1.31927490234375E-06	-6.39426332327275E-07	-367383.78125	0.000107092637335882
2	609	114.229801711597	0.474700927734375	0.474761962890625	-1.279296875E-06	-6.07361471338663E-07	-371111.65625	0.000106961786514148
2	610	114.330509711343	0.464630126953125	0.46453857421875	-1.2420654296875E-06	-5.76987304157228E-07	-374004.90625	0.000106834828329738
2	611	114.431217711089	0.454559326171875	0.45452880859375	-1.2078857421875E-06	-5.4901886414882E-07	-376301.1875	0.00010671146446839
2	612	114.531925710835	0.444488525390625	0.44451904296875	-1.1767578125E-06	-5.23091273407772E-07	-377748.96875	0.000106591382063925
2	613	114.63263371058	0.434417724609375	0.434417724609375	-1.14776611328125E-06	-4.9860989292938E-07	-378489.78125	0.000106474333733786
2	614	114.733341710326	0.424346923828125	0.424346923828125	-1.1212158203125E-06	-4.75784446507532E-07	-378470.34375	0.000106360086647328
2	615	114.834049710072	0.414276123046875	0.414306640625	-1.09649658203125E-06	-4.54285810747024E-07	-377845.8125	0.000106248415249866
2	616	114.934757709818	0.404205322265625	0.40423583984375	-1.07421875E-06	-4.34237705349005E-07	-376306.8125	0.000106139108538628
2	617	115.035465709563	0.394134521484375	0.394195556640625	-1.05316162109375E-06	-4.15151617971787E-07	-374297.34375	0.000106031984614674
2	618	115.136173709309	0.384063720703125	0.38409423828125	-1.033935546875E-06	-3.97128673057523E-07	-371487.625	0.000105926890682895
2	619	115.236881709055	0.373992919921875	0.37396240234375	-1.015625E-06	-3.79805555894563E-07	-368209.125	0.000105823688500095
2	620	115.337589708801	0.363922119140625	0.363983154296875	-9.9945068359375E-07	-3.63783215107105E-07	-364183.21875	0.000105722225271165
2	621	115.438297708546	0.353851318359375	0.3538818359375	-9.8388671875E-07	-3.48179639786395E-07	-359677.4375	0.000105622355476953
2	622	115.539005708292	0.343780517578125	0.343780517578125	-9.6954345703125E-07	-3.33310140376852E-07	-354579.8125	0.000105523991805967
2	623	115.639713708038	0.333709716796875	0.333770751953125	-9.5550537109375E-07	-3.18919745723178E-07	-349313.3125	0.000105427054222673
2	624	115.740421707784	0.323638916015625	0.323638916015625	-9.429931640625E-07	-3.05189274740769E-07	-343203.875	0.000105331462691538
2	625	115.841129707529	0.313568115234375	0.313629150390625	-9.3109130859375E-07	-2.92017375613796E-07	-336840.40625	0.000105237093521282
2	626	115.941837707275	0.303497314453125	0.303466796875	-9.2010498046875E-07	-2.7922132517233E-07	-329817.59375	0.000105143873952329
2	627	116.042545707021	0.293426513671875	0.29339599609375	-9.0972900390625E-07	-2.66910831214773E-07	-322509.25	0.000105051738501061
2	628	116.143253706766	0.283355712890625	0.283355712890625	-8.99658203125001E-07	-2.54923293141474E-07	-314959.3125	0.000104960628959816
2	629	116.243961706512	0.273284912109375	0.2733154296875	-8.9141845703125E-07	-2.43638424990422E-07	-306607.34375	0.000104870436189231
2	630	116.344669706258	0.263214111328125	0.263214111328125	-8.831787109375E-07	-2.3246509783803E-07	-298030.40625	0.000104781080153771
2	631	116.445377706004	0.253143310546875	0.25311279296875	-8.758544921875E-07	-2.21689973045613E-07	-288989.5625	0.000104692509921733
2	632	116.546085705749	0.243072509765625	0.24310302734375	-8.697509765625E-07	-2.11439100894495E-07	-279508.78125	0.000104604609077796
2	633	116.646793705495	0.233001708984375	0.2330322265625	-8.64562988281251E-07	-2.01471038963064E-07	-269537.59375	0.000104517275758553
2	634	116.747501705241	0.222930908203125	0.223052978515625	-8.59985351562501E-07	-1.91822294937083E-07	-259368.34375	0.000104430444480386
2	635	116.848209704987	0.212860107421875	0.212890625	-8.56933593750001E-07	-1.8243312638333E-07	-248433.046875	0.000104343984276056
2	636	116.948917704732	0.202789306640625	0.20281982421875	-8.544921875E-07	-1.73307952877622E-07	-237357.15625	0.000104257807834074
2	637	117.049625704478	0.192718505859375	0.192718505859375	-8.5357666015625E-07	-1.64500008281721E-07	-225777.625	0.000104171798739117
2	638	117.150333704224	0.182647705078125	0.182647705078125	-8.5479736328125E-07	-1.56126773731557E-07	-213673.6875	0.000104085775092244
2	639	117.25104170397	0.172576904296875	0.172637939453125	-8.575439453125E-07	-1.48044620118526E-07	-201316.734375	0.000103999554994516
2	640	117.351749703715	0.162506103515625	0.16253662109375	-8.62731933593749E-07	-1.40225523637127E-07	-188397.609375	0.000103912934719119
2	641	117.452457703461	0.152435302734375	0.152496337890625	-8.709716796875E-07	-1.32819991449651E-07	-175087.609375	0.000103825630503707
2	642	117.553165703207	0.142364501953125	0.142425537109375	-8.82568359375E-07	-1.25700267972206E-07	-161376.21875	0.000103737336758059
2	643	117.653873702953	0.132293701171875	0.1324462890625	-8.990478515625E-07	-1.19075551197056E-07	-147318.40625	0.000103647624200676
2	644	117.754581702698	0.122222900390625	0.12225341796875	-9.2193603515625E-07	-1.12709827249091E-07	-132605.09375	0.000103555932582822
2	645	117.855289702444	0.112152099609375	0.1121826171875	-9.521484375E-07	-1.06814503908481E-07	-117820.515625	0.000103461563412566
2	646	117.95599770219	0.102081298828125	0.102081298828125	-9.91210937500001E-07	-1.01184092216045E-07	-102986.4609375	0.000103363709058613
2	647	118.056705701935	0.092010498046875	0.09210205078125	-1.0430908203125E-06	-9.60708064212668E-08	-88297.25	0.000103261270851362
2	648	118.157413701681	0.081939697265625	0.082000732421875	-1.10992431640625E-06	-9.10145985244526E-08	-73879.578125	0.000103152859082911
2	649	118.258121701427	0.071868896484375	0.071929931640625	-1.19476318359375E-06	-8.59392343954823E-08	-60204.34375	0.000103036807558965
2	650	118.358829701173	0.061798095703125	0.061859130859375	-1.30218505859375E-06	-8.05520343760691E-08	-47504.1015625	0.000102911079011392
2	651	118.459537700918	0.051727294921875	0.0517578125	-1.43646240234375E-06	-7.43481507470278E-08	-36031.44140625	0.00010277317778673
2	652	118.560245700664	0.041656494140625	0.0417938232421875	-1.60247802734375E-06	-6.69736763825313E-08	-26080.748046875	0.000102620149846189
2	653	118.66095370041	0.031585693359375	0.031683349609375	-1.798095703125E-06	-5.69696929630936E-08	-17620.501953125	0.000102448917459697
2	654	118.761661700156	0.021514892578125	0.0215850830078125	-2.01751708984375E-06	-4.35482725436032E-08	-10698.8349609375	0.000102256788522936
2	655	118.862369699901	0.011444091796875	0.01158447265625	-2.2479248046875E-06	-2.60410235597419E-08	-5153.40771484375	0.000102042009530123
2	656	118.963077699647	0.001373291015625	0.00147094726562499	-2.46917724609375E-06	-3.63202934394735E-09	-595.723693847656	0.000101804478617851
2	657	119.063785699393	-0.008697509765625	-0.00859985351562501	-2.6593017578125E-06	2.28696048765187E-08	3233.87622070313	0.000101546240330208
2	658	119.164493699139	-0.018768310546875	-0.01861572265625	-2.80120849609375E-06	5.2146518214613E-08	6645.60400390625	0.000101271281891968
2	659	119.265201698884	-0.028839111328125	-0.0287017822265625	-2.8863525390625E-06	8.28434565391944E-08	9943.962890625	0.000100984892924316
2	660	119.36590969863	-0.038909912109375	-0.0387481689453125	-2.91656494140625E-06	1.13011545010977E-07	13285.5498046875	0.000100692690466531
2	661	119.466617698376	-0.048980712890625	-0.04884033203125	-2.90252685546875E-06	1.41760381211498E-07	16826.83203125	0.00010039968037745
2	662	119.567325698122	-0.059051513671875	-0.05902099609375	-2.8582763671875E-06	1.68698306879378E-07	20649.15625	0.00010010959522333
2	663	119.668033697867	-0.069122314453125	-0.069000244140625	-2.7947998046875E-06	1.9284186691948E-07	24688.796875	9.98249452095479E-05
2	664	119.768741697613	-0.079193115234375	-0.07916259765625	-2.72491455078125E-06	2.15711310147526E-07	29051.40625	9.95470036286861E-05
2	665	119.869449697359	-0.089263916015625	-0.089202880859375	-2.65411376953125E-06	2.3675460170125E-07	33609.2890625	9.92761488305405E-05
2	666	119.970157697104	-0.099334716796875	-0.0992431640625	-2.58544921875E-06	2.56588151614778E-07	38385.26953125	9.90123153314926E-05
2	667	120.07086569685	-0.109405517578125	-0.109283447265625	-2.523193359375E-06	2.75743246902493E-07	43311.56640625	9.87550738500431E-05
2	668	120.171573696596	-0.119476318359375	-0.11932373046875	-2.467041015625E-06	2.94376519605066E-07	48367.14453125	9.85037986538373E-05
2	669	120.272281696342	-0.129547119140625	-0.1295166015625	-2.41668701171875E-06	3.13001095264553E-07	53592.625	9.82578785624355E-05
2	670	120.372989696087	-0.139617919921875	-0.139495849609375	-2.371826171875E-06	3.30859904806857E-07	58813.6875	9.80167606030591E-05
2	671	120.473697695833	-0.149688720703125	-0.149627685546875	-2.3321533203125E-06	3.48954699802562E-07	64158.59765625	9.7779899078887E-05
2	672	120.574405695579	-0.159759521484375	-0.159576416015625	-2.298583984375E-06	3.66799781659211E-07	69423.796875	9.75467191892676E-05
2	673	120.675113695325	-0.169830322265625	-0.169677734375	-2.26898193359375E-06	3.84995701097068E-07	74781.4375	9.73167261690833E-05
2	674	120.77582169507	-0.179901123046875	-0.179718017578125	-2.24365234375E-06	4.03224731826413E-07	80100.65625	9.70894980127923E-05
2	675	120.876529694816	-0.189971923828125	-0.1898193359375	-2.2222900390625E-06	4.21833618702294E-07	85416.09375	9.68646199908108E-05
2	676	120.977237694562	-0.200042724609375	-0.19989013671875	-2.2052001953125E-06	4.40797776946056E-07	90644.890625	9.66416773735546E-05
2	677	121.077945694308	-0.189971923828125	-0.189849853515625	-1.97235107421875E-06	3.74450564777362E-07	96255.609375	9.64313221629709E-05
