Potential - Start -0.2 V, Upper Vertex 1.5 V, Lower Vertex -0.2 V, Stop -0.19 V; Scan - # end cross 5, Rate 0.1 Vps, Step 0.01 V 
Scan	Index	Time (s)	Potential applied (V)	WE(1).Potential (V)	WE(1).Current (A)	WE(1).Power (W)	WE(1).Resistance (Ω)	WE(1).Charge (C)
1	1	46.1842148833961	-0.189971923828125	-0.1898193359375	-2.42919921875E-07	4.61108982108271E-08	781407	0
1	2	46.2849228831418	-0.179901123046875	-0.179718017578125	-2.105712890625E-07	3.78434528158778E-08	853478.25	-2.28350955921997E-08
1	3	46.3856308828875	-0.169830322265625	-0.16961669921875	-1.8463134765625E-07	3.13165600118737E-08	918677.6875	-4.2735130989513E-08
1	4	46.4863388826333	-0.159759521484375	-0.15960693359375	-1.62658691406251E-07	2.59614552078347E-08	981238.25	-6.02225753709718E-08
1	5	46.587046882379	-0.149688720703125	-0.1495361328125	-1.42822265625001E-07	2.13570885421177E-08	1047008.625	-7.56047597860743E-08
1	6	46.6877548821248	-0.139617919921875	-0.13946533203125	-1.239013671875E-07	1.72799445863348E-08	1125615.875	-8.90353604177108E-08
1	7	46.7884628818705	-0.129547119140625	-0.12945556640625	-1.05895996093749E-07	1.37088260743212E-08	1222478.375	-1.00606577291273E-07
1	8	46.8891708816162	-0.119476318359375	-0.119354248046875	-8.75854492187494E-08	1.04536956868628E-08	1362717.75	-1.10349141380084E-07
1	9	46.989878881362	-0.109405517578125	-0.10931396484375	-6.92749023437495E-08	7.57271401141679E-09	1577973.5	-1.18247690750195E-07
1	10	47.0905868811077	-0.099334716796875	-0.099273681640625	-4.94384765624994E-08	4.90793938823231E-09	2008024.75	-1.24225380204734E-07
1	11	47.1912948808534	-0.089263916015625	-0.089141845703125	-2.62451171874997E-08	2.33953811878962E-09	3396511.75	-1.28036347746274E-07
1	12	47.2920028805992	-0.079193115234375	-0.0791015625	1.52587890625E-09	-1.20699408800995E-10	-51840000	-1.29281062299924E-07
1	13	47.3927108803449	-0.069122314453125	-0.069091796875	3.60107421875006E-08	-2.488046879634E-09	-1918644	-1.27390947568529E-07
1	14	47.4934188800906	-0.059051513671875	-0.058990478515625	8.05664062500003E-08	-4.75265071742115E-09	-732197	-1.21520827178756E-07
1	15	47.5941268798364	-0.048980712890625	-0.048809814453125	1.38244628906251E-07	-6.74769484731996E-09	-353068.4375	-1.10502810457547E-07
1	16	47.6948348795821	-0.038909912109375	-0.0387603759765625	2.1697998046875E-07	-8.4102254049867E-09	-178635.734375	-9.26158278957701E-08
1	17	47.7955428793279	-0.028839111328125	-0.0287261962890625	3.216552734375E-07	-9.23993237478271E-09	-89307.3984375	-6.54933884902675E-08
1	18	47.8962508790736	-0.018768310546875	-0.0186431884765625	4.57153320312501E-07	-8.52279580243476E-09	-40781.04296875	-2.62772648085274E-08
1	19	47.9969588788193	-0.008697509765625	-0.0085723876953125	6.2835693359375E-07	-5.38651923065459E-09	-13642.544921875	2.83825176694563E-08
1	20	48.0976668785651	0.001373291015625	0.0014801025390625	8.3526611328125E-07	1.23627941217563E-09	1772.01330566406	1.02081791908404E-07
1	21	48.1983748783108	0.011444091796875	0.0115203857421875	1.0687255859375E-06	1.2312129982206E-08	10779.5556640625	1.9795538719336E-07
1	22	48.2990828780565	0.021514892578125	0.0216033935546875	1.31317138671875E-06	2.83689569613443E-08	16451.314453125	3.17893409373937E-07
1	23	48.3997908778023	0.031585693359375	0.0316619873046875	1.5460205078125E-06	4.89500813216637E-08	20479.66796875	4.61865170109377E-07
1	24	48.500498877548	0.041656494140625	0.041778564453125	1.74346923828125E-06	7.28396400972997E-08	23962.892578125	6.27504107342247E-07
1	25	48.6012068772937	0.051727294921875	0.0517578125	1.885986328125E-06	9.76145244635518E-08	27443.365234375	8.10261724382144E-07
1	26	48.7019148770395	0.061798095703125	0.061798095703125	1.9677734375E-06	1.21604642799866E-07	31405.087890625	1.00431395821943E-06
1	27	48.8026228767852	0.071868896484375	0.07196044921875	1.99310302734375E-06	1.43424585985485E-07	36104.73046875	1.20375989354216E-06
1	28	48.903330876531	0.081939697265625	0.08197021484375	1.97479248046875E-06	1.61874154969155E-07	41508.26953125	1.40355928124336E-06
1	29	49.0040388762767	0.092010498046875	0.092071533203125	1.927490234375E-06	1.77466972672846E-07	47767.578125	1.60005481575354E-06
1	30	49.1047468760224	0.102081298828125	0.102081298828125	1.86309814453125E-06	1.90187478210646E-07	54791.15625	1.79092614871479E-06
1	31	49.2054548757682	0.112152099609375	0.11224365234375	1.7919921875E-06	2.01139741307088E-07	62636.23828125	1.97497456611018E-06
1	32	49.3061628755139	0.122222900390625	0.122283935546875	1.72149658203125E-06	2.10511373666122E-07	71033.5078125	2.1518926587305E-06
1	33	49.4068708752596	0.132293701171875	0.1324462890625	1.65313720703125E-06	2.18951882402507E-07	80118.1484375	2.32181901083095E-06
1	34	49.5075788750054	0.142364501953125	0.142486572265625	1.59088134765625E-06	2.2667921939501E-07	89564.5546875	2.48516835199553E-06
1	35	49.6082868747511	0.152435302734375	0.152435302734375	1.534423828125E-06	2.33900351531702E-07	99343.6796875	2.6425400392327E-06
1	36	49.7089948744969	0.162506103515625	0.16253662109375	1.48345947265625E-06	2.41116481447534E-07	109565.9375	2.79450250673108E-06
1	37	49.8097028742426	0.172576904296875	0.172576904296875	1.43768310546875E-06	2.481108936081E-07	120038.2109375	2.94159372060676E-06
1	38	49.9104108739883	0.182647705078125	0.18267822265625	1.39678955078125E-06	2.55163030260519E-07	130784.3515625	3.08432072415599E-06
1	39	50.0111188737341	0.192718505859375	0.192779541015625	1.35986328125E-06	2.62153832863987E-07	141763.90625	3.22312916978262E-06
1	40	50.1118268734798	0.202789306640625	0.20281982421875	1.326904296875E-06	2.69122494955809E-07	152851.890625	3.3584187804081E-06
1	41	50.2125348732255	0.212860107421875	0.212799072265625	1.297607421875E-06	2.761296400422E-07	163993.421875	3.49057336279657E-06
1	42	50.3132428729713	0.222930908203125	0.222930908203125	1.270751953125E-06	2.83289864455583E-07	175432.28125	3.6199005535309E-06
1	43	50.413950872717	0.233001708984375	0.233001708984375	1.24664306640625E-06	2.90469955643857E-07	186903.3125	3.7466613775905E-06
1	44	50.5146588724627	0.243072509765625	0.243133544921875	1.22467041015625E-06	2.97758475653609E-07	198529.78125	3.8711018532922E-06
1	45	50.6153668722085	0.253143310546875	0.253143310546875	1.204833984375E-06	3.04995666056129E-07	210106.375	3.99343707613298E-06
1	46	50.7160748719542	0.263214111328125	0.263214111328125	1.18682861328125E-06	3.123900285118E-07	221779.375	4.11386690757354E-06
1	47	50.8167828717	0.273284912109375	0.27325439453125	1.170654296875E-06	3.19886424904325E-07	233420.234375	4.23257552029099E-06
1	48	50.9174908714457	0.283355712890625	0.283416748046875	1.15570068359375E-06	3.27544910305733E-07	245233.71875	4.34971707363729E-06
1	49	51.0181988711914	0.293426513671875	0.293426513671875	1.14288330078125E-06	3.35352268621136E-07	256742.3125	4.46545982413227E-06
1	50	51.1189068709372	0.303497314453125	0.303466796875	1.13037109375E-06	3.43030080784956E-07	268466.53125	4.57992746305536E-06
1	51	51.2196148706829	0.313568115234375	0.3135986328125	1.11968994140625E-06	3.51133252252112E-07	280076.3125	4.69322685603402E-06
1	52	51.3203228704286	0.323638916015625	0.32366943359375	1.10931396484375E-06	3.59051028908652E-07	291774.40625	4.80546623293776E-06
1	53	51.4210308701744	0.333709716796875	0.333740234375	1.10076904296875E-06	3.67370915910215E-07	303188.25	4.91675245939405E-06
1	54	51.5217388699201	0.343780517578125	0.34381103515625	1.092529296875E-06	3.75623613990683E-07	314692.75	5.02719422001974E-06
1	55	51.6224468696659	0.353851318359375	0.35382080078125	1.08489990234375E-06	3.83860140118486E-07	326132.21875	5.13683608005522E-06
1	56	51.7231548694116	0.363922119140625	0.36395263671875	1.07879638671875E-06	3.92630767009905E-07	337369.1875	5.2457871788647E-06
1	57	51.8238628691573	0.373992919921875	0.373992919921875	1.07421875E-06	4.01750213541163E-07	348153.40625	5.35419985681074E-06
1	58	51.9245708689031	0.384063720703125	0.384063720703125	1.0699462890625E-06	4.10927555094531E-07	358956.09375	5.46216733710025E-06
1	59	52.0252788686488	0.394134521484375	0.394134521484375	1.0662841796875E-06	4.20259425482072E-07	369633.65625	5.56973509446834E-06
1	60	52.1259868683945	0.404205322265625	0.404266357421875	1.06353759765625E-06	4.29952450531346E-07	380114.8125	5.6769799812173E-06
1	61	52.2266948681403	0.414276123046875	0.414337158203125	1.0614013671875E-06	4.39778006011693E-07	390368.03125	5.78397930439678E-06
1	62	52.327402867886	0.424346923828125	0.424346923828125	1.06048583984375E-06	4.50013885711087E-07	400143.875	5.89082492297166E-06
1	63	52.4281108676317	0.434417724609375	0.434417724609375	1.0601806640625E-06	4.60561295767548E-07	409758.1875	5.99760869590682E-06
1	64	52.5288188673775	0.444488525390625	0.444488525390625	1.05926513671875E-06	4.7083116783142E-07	419619.75	6.10433153269696E-06
1	65	52.6295268671232	0.454559326171875	0.45458984375	1.05865478515625E-06	4.81253721318353E-07	429403.28125	6.21097706243745E-06
1	66	52.730234866869	0.464630126953125	0.464599609375	1.0589599609375E-06	4.91992352635862E-07	438732	6.31760758551536E-06
1	67	52.8309428666147	0.474700927734375	0.474761962890625	1.0601806640625E-06	5.03333467349876E-07	447812.3125	6.42431450614822E-06
1	68	52.9316508663604	0.484771728515625	0.484771728515625	1.06170654296875E-06	5.14685268626636E-07	456596.75	6.5311601247231E-06
1	69	53.0323588661062	0.494842529296875	0.494842529296875	1.064453125E-06	5.26736641859316E-07	464879.625	6.63822083879495E-06
1	70	53.1330668658519	0.504913330078125	0.50482177734375	1.06842041015625E-06	5.39361849405395E-07	472493.59375	6.74561943014851E-06
1	71	53.2337748655976	0.514984130859375	0.514923095703125	1.07452392578125E-06	5.53297184069379E-07	479210.46875	6.85352551954566E-06
1	72	53.3344828653434	0.525054931640625	0.525054931640625	1.08184814453125E-06	5.68029690839467E-07	485331.4375	6.96210736350622E-06
1	73	53.4351908650891	0.535125732421875	0.535125732421875	1.0919189453125E-06	5.84313909257617E-07	490078.28125	7.07156505086459E-06
1	74	53.5358988648348	0.545196533203125	0.54522705078125	1.10565185546875E-06	6.02831278229132E-07	493127.28125	7.1822214522399E-06
1	75	53.6366068645806	0.555267333984375	0.555267333984375	1.12518310546875E-06	6.24777385382913E-07	493490.65625	7.29455314285588E-06
1	76	53.7373148643263	0.565338134765625	0.5653076171875	1.1517333984375E-06	6.51083666980412E-07	490832	7.40920495445607E-06
1	77	53.8380228640721	0.575408935546875	0.57537841796875	1.190185546875E-06	6.84807105244545E-07	483435.875	7.52713003748795E-06
1	78	53.9387308638178	0.585479736328125	0.585479736328125	1.2457275390625E-06	7.29348187178402E-07	469990.21875	7.64978813094785E-06
1	79	54.0394388635635	0.595550537109375	0.595489501953125	1.32720947265625E-06	7.90339299783227E-07	448677.84375	7.77934565121541E-06
1	80	54.1401468633093	0.605621337890625	0.6055908203125	1.44439697265625E-06	8.74713521170634E-07	419268.96875	7.91890670370776E-06
1	81	54.240854863055	0.615692138671875	0.61572265625	1.6082763671875E-06	9.90252146948478E-07	382846.3125	8.07262131274911E-06
1	82	54.3415628628007	0.625762939453125	0.625762939453125	1.83258056640625E-06	1.14676095108734E-06	341465.4375	8.24588187242625E-06
1	83	54.4422708625465	0.635833740234375	0.635772705078125	2.13104248046875E-06	1.35485868213436E-06	298338.8125	8.44546684675151E-06
1	84	54.5429788622922	0.645904541015625	0.645843505859375	2.5115966796875E-06	1.62209835252725E-06	257144.59375	8.67924154590582E-06
1	85	54.643686862038	0.655975341796875	0.65594482421875	2.97515869140625E-06	1.95153984350327E-06	220473.90625	8.95552238944219E-06
1	86	54.7443948617837	0.666046142578125	0.666015625	3.51165771484375E-06	2.33881883104914E-06	189658.46875	9.28215922613163E-06
1	87	54.8451028615294	0.676116943359375	0.676055908203125	4.09393310546875E-06	2.76772766483191E-06	165136.046875	9.66513107414357E-06
1	88	54.9458108612752	0.686187744140625	0.686187744140625	4.6844482421875E-06	3.21441075357143E-06	146482.09375	1.01071573226363E-05
1	89	55.0465188610209	0.696258544921875	0.6961669921875	5.2398681640625E-06	3.6478231777437E-06	132859.640625	1.06068864624831E-05
1	90	55.1472268607666	0.706329345703125	0.70623779296875	5.706787109375E-06	4.03034846385708E-06	123754.015625	1.11580948214396E-05
1	91	55.2479348605124	0.716400146484375	0.71624755859375	6.048583984375E-06	4.33228342444636E-06	118415.7421875	1.17500248961733E-05
1	92	55.3486428602581	0.726470947265625	0.726287841796875	6.243896484375E-06	4.53486609330866E-06	116319.65625	1.23689997053589E-05
1	93	55.4493508600038	0.736541748046875	0.73638916015625	6.2896728515625E-06	4.63164678876637E-06	117079.0859375	1.30001153593184E-05
1	94	55.5500588597496	0.746612548828125	0.7464599609375	6.2164306640625E-06	4.64031654701103E-06	120078.5546875	1.36298476718366E-05
1	95	55.6507668594953	0.756683349609375	0.75714111328125	6.060791015625E-06	4.58887370768934E-06	124924.4765625	1.42480548674939E-05
1	96	55.7514748592411	0.766754150390625	0.7666015625	5.859375E-06	4.49180606665323E-06	130833.3359375	1.48482831718866E-05
1	97	55.8521828589868	0.776824951171875	0.7769775390625	5.6427001953125E-06	4.38425149695831E-06	137696.046875	1.54274584929226E-05
1	98	55.9528908587325	0.786895751953125	0.7867431640625	5.43212890625E-06	4.27369013777934E-06	144831.46875	1.59851206262829E-05
1	99	56.0535988584783	0.796966552734375	0.79742431640625	5.2337646484375E-06	4.17353112425189E-06	152361.515625	1.65221899806056E-05
1	100	56.154306858224	0.807037353515625	0.8074951171875	5.0537109375E-06	4.08084679293097E-06	159782.609375	1.70402054209262E-05
1	101	56.2550148579697	0.817108154296875	0.8172607421875	4.89349365234375E-06	3.99926011596108E-06	167009.671875	1.75410878000548E-05
1	102	56.3557228577155	0.827178955078125	0.82733154296875	4.75250244140625E-06	3.93189520764281E-06	174083.359375	1.80268016265472E-05
1	103	56.4564308574612	0.837249755859375	0.83740234375	4.630126953125E-06	3.87727914130664E-06	180859.46875	1.84992550202878E-05
1	104	56.557138857207	0.847320556640625	0.84716796875	4.52392578125E-06	3.83252518076915E-06	187263.890625	1.89601978490828E-05
1	105	56.6578468569527	0.857391357421875	0.85723876953125	4.4329833984375E-06	3.80012511413952E-06	193377.40625	1.94112144527026E-05
1	106	56.7585548566984	0.867462158203125	0.867919921875	4.35516357421875E-06	3.77993319489178E-06	199285.265625	1.9853732737829E-05
1	107	56.8592628564442	0.877532958984375	0.87738037109375	4.2901611328125E-06	3.76410321223375E-06	204509.890625	2.02890587388538E-05
1	108	56.9599708561899	0.887603759765625	0.88775634765625	4.2376708984375E-06	3.76201933249831E-06	209491.578125	2.07184693863383E-05
1	109	57.0606788559356	0.897674560546875	0.89752197265625	4.19921875E-06	3.76889079234388E-06	213735.484375	2.1143301637494E-05
1	110	57.1613868556814	0.907745361328125	0.90789794921875	4.17877197265625E-06	3.79389871341118E-06	217264.296875	2.15651671169326E-05
1	111	57.2620948554271	0.917816162109375	0.91766357421875	4.18182373046875E-06	3.83750693799811E-06	219441.015625	2.19861558434786E-05
1	112	57.3628028551728	0.927886962890625	0.9283447265625	4.21539306640625E-06	3.91333787774784E-06	220227.328125	2.24089890252799E-05
1	113	57.4635108549186	0.937957763671875	0.9381103515625	4.29107666015625E-06	4.02550313083339E-06	218618.890625	2.28373246500269E-05
1	114	57.5642188546643	0.948028564453125	0.9478759765625	4.4171142578125E-06	4.18687659475836E-06	214591.6875	2.32758156926138E-05
1	115	57.6649268544101	0.958099365234375	0.95733642578125	4.60601806640625E-06	4.40950907432125E-06	207844.6875	2.37301665038103E-05
1	116	57.7656348541558	0.968170166015625	0.96832275390625	4.86846923828125E-06	4.71424937131815E-06	198896.765625	2.42072455876041E-05
1	117	57.8663428539015	0.978240966796875	0.97808837890625	5.206298828125E-06	5.0922203627124E-06	187866.359375	2.47145508183166E-05
1	118	57.9670508536473	0.988311767578125	0.98846435546875	5.6060791015625E-06	5.54140933672898E-06	176320.09375	2.52589961746708E-05
1	119	58.067758853393	0.998382568359375	0.99884033203125	6.0638427734375E-06	6.05681043452932E-06	164720.6875	2.58466243394651E-05
1	120	58.1684668531387	1.00845336914063	1.0089111328125	6.549072265625E-06	6.60743171465583E-06	154054.0625	2.64817354036495E-05
1	121	58.2691748528845	1.01852416992188	1.01806640625	7.0281982421875E-06	7.15517217031447E-06	144854.546875	2.71654043899616E-05
1	122	58.3698828526302	1.02859497070313	1.029052734375	7.45849609375E-06	7.67518577049486E-06	137970.546875	2.78948682534974E-05
1	123	58.4705908523759	1.03866577148438	1.03851318359375	7.80029296875E-06	8.10070741863456E-06	133137.71875	2.86632093775552E-05
1	124	58.5712988521217	1.04873657226563	1.048583984375	8.026123046875E-06	8.4160637925379E-06	130646.3984375	2.94601322821109E-05
1	125	58.6720068518674	1.05880737304688	1.05865478515625	8.123779296875E-06	8.6002783064032E-06	130315.546875	3.02733442367753E-05
1	126	58.7727148516132	1.06887817382813	1.06903076171875	8.099365234375E-06	8.65847050590673E-06	131989.453125	3.10902432829607E-05
1	127	58.8734228513589	1.07894897460938	1.0791015625	7.9864501953125E-06	8.61819080455462E-06	135116.546875	3.19002283504233E-05
1	128	58.9741308511046	1.08901977539063	1.08917236328125	7.8125E-06	8.50915876071667E-06	139414.078125	3.26957706420217E-05
1	129	59.0748388508504	1.09909057617188	1.09893798828125	7.611083984375E-06	8.36410890769912E-06	144386.53125	3.34724099957384E-05
1	130	59.1755468505961	1.10916137695313	1.10931396484375	7.403564453125E-06	8.21287721919362E-06	149835.125	3.4228458389407E-05
1	131	59.2762548503418	1.11923217773438	1.119384765625	7.2021484375E-06	8.06197567726485E-06	155423.734375	3.49639121850487E-05
1	132	59.3769628500876	1.12930297851563	1.13006591796875	7.0159912109375E-06	7.92853188613662E-06	161070.046875	3.56798518623691E-05
1	133	59.4776708498333	1.13937377929688	1.1395263671875	6.8450927734375E-06	7.80016398493899E-06	166473.46875	3.63778126484249E-05
1	134	59.5783788495791	1.14944458007813	1.14959716796875	6.6864013671875E-06	7.68666814110475E-06	171930.625	3.70591769751627E-05
1	135	59.6790868493248	1.15951538085938	1.15936279296875	6.5460205078125E-06	7.58921260057832E-06	177109.5625	3.7725483707618E-05
1	136	59.7797948490705	1.16958618164063	1.16943359375	6.4208984375E-06	7.5088141784363E-06	182129.28125	3.83784208679572E-05
1	137	59.8805028488163	1.17965698242188	1.1798095703125	6.3079833984375E-06	7.44221915738308E-06	187034.359375	3.9019370888127E-05
1	138	59.981210848562	1.18972778320313	1.1895751953125	6.207275390625E-06	7.38402104616398E-06	191642.078125	3.96495634049643E-05
1	139	60.0819188483077	1.19979858398438	1.1993408203125	6.11572265625E-06	7.3348355726921E-06	196107.796875	4.02700752601959E-05
1	140	60.1826268480535	1.20986938476563	1.21002197265625	6.0333251953125E-06	7.30045576347038E-06	200556.40625	4.08818305004388E-05
1	141	60.2833348477992	1.21994018554688	1.2200927734375	5.95703125E-06	7.26813050277997E-06	204815.578125	4.14855931012426E-05
1	142	60.3840428475449	1.23001098632813	1.22955322265625	5.889892578125E-06	7.24193614587421E-06	208756.484375	4.20821306761354E-05
1	143	60.4847508472907	1.24008178710938	1.240234375	5.828857421875E-06	7.22914910511463E-06	212774.875	4.26722181146033E-05
1	144	60.5854588470364	1.25015258789063	1.24969482421875	5.77392578125E-06	7.21564492778271E-06	216437.640625	4.3256462959107E-05
1	145	60.6861668467822	1.26022338867188	1.26007080078125	5.7220458984375E-06	7.21018295735121E-06	220213.328125	4.38353308709338E-05
1	146	60.7868748465279	1.27029418945313	1.2701416015625	5.67626953125E-06	7.2096654548659E-06	223763.453125	4.44092838733923E-05
1	147	60.8875828462736	1.28036499023438	1.2799072265625	5.6365966796875E-06	7.21432070349692E-06	227070.921875	4.49789295089431E-05
1	148	60.9882908460194	1.29043579101563	1.29058837890625	5.596923828125E-06	7.22332424629712E-06	230588.890625	4.55445842817426E-05
1	149	61.0889988457651	1.30050659179688	1.30096435546875	5.5633544921875E-06	7.2377260948997E-06	233845.3125	4.61065465060528E-05
1	150	61.1897068455108	1.31057739257813	1.31011962890625	5.535888671875E-06	7.25267636880744E-06	236659.3125	4.66654382762499E-05
1	151	61.2904148452566	1.32064819335938	1.3201904296875	5.5084228515625E-06	7.27216729501379E-06	239667.59375	4.72215651825536E-05
1	152	61.3911228450023	1.33071899414063	1.33087158203125	5.487060546875E-06	7.30257261238876E-06	242547.296875	4.77752328151837E-05
1	153	61.4918308447481	1.34078979492188	1.34063720703125	5.46875E-06	7.33160959498491E-06	245145.09375	4.83268995594699E-05
1	154	61.5925388444938	1.35086059570313	1.35101318359375	5.4534912109375E-06	7.36773836251814E-06	247733.625	4.88768782815896E-05
1	155	61.6932468442395	1.36093139648438	1.3604736328125	5.4443359375E-06	7.40687528377748E-06	249887.90625	4.94256273668725E-05
1	156	61.7939548439853	1.37100219726563	1.37115478515625	5.4351806640625E-06	7.45247371014557E-06	252274.015625	4.99734560435172E-05
1	157	61.894662843731	1.38107299804688	1.38092041015625	5.4290771484375E-06	7.49712353353971E-06	254356.375	5.05205134686548E-05
1	158	61.9953708434767	1.39114379882813	1.3909912109375	5.426025390625E-06	7.54755365051096E-06	256355.453125	5.10671125084627E-05
1	159	62.0960788432225	1.40121459960938	1.4013671875	5.426025390625E-06	7.60385410103481E-06	258267.71875	5.1613555115182E-05
1	160	62.1967868429682	1.41128540039063	1.41143798828125	5.426025390625E-06	7.65849836170673E-06	260123.734375	5.216000135988E-05
1	161	62.2974948427139	1.42135620117188	1.4215087890625	5.4290771484375E-06	7.71748091210611E-06	261832.484375	5.27065967617091E-05
1	162	62.3982028424597	1.43142700195313	1.4312744140625	5.4351806640625E-06	7.77923469286179E-06	263335.21875	5.32536578248255E-05
1	163	62.4989108422054	1.44149780273438	1.4410400390625	5.4473876953125E-06	7.84990334068425E-06	264537.8125	5.38016392965801E-05
1	164	62.5996188419512	1.45156860351563	1.451416015625	5.4656982421875E-06	7.93300205259584E-06	265549.96875	5.43511559953913E-05
1	165	62.7003268416969	1.46163940429688	1.46148681640625	5.4901123046875E-06	8.02372596808709E-06	266203.46875	5.49028227396775E-05
1	166	62.8010348414426	1.47171020507813	1.47186279296875	5.5267333984375E-06	8.13459337223321E-06	266316.96875	5.54575672140345E-05
1	167	62.9017428411884	1.48178100585938	1.48162841796875	5.57861328125E-06	8.26543146104086E-06	265590.8125	5.60167645744514E-05
1	168	63.0024508409341	1.49185180664063	1.49200439453125	5.6427001953125E-06	8.41893324832199E-06	264413.1875	5.65818045288324E-05
1	169	63.1031588406798	1.50192260742188	1.50177001953125	5.72509765625E-06	8.59777992445743E-06	262313.4375	5.71542186662555E-05
1	170	63.2038668404256	1.49185180664063	1.49200439453125	5.413818359375E-06	8.0774407251738E-06	275591.90625	5.77151040488388E-05
1	171	63.3045748401713	1.48178100585938	1.48162841796875	5.1849365234375E-06	7.68214886193164E-06	285756.3125	5.82487955398392E-05
1	172	63.405282839917	1.47171020507813	1.47186279296875	4.998779296875E-06	7.35751746105962E-06	294444.4375	5.87615868425928E-05
1	173	63.5059908396628	1.46163940429688	1.46148681640625	4.84161376953125E-06	7.0759547270427E-06	301859.4375	5.92570904700551E-05
1	174	63.6066988394085	1.45156860351563	1.4520263671875	4.71160888671875E-06	6.84138012729818E-06	308180.59375	5.97381331317592E-05
1	175	63.7074068391543	1.44149780273438	1.44134521484375	4.599609375E-06	6.62962474962114E-06	313362.53125	6.02069885644596E-05
1	176	63.8081148389	1.43142700195313	1.4312744140625	4.50286865234375E-06	6.44484089207253E-06	317858.34375	6.06653375143651E-05
1	177	63.9088228386457	1.42135620117188	1.4215087890625	4.4183349609375E-06	6.28070165475947E-06	321729.53125	6.1114551499486E-05
1	178	64.0095308383915	1.41128540039063	1.4111328125	4.34356689453125E-06	6.12934945820598E-06	324878.8125	6.15557510172948E-05
1	179	64.1102388381372	1.40121459960938	1.40106201171875	4.27642822265625E-06	5.99154100200394E-06	327624.34375	6.19898055447266E-05
1	180	64.2109468378829	1.39114379882813	1.3909912109375	4.21600341796875E-06	5.86442320127389E-06	329931.25	6.24174281256273E-05
1	181	64.3116548376287	1.38107299804688	1.38092041015625	4.16107177734375E-06	5.74610839976231E-06	331866.53125	6.28392517683096E-05
1	182	64.4123628373744	1.37100219726563	1.370849609375	4.11102294921875E-06	5.63559433430783E-06	333457.0625	6.32557785138488E-05
1	183	64.5130708371202	1.36093139648438	1.36077880859375	4.06524658203125E-06	5.53190147911664E-06	334734.625	6.36674885754474E-05
1	184	64.6137788368659	1.35086059570313	1.3507080078125	4.02252197265625E-06	5.43325222679414E-06	335786.375	6.40747384750284E-05
1	185	64.7144868366116	1.34078979492188	1.341552734375	3.98284912109375E-06	5.3432022468769E-06	336832.40625	6.44778410787694E-05
1	186	64.8151948363574	1.33071899414063	1.33087158203125	3.94500732421875E-06	5.2502982725855E-06	337355.90625	6.48770437692292E-05
1	187	64.9159028361031	1.32064819335938	1.32080078125	3.90289306640625E-06	5.15494366482017E-06	338415.84375	6.52722155791707E-05
1	188	65.0166108358488	1.31057739257813	1.3104248046875	4.1943359375E-06	5.49636160940281E-06	312427.25	6.56799456919543E-05
1	189	65.1173188355946	1.30050659179688	1.3006591796875	4.70977783203125E-06	6.12581561654224E-06	276161.46875	6.61283047520556E-05
1	190	65.2180268353403	1.29043579101563	1.290283203125	4.88128662109375E-06	6.29824216957786E-06	264332.59375	6.66112537146546E-05
1	191	65.318734835086	1.28036499023438	1.280517578125	4.89715576171875E-06	6.27089366389555E-06	261481.90625	6.71036323183216E-05
1	192	65.4194428348318	1.27029418945313	1.2701416015625	4.8541259765625E-06	6.16542729403591E-06	261662.265625	6.75946503179148E-05
1	193	65.5201508345775	1.26022338867188	1.26007080078125	4.78790283203125E-06	6.0330962696753E-06	263178.03125	6.80801676935516E-05
1	194	65.6208588343233	1.25015258789063	1.25	4.71405029296875E-06	5.8925625125994E-06	265164.75	6.85586273903027E-05
1	195	65.721566834069	1.24008178710938	1.240234375	4.63836669921875E-06	5.75266176383593E-06	267386.03125	6.90295564709231E-05
1	196	65.8222748338147	1.23001098632813	1.2298583984375	4.56390380859375E-06	5.61295519219129E-06	269475.09375	6.94929258315824E-05
1	197	65.9229828335605	1.21994018554688	1.2200927734375	4.4921875E-06	5.48088564755744E-06	271603.25	6.99489391990937E-05
1	198	66.0236908333062	1.20986938476563	1.209716796875	4.4232177734375E-06	5.35084109287709E-06	273492.46875	7.03978657838888E-05
1	199	66.1243988330519	1.19979858398438	1.19964599609375	4.35699462890625E-06	5.22685104442644E-06	275337.96875	7.08399820723571E-05
1	200	66.2251068327977	1.18972778320313	1.190185546875	4.29351806640625E-06	5.11008329340257E-06	277205.21875	7.12755718268454E-05
1	201	66.3258148325434	1.17965698242188	1.17950439453125	4.232177734375E-06	4.99187217428698E-06	278699.15625	7.17048751539551E-05
1	202	66.4265228322892	1.16958618164063	1.16973876953125	4.17144775390625E-06	4.87950364913559E-06	280415.5625	7.21280302968808E-05
1	203	66.5272308320349	1.15951538085938	1.15966796875	4.110107421875E-06	4.76636023449828E-06	282150.28125	7.25450372556224E-05
1	204	66.6279388317806	1.14944458007813	1.1492919921875	4.0460205078125E-06	4.65005905425642E-06	284054.90625	7.29557359591126E-05
1	205	66.7286468315264	1.13937377929688	1.13922119140625	3.9776611328125E-06	4.53143547929358E-06	286404.8125	7.3359755333513E-05
1	206	66.8293548312721	1.12930297851563	1.129150390625	3.90045166015625E-06	4.40419671576819E-06	289492.21875	7.37564550945535E-05
1	207	66.9300628310178	1.11923217773438	1.1187744140625	3.81103515625E-06	4.26368842454394E-06	293561.84375	7.41447584005073E-05
1	208	67.0307708307636	1.10916137695313	1.10931396484375	3.70269775390625E-06	4.10745451517869E-06	299596.15625	7.45231009204872E-05
1	209	67.1314788305093	1.09909057617188	1.099853515625	3.5675048828125E-06	3.9237324926944E-06	308297.6875	7.48891907278448E-05
1	210	67.232186830255	1.08901977539063	1.0888671875	3.39447021484375E-06	3.69612735084957E-06	320776.78125	7.52397536416538E-05
1	211	67.3328948300008	1.07894897460938	1.07879638671875	3.17138671875E-06	3.42128055308422E-06	340165.53125	7.55703658796847E-05
1	212	67.4336028297465	1.06887817382813	1.0687255859375	2.88543701171875E-06	3.08374023916258E-06	370386.03125	7.58753521949984E-05
1	213	67.5343108294923	1.05880737304688	1.05865478515625	2.5274658203125E-06	2.67571363110619E-06	418860.1875	7.61479168431833E-05
1	214	67.635018829238	1.04873657226563	1.0479736328125	2.0947265625E-06	2.19521825783886E-06	500291.375	7.63806601753458E-05
1	215	67.7357268289837	1.03866577148438	1.0382080078125	1.59423828125E-06	1.65515086791856E-06	651225.125	7.65664153732359E-05
1	216	67.8364348287295	1.02859497070313	1.0284423828125	1.0479736328125E-06	1.07778043911821E-06	981362.875	7.66994635341689E-05
1	217	67.9371428284752	1.01852416992188	1.01837158203125	4.89196777343751E-07	4.98184135722113E-07	2081721.75	7.67768651712686E-05
1	218	68.0378508282209	1.00845336914063	1.00860595703125	-4.39453125000003E-08	-4.43235030900269E-08	-22951388	7.67992823966779E-05
1	219	68.1385588279667	0.998382568359375	0.99884033203125	-5.04150390624999E-07	-5.03565729559341E-07	-1981235	7.67716846894473E-05
1	220	68.2392668277124	0.988311767578125	0.98846435546875	-8.58154296874999E-07	-8.48254956054006E-07	-1151849.25	7.67030869610608E-05
1	221	68.3399748274581	0.978240966796875	0.97869873046875	-1.083984375E-06	-1.06089407836407E-06	-902871.6875	7.66052908147685E-05
1	222	68.4406828272039	0.968170166015625	0.96832275390625	-1.18011474609375E-06	-1.14273200324533E-06	-820532.75	7.64912838349119E-05
1	223	68.5413908269496	0.958099365234375	0.958251953125	-1.16241455078125E-06	-1.11388590084971E-06	-824363.375	7.63733332860284E-05
1	224	68.6420988266954	0.948028564453125	0.94818115234375	-1.0626220703125E-06	-1.00755812582065E-06	-892303.3125	7.62612908147275E-05
1	225	68.7428068264411	0.937957763671875	0.9381103515625	-9.11560058593749E-07	-8.55143923672586E-07	-1029126.25	7.61618866818026E-05
1	226	68.8435148261868	0.927886962890625	0.92803955078125	-7.3516845703125E-07	-6.82265408613603E-07	-1262349.5	7.60789625928737E-05
1	227	68.9442228259326	0.917816162109375	0.91796875	-5.51757812500001E-07	-5.06496405705548E-07	-1663716.875	7.60141629143618E-05
1	228	69.0449308256783	0.907745361328125	0.90789794921875	-3.77502441406249E-07	-3.42733670777307E-07	-2405012.25	7.5967371230945E-05
1	229	69.145638825424	0.897674560546875	0.89752197265625	-2.18811035156249E-07	-1.96387702544598E-07	-4101813.25	7.59373433538713E-05
1	230	69.2463468251698	0.887603759765625	0.88775634765625	-7.65991210937497E-08	-6.80013556575432E-08	-11589641	7.59224712965079E-05
1	231	69.3470548249155	0.877532958984375	0.87677001953125	5.00488281250003E-08	4.38813110292813E-08	17518294	7.59211325203069E-05
1	232	69.4477628246613	0.867462158203125	0.86761474609375	1.617431640625E-07	1.40330755016294E-07	5364151	7.59317990741692E-05
1	233	69.548470824407	0.857391357421875	0.858154296875	2.5909423828125E-07	2.22342833922085E-07	3312132	7.59529866627418E-05
1	234	69.6491788241527	0.847320556640625	0.84808349609375	3.4210205078125E-07	2.90131112024028E-07	2479036.5	7.59832619223744E-05
1	235	69.7498868238985	0.837249755859375	0.8380126953125	4.12902832031251E-07	3.46017827723699E-07	2029563.875	7.60212788009085E-05
1	236	69.8505948236442	0.827178955078125	0.82733154296875	4.718017578125E-07	3.90336452937845E-07	1753557.625	7.60658222134225E-05
1	237	69.9513028233899	0.817108154296875	0.81756591796875	5.18798828125E-07	4.24152204914208E-07	1575882.5	7.61157061788253E-05
1	238	70.0520108231357	0.807037353515625	0.80718994140625	5.5206298828125E-07	4.4561969048118E-07	1462133.75	7.61696283007041E-05
1	239	70.1527188228814	0.796966552734375	0.79681396484375	5.682373046875E-07	4.52779403303794E-07	1402255.75	7.62260388000868E-05
1	240	70.2534268226271	0.786895751953125	0.78643798828125	5.6182861328125E-07	4.41843354792582E-07	1399782.75	7.62829440645874E-05
1	241	70.3541348223729	0.776824951171875	0.77667236328125	5.27038574218749E-07	4.09336280426942E-07	1473653.875	7.63377684052102E-05
1	242	70.4548428221186	0.766754150390625	0.7666015625	4.534912109375E-07	3.47647073795088E-07	1690444.25	7.63871430535801E-05
1	243	70.5555508218644	0.756683349609375	0.7568359375	3.28674316406249E-07	2.48752513698491E-07	2302692.75	7.64265278121457E-05
1	244	70.6562588216101	0.746612548828125	0.7464599609375	1.39465332031249E-07	1.04105282616729E-07	5352297.5	7.64501019148156E-05
1	245	70.7569668213558	0.736541748046875	0.736419677734375	-1.2939453125E-07	-9.52886693994515E-08	-5691274	7.64506112318486E-05
1	246	70.8576748211016	0.726470947265625	0.726409912109375	-4.8492431640625E-07	-3.52253834989824E-07	-1497986.125	7.64196738600731E-05
1	247	70.9583828208473	0.716400146484375	0.71630859375	-9.29870605468749E-07	-6.66074299715547E-07	-770331.5	7.63484349590726E-05
1	248	71.059090820593	0.706329345703125	0.706298828125	-1.45294189453125E-06	-1.02621118003299E-06	-486116.375	7.62284544180147E-05
1	249	71.1597988203388	0.696258544921875	0.69622802734375	-2.02880859375E-06	-1.41251337026915E-06	-343170.90625	7.60531329433434E-05
1	250	71.2605068200845	0.686187744140625	0.68609619140625	-2.6153564453125E-06	-1.79438609393401E-06	-262333.71875	7.58192836656235E-05
1	251	71.3612148198303	0.676116943359375	0.676025390625	-3.16741943359375E-06	-2.14125589081959E-06	-213430.96875	7.55280925659463E-05
1	252	71.461922819576	0.666046142578125	0.66595458984375	-3.6346435546875E-06	-2.4205075987993E-06	-183224.1875	7.51855841372162E-05
1	253	71.5626308193217	0.655975341796875	0.65594482421875	-3.97705078125E-06	-2.60872593571548E-06	-164932.484375	7.48023012420163E-05
1	254	71.6633388190675	0.645904541015625	0.645843505859375	-4.166259765625E-06	-2.69075167125266E-06	-155017.578125	7.43922573747113E-05
1	255	71.7640468188132	0.635833740234375	0.635772705078125	-4.2047119140625E-06	-2.67324094238575E-06	-151204.828125	7.39707465982065E-05
1	256	71.8647548185589	0.625762939453125	0.625732421875	-4.11712646484375E-06	-2.57621945820574E-06	-151982.796875	7.35517023713328E-05
1	257	71.9654628183047	0.615692138671875	0.61566162109375	-3.94317626953125E-06	-2.4276621388708E-06	-156133.4375	7.31458349036984E-05
1	258	72.0661708180504	0.605621337890625	0.6055908203125	-3.72100830078125E-06	-2.25340841097932E-06	-162749.125	7.27599181118421E-05
1	259	72.1668788177961	0.595550537109375	0.59552001953125	-3.4832763671875E-06	-2.07436073651479E-06	-170965.484375	7.23971534171142E-05
1	260	72.2675868175419	0.585479736328125	0.58551025390625	-3.248291015625E-06	-1.90190769444598E-06	-180251.78125	7.20581883797422E-05
1	261	72.3682948172876	0.575408935546875	0.575408935546875	-3.02703857421875E-06	-1.74178501310962E-06	-190089.734375	7.17422008165158E-05
1	262	72.4690028170334	0.565338134765625	0.565338134765625	-2.8240966796875E-06	-1.59656951836951E-06	-200183.71875	7.14475754648447E-05
1	263	72.5697108167791	0.555267333984375	0.555206298828125	-2.640380859375E-06	-1.46595607475319E-06	-210275.078125	7.11724132997915E-05
1	264	72.6704188165248	0.545196533203125	0.545135498046875	-2.47528076171875E-06	-1.34936340145941E-06	-220231.78125	7.09148225723766E-05
1	265	72.7711268162706	0.535125732421875	0.53509521484375	-2.32818603515625E-06	-1.24580117244477E-06	-229833.546875	7.06729479134083E-05
1	266	72.8718348160163	0.525054931640625	0.52508544921875	-2.1954345703125E-06	-1.15279067358642E-06	-239171.546875	7.04451667843387E-05
1	267	72.972542815762	0.514984130859375	0.5150146484375	-2.07611083984375E-06	-1.0692274372559E-06	-248067.03125	7.02300749253482E-05
1	268	73.0732508155078	0.504913330078125	0.504913330078125	-1.96868896484375E-06	-9.94017227640143E-07	-256471.890625	7.00264063198119E-05
1	269	73.1739588152535	0.494842529296875	0.494903564453125	-1.87103271484375E-06	-9.25980714328034E-07	-264508.25	6.98330550221726E-05
1	270	73.2746668149993	0.484771728515625	0.484771728515625	-1.78192138671875E-06	-8.63825107444427E-07	-272050	6.96491188136861E-05
1	271	73.375374814745	0.474700927734375	0.474700927734375	-1.70074462890625E-06	-8.07345031716977E-07	-279113.59375	6.9473753683269E-05
1	272	73.4760828144907	0.464630126953125	0.464599609375	-1.62628173828125E-06	-7.55569828925218E-07	-285682.125	6.93062247592025E-05
1	273	73.5767908142365	0.454559326171875	0.454498291015625	-1.55670166015625E-06	-7.07518211129354E-07	-291962.375	6.91459426889196E-05
1	274	73.6774988139822	0.444488525390625	0.4444580078125	-1.49383544921875E-06	-6.63947105294938E-07	-297528.09375	6.89923399477266E-05
1	275	73.7782068137279	0.434417724609375	0.434417724609375	-1.43585205078125E-06	-6.23759547124791E-07	-302550.46875	6.8844819907099E-05
1	276	73.8789148134737	0.424346923828125	0.42431640625	-1.380615234375E-06	-5.85817701903579E-07	-307338.625	6.87029969412833E-05
1	277	73.9796228132194	0.414276123046875	0.414306640625	-1.329345703125E-06	-5.50756737993652E-07	-311662.09375	6.85665436321869E-05
1	278	74.0803308129651	0.404205322265625	0.404144287109375	-1.2823486328125E-06	-5.18253898462717E-07	-315159.4375	6.84350306983106E-05
1	279	74.1810388127109	0.394134521484375	0.3941650390625	-1.23687744140625E-06	-4.87533839077514E-07	-318677.53125	6.83081743773073E-05
1	280	74.2817468124566	0.384063720703125	0.384063720703125	-1.19537353515625E-06	-4.59099624094961E-07	-321291.8125	6.81857054587454E-05
1	281	74.3824548122024	0.373992919921875	0.373992919921875	-1.15447998046875E-06	-4.31767318787024E-07	-323949.25	6.80673765600659E-05
1	282	74.4831628119481	0.363922119140625	0.36395263671875	-1.116943359375E-06	-4.06514459427854E-07	-325847.03125	6.79530057823285E-05
1	283	74.5838708116938	0.353851318359375	0.3538818359375	-1.08062744140625E-06	-3.8241441302489E-07	-327478.125	6.78423457429744E-05
1	284	74.6845788114396	0.343780517578125	0.343780517578125	-1.04644775390625E-06	-3.59748355549527E-07	-328521.4375	6.77352436468937E-05
1	285	74.7852868111853	0.333709716796875	0.333770751953125	-1.01409912109375E-06	-3.38476610295402E-07	-329130.3125	6.76314812153578E-05
1	286	74.885994810931	0.323638916015625	0.3236083984375	-9.82666015625E-07	-3.17998939181052E-07	-329316.78125	6.7530942033045E-05
1	287	74.9867028106768	0.313568115234375	0.313568115234375	-9.53063964843751E-07	-2.98850466151634E-07	-329010.59375	6.74334660288878E-05
1	288	75.0874108104225	0.303497314453125	0.303436279296875	-9.246826171875E-07	-2.80582241884986E-07	-328151.8125	6.73389149596915E-05
1	289	75.1881188101682	0.293426513671875	0.29339599609375	-8.9874267578125E-07	-2.63687496726561E-07	-326451.625	6.72470996505581E-05
1	290	75.288826809914	0.283355712890625	0.28338623046875	-8.7493896484375E-07	-2.47945649789472E-07	-323892.5625	6.7157787270844E-05
1	291	75.3895348096597	0.273284912109375	0.27325439453125	-8.5418701171875E-07	-2.33410347050267E-07	-319899.96875	6.7070715886075E-05
1	292	75.4902428094055	0.263214111328125	0.263214111328125	-8.331298828125E-07	-2.1929155025191E-07	-315934.0625	6.69857545290142E-05
1	293	75.5909508091512	0.253143310546875	0.253173828125	-8.1146240234375E-07	-2.05441040179721E-07	-311997	6.69029468554072E-05
1	294	75.6916588088969	0.243072509765625	0.24310302734375	-7.904052734375E-07	-1.92149911981687E-07	-307567.59375	6.68222855892964E-05
1	295	75.7923668086427	0.233001708984375	0.2330322265625	-7.7056884765625E-07	-1.79567365421462E-07	-302415.84375	6.67436834191903E-05
1	296	75.8930748083884	0.222930908203125	0.22296142578125	-7.50732421875E-07	-1.6738437125241E-07	-296991.875	6.66670748614706E-05
1	297	75.9937828081341	0.212860107421875	0.212890625	-7.3272705078125E-07	-1.55990719008514E-07	-290545.625	6.65923798806034E-05
1	298	76.0944908078799	0.202789306640625	0.202880859375	-7.159423828125E-07	-1.45250993455193E-07	-283375.96875	6.65194311295636E-05
1	299	76.1951988076256	0.192718505859375	0.192779541015625	-7.00988769531249E-07	-1.35136289713955E-07	-275010.875	6.64480830891989E-05
1	300	76.2959068073714	0.182647705078125	0.18267822265625	-6.87561035156251E-07	-1.25602426237492E-07	-265690.21875	6.63781684124842E-05
1	301	76.3966148071171	0.172576904296875	0.17266845703125	-6.76574707031249E-07	-1.16823109408415E-07	-255209.75	6.63094760966487E-05
1	302	76.4973228068628	0.162506103515625	0.16253662109375	-6.6864013671875E-07	-1.0867849908891E-07	-243085.359375	6.62417369312607E-05
1	303	76.5980308066086	0.152435302734375	0.152496337890625	-6.64672851562501E-07	-1.01360171811393E-07	-229430.671875	6.61746016703546E-05
1	304	76.6987388063543	0.142364501953125	0.142364501953125	-6.64672851562501E-07	-9.46258182921156E-08	-214187.34375	6.61076628603041E-05
1	305	76.7994468061	0.132293701171875	0.13226318359375	-6.7138671875E-07	-8.87997444465327E-08	-197000	6.60403893562034E-05
1	306	76.9001548058458	0.122222900390625	0.122222900390625	-6.866455078125E-07	-8.39238012417809E-08	-178000	6.59720026305877E-05
1	307	77.0008628055915	0.112152099609375	0.1121826171875	-7.1258544921875E-07	-7.99396957518184E-08	-157430.421875	6.59015495330095E-05
1	308	77.1015708053372	0.102081298828125	0.102142333984375	-7.5347900390625E-07	-7.69621024687694E-08	-135560.96875	6.5827727667056E-05
1	309	77.202278805083	0.092010498046875	0.092010498046875	-8.1451416015625E-07	-7.4943848460407E-08	-112963.6640625	6.57487689750269E-05
1	310	77.3029868048287	0.081939697265625	0.082000732421875	-9.0057373046875E-07	-7.38477012873773E-08	-91053.8828125	6.56624106341042E-05
1	311	77.4036948045745	0.071868896484375	0.0718994140625	-1.01715087890625E-06	-7.31325542346895E-08	-70687.0703125	6.55658441246487E-05
1	312	77.5044028043202	0.061798095703125	0.061859130859375	-1.16851806640625E-06	-7.22835054034476E-08	-52938.10546875	6.54557879897766E-05
1	313	77.6051108040659	0.051727294921875	0.0517578125	-1.35406494140625E-06	-7.00834377198589E-08	-38224.02734375	6.53287643217482E-05
1	314	77.7058188038117	0.041656494140625	0.041748046875	-1.56494140625E-06	-6.53332463684819E-08	-26677.068359375	6.5181782701984E-05
1	315	77.8065268035574	0.031585693359375	0.0316864013671875	-1.7864990234375E-06	-5.6607724729929E-08	-17736.591796875	6.50130241410807E-05
1	316	77.9072348033031	0.021514892578125	0.0215972900390625	-1.9940185546875E-06	-4.3065394805808E-08	-10831.0380859375	6.48226632620208E-05
1	317	78.0079428030489	0.011444091796875	0.0115447998046875	-2.166748046875E-06	-2.50146694469322E-08	-5328.16943359375	6.46131520625204E-05
1	318	78.1086508027946	0.001373291015625	0.0014984130859375	-2.28668212890625E-06	-3.42639427941549E-09	-655.278259277344	6.43888997728936E-05
1	319	78.2093588025404	-0.008697509765625	-0.0085418701171875	-2.34771728515625E-06	2.00538963213148E-08	3638.37231445313	6.41555379843339E-05
1	320	78.3100668022861	-0.018768310546875	-0.018658447265625	-2.35443115234375E-06	4.39300293919587E-08	7924.82275390625	6.39187710476108E-05
1	321	78.4107748020318	-0.028839111328125	-0.0287353515625	-2.32086181640625E-06	6.66907737922884E-08	12381.328125	6.36833501630463E-05
1	322	78.5114828017776	-0.038909912109375	-0.0387939453125	-2.26043701171875E-06	8.76912622516102E-08	17162.142578125	6.3452658650931E-05
1	323	78.6121908015233	-0.048980712890625	-0.0488372802734375	-2.186279296875E-06	1.06771935293182E-07	22338.080078125	6.32287556072697E-05
1	324	78.712898801269	-0.059051513671875	-0.058990478515625	-2.108154296875E-06	1.24361022812991E-07	27982.052734375	6.30125068710186E-05
1	325	78.8136068010148	-0.069122314453125	-0.069091796875	-2.03094482421875E-06	1.40321631647566E-07	34019.53515625	6.28040870651603E-05
1	326	78.9143148007605	-0.079193115234375	-0.07916259765625	-1.9580078125E-06	1.55000975610164E-07	40430.17578125	6.26032269792631E-05
1	327	79.0150228005062	-0.089263916015625	-0.08917236328125	-1.89178466796875E-06	1.68694896274246E-07	47136.63671875	6.24093809165061E-05
1	328	79.115730800252	-0.099334716796875	-0.09930419921875	-1.832275390625E-06	1.819526289637E-07	54197.203125	6.22218576609157E-05
1	329	79.2164387999977	-0.109405517578125	-0.10931396484375	-1.77947998046875E-06	1.94522002061603E-07	61430.2890625	6.20399878243916E-05
1	330	79.3171467997435	-0.119476318359375	-0.119415283203125	-1.732177734375E-06	2.06848483230715E-07	68939.3984375	6.18631675024517E-05
1	331	79.4178547994892	-0.129547119140625	-0.129425048828125	-1.69158935546875E-06	2.18934033568985E-07	76510.9140625	6.16907636867836E-05
1	332	79.5185627992349	-0.139617919921875	-0.139434814453125	-1.656494140625E-06	2.3097294388208E-07	84174.65625	6.15221724729054E-05
1	333	79.6192707989807	-0.149688720703125	-0.14959716796875	-1.6253662109375E-06	2.43150168444117E-07	92039.0546875	6.1356920923572E-05
1	334	79.7199787987264	-0.159759521484375	-0.15966796875	-1.59881591796875E-06	2.55279672956021E-07	99866.390625	6.11945724813268E-05
1	335	79.8206867984721	-0.169830322265625	-0.169677734375	-1.57562255859375E-06	2.67348042370941E-07	107689.3359375	6.1034723330522E-05
1	336	79.9213947982179	-0.179901123046875	-0.17974853515625	-1.55670166015625E-06	2.79814827308655E-07	115467.5625	6.08769987593405E-05
1	337	80.0221027979636	-0.189971923828125	-0.18975830078125	-1.54144287109375E-06	2.92501596277361E-07	123104.3359375	6.07209949521348E-05
1	338	80.1228107977093	-0.200042724609375	-0.19989013671875	-1.52984619140625E-06	3.05801165723096E-07	130660.2890625	6.05663444730453E-05
1	339	80.2235187974551	-0.189971923828125	-0.1898193359375	-1.376953125E-06	2.61372321119779E-07	137854.625	6.04199740337208E-05
2	340	80.3242267972008	-0.179901123046875	-0.17974853515625	-1.27044677734375E-06	2.28360946152861E-07	141484.5	6.02866675762925E-05
2	341	80.4249347969466	-0.169830322265625	-0.169677734375	-1.18377685546875E-06	2.00860569066208E-07	143335.921875	6.01630854362156E-05
2	342	80.5256427966923	-0.159759521484375	-0.159637451171875	-1.10992431640625E-06	1.77185484062647E-07	143827.34375	6.00475905230269E-05
2	343	80.626350796438	-0.149688720703125	-0.14959716796875	-1.04461669921875E-06	1.56271681817088E-07	143207.71875	5.99390987190418E-05
2	344	80.7270587961838	-0.139617919921875	-0.139495849609375	-9.857177734375E-07	1.37503533892414E-07	141517.03125	5.98368642386049E-05
2	345	80.8277667959295	-0.129547119140625	-0.129425048828125	-9.31396484375E-07	1.20546033599567E-07	138958.0625	5.97403304709587E-05
2	346	80.9284747956752	-0.119476318359375	-0.11944580078125	-8.81042480468749E-07	1.05236821923427E-07	135573.265625	5.9649068134604E-05
2	347	81.029182795421	-0.109405517578125	-0.10931396484375	-8.32214355468749E-07	9.09726480813333E-08	131353.140625	5.95627971051726E-05
2	348	81.1298907951667	-0.099334716796875	-0.099273681640625	-7.8460693359375E-07	7.78908173515447E-08	126526.6484375	5.94813827774487E-05
2	349	81.2305987949125	-0.089263916015625	-0.08917236328125	-7.354736328125E-07	6.55839187402307E-08	121244.8125	5.94048433413263E-05
2	350	81.3313067946582	-0.079193115234375	-0.07916259765625	-6.84204101562499E-07	5.41633760064997E-08	115700.265625	5.93333534197882E-05
2	351	81.4320147944039	-0.069122314453125	-0.069091796875	-6.2713623046875E-07	4.33299689461819E-08	110170.3203125	5.92673241044395E-05
2	352	81.5327227941497	-0.059051513671875	-0.058929443359375	-5.615234375E-07	3.30902629741558E-08	104945.6484375	5.92074684391264E-05
2	353	81.6334307938954	-0.048980712890625	-0.0488525390625	-4.81567382812501E-07	2.35257893166363E-08	101444.8671875	5.91549469390884E-05
2	354	81.7341387936411	-0.038909912109375	-0.03875732421875	-3.82385253906251E-07	1.48202294880662E-08	101356.7421875	5.91114439885132E-05
2	355	81.8348467933869	-0.028839111328125	-0.0287322998046875	-2.581787109375E-07	7.4180683817815E-09	111288.4140625	5.90791896684095E-05
2	356	81.9355547931326	-0.018768310546875	-0.018634033203125	-1.019287109375E-07	1.89934290517613E-09	182814.375	5.90610543440562E-05
2	357	82.0362627928783	-0.008697509765625	-0.0085601806640625	8.85009765625E-08	-7.575843286034E-10	-96724.140625	5.90603776799981E-05
2	358	82.1369707926241	0.001373291015625	0.001483154296875	3.131103515625E-07	4.64390942367388E-10	4736.841796875	5.90806012041867E-05
2	359	82.2376787923698	0.011444091796875	0.0115386962890625	5.6304931640625E-07	6.49685505393904E-09	20493.2265625	5.91247189731803E-05
2	360	82.3383867921156	0.021514892578125	0.021630859375	8.2122802734375E-07	1.77638668219515E-08	26339.650390625	5.91944226471242E-05
2	361	82.4390947918613	0.031585693359375	0.0316741943359375	1.063232421875E-06	3.36770291653465E-08	29790.47265625	5.92893120483495E-05
2	362	82.539802791607	0.041656494140625	0.041729736328125	1.2677001953125E-06	5.29007948557592E-08	32917.66796875	5.94066841586027E-05
2	363	82.6405107913528	0.051727294921875	0.051788330078125	1.41632080078125E-06	7.3348886076019E-08	36565.3984375	5.95418350712862E-05
2	364	82.7412187910985	0.061798095703125	0.0618896484375	1.5032958984375E-06	9.30384516095728E-08	41169.30859375	5.96888494328596E-05
2	365	82.8419267908442	0.071868896484375	0.0718994140625	1.53564453125E-06	1.1041193914707E-07	46820.3515625	5.98418737354223E-05
2	366	82.94263479059	0.081939697265625	0.081939697265625	1.52618408203125E-06	1.25055066746427E-07	53689.26171875	5.9996047639288E-05
2	367	83.0433427903357	0.092010498046875	0.092010498046875	1.4874267578125E-06	1.36858872679113E-07	61858.84375	6.01477950112894E-05
2	368	83.1440507900815	0.102081298828125	0.10211181640625	1.4337158203125E-06	1.46399315781309E-07	71221.796875	6.02948894083966E-05
2	369	83.2447587898272	0.112152099609375	0.1121826171875	1.3739013671875E-06	1.54127846485608E-07	81652.6015625	6.04362612648401E-05
2	370	83.3454667895729	0.122222900390625	0.122283935546875	1.3140869140625E-06	1.60691712380867E-07	93056.203125	6.0571612266358E-05
2	371	83.4461747893187	0.132293701171875	0.13232421875	1.25732421875E-06	1.66374448440365E-07	105242.71875	6.070109520806E-05
2	372	83.5468827890644	0.142364501953125	0.142333984375	1.204833984375E-06	1.71488821365529E-07	118135.765625	6.08250738878269E-05
2	373	83.6475907888101	0.152435302734375	0.1524658203125	1.158447265625E-06	1.76623615288918E-07	131612.21875	6.09440758125857E-05
2	374	83.7482987885559	0.162506103515625	0.16259765625	1.116943359375E-06	1.81612364258399E-07	145573.78125	6.10586503171362E-05
2	375	83.8490067883016	0.172576904296875	0.172576904296875	1.080322265625E-06	1.86438668947631E-07	159745.765625	6.11692885286175E-05
2	376	83.9497147880473	0.182647705078125	0.182708740234375	1.04827880859375E-06	1.91529707649352E-07	174294.03125	6.1276470660232E-05
2	377	84.0504227877931	0.192718505859375	0.19281005859375	1.0205078125E-06	1.96764162296859E-07	188935.421875	6.13806478213519E-05
2	378	84.1511307875388	0.202789306640625	0.202850341796875	9.95483398437499E-07	2.01934128085668E-07	203770.703125	6.1482161981985E-05
2	379	84.2518387872846	0.212860107421875	0.212890625	9.74121093749999E-07	2.07381248173988E-07	218546.359375	6.15813332842663E-05
2	380	84.3525467870303	0.222930908203125	0.22296142578125	9.5550537109375E-07	2.13040834751155E-07	233343.984375	6.16785036982037E-05
2	381	84.453254786776	0.233001708984375	0.23297119140625	9.381103515625E-07	2.18552671071848E-07	248340.9375	6.17738551227376E-05
2	382	84.5539627865218	0.243072509765625	0.243133544921875	9.228515625E-07	2.243761656473E-07	263459	6.18675621808507E-05
2	383	84.6546707862675	0.253143310546875	0.253173828125	9.10034179687499E-07	2.30396821621071E-07	278202.5625	6.1959850427229E-05
2	384	84.7553787860132	0.263214111328125	0.26324462890625	8.98132324218751E-07	2.364285052181E-07	293102.28125	6.20509017608128E-05
2	385	84.856086785759	0.273284912109375	0.273284912109375	8.87451171875001E-07	2.42527022464856E-07	307943.59375	6.21408107690513E-05
2	386	84.9567947855047	0.283355712890625	0.2833251953125	8.78295898437501E-07	2.48843349481831E-07	322585.15625	6.22297229710966E-05
2	387	85.0575027852504	0.293426513671875	0.29345703125	8.70666503906251E-07	2.55503209700692E-07	337048.71875	6.23177911620587E-05
2	388	85.1582107849962	0.303497314453125	0.30352783203125	8.6334228515625E-07	2.6204841674371E-07	351573	6.24051026534289E-05
2	389	85.2589187847419	0.313568115234375	0.313629150390625	8.5723876953125E-07	2.68855075091778E-07	365859.75	6.24917447566986E-05
2	390	85.3596267844877	0.323638916015625	0.32366943359375	8.52050781249999E-07	2.75782781500311E-07	379871.09375	6.25778120593168E-05
2	391	85.4603347842334	0.333709716796875	0.333770751953125	8.4716796875E-07	2.82759884839834E-07	393984.15625	6.26633773208596E-05
2	392	85.5610427839791	0.343780517578125	0.343841552734375	8.43505859375E-07	2.90032375005467E-07	407633.875	6.27485060249455E-05
2	393	85.6617507837249	0.353851318359375	0.353790283203125	8.404541015625E-07	2.97344485034046E-07	420951.34375	6.28333000349812E-05
2	394	85.7624587834706	0.363922119140625	0.36395263671875	8.380126953125E-07	3.04996916611344E-07	434304.4375	6.29178175586276E-05
2	395	85.8631667832163	0.373992919921875	0.3740234375	8.3648681640625E-07	3.12865665819118E-07	447136.09375	6.30021386314183E-05
2	396	85.9638747829621	0.384063720703125	0.38409423828125	8.3526611328125E-07	3.20820873866978E-07	459846.5625	6.30863141850568E-05
2	397	86.0645827827078	0.394134521484375	0.394134521484375	8.343505859375E-07	3.28846340380551E-07	472384.8125	6.31703878752887E-05
2	398	86.1652907824536	0.404205322265625	0.404205322265625	8.35571289062501E-07	3.37742335432267E-07	483747.28125	6.32544761174358E-05
2	399	86.2659987821993	0.414276123046875	0.414306640625	8.35571289062501E-07	3.46182730481814E-07	495836.40625	6.33386225672439E-05
2	400	86.366706781945	0.424346923828125	0.42437744140625	8.3648681640625E-07	3.54986127604207E-07	507333.125	6.34228199487552E-05
2	401	86.4674147816908	0.434417724609375	0.43438720703125	8.3770751953125E-07	3.63889427035247E-07	518542.8125	6.35071191936731E-05
2	402	86.5681227814365	0.444488525390625	0.44451904296875	8.3892822265625E-07	3.72919572555475E-07	529865.4375	6.35915494058281E-05
2	403	86.6688307811822	0.454559326171875	0.454559326171875	8.404541015625E-07	3.82036262180918E-07	540849.6875	6.36761105852202E-05
2	404	86.769538780928	0.464630126953125	0.46466064453125	8.4228515625E-07	3.91376772768126E-07	551666.6875	6.37608463875949E-05
2	405	86.8702467806737	0.474700927734375	0.47467041015625	8.44421386718749E-07	4.00821846824329E-07	562125.0625	6.38457786408253E-05
2	406	86.9709547804194	0.484771728515625	0.48480224609375	8.4716796875E-07	4.10708906883883E-07	572262.25	6.39309510006569E-05
2	407	87.0716627801652	0.494842529296875	0.4947509765625	8.5113525390625E-07	4.21099969116767E-07	581283.625	6.4016472606454E-05
2	408	87.1723707799109	0.504913330078125	0.50494384765625	8.55712890625E-07	4.32086949331278E-07	590085.625	6.41024162177928E-05
2	409	87.2730787796567	0.514984130859375	0.5150146484375	8.6212158203125E-07	4.44005223698696E-07	597380.5625	6.41889200778678E-05
2	410	87.3737867794024	0.525054931640625	0.525054931640625	8.697509765625E-07	4.56667038406522E-07	603684.1875	6.42761224298738E-05
2	411	87.4744947791481	0.535125732421875	0.53515625	8.79821777343751E-07	4.70842110189551E-07	608255.3125	6.43642197246663E-05
2	412	87.5752027788939	0.545196533203125	0.545196533203125	8.941650390625E-07	4.8749564030004E-07	609727	6.44535466562957E-05
2	413	87.6759107786396	0.555267333984375	0.555206298828125	9.136962890625E-07	5.07289939832845E-07	607648.625	6.45445834379643E-05
2	414	87.7766187783853	0.565338134765625	0.5653076171875	9.4146728515625E-07	5.32218621174252E-07	600453.8125	6.46379994577728E-05
2	415	87.8773267781311	0.575408935546875	0.57537841796875	9.808349609375E-07	5.64351239518146E-07	586621.0625	6.47347915219143E-05
2	416	87.9780347778768	0.585479736328125	0.58544921875	1.03912353515625E-06	6.08354071118811E-07	563406.75	6.4836502133403E-05
2	417	88.0787427776226	0.595550537109375	0.595458984375	1.1248779296875E-06	6.69818689402746E-07	529354.3125	6.49454741505906E-05
2	418	88.1794507773683	0.605621337890625	0.6055908203125	1.24847412109375E-06	7.56064423512726E-07	485064.8125	6.50649817544036E-05
2	419	88.280158777114	0.615692138671875	0.615631103515625	1.42181396484375E-06	8.75312935022521E-07	432989.90625	6.51994414511137E-05
2	420	88.3808667768598	0.625762939453125	0.625732421875	1.66015625E-06	1.03881347968127E-06	376911.78125	6.53546303510666E-05
2	421	88.4815747766055	0.635833740234375	0.635772705078125	1.97662353515625E-06	1.25668327655148E-06	321645.84375	6.55377516523004E-05
2	422	88.5822827763512	0.645904541015625	0.64581298828125	2.38067626953125E-06	1.53747168951668E-06	271272.90625	6.57571654301137E-05
2	423	88.682990776097	0.655975341796875	0.655914306640625	2.86956787109375E-06	1.88219064511941E-06	228575.984375	6.60215300740674E-05
2	424	88.7836987758427	0.666046142578125	0.6658935546875	3.43231201171875E-06	2.28555427383981E-06	194007.296875	6.63388564134948E-05
2	425	88.8844067755884	0.676116943359375	0.676055908203125	4.0374755859375E-06	2.7295589006826E-06	167445.21875	6.67149943183176E-05
2	426	88.9851147753342	0.686187744140625	0.68603515625	4.6453857421875E-06	3.18689785672177E-06	147680.984375	6.71522066113539E-05
2	427	89.0858227750799	0.696258544921875	0.6961669921875	5.2093505859375E-06	3.62657783625764E-06	133637.96875	6.76484341965988E-05
2	428	89.1865307748257	0.706329345703125	0.706207275390625	5.682373046875E-06	4.01293300456018E-06	124280.3515625	6.81968740536831E-05
2	429	89.2872387745714	0.716400146484375	0.716278076171875	6.01806640625E-06	4.31060925620841E-06	119021.296875	6.8786037445534E-05
2	430	89.3879467743171	0.726470947265625	0.726348876953125	6.201171875E-06	4.50421430286951E-06	117130.90625	6.94013288011774E-05
2	431	89.4886547740629	0.736541748046875	0.736358642578125	6.231689453125E-06	4.58875820186222E-06	118163.5625	7.00273740221746E-05
2	432	89.5893627738086	0.746612548828125	0.746490478515625	6.1431884765625E-06	4.58583144791191E-06	121515.15625	7.06504943082109E-05
2	433	89.6900707735543	0.756683349609375	0.75714111328125	5.975341796875E-06	4.52417680207873E-06	126710.9375	7.12607143213972E-05
2	434	89.7907787733001	0.766754150390625	0.7672119140625	5.7647705078125E-06	4.42280042989296E-06	133086.296875	7.18518713256344E-05
2	435	89.8914867730458	0.776824951171875	0.77728271484375	5.5450439453125E-06	4.3100667426188E-06	140176.125	7.24213678040542E-05
2	436	89.9921947727915	0.786895751953125	0.7867431640625	5.328369140625E-06	4.19205798607436E-06	147651.78125	7.29688908904791E-05
2	437	90.0929027725373	0.796966552734375	0.79742431640625	5.1300048828125E-06	4.0907907532528E-06	155443.1875	7.34955101506785E-05
2	438	90.193610772283	0.807037353515625	0.80718994140625	4.94598388671875E-06	3.99234841097496E-06	163201.09375	7.40028772270307E-05
2	439	90.2943187720288	0.817108154296875	0.8172607421875	4.78546142578125E-06	3.91096955354442E-06	170779.921875	7.44928911444731E-05
2	440	90.3950267717745	0.827178955078125	0.8270263671875	4.6441650390625E-06	3.84084705729038E-06	178078.59375	7.49677128624171E-05
2	441	90.4957347715202	0.837249755859375	0.83709716796875	4.5208740234375E-06	3.78441086468229E-06	185162.6875	7.54292123019695E-05
2	442	90.596442771266	0.847320556640625	0.84716796875	4.4140625E-06	3.7394522678369E-06	191924.78125	7.58791211410426E-05
2	443	90.6971507710117	0.857391357421875	0.85723876953125	4.3218994140625E-06	3.70489965462184E-06	198347.703125	7.63190109864809E-05
2	444	90.7978587707574	0.867462158203125	0.86761474609375	4.24346923828125E-06	3.68169617104286E-06	204458.84375	7.67503079259768E-05
2	445	90.8985667705032	0.877532958984375	0.87738037109375	4.1766357421875E-06	3.66449808097968E-06	210068.6875	7.71742925280705E-05
2	446	90.9992747702489	0.887603759765625	0.88775634765625	4.1241455078125E-06	3.66123640560545E-06	215258.25	7.75922744651325E-05
2	447	91.0999827699947	0.897674560546875	0.897216796875	4.08538818359375E-06	3.66547874364187E-06	219616.0625	7.80056579969823E-05
2	448	91.2006907697404	0.907745361328125	0.90789794921875	4.066162109375E-06	3.69166014024813E-06	223281.296875	7.84161165938713E-05
2	449	91.3013987694861	0.917816162109375	0.9173583984375	4.0704345703125E-06	3.73404714082426E-06	225371.125	7.88258257671259E-05
2	450	91.4021067692319	0.927886962890625	0.927734375	4.107666015625E-06	3.81082281819545E-06	225854.390625	7.92376304161735E-05
2	451	91.5028147689776	0.937957763671875	0.93780517578125	4.1864013671875E-06	3.92602896681638E-06	224012.25	7.96552703832276E-05
2	452	91.6035227687233	0.948028564453125	0.9478759765625	4.31854248046875E-06	4.09344238505582E-06	219489.796875	8.00835259724408E-05
2	453	91.7042307684691	0.958099365234375	0.958251953125	4.51446533203125E-06	4.3259951780783E-06	212262.5625	8.05283052613959E-05
2	454	91.8049387682148	0.968170166015625	0.96771240234375	4.78302001953125E-06	4.62858770333696E-06	202322.46875	8.09964694781229E-05
2	455	91.9056467679605	0.978240966796875	0.9783935546875	5.1300048828125E-06	5.01916383655043E-06	190719.8125	8.14956292742863E-05
2	456	92.0063547677063	0.988311767578125	0.9881591796875	5.5450439453125E-06	5.47938589079422E-06	178205.84375	8.2033162470907E-05
2	457	92.107062767452	0.998382568359375	0.9979248046875	6.0150146484375E-06	6.00253224547487E-06	165905.640625	8.26152536319569E-05
2	458	92.2077707671978	1.00845336914063	1.00860595703125	6.5093994140625E-06	6.56541851640213E-06	154946.09375	8.32459118100815E-05
2	459	92.3084787669435	1.01852416992188	1.01806640625	6.9915771484375E-06	7.11788925400469E-06	145613.28125	8.39257409097627E-05
2	460	92.4091867666892	1.02859497070313	1.02874755859375	7.415771484375E-06	7.6289566095511E-06	138724.28125	8.46512048156001E-05
2	461	92.509894766435	1.03866577148438	1.03851318359375	7.745361328125E-06	8.04366027296055E-06	134081.953125	8.54146273923106E-05
2	462	92.6106027661807	1.04873657226563	1.048583984375	7.9498291015625E-06	8.33606281958055E-06	131900.203125	8.62049491843209E-05
2	463	92.7113107659264	1.05880737304688	1.0589599609375	8.0230712890625E-06	8.49611114972504E-06	131989.359375	8.70092480909079E-05
2	464	92.8120187656722	1.06887817382813	1.06903076171875	7.9803466796875E-06	8.53123583510751E-06	133957.9375	8.78150822245516E-05
2	465	92.9127267654179	1.07894897460938	1.0784912109375	7.84912109375E-06	8.4652083387482E-06	137402.796875	8.86121561052278E-05
2	466	93.0134347651637	1.08901977539063	1.0888671875	7.666015625E-06	8.3472723417799E-06	142038.21875	8.93934047780931E-05
2	467	93.1141427649094	1.09909057617188	1.0992431640625	7.4615478515625E-06	8.20205514173722E-06	147321.0625	9.01551393326372E-05
2	468	93.2148507646551	1.10916137695313	1.1090087890625	7.2509765625E-06	8.04139654064784E-06	152946.125	9.08959773369133E-05
2	469	93.3155587644009	1.11923217773438	1.1187744140625	7.049560546875E-06	7.88686793384841E-06	158701.296875	9.16160643100739E-05
2	470	93.4162667641466	1.12930297851563	1.12945556640625	6.8634033203125E-06	7.75190892454702E-06	164562.03125	9.23166371649131E-05
2	471	93.5169747638923	1.13937377929688	1.138916015625	6.695556640625E-06	7.62567651690915E-06	170100.28125	9.29993839235976E-05
2	472	93.6176827636381	1.14944458007813	1.14959716796875	6.54296875E-06	7.52177811591537E-06	175699.625	9.36659998842515E-05
2	473	93.7183907633838	1.15951538085938	1.1590576171875	6.4056396484375E-06	7.42450492907665E-06	180943.3125	9.43180129979737E-05
2	474	93.8190987631295	1.16958618164063	1.16973876953125	6.280517578125E-06	7.34656487111351E-06	186248.78125	9.49568129726686E-05
2	475	93.9198067628753	1.17965698242188	1.17950439453125	6.1676025390625E-06	7.27471388017875E-06	191241.96875	9.55836221692152E-05
2	476	94.020514762621	1.18972778320313	1.18988037109375	6.0699462890625E-06	7.22250979379169E-06	196028.15625	9.6199830295518E-05
2	477	94.1212227623668	1.19979858398438	1.199951171875	5.9814453125E-06	7.17744205758208E-06	200612.25	9.68066669884138E-05
2	478	94.2219307621125	1.20986938476563	1.209716796875	5.8990478515625E-06	7.13617691872059E-06	205069.84375	9.74048962234519E-05
2	479	94.3226387618582	1.21994018554688	1.2200927734375	5.8258056640625E-06	7.10802351022721E-06	209429.015625	9.79952965280972E-05
2	480	94.423346761604	1.23001098632813	1.23016357421875	5.76171875E-06	7.0878563747101E-06	213506.359375	9.85787701210938E-05
2	481	94.5240547613497	1.24008178710938	1.23992919921875	5.70068359375E-06	7.06844366504811E-06	217505.359375	9.91559500107542E-05
2	482	94.6247627610954	1.25015258789063	1.25030517578125	5.645751953125E-06	7.05891307006823E-06	221459.453125	9.97272873064503E-05
2	483	94.7254707608412	1.26022338867188	1.26068115234375	5.596923828125E-06	7.05593583916198E-06	225245.375	0.000100293400464579
2	484	94.8261787605869	1.27029418945313	1.27044677734375	5.55419921875E-06	7.05631418895791E-06	228736.265625	0.000100854907941539
2	485	94.9268867603326	1.28036499023438	1.2799072265625	5.5145263671875E-06	7.05808179191081E-06	232097.40625	0.000101412260846701
2	486	95.0275947600784	1.29043579101563	1.29058837890625	5.48095703125E-06	7.07365961716278E-06	235467.703125	0.000101965924841352
2	487	95.1283027598241	1.30050659179688	1.3006591796875	5.450439453125E-06	7.08916422809125E-06	238633.828125	0.00010251636558678
2	488	95.2290107595699	1.31057739257813	1.31072998046875	5.4229736328125E-06	7.10805397829972E-06	241699.5	0.000103063888673205
2	489	95.3297187593156	1.32064819335938	1.32110595703125	5.401611328125E-06	7.136100975913E-06	244576.265625	0.000103608945209999
2	490	95.4304267590613	1.33071899414063	1.33087158203125	5.38330078125E-06	7.16448175808182E-06	247222.234375	0.000104152008134406
2	491	95.5311347588071	1.34078979492188	1.34124755859375	5.3680419921875E-06	7.19987292541191E-06	249857.875	0.000104693383036647
2	492	95.6318427585528	1.35086059570313	1.35101318359375	5.3558349609375E-06	7.23580342310015E-06	252250.71875	0.000105233375506941
2	493	95.7325507582985	1.36093139648438	1.36077880859375	5.3497314453125E-06	7.27980113879312E-06	254363.9375	0.000105772443930618
2	494	95.8332587580443	1.37100219726563	1.37176513671875	5.3466796875E-06	7.33438901079353E-06	256563.921875	0.000106311046693008
2	495	95.93396675779	1.38107299804688	1.38031005859375	5.3466796875E-06	7.38007565814769E-06	258162.09375	0.000106849503936246
2	496	96.0346747575358	1.39114379882813	1.3909912109375	5.3497314453125E-06	7.44142971598194E-06	260011.40625	0.000107388106698636
2	497	96.1353827572815	1.40121459960938	1.40106201171875	5.352783203125E-06	7.49958053347655E-06	261744.59375	0.000107927022327203
2	498	96.2360907570272	1.41128540039063	1.41082763671875	5.3619384765625E-06	7.56477083996288E-06	263118.96875	0.00010846654913621
2	499	96.336798756773	1.42135620117188	1.4215087890625	5.37109375E-06	7.63505704526324E-06	264659.09375	0.000109006999991834
2	500	96.4375067565187	1.43142700195313	1.4312744140625	5.38330078125E-06	7.70497990743024E-06	265873.03125	0.000109548527689185
2	501	96.5382147562644	1.44149780273438	1.44134521484375	5.401611328125E-06	7.78558660385897E-06	266836.15625	0.000110091590613592
2	502	96.6389227560102	1.45156860351563	1.451416015625	5.426025390625E-06	7.87542012403719E-06	267491.5625	0.000110636807221454
2	503	96.7396307557559	1.46163940429688	1.46209716796875	5.45654296875E-06	7.97799566498725E-06	267953.03125	0.000111184788693208
2	504	96.8403387555016	1.47171020507813	1.47216796875	5.499267578125E-06	8.09584525995888E-06	267702.5625	0.000111736459075473
2	505	96.9410467552474	1.48178100585938	1.4813232421875	5.5572509765625E-06	8.23208483780036E-06	266556.84375	0.000112293200800195
2	506	97.0417547549931	1.49185180664063	1.49200439453125	5.62744140625E-06	8.39616677694721E-06	265130.15625	0.000112856389023364
2	507	97.1424627547389	1.50192260742188	1.5020751953125	5.712890625E-06	8.58119074109709E-06	262927.34375	0.00011342742072884
2	508	97.2431707544846	1.49185180664063	1.49169921875	5.419921875E-06	8.08489312476013E-06	275225.21875	0.000113988004159182
2	509	97.3438787542303	1.48178100585938	1.48193359375	5.2001953125E-06	7.7063441494829E-06	284976.53125	0.00011452277249191
2	510	97.4445867539761	1.47171020507813	1.47186279296875	5.0262451171875E-06	7.39794313631137E-06	292835.46875	0.000115037713840138
2	511	97.5452947537218	1.46163940429688	1.4617919921875	4.8785400390625E-06	7.13141071173595E-06	299637.1875	0.000115536458906718
2	512	97.6460027534675	1.45156860351563	1.451416015625	4.755859375E-06	6.90273009240627E-06	305184.8125	0.000116021590656601
2	513	97.7467107532133	1.44149780273438	1.441650390625	4.6502685546875E-06	6.7040609792457E-06	310014.46875	0.000116495226393454
2	514	97.847418752959	1.43142700195313	1.43157958984375	4.5599365234375E-06	6.52791186439572E-06	313947.28125	0.000116958995931782
2	515	97.9481267527048	1.42135620117188	1.4215087890625	4.481201171875E-06	6.37006633041892E-06	317216.03125	0.000117414252599701
2	516	98.0488347524505	1.41128540039063	1.41143798828125	4.41131591796875E-06	6.22629886493087E-06	319958.5	0.000117862029583193
2	517	98.1495427521962	1.40121459960938	1.40106201171875	4.349365234375E-06	6.09373000770574E-06	322130.25	0.000118303163617384
2	518	98.250250751942	1.39114379882813	1.39129638671875	4.29290771484375E-06	5.97270718571963E-06	324091.84375	0.00011873833136633
2	519	98.3509587516877	1.38107299804688	1.38153076171875	4.2425537109375E-06	5.86121814194485E-06	325636.59375	0.000119168129458558
2	520	98.4516667514334	1.37100219726563	1.37115478515625	4.1961669921875E-06	5.7535944506526E-06	326763.625	0.000119593052659184
2	521	98.5523747511792	1.36093139648438	1.36016845703125	4.1534423828125E-06	5.64938090974465E-06	327479.8125	0.000120013486593962
2	522	98.6530827509249	1.35086059570313	1.35101318359375	4.11346435546875E-06	5.55734459339874E-06	328436.8125	0.000120429758680984
2	523	98.7537907506706	1.34078979492188	1.3409423828125	4.0771484375E-06	5.46722094441066E-06	328892.21875	0.000120842189062387
2	524	98.8544987504164	1.33071899414063	1.33056640625	4.04327392578125E-06	5.37984442416928E-06	329081.46875	0.000121251083328389
2	525	98.9552067501621	1.32064819335938	1.32110595703125	4.0106201171875E-06	5.29845419805497E-06	329401.90625	0.000121656630653888
2	526	99.0559147499079	1.31057739257813	1.3104248046875	3.9801025390625E-06	5.21562515132246E-06	329243.96875	0.00012205899838591
2	527	99.1566227496536	1.30050659179688	1.30096435546875	3.95111083984375E-06	5.14025396114448E-06	329265.5	0.000122458368423395
2	528	99.2573307493993	1.29043579101563	1.29058837890625	3.92364501953125E-06	5.06381047671312E-06	328925.90625	0.000122854893561453
2	529	99.3580387491451	1.28036499023438	1.28021240234375	3.897705078125E-06	4.98989038533182E-06	328452.875	0.000123248726595193
2	530	99.4587467488908	1.27029418945313	1.26983642578125	3.87237548828125E-06	4.91728360429988E-06	327921.8125	0.000123639983939938
2	531	99.5594547486365	1.26022338867188	1.26068115234375	3.848876953125E-06	4.85220652990392E-06	327545.1875	0.00012402878201101
2	532	99.6601627483823	1.25015258789063	1.25030517578125	3.82598876953125E-06	4.78365336675779E-06	326792.71875	0.000124415237223729
2	533	99.760870748128	1.24008178710938	1.23931884765625	3.80340576171875E-06	4.71363227916299E-06	325844.5	0.000124799407785758
2	534	99.8615787478738	1.23001098632813	1.23016357421875	3.78265380859375E-06	4.65328275822685E-06	325211.78125	0.000125181395560503
2	535	99.9622867476195	1.21994018554688	1.219482421875	3.76220703125E-06	4.58794511359883E-06	324140.1875	0.000125561316963285
2	536	100.062994747365	1.20986938476563	1.2103271484375	3.74176025390625E-06	4.5287538341654E-06	323464.65625	0.000125939171994105
2	537	100.163702747111	1.19979858398438	1.199951171875	3.7213134765625E-06	4.46539434051374E-06	322453.6875	0.000126314960652962
2	538	100.264410746857	1.18972778320313	1.18988037109375	3.70086669921875E-06	4.40358826381271E-06	321514	0.000126688697491772
2	539	100.365118746602	1.17965698242188	1.17919921875	3.680419921875E-06	4.33994819104555E-06	320398	0.00012706036795862
2	540	100.465826746348	1.16958618164063	1.16973876953125	3.65692138671875E-06	4.27764280175325E-06	319869.8125	0.000127429841086268
2	541	100.566534746094	1.15951538085938	1.1590576171875	3.63128662109375E-06	4.20887045038398E-06	319186.5	0.000127796825836413
2	542	100.66724274584	1.14944458007813	1.1492919921875	3.60137939453125E-06	4.1390362639504E-06	319125.5	0.000128161016618833
2	543	100.767950745585	1.13937377929688	1.1395263671875	3.565673828125E-06	4.06317940360168E-06	319582.34375	0.000128521918668412
2	544	100.868658745331	1.12930297851563	1.12884521484375	3.5205078125E-06	3.9741084947309E-06	320648.40625	0.000128878731629811
2	545	100.969366745077	1.11923217773438	1.1187744140625	3.463134765625E-06	3.87446652894141E-06	323052.53125	0.000129230378661305
2	546	101.070074744823	1.10916137695313	1.10931396484375	3.38623046875E-06	3.75639274352579E-06	327595.53125	0.000129575273604132
2	547	101.170782744568	1.09909057617188	1.09893798828125	3.28277587890625E-06	3.60756712325383E-06	334758.75	0.000129911088151857
2	548	101.271490744314	1.08901977539063	1.0888671875	3.14239501953125E-06	3.42165071742784E-06	346508.71875	0.00013023462088313
2	549	101.37219874406	1.07894897460938	1.0791015625	2.95379638671875E-06	3.18744628202694E-06	365327	0.000130541593534872
2	550	101.472906743806	1.06887817382813	1.06842041015625	2.7032470703125E-06	2.88820433524961E-06	395235.96875	0.000130826447275467
2	551	101.573614743551	1.05880737304688	1.0589599609375	2.37945556640625E-06	2.51974802267796E-06	445042.96875	0.000131082371808589
2	552	101.674322743297	1.04873657226563	1.04888916015625	1.9775390625E-06	2.07421931008867E-06	530401.25	0.000131301771034487
2	553	101.775030743043	1.03866577148438	1.038818359375	1.5032958984375E-06	1.56165128828434E-06	691027.25	0.000131477048853412
2	554	101.875738742788	1.02859497070313	1.02813720703125	9.71374511718751E-07	9.98706241261971E-07	1058435.5	0.000131601656903513
2	555	101.976446742534	1.01852416992188	1.01898193359375	4.150390625E-07	4.22917281639457E-07	2455147.25	0.000131671462440863
2	556	102.07715474228	1.00845336914063	1.0076904296875	-1.30310058593749E-07	-1.31312191342658E-07	-7733021	0.000131685796077363
2	557	102.177862742026	0.998382568359375	0.99853515625	-6.1370849609375E-07	-6.1280951513254E-07	-1627051.25	0.000131648339447565
2	558	102.278570741771	0.988311767578125	0.9881591796875	-1.00067138671875E-06	-9.88822534964129E-07	-987496.25	0.0001315670524491
2	559	102.379278741517	0.978240966796875	0.9783935546875	-1.26129150390625E-06	-1.23403947327461E-06	-775707.75	0.000131453154608607
2	560	102.479986741263	0.968170166015625	0.9674072265625	-1.38885498046875E-06	-1.34358822378999E-06	-696550.25	0.000131319698994048
2	561	102.580694741009	0.958099365234375	0.958251953125	-1.39404296875E-06	-1.33584433115175E-06	-687390.5625	0.000131179578602314
2	562	102.681402740754	0.948028564453125	0.94818115234375	-1.30584716796875E-06	-1.23817960684391E-06	-726104.25	0.000131043620058335
2	563	102.7821107405	0.937957763671875	0.9381103515625	-1.1578369140625E-06	-1.08617882688122E-06	-810226.6875	0.000130919564981014
2	564	102.882818740246	0.927886962890625	0.9283447265625	-9.7991943359375E-07	-9.09702976059634E-07	-947368.5	0.000130811924464069
2	565	102.983526739992	0.917816162109375	0.91766357421875	-7.91320800781251E-07	-7.26166263120831E-07	-1159660.625	0.000130722735775635
2	566	103.084234739737	0.907745361328125	0.90850830078125	-6.0699462890625E-07	-5.51459663711285E-07	-1496732.125	0.000130652319057845
2	567	103.184942739483	0.897674560546875	0.8978271484375	-4.33349609375E-07	-3.89073051110245E-07	-2071831	0.000130599932163022
2	568	103.285650739229	0.887603759765625	0.887451171875	-2.70996093750001E-07	-2.40495779735284E-07	-3274775	0.000130564469145611
2	569	103.386358738975	0.877532958984375	0.877685546875	-1.16577148437499E-07	-1.02318075789753E-07	-7528796	0.00013054495502729
2	570	103.48706673872	0.867462158203125	0.86761474609375	2.74658203125E-08	2.38297506172103E-08	31588890	0.000130540473037399
2	571	103.587774738466	0.857391357421875	0.8575439453125	1.50451660156251E-07	1.29018900452138E-07	5699797.5	0.000130549422465265
2	572	103.688482738212	0.847320556640625	0.8477783203125	2.50854492187499E-07	2.12669007737532E-07	3379562	0.000130569635075517
2	573	103.789190737957	0.837249755859375	0.83740234375	3.338623046875E-07	2.79577051287561E-07	2508226.75	0.000130599073600024
2	574	103.889898737703	0.827178955078125	0.8270263671875	4.0313720703125E-07	3.33405097308059E-07	2051476.25	0.000130636180983856
2	575	103.990606737449	0.817108154296875	0.81695556640625	4.58679199218751E-07	3.74720514173532E-07	1781104.5	0.000130679589346983
2	576	104.091314737195	0.807037353515625	0.80718994140625	4.99877929687501E-07	4.03496414946858E-07	1614774.25	0.000130727858049795
2	577	104.19202273694	0.796966552734375	0.79742431640625	5.2490234375E-07	4.18569868543273E-07	1519186.125	0.000130779459141195
2	578	104.292730736686	0.786895751953125	0.7867431640625	5.2825927734375E-07	4.15604347381304E-07	1489312.625	0.000130832486320287
2	579	104.393438736432	0.776824951171875	0.77667236328125	5.035400390625E-07	3.91085620776721E-07	1542424.25	0.000130884436657652
2	580	104.494146736178	0.766754150390625	0.7666015625	4.425048828125E-07	3.39224925482995E-07	1732413.875	0.00013093207962811
2	581	104.594854735923	0.756683349609375	0.75653076171875	3.33251953124999E-07	2.52115341936587E-07	2270146.75	0.000130971136968583
2	582	104.695562735669	0.746612548828125	0.746490478515625	1.605224609375E-07	1.19828484912432E-07	4650380	0.000130996006191708
2	583	104.796270735415	0.736541748046875	0.7364501953125	-8.97216796875003E-08	-6.60755503645305E-08	-8208163	0.000130999571410939
2	584	104.896978735161	0.726470947265625	0.72637939453125	-4.2724609375E-07	-3.10342755938109E-07	-1700142.875	0.000130973538034596
2	585	104.997686734906	0.716400146484375	0.71630859375	-8.5784912109375E-07	-6.14484690686368E-07	-835005.375	0.000130908825667575
2	586	105.098394734652	0.706329345703125	0.706298828125	-1.3720703125E-06	-9.69091615843354E-07	-514768.6875	0.000130796543089673
2	587	105.199102734398	0.696258544921875	0.69622802734375	-1.9488525390625E-06	-1.35684570068406E-06	-357250.25	0.000130629312479869
2	588	105.299810734144	0.686187744140625	0.686126708984375	-2.54730224609375E-06	-1.74777198935772E-06	-269354.28125	0.000130402913782746
2	589	105.400518733889	0.676116943359375	0.676025390625	-3.12530517578125E-06	-2.11278552342264E-06	-216307.015625	0.000130117274238728
2	590	105.501226733635	0.666046142578125	0.66595458984375	-3.62823486328125E-06	-2.41623956753756E-06	-183547.828125	0.000129777210531756
2	591	105.601934733381	0.655975341796875	0.655914306640625	-4.013671875E-06	-2.63262495536765E-06	-163420.015625	0.000129392414237373
2	592	105.702642733126	0.645904541015625	0.645904541015625	-4.24774169921875E-06	-2.7436356049293E-06	-152058.328125	0.000128976418636739
2	593	105.803350732872	0.635833740234375	0.63580322265625	-4.32403564453125E-06	-2.74923581855546E-06	-147039.3125	0.000128544794279151
2	594	105.904058732618	0.625762939453125	0.625762939453125	-4.2626953125E-06	-2.66743677457271E-06	-146799.828125	0.00012811241322197
2	595	106.004766732364	0.615692138671875	0.61572265625	-4.10125732421875E-06	-2.52523705057683E-06	-150130.21875	0.000127691266243346
2	596	106.105474732109	0.605621337890625	0.605621337890625	-3.88092041015625E-06	-2.3503680495196E-06	-156050.953125	0.000127289327792823
2	597	106.206182731855	0.595550537109375	0.5955810546875	-3.6370849609375E-06	-2.16617877413228E-06	-163752.3125	0.000126910759718157
2	598	106.306890731601	0.585479736328125	0.585479736328125	-3.392333984375E-06	-1.9861427063006E-06	-172589.0625	0.000126556798932143
2	599	106.407598731347	0.575408935546875	0.575347900390625	-3.15948486328125E-06	-1.81780296770739E-06	-182101.8125	0.000126226892462
2	600	106.508306731092	0.565338134765625	0.5653076171875	-2.9443359375E-06	-1.66445545346505E-06	-191998.34375	0.000125919541460462
2	601	106.609014730838	0.555267333984375	0.555267333984375	-2.7484130859375E-06	-1.52610391523922E-06	-202031.984375	0.000125632883282378
2	602	106.709722730584	0.545196533203125	0.545196533203125	-2.57293701171875E-06	-1.40275631110853E-06	-211896.578125	0.000125364938867278
2	603	106.81043073033	0.535125732421875	0.535064697265625	-2.41455078125E-06	-1.29194086184725E-06	-221600.109375	0.000125113801914267
2	604	106.911138730075	0.525054931640625	0.525054931640625	-2.27294921875E-06	-1.19342314519599E-06	-231001.625	0.000124877769849263
2	605	107.011846729821	0.514984130859375	0.51495361328125	-2.1453857421875E-06	-1.10477412818E-06	-240028.453125	0.000124655285617337
2	606	107.112554729567	0.504913330078125	0.50494384765625	-2.030029296875E-06	-1.02505077848036E-06	-248737.234375	0.000124445039546117
2	607	107.213262729313	0.494842529296875	0.494873046875	-1.92535400390625E-06	-9.52805748966057E-07	-257029.65625	0.000124245867482387
2	608	107.313970729058	0.484771728515625	0.48480224609375	-1.83013916015625E-06	-8.8725556679492E-07	-264899.125	0.000124056765343994
2	609	107.414678728804	0.474700927734375	0.474761962890625	-1.74285888671875E-06	-8.27443102480174E-07	-272404.125	0.00012387684546411
2	610	107.51538672855	0.464630126953125	0.464630126953125	-1.66290283203125E-06	-7.72634734858002E-07	-279409.0625	0.000123705351143144
2	611	107.616094728295	0.454559326171875	0.454620361328125	-1.58905029296875E-06	-7.22414597476018E-07	-286095.65625	0.000123541598441079
2	612	107.716802728041	0.444488525390625	0.444488525390625	-1.5216064453125E-06	-6.76336583183001E-07	-292117.9375	0.000123384976177476
2	613	107.817510727787	0.434417724609375	0.434417724609375	-1.458740234375E-06	-6.33702597951924E-07	-297803.375	0.000123234902275726
2	614	107.918218727533	0.424346923828125	0.42431640625	-1.40045166015625E-06	-5.94234620621137E-07	-302985.40625	0.000123090925626457
2	615	108.018926727278	0.414276123046875	0.414306640625	-1.3458251953125E-06	-5.57584314719861E-07	-307845.8125	0.000122952638776042
2	616	108.119634727024	0.404205322265625	0.40423583984375	-1.295166015625E-06	-5.23552500908409E-07	-312111.25	0.00012281964882277
2	617	108.22034272677	0.394134521484375	0.394195556640625	-1.24725341796875E-06	-4.91661751311767E-07	-316050.90625	0.000122691635624506
2	618	108.321050726516	0.384063720703125	0.38409423828125	-1.202392578125E-06	-4.6183205881789E-07	-319441.625	0.000122568279039115
2	619	108.421758726261	0.373992919921875	0.37396240234375	-1.16058349609375E-06	-4.34014566508267E-07	-322219.3125	0.000122449302580208
2	620	108.522466726007	0.363922119140625	0.3638916015625	-1.11968994140625E-06	-4.07445782002469E-07	-324993.1875	0.000122334473417141
2	621	108.623174725753	0.353851318359375	0.353912353515625	-1.08123779296875E-06	-3.82663415621209E-07	-327321.5	0.000122223646030761
2	622	108.723882725499	0.343780517578125	0.34381103515625	-1.044921875E-06	-3.59255665216551E-07	-329030.375	0.000122116587590426
2	623	108.824590725244	0.333709716796875	0.333831787109375	-1.01043701171875E-06	-3.37315981369102E-07	-330383.5625	0.000122013094369322
2	624	108.92529872499	0.323638916015625	0.323699951171875	-9.771728515625E-07	-3.16310803327724E-07	-331261.71875	0.000121913013572339
2	625	109.026006724736	0.313568115234375	0.3135986328125	-9.4635009765625E-07	-2.96774089747487E-07	-331376.96875	0.000121816156024579
2	626	109.126714724482	0.303497314453125	0.303436279296875	-9.1705322265625E-07	-2.78267208386751E-07	-330881.875	0.000121722325275186
2	627	109.227422724227	0.293426513671875	0.293426513671875	-8.88671874999999E-07	-2.60759890124973E-07	-330185.4375	0.000121631397632882
2	628	109.328130723973	0.283355712890625	0.283355712890625	-8.6212158203125E-07	-2.44287065243043E-07	-328672.5625	0.000121543242130429
2	629	109.428838723719	0.273284912109375	0.273284912109375	-8.37097167968751E-07	-2.28766026566518E-07	-326467.375	0.000121457676868886
2	630	109.529546723464	0.263214111328125	0.263214111328125	-8.1298828125E-07	-2.13989991948438E-07	-323761.25	0.000121374592708889
2	631	109.63025472321	0.253143310546875	0.25311279296875	-7.904052734375E-07	-2.00061677446683E-07	-320231.6875	0.000121293851407245
2	632	109.730962722956	0.243072509765625	0.243072509765625	-7.6904296875E-07	-1.8693320669172E-07	-316071.4375	0.000121215329272673
2	633	109.831670722702	0.233001708984375	0.2330322265625	-7.4951171875E-07	-1.74660371499158E-07	-310912.0625	0.000121138866234105
2	634	109.932378722447	0.222930908203125	0.22296142578125	-7.30285644531251E-07	-1.62825529059774E-07	-305307.15625	0.000121064345876221
2	635	110.033086722193	0.212860107421875	0.212890625	-7.12890625E-07	-1.51767721945362E-07	-298630.15625	0.000120991680887528
2	636	110.133794721939	0.202789306640625	0.202880859375	-6.97021484375E-07	-1.41412314746958E-07	-291068.3125	0.000120920682093129
2	637	110.234502721685	0.192718505859375	0.192779541015625	-6.8267822265625E-07	-1.31606384456973E-07	-282387.125	0.000120851211249828
2	638	110.33521072143	0.182647705078125	0.182647705078125	-6.70166015625E-07	-1.22404287594691E-07	-272541	0.000120783086458687
2	639	110.435918721176	0.172576904296875	0.172637939453125	-6.60095214843751E-07	-1.1395747634424E-07	-261534.90625	0.000120716103992891
2	640	110.536626720922	0.162506103515625	0.16253662109375	-6.5277099609375E-07	-1.06099193430964E-07	-248994.859375	0.000120649994642008
2	641	110.637334720668	0.152435302734375	0.1524658203125	-6.49108886718749E-07	-9.89669146633787E-08	-234884.828125	0.000120584445539862
2	642	110.738042720413	0.142364501953125	0.142425537109375	-6.4971923828125E-07	-9.25366023807328E-08	-219210.90625	0.000120519041956868
2	643	110.838750720159	0.132293701171875	0.132354736328125	-6.55517578125001E-07	-8.67608562771238E-08	-201908.75	0.000120453318231739
2	644	110.939458719905	0.122222900390625	0.122344970703125	-6.68945312499999E-07	-8.18420886616877E-08	-182892.34375	0.000120386626804247
2	645	111.040166719651	0.112152099609375	0.112213134765625	-6.91833496093749E-07	-7.76328050733355E-08	-162196.75	0.000120318101835437
2	646	111.140874719396	0.102081298828125	0.10211181640625	-7.28759765625001E-07	-7.44149843967534E-08	-140117.25	0.000120246571896132
2	647	111.241582719142	0.092010498046875	0.092041015625	-7.82470703125E-07	-7.20193966685656E-08	-117628.703125	0.000120170479931403
2	648	111.342290718888	0.081939697265625	0.08197021484375	-8.612060546875E-07	-7.05932450273394E-08	-95180.7265625	0.000120087708637584
2	649	111.442998718633	0.071868896484375	0.07196044921875	-9.69848632812501E-07	-6.97907438507173E-08	-74197.609375	0.000119995507702697
2	650	111.543706718379	0.061798095703125	0.061859130859375	-1.112060546875E-06	-6.87910954866311E-08	-55625.6875	0.000119890675705392
2	651	111.644414718125	0.051727294921875	0.05181884765625	-1.29058837890625E-06	-6.68768009859377E-08	-40151.3359375	0.000119769691082183
2	652	111.745122717871	0.041656494140625	0.0417633056640625	-1.49749755859375E-06	-6.25404439347221E-08	-27888.732421875	0.000119629301480018
2	653	111.845830717616	0.031585693359375	0.0316436767578125	-1.7205810546875E-06	-5.44455112105879E-08	-18391.2734375	0.000119467258627992
2	654	111.946538717362	0.021514892578125	0.0216064453125	-1.9354248046875E-06	-4.18176497873901E-08	-11163.6708984375	0.000119283162348438
2	655	112.047246717108	0.011444091796875	0.0115631103515625	-2.12005615234375E-06	-2.45144420318866E-08	-5454.1533203125	0.000119078955322038
2	656	112.147954716854	0.001373291015625	0.00150146484374999	-2.25341796875E-06	-3.38342798222868E-09	-666.305541992188	0.00011885873391293
2	657	112.248662716599	-0.008697509765625	-0.0086090087890625	-2.32818603515625E-06	2.00433731833982E-08	3697.73266601563	0.000118628035124857
2	658	112.349370716345	-0.018768310546875	-0.0186859130859375	-2.34619140625E-06	4.38407283809283E-08	7964.35986328125	0.000118392657896038
2	659	112.450078716091	-0.028839111328125	-0.028717041015625	-2.3187255859375E-06	6.65869350768844E-08	12384.837890625	0.000118157760880422
2	660	112.550786715837	-0.038909912109375	-0.0387664794921875	-2.261962890625E-06	8.76883419209662E-08	17138.42578125	0.000117927105748095
2	661	112.651494715582	-0.048980712890625	-0.04881591796875	-2.18841552734375E-06	1.0682951057106E-07	22306.51171875	0.000117703013529535
2	662	112.752202715328	-0.059051513671875	-0.058990478515625	-2.108154296875E-06	1.24361022812991E-07	27982.052734375	0.000117486662929878
2	663	112.852910715074	-0.069122314453125	-0.06903076171875	-2.02880859375E-06	1.40050190111651E-07	34025.2734375	0.000117278344987426
2	664	112.95361871482	-0.079193115234375	-0.079071044921875	-1.95343017578125E-06	1.54459769419191E-07	40478.05078125	0.000117077826871537
2	665	113.054326714565	-0.089263916015625	-0.089111328125	-1.88446044921875E-06	1.6792677115518E-07	47287.44921875	0.000116884570161346
2	666	113.155034714311	-0.099334716796875	-0.099273681640625	-1.82281494140625E-06	1.80957542283977E-07	54461.74609375	0.000116697898192797
2	667	113.255742714057	-0.109405517578125	-0.1092529296875	-1.7681884765625E-06	1.93179772622898E-07	61788.05859375	0.000116517076094169
2	668	113.356450713802	-0.119476318359375	-0.119384765625	-1.719970703125E-06	2.0533829570013E-07	69410.9296875	0.000116341434477363
2	669	113.457158713548	-0.129547119140625	-0.12945556640625	-1.6778564453125E-06	2.17207855257584E-07	77155.328125	0.000116170340334065
2	670	113.557866713294	-0.139617919921875	-0.139495849609375	-1.641845703125E-06	2.2903064689217E-07	84962.828125	0.000116003182483837
2	671	113.65857471304	-0.149688720703125	-0.14959716796875	-1.60980224609375E-06	2.40821862007579E-07	92928.9140625	0.000115839444333687
2	672	113.759282712785	-0.159759521484375	-0.159637451171875	-1.5838623046875E-06	2.5284373350587E-07	100789.984375	0.000115678631118499
2	673	113.859990712531	-0.169830322265625	-0.16973876953125	-1.561279296875E-06	2.65009617805845E-07	108717.75	0.000115520262625068
2	674	113.960698712277	-0.179901123046875	-0.179718017578125	-1.54296875E-06	2.77299278650389E-07	116475.4765625	0.000115363953227643
2	675	114.061406712023	-0.189971923828125	-0.1898193359375	-1.52862548828125E-06	2.90162688543205E-07	124176.484375	0.000115209280920681
2	676	114.162114711768	-0.200042724609375	-0.19989013671875	-1.51763916015625E-06	3.03361105125077E-07	131711.25	0.000115055889182258
2	677	114.262822711514	-0.189971923828125	-0.1898193359375	-1.36138916015625E-06	2.58417969689617E-07	139430.625	0.000114910923002753
