Potential - Start -0.2 V, Upper Vertex 1.5 V, Lower Vertex -0.2 V, Stop -0.19 V; Scan - # end cross 5, Rate 0.1 Vps, Step 0.01 V 
Scan	Index	Time (s)	Potential applied (V)	WE(1).Potential (V)	WE(1).Current (A)	WE(1).Power (W)	WE(1).Resistance (Ω)	WE(1).Charge (C)
1	1	65.9465748335009	-0.189971923828125	-0.1898193359375	-2.47802734374999E-07	4.7037747918921E-08	766009.875	0
1	2	66.0472828332466	-0.179901123046875	-0.179718017578125	-2.105712890625E-07	3.78434528158778E-08	853478.25	-2.30809646950547E-08
1	3	66.1479908329924	-0.169830322265625	-0.169677734375	-1.80969238281251E-07	3.07064489390996E-08	937605.375	-4.27965964888699E-08
1	4	66.2486988327381	-0.159759521484375	-0.15960693359375	-1.568603515625E-07	2.50359999398597E-08	1017509.75	-5.98076681512794E-08
1	5	66.3494068324839	-0.149688720703125	-0.149566650390625	-1.35192871093751E-07	2.02203445098803E-08	1106320.625	-7.45137143098873E-08
1	6	66.4501148322296	-0.139617919921875	-0.1395263671875	-1.15356445312501E-07	1.60952655647861E-08	1209523.875	-8.71298766469408E-08
1	7	66.5508228319753	-0.129547119140625	-0.129425048828125	-9.67407226562494E-08	1.25206724987947E-08	1337854.875	-9.78098171344755E-08
1	8	66.6515308317211	-0.119476318359375	-0.119384765625	-7.90405273437503E-08	9.43623490456957E-09	1510424.75	-1.06661104837258E-07
1	9	66.7522388314668	-0.109405517578125	-0.10931396484375	-6.04248046875006E-08	6.60527499363184E-09	1809091	-1.13683739755288E-07
1	10	66.8529468312125	-0.099334716796875	-0.0992431640625	-4.08935546875003E-08	4.05840561157333E-09	2426865.75	-1.18785528968601E-07
1	11	66.9536548309583	-0.089263916015625	-0.089202880859375	-1.92260742187506E-08	1.7150211251149E-09	4639683	-1.2181278918888E-07
1	12	67.054362830704	-0.079193115234375	-0.0791015625	7.01904296875056E-09	-5.55217261055674E-10	-11269566	-1.22427465498731E-07
1	13	67.1550708304497	-0.069122314453125	-0.069061279296875	3.84521484374997E-08	-2.65555444300958E-09	-1796031.875	-1.20137812587018E-07
1	14	67.2557788301955	-0.059051513671875	-0.0589599609375	7.84301757812495E-08	-4.62424010194695E-09	-751751	-1.14252316052443E-07
1	15	67.3564868299412	-0.048980712890625	-0.0488494873046875	1.3092041015625E-07	-6.39539488034302E-09	-373123.53125	-1.03710675602997E-07
1	16	67.457194829687	-0.038909912109375	-0.0387725830078125	2.0111083984375E-07	-7.79758657643015E-09	-192792.109375	-8.69915695034251E-08
1	17	67.5579028294327	-0.028839111328125	-0.0287261962890625	2.94189453125E-07	-8.45094394463786E-09	-97645.2265625	-6.20512210502966E-08
1	18	67.6586108291784	-0.018768310546875	-0.0186279296875	4.17480468750001E-07	-7.77679698416023E-09	-44619.88671875	-2.62157957564568E-08
1	19	67.7593188289242	-0.008697509765625	-0.00856628417968749	5.76171875000001E-07	-4.93565233128379E-09	-14867.5849609375	2.38185755563336E-08
1	20	67.8600268286699	0.001373291015625	0.00147705078125	7.7362060546875E-07	1.1426769530587E-09	1909.27038574219	9.178602766724E-08
1	21	67.9607348284156	0.011444091796875	0.0115234375	1.00433349609375E-06	1.15733742589441E-08	11473.7158203125	1.81313126290661E-07
1	22	68.0614428281614	0.021514892578125	0.0216400146484375	1.2567138671875E-06	2.71953055630547E-08	17219.5234375	2.95165904162786E-07
1	23	68.1621508279071	0.031585693359375	0.031671142578125	1.510009765625E-06	4.78237360823641E-08	20974.1328125	4.34481506772499E-07
1	24	68.2628588276528	0.041656494140625	0.041741943359375	1.74041748046875E-06	7.26484117308246E-08	23983.869140625	5.98153519604239E-07
1	25	68.3635668273986	0.051727294921875	0.0517578125	1.92413330078125E-06	9.95889308796905E-08	26899.28515625	7.8267828484968E-07
1	26	68.4642748271443	0.061798095703125	0.061859130859375	2.04620361328125E-06	1.26576367165399E-07	30231.173828125	9.826006817093E-07
1	27	68.5649828268901	0.071868896484375	0.0718994140625	2.1051025390625E-06	1.5135563558033E-07	34154.828125	1.19163553335966E-06
1	28	68.6656908266358	0.081939697265625	0.082000732421875	2.1099853515625E-06	1.73020325178186E-07	38863.1796875	1.40388203817565E-06
1	29	68.7663988263815	0.092010498046875	0.092010498046875	2.07550048828125E-06	1.90967824664767E-07	44331.71875	1.61463799486228E-06
1	30	68.8671068261273	0.102081298828125	0.102142333984375	2.01568603515625E-06	2.05886877324701E-07	50673.73046875	1.82064559339778E-06
1	31	68.967814825873	0.112152099609375	0.112152099609375	1.9439697265625E-06	2.18020275610797E-07	57692.30859375	2.02003002414131E-06
1	32	69.0685228256187	0.122222900390625	0.122222900390625	1.86798095703125E-06	2.28310042871271E-07	65430.484375	2.21197706196108E-06
1	33	69.1692308253645	0.132293701171875	0.132293701171875	1.7938232421875E-06	2.37311510886684E-07	73749.578125	2.39636347032501E-06
1	34	69.2699388251102	0.142364501953125	0.14239501953125	1.72393798828125E-06	2.45480180183222E-07	82598.6875	2.57349688581598E-06
1	35	69.370646824856	0.152435302734375	0.1524658203125	1.65985107421875E-06	2.53070538747124E-07	91855.125	2.74388412435655E-06
1	36	69.4713548246017	0.162506103515625	0.16253662109375	1.6021728515625E-06	2.6041175260616E-07	101447.625	2.9081402317388E-06
1	37	69.5720628243474	0.172576904296875	0.172576904296875	1.55059814453125E-06	2.67597414449483E-07	111296.9921875	3.06689480567002E-06
1	38	69.6727708240932	0.182647705078125	0.182647705078125	1.50421142578125E-06	2.74740756367464E-07	121424.2265625	3.22071673508617E-06
1	39	69.7734788238389	0.192718505859375	0.192779541015625	1.46270751953125E-06	2.81980078398192E-07	131796.375	3.37011283590982E-06
1	40	69.8741868235846	0.202789306640625	0.202850341796875	1.42608642578125E-06	2.89282127141632E-07	142242.671875	3.51557514477463E-06
1	41	69.9748948233304	0.212860107421875	0.212890625	1.392822265625E-06	2.96518805953383E-07	152848.375	3.65751861863828E-06
1	42	70.0756028230761	0.222930908203125	0.22296142578125	1.363525390625E-06	3.04013553886762E-07	163518.359375	3.79631160285498E-06
1	43	70.1763108228218	0.233001708984375	0.23297119140625	1.336669921875E-06	3.11405585762259E-07	174292.234375	3.93227719541756E-06
1	44	70.2770188225676	0.243072509765625	0.243072509765625	1.31256103515625E-06	3.19047501307068E-07	185189.484375	4.06567687605275E-06
1	45	70.3777268223133	0.253143310546875	0.253173828125	1.29058837890625E-06	3.2674319072612E-07	196169.3125	4.19675552620902E-06
1	46	70.4784348220591	0.263214111328125	0.26324462890625	1.27105712890625E-06	3.34598951212683E-07	207106.859375	4.32574461228796E-06
1	47	70.5791428218048	0.273284912109375	0.273284912109375	1.2530517578125E-06	3.42440131362309E-07	218095.46875	4.45284376837662E-06
1	48	70.6798508215505	0.283355712890625	0.283355712890625	1.23687744140625E-06	3.50476284438628E-07	229089.5625	4.57822170574218E-06
1	49	70.7805588212963	0.293426513671875	0.29345703125	1.22161865234375E-06	3.58492570740054E-07	240219.84375	4.7020166675793E-06
1	50	70.881266821042	0.303497314453125	0.303497314453125	1.20819091796875E-06	3.66682684216357E-07	251199.8125	4.82436735183001E-06
1	51	70.9819748207877	0.313568115234375	0.313629150390625	1.1956787109375E-06	3.74999700625267E-07	262302.1875	4.94541200168896E-06
1	52	71.0826828205335	0.323638916015625	0.323638916015625	1.1846923828125E-06	3.83412555038376E-07	273183.9375	5.06527294419357E-06
1	53	71.1833908202792	0.333709716796875	0.333709716796875	1.17401123046875E-06	3.91778968378276E-07	284247.46875	5.18404294780339E-06
1	54	71.284098820025	0.343780517578125	0.34375	1.16485595703125E-06	4.00419224888537E-07	295100.875	5.30181432623067E-06
1	55	71.3848068197707	0.353851318359375	0.35382080078125	1.15631103515625E-06	4.09126869271859E-07	305991.03125	5.41869439985021E-06
1	56	71.4855148195164	0.363922119140625	0.36395263671875	1.148681640625E-06	4.18065695839687E-07	316843.8125	5.53476002096431E-06
1	57	71.5862228192622	0.373992919921875	0.373992919921875	1.14227294921875E-06	4.27201996444637E-07	327411.15625	5.65011896469514E-06
1	58	71.6869308190079	0.384063720703125	0.384002685546875	1.1358642578125E-06	4.36174900642072E-07	338070.9375	5.76483216718771E-06
1	59	71.7876388187536	0.394134521484375	0.3941650390625	1.13128662109375E-06	4.4591362780011E-07	348421.90625	5.87899239690159E-06
1	60	71.8883468184994	0.404205322265625	0.40423583984375	1.1260986328125E-06	4.55209402616674E-07	358970.1875	5.99266058998182E-06
1	61	71.9890548182451	0.414276123046875	0.414276123046875	1.121826171875E-06	4.64745767203567E-07	369287.28125	6.10585266258568E-06
1	62	72.0897628179908	0.424346923828125	0.424346923828125	1.1187744140625E-06	4.74748503620503E-07	379296.21875	6.21867593508796E-06
1	63	72.1904708177366	0.434417724609375	0.43438720703125	1.1163330078125E-06	4.84920803955902E-07	389119.75	6.33122226645355E-06
1	64	72.2911788174823	0.444488525390625	0.44451904296875	1.11419677734375E-06	4.95281653911661E-07	398959.21875	6.4435384956596E-06
1	65	72.3918868172281	0.454559326171875	0.45458984375	1.1126708984375E-06	5.05808827711007E-07	408557.34375	6.55567009744118E-06
1	66	72.4925948169738	0.464630126953125	0.46466064453125	1.11114501953125E-06	5.16305362907588E-07	418181.8125	6.66764844936552E-06
1	67	72.5933028167195	0.474700927734375	0.474700927734375	1.1114501953125E-06	5.27606403011305E-07	427100.5	6.77956495565013E-06
1	68	72.6940108164653	0.484771728515625	0.4847412109375	1.11114501953125E-06	5.38617769052507E-07	436253.78125	6.89148146193475E-06
1	69	72.794718816211	0.494842529296875	0.49481201171875	1.11236572265625E-06	5.50411925814842E-07	444828.5625	7.0034438977018E-06
1	70	72.8954268159567	0.504913330078125	0.504913330078125	1.1138916015625E-06	5.62418733807135E-07	453287.6875	7.11554503141087E-06
1	71	72.9961348157025	0.514984130859375	0.514984130859375	1.11663818359375E-06	5.75050933093735E-07	461191.59375	7.22786126061692E-06
1	72	73.0968428154482	0.525054931640625	0.525054931640625	1.1199951171875E-06	5.88058924222423E-07	468801.09375	7.34048444428481E-06
1	73	73.1975508151939	0.535125732421875	0.53515625	1.12518310546875E-06	6.02148759298871E-07	475617.03125	7.45353827369399E-06
1	74	73.2982588149397	0.545196533203125	0.54522705078125	1.1322021484375E-06	6.17307193806482E-07	481563.375	7.56720646677422E-06
1	75	73.3989668146854	0.555267333984375	0.55523681640625	1.1419677734375E-06	6.34062587323569E-07	486210.5625	7.6817204899271E-06
1	76	73.4996748144312	0.565338134765625	0.56536865234375	1.15478515625E-06	6.52879293738806E-07	489587.78125	7.79737092670985E-06
1	77	73.6003828141769	0.575408935546875	0.575408935546875	1.17218017578125E-06	6.74482976137369E-07	490887.78125	7.91454294812866E-06
1	78	73.7010908139226	0.585479736328125	0.58544921875	1.1962890625E-06	7.00366513228801E-07	489387.75	8.03380498837214E-06
1	79	73.8017988136684	0.595550537109375	0.59552001953125	1.23077392578125E-06	7.32950525161868E-07	483858.15625	8.15601742942818E-06
1	80	73.9025068134141	0.605621337890625	0.6055908203125	1.2799072265625E-06	7.75100090777414E-07	473152.125	8.28243992145872E-06
1	81	74.0032148131598	0.615692138671875	0.615631103515625	1.35009765625E-06	8.31162083159143E-07	455990.0625	8.41487144498387E-06
1	82	74.1039228129056	0.625762939453125	0.625762939453125	1.448974609375E-06	9.06714603843284E-07	431866.0625	8.55581583891762E-06
1	83	74.2046308126513	0.635833740234375	0.6357421875	1.58416748046875E-06	1.00712202311115E-06	401309.96875	8.70854637469165E-06
1	84	74.3053388123971	0.645904541015625	0.6458740234375	1.76422119140625E-06	1.13946464352921E-06	366095.84375	8.87715123099042E-06
1	85	74.4060468121428	0.655975341796875	0.655914306640625	1.99127197265625E-06	1.30610385440377E-06	329394.625	9.06625518837245E-06
1	86	74.5067548118885	0.666046142578125	0.66595458984375	2.2637939453125E-06	1.50758398831385E-06	294176.34375	9.28051485971082E-06
1	87	74.6074628116343	0.676116943359375	0.67608642578125	2.56988525390625E-06	1.73746457221569E-06	263080.40625	9.52391019382048E-06
1	88	74.70817081138	0.686187744140625	0.686065673828125	2.890625E-06	1.98315865418408E-06	237341.640625	9.79886863206048E-06
1	89	74.8088788111257	0.696258544921875	0.6961669921875	3.1964111328125E-06	2.2252359030972E-06	217796.46875	1.01053747130209E-05
1	90	74.9095868108715	0.706329345703125	0.706298828125	3.45977783203125E-06	2.44363695856009E-06	204145.734375	1.04405407910235E-05
1	91	75.0102948106172	0.716400146484375	0.716278076171875	3.65478515625E-06	2.61784248323238E-06	195983.640625	1.07987871160731E-05
1	92	75.1110028103629	0.726470947265625	0.726348876953125	3.77227783203125E-06	2.73998966804356E-06	192549.15625	1.11727695184527E-05
1	93	75.2117108101087	0.736541748046875	0.7364501953125	3.81683349609375E-06	2.81090751741431E-06	192947.96875	1.15549119072966E-05
1	94	75.3124188098544	0.746612548828125	0.746551513671875	3.8031005859375E-06	2.83921053778613E-06	196300.75	1.19386058941018E-05
1	95	75.4131268096002	0.756683349609375	0.75653076171875	3.75213623046875E-06	2.83860640593048E-06	201626.6875	1.23190420708852E-05
1	96	75.5138348093459	0.766754150390625	0.7666015625	3.68438720703125E-06	2.82445694210764E-06	208067.59375	1.26935010484885E-05
1	97	75.6145428090916	0.776824951171875	0.77667236328125	3.61663818359375E-06	2.80894300885848E-06	214749.8125	1.30611369968392E-05
1	98	75.7152508088374	0.786895751953125	0.7867431640625	3.563232421875E-06	2.80334870694787E-06	220794.796875	1.34226720547304E-05
1	99	75.8159588085831	0.796966552734375	0.79742431640625	3.53271484375E-06	2.81707275462395E-06	225725.640625	1.37799816002371E-05
1	100	75.9166668083288	0.807037353515625	0.8074951171875	3.53515625E-06	2.85462124338665E-06	228418.515625	1.41358768814825E-05
1	101	76.0173748080746	0.817108154296875	0.81695556640625	3.57513427734375E-06	2.92072559204826E-06	228510.46875	1.44939085657825E-05
1	102	76.1180828078203	0.827178955078125	0.82733154296875	3.65692138671875E-06	3.025486421393E-06	226237.171875	1.48580711538671E-05
1	103	76.2187908075661	0.837249755859375	0.83770751953125	3.7750244140625E-06	3.16236628350453E-06	221907.84375	1.52323000293109E-05
1	104	76.3194988073118	0.847320556640625	0.84808349609375	3.92242431640625E-06	3.32654326484771E-06	216214.125	1.56198966578813E-05
1	105	76.4202068070575	0.857391357421875	0.8575439453125	4.07989501953125E-06	3.49868923876784E-06	210187.75	1.60228464665124E-05
1	106	76.5209148068033	0.867462158203125	0.8673095703125	4.2291259765625E-06	3.66796120943036E-06	205080.109375	1.64412376761902E-05
1	107	76.621622806549	0.877532958984375	0.8770751953125	4.34906005859375E-06	3.81445261155022E-06	201670.0625	1.68731839949032E-05
1	108	76.7223308062947	0.887603759765625	0.8880615234375	4.42901611328125E-06	3.93323853131733E-06	200509.890625	1.73151947819861E-05
1	109	76.8230388060405	0.897674560546875	0.89752197265625	4.46533203125E-06	4.00773342335015E-06	200997.8125	1.77630608959589E-05
1	110	76.9237468057862	0.907745361328125	0.908203125	4.46624755859375E-06	4.05625996791059E-06	203348.140625	1.82128023880068E-05
1	111	77.0244548055319	0.917816162109375	0.91796875	4.444580078125E-06	4.07998550144839E-06	206536.671875	1.86614979611477E-05
1	112	77.1251628052777	0.927886962890625	0.9283447265625	4.41680908203125E-06	4.10032134823268E-06	210184.484375	1.91077051567845E-05
1	113	77.2258708050234	0.937957763671875	0.9381103515625	4.398193359375E-06	4.12599047194817E-06	213294.484375	1.95515749510378E-05
1	114	77.3265788047692	0.948028564453125	0.94818115234375	4.40399169921875E-06	4.17578166889143E-06	215300.40625	1.99948008230422E-05
1	115	77.4272868045149	0.958099365234375	0.9576416015625	4.44793701171875E-06	4.25952976002009E-06	215300.171875	2.04405296244659E-05
1	116	77.5279948042606	0.968170166015625	0.96771240234375	4.54376220703125E-06	4.39705536336987E-06	212976.015625	2.08932979148813E-05
1	117	77.6287028040064	0.978240966796875	0.97808837890625	4.7003173828125E-06	4.59732564195292E-06	208089.859375	2.13587754842592E-05
1	118	77.7294108037521	0.988311767578125	0.98907470703125	4.91973876953125E-06	4.86598901261459E-06	201042.125	2.18431832763599E-05
1	119	77.8301188034978	0.998382568359375	0.99822998046875	5.2001953125E-06	5.19099057783023E-06	191960.09375	2.23527622438269E-05
1	120	77.9308268032436	1.00845336914063	1.0089111328125	5.517578125E-06	5.56674558538361E-06	182853.984375	2.28924454859225E-05
1	121	78.0315348029893	1.01852416992188	1.01898193359375	5.8502197265625E-06	5.96126801610808E-06	174178.40625	2.34648596233455E-05
1	122	78.132242802735	1.02859497070313	1.029052734375	6.1676025390625E-06	6.34678826827439E-06	166848.09375	2.4070004656096E-05
1	123	78.2329508024808	1.03866577148438	1.038818359375	6.43310546875E-06	6.68282791593811E-06	161480.078125	2.4704500901862E-05
1	124	78.3336588022265	1.04873657226563	1.048583984375	6.6162109375E-06	6.9376524152176E-06	158487.09375	2.53615853580413E-05
1	125	78.4343668019723	1.05880737304688	1.05865478515625	6.707763671875E-06	7.10120593794272E-06	157825.296875	2.60325014096452E-05
1	126	78.535074801718	1.06887817382813	1.0693359375	6.707763671875E-06	7.17285274731694E-06	159417.65625	2.67080267803976E-05
1	127	78.6357828014637	1.07894897460938	1.0791015625	6.634521484375E-06	7.15932264938601E-06	162649.5	2.73798632406397E-05
1	128	78.7364908012095	1.08901977539063	1.08917236328125	6.512451171875E-06	7.09318146618898E-06	167244.625	2.80418662441662E-05
1	129	78.8371988009552	1.09909057617188	1.0992431640625	6.3629150390625E-06	6.99439078744035E-06	172757.796875	2.86901922663674E-05
1	130	78.9379068007009	1.10916137695313	1.10870361328125	6.2042236328125E-06	6.87864530846127E-06	178701.421875	2.93229986709775E-05
1	131	79.0386148004467	1.11923217773438	1.11907958984375	6.048583984375E-06	6.76884701533709E-06	185015.140625	2.9939976229798E-05
1	132	79.1393228001924	1.12930297851563	1.129150390625	5.902099609375E-06	6.6643578975345E-06	191313.34375	3.05417415802367E-05
1	133	79.2400307999382	1.13937377929688	1.1395263671875	5.7647705078125E-06	6.56910788165987E-06	197670.734375	3.11292133119423E-05
1	134	79.3407387996839	1.14944458007813	1.14990234375	5.6427001953125E-06	6.4885543906712E-06	203785.828125	3.17036246997304E-05
1	135	79.4414467994296	1.15951538085938	1.15997314453125	5.52978515625E-06	6.41440237814095E-06	209768.21875	3.22662053804379E-05
1	136	79.5421547991754	1.16958618164063	1.16943359375	5.4290771484375E-06	6.34894513495965E-06	215401.90625	3.28180285578128E-05
1	137	79.6428627989211	1.17965698242188	1.17950439453125	5.340576171875E-06	6.29923306405544E-06	220857.140625	3.33603238686919E-05
1	138	79.7435707986668	1.18972778320313	1.18927001953125	5.2581787109375E-06	6.25339407633874E-06	226175.28125	3.38940117217135E-05
1	139	79.8442787984126	1.19979858398438	1.1993408203125	5.18798828125E-06	6.22216612100601E-06	231176.46875	3.44200198014732E-05
1	140	79.9449867981583	1.20986938476563	1.209716796875	5.120849609375E-06	6.19477759755682E-06	236233.625	3.49391120835207E-05
1	141	80.045694797904	1.21994018554688	1.21978759765625	5.0628662109375E-06	6.17562091065338E-06	240928.28125	3.54518997482955E-05
1	142	80.1464027976498	1.23001098632813	1.23016357421875	5.0079345703125E-06	6.16057832303341E-06	245642.90625	3.59590048901737E-05
1	143	80.2471107973955	1.24008178710938	1.23992919921875	4.95880126953125E-06	6.14856253378093E-06	250046.15625	3.64608713425696E-05
1	144	80.3478187971413	1.25015258789063	1.25030517578125	4.91546630859375E-06	6.14583268543356E-06	254361.46875	3.69580811820924E-05
1	145	80.448526796887	1.26022338867188	1.26007080078125	4.87579345703125E-06	6.14384498476284E-06	258434	3.74511109839659E-05
1	146	80.5492347966327	1.27029418945313	1.270751953125	4.84039306640625E-06	6.15093904343667E-06	262530.71875	3.794035728788E-05
1	147	80.6499427963785	1.28036499023438	1.28021240234375	4.808349609375E-06	6.15570843365276E-06	266247.78125	3.84262093575671E-05
1	148	80.7506507961242	1.29043579101563	1.2908935546875	4.7796630859375E-06	6.17003615843714E-06	270080.46875	3.89090055250563E-05
1	149	80.8513587958699	1.30050659179688	1.30096435546875	4.75372314453125E-06	6.18442390987184E-06	273672.75	3.93890513805673E-05
1	150	80.9520667956157	1.31057739257813	1.3104248046875	4.73114013671875E-06	6.19980346527882E-06	276978.65625	3.98666488763411E-05
1	151	81.0527747953614	1.32064819335938	1.32080078125	4.7113037109375E-06	6.22269317318569E-06	280347.21875	4.03421145165339E-05
1	152	81.1534827951072	1.33071899414063	1.33056640625	4.69512939453125E-06	6.24718086328357E-06	283392.9375	4.08157684432808E-05
1	153	81.2541907948529	1.34078979492188	1.3409423828125	4.6820068359375E-06	6.27830149824149E-06	286403.34375	4.12879417126533E-05
1	154	81.3548987945986	1.35086059570313	1.3507080078125	4.67193603515625E-06	6.3104212131293E-06	289110.96875	4.17589508288074E-05
1	155	81.4556067943444	1.36093139648438	1.36077880859375	4.66522216796875E-06	6.34833531876211E-06	291685.75	4.22291159338783E-05
1	156	81.5563147940901	1.37100219726563	1.370849609375	4.66094970703125E-06	6.38946130493423E-06	294113.78125	4.26987244281918E-05
1	157	81.6570227938358	1.38107299804688	1.3812255859375	4.66094970703125E-06	6.43782323095365E-06	296339.9375	4.31681182817556E-05
1	158	81.7577307935816	1.39114379882813	1.3909912109375	4.66278076171875E-06	6.4858868427109E-06	298317.96875	4.36376067227684E-05
1	159	81.8584387933273	1.40121459960938	1.4007568359375	4.6673583984375E-06	6.53783354209736E-06	300117.71875	4.41074153059162E-05
1	160	81.959146793073	1.41128540039063	1.41143798828125	4.67498779296875E-06	6.59845545669668E-06	301912.65625	4.45778423454612E-05
1	161	82.0598547928188	1.42135620117188	1.42120361328125	4.68414306640625E-06	6.65712059344514E-06	303407.40625	4.50491097581107E-05
1	162	82.1605627925645	1.43142700195313	1.4312744140625	4.69482421875E-06	6.71958150633145E-06	304862.21875	4.55213812529109E-05
1	163	82.2612707923103	1.44149780273438	1.44134521484375	4.70794677734375E-06	6.78577634971589E-06	306151.5625	4.59948460047599E-05
1	164	82.361978792056	1.45156860351563	1.45172119140625	4.722900390625E-06	6.85633449393208E-06	307379.15625	4.64697259303648E-05
1	165	82.4626867918017	1.46163940429688	1.4617919921875	4.7406005859375E-06	6.92977209837409E-06	308355.875	4.69462538603693E-05
1	166	82.5633947915475	1.47171020507813	1.47186279296875	4.7607421875E-06	7.00715963830589E-06	309166.65625	4.742468445329E-05
1	167	82.6641027912932	1.48178100585938	1.48162841796875	4.78515625E-06	7.08982361175003E-06	309630.09375	4.79053560411558E-05
1	168	82.7648107910389	1.49185180664063	1.4910888671875	4.81658935546875E-06	7.18196270099725E-06	309573.59375	4.83888434246182E-05
1	169	82.8655187907847	1.50192260742188	1.50146484375	4.85687255859375E-06	7.29242310626432E-06	309142.34375	4.88759396830574E-05
1	170	82.9662267905304	1.49185180664063	1.49169921875	4.61212158203125E-06	6.87989768266561E-06	323430.1875	4.93527440994512E-05
1	171	83.0669347902762	1.48178100585938	1.48162841796875	4.4329833984375E-06	6.56803376841708E-06	334228.3125	4.98082008562051E-05
1	172	83.1676427900219	1.47171020507813	1.47186279296875	4.290771484375E-06	6.31542661722051E-06	343029.875	5.0247475883225E-05
1	173	83.2683507897676	1.46163940429688	1.461181640625	4.17266845703125E-06	6.09702647125232E-06	350179.1875	5.06736432726029E-05
1	174	83.3690587895134	1.45156860351563	1.45172119140625	4.07257080078125E-06	5.91223761148285E-06	356463.09375	5.10888239659835E-05
1	175	83.4697667892591	1.44149780273438	1.44195556640625	3.98468017578125E-06	5.74573141420842E-06	361874.875	5.14945386385079E-05
1	176	83.5704747890048	1.43142700195313	1.43157958984375	3.90777587890625E-06	5.59429236091091E-06	366341.28125	5.18919550813735E-05
1	177	83.6711827887506	1.42135620117188	1.4215087890625	3.83941650390625E-06	5.45776401850162E-06	370240.84375	5.22820591868367E-05
1	178	83.7718907884963	1.41128540039063	1.41082763671875	3.77716064453125E-06	5.32892272531171E-06	373515.40625	5.26655821886379E-05
1	179	83.872598788242	1.40121459960938	1.4013671875	3.72100830078125E-06	5.21449874213431E-06	376609.53125	5.30431461811531E-05
1	180	83.9733067879878	1.39114379882813	1.39129638671875	3.67034912109375E-06	5.10654354002327E-06	379063.78125	5.34153296030127E-05
1	181	84.0740147877335	1.38107299804688	1.38092041015625	3.62335205078125E-06	5.00356054544682E-06	381116.84375	5.37825981155038E-05
1	182	84.1747227874793	1.37100219726563	1.370849609375	3.5797119140625E-06	4.90724642077112E-06	382949.71875	5.4145300964592E-05
1	183	84.275430787225	1.36093139648438	1.361083984375	3.5400390625E-06	4.81829010823276E-06	384482.78125	5.45038092241157E-05
1	184	84.3761387869707	1.35086059570313	1.35101318359375	3.5028076171875E-06	4.73233922093641E-06	385694.40625	5.48584430362098E-05
1	185	84.4768467867165	1.34078979492188	1.3409423828125	3.4674072265625E-06	4.64959339296911E-06	386727.6875	5.52094243175816E-05
1	186	84.5775547864622	1.33071899414063	1.33056640625	3.4344482421875E-06	4.56976158602629E-06	387417.8125	5.55569567950442E-05
1	187	84.6782627862079	1.32064819335938	1.32049560546875	3.4033203125E-06	4.49406934421859E-06	388002.15625	5.59012660232838E-05
1	188	84.7789707859537	1.31057739257813	1.31072998046875	3.3740234375E-06	4.42243344878079E-06	388476.84375	5.62425339012407E-05
1	189	84.8796787856994	1.30050659179688	1.30035400390625	3.34625244140625E-06	4.35131278209155E-06	388600.09375	5.65809277759399E-05
1	190	84.9803867854451	1.29043579101563	1.29058837890625	3.32000732421875E-06	4.28476278102607E-06	388730.59375	5.69166004424915E-05
1	191	85.0810947851909	1.28036499023438	1.280517578125	3.294677734375E-06	4.21889262725017E-06	388662.46875	5.72496755921748E-05
1	192	85.1818027849366	1.27029418945313	1.27044677734375	3.271484375E-06	4.15624663219205E-06	388339.5625	5.75803096580785E-05
1	193	85.2825107846824	1.26022338867188	1.26007080078125	3.248291015625E-06	4.09307676818571E-06	387918.0625	5.79086045036092E-05
1	194	85.3832187844281	1.25015258789063	1.25	3.22662353515625E-06	4.03327931053354E-06	387401.875	5.82346438022796E-05
1	195	85.4839267841738	1.24008178710938	1.240234375	3.20587158203125E-06	3.97603207602515E-06	386863.40625	5.85585439694114E-05
1	196	85.5846347839196	1.23001098632813	1.23016357421875	3.18572998046875E-06	3.91896901419386E-06	386148.125	5.88803886785172E-05
1	197	85.6853427836653	1.21994018554688	1.2200927734375	3.16680908203125E-06	3.86380088457372E-06	385275.15625	5.92002616031095E-05
1	198	85.786050783411	1.20986938476563	1.21002197265625	3.14697265625E-06	3.80790606868686E-06	384503.5	5.95181882090401E-05
1	199	85.8867587831568	1.19979858398438	1.19964599609375	3.1280517578125E-06	3.75255467588431E-06	383512.1875	5.98341612203512E-05
1	200	85.9874667829025	1.18972778320313	1.18927001953125	3.10791015625E-06	3.69614417650155E-06	382659.09375	6.01481660851277E-05
1	201	86.0881747826483	1.17965698242188	1.18011474609375	3.08685302734375E-06	3.64284073839372E-06	382303.5	6.04600973019842E-05
1	202	86.188882782394	1.16958618164063	1.1700439453125	3.0645751953125E-06	3.58568763658695E-06	381796.46875	6.07698457315564E-05
1	203	86.2895907821397	1.15951538085938	1.15936279296875	3.03985595703125E-06	3.52429583472258E-06	381387.40625	6.10772258369252E-05
1	204	86.3902987818855	1.14944458007813	1.14990234375	3.0108642578125E-06	3.46219985658536E-06	381917.6875	6.13819065620191E-05
1	205	86.4910067816312	1.13937377929688	1.13983154296875	2.97607421875E-06	3.39222333423095E-06	382998.34375	6.16833713138476E-05
1	206	86.5917147813769	1.12930297851563	1.129150390625	2.93304443359375E-06	3.31184833157749E-06	384975.53125	6.19809216004796E-05
1	207	86.6924227811227	1.11923217773438	1.119384765625	2.8765869140625E-06	3.22000755659246E-06	389136.4375	6.22734587523155E-05
1	208	86.7931307808684	1.10916137695313	1.10931396484375	2.802734375E-06	3.10911241285794E-06	395797.03125	6.25594329903834E-05
1	209	86.8938387806141	1.09909057617188	1.09954833984375	2.703857421875E-06	2.97302176477388E-06	406659.15625	6.28367124591023E-05
1	210	86.9945467803599	1.08901977539063	1.08917236328125	2.57080078125E-06	2.80004496744368E-06	423670.46875	6.31023140158504E-05
1	211	87.0952547801056	1.07894897460938	1.07879638671875	2.39532470703125E-06	2.58406748798734E-06	450375.875	6.33523814030923E-05
1	212	87.1959627798514	1.06887817382813	1.06903076171875	2.16705322265625E-06	2.31664648708829E-06	493310.78125	6.35821124888025E-05
1	213	87.2966707795971	1.05880737304688	1.05865478515625	1.88018798828125E-06	1.99046985471796E-06	563057.9375	6.37859047856182E-05
1	214	87.3973787793428	1.04873657226563	1.04827880859375	1.53533935546875E-06	1.60946365213022E-06	682766.875	6.39578938717023E-05
1	215	87.4980867790886	1.03866577148438	1.03851318359375	1.14654541015625E-06	1.19070250548248E-06	905775.875	6.40929356450215E-05
1	216	87.5987947788343	1.02859497070313	1.029052734375	7.34863281250001E-07	7.56213012209628E-07	1400332.25	6.41876686131582E-05
1	217	87.69950277858	1.01852416992188	1.01837158203125	3.32031250000001E-07	3.38131201260694E-07	3067095.5	6.42413942841813E-05
1	218	87.8002107783258	1.00845336914063	1.00860595703125	-2.77709960937497E-08	-2.80099925475952E-08	-36318680	6.42567174509168E-05
1	219	87.9009187780715	0.998382568359375	0.99853515625	-3.1005859375E-07	-3.09604416770526E-07	-3220472.5	6.42397062620148E-05
1	220	88.0016267778173	0.988311767578125	0.98876953125	-5.0079345703125E-07	-4.95169274472573E-07	-1974406	6.4198873587884E-05
1	221	88.102334777563	0.978240966796875	0.97869873046875	-5.9478759765625E-07	-5.82117877456767E-07	-1645459.25	6.41437072772533E-05
1	222	88.2030427773087	0.968170166015625	0.968017578125	-6.07910156249999E-07	-5.88467685247451E-07	-1592369.5	6.40831494820304E-05
1	223	88.3037507770545	0.958099365234375	0.958251953125	-5.5999755859375E-07	-5.36618756541429E-07	-1711171.75	6.4024337916635E-05
1	224	88.4044587768002	0.948028564453125	0.94818115234375	-4.779052734375E-07	-4.53140756917492E-07	-1984035.875	6.39720747130923E-05
1	225	88.5051667765459	0.937957763671875	0.93780517578125	-3.80859375000001E-07	-3.57171899167952E-07	-2462339.75	6.39288336969912E-05
1	226	88.6058747762917	0.927886962890625	0.927734375	-2.886962890625E-07	-2.67833456746303E-07	-3213530.75	6.38951169094071E-05
1	227	88.7065827760374	0.917816162109375	0.91766357421875	-2.154541015625E-07	-1.97714371097391E-07	-4259207	6.38697310932912E-05
1	228	88.8072907757831	0.907745361328125	0.90789794921875	-1.7852783203125E-07	-1.62085044053129E-07	-5085470	6.38498968328349E-05
1	229	88.9079987755289	0.897674560546875	0.89752197265625	-1.910400390625E-07	-1.71462630760288E-07	-4698083.5	6.38312849332578E-05
1	230	89.0087067752746	0.887603759765625	0.8880615234375	-2.545166015625E-07	-2.26026401151103E-07	-3489208.5	6.38088458799757E-05
1	231	89.1094147750204	0.877532958984375	0.877685546875	-3.65600585937501E-07	-3.20882350024476E-07	-2400667.75	6.37776247458532E-05
1	232	89.2101227747661	0.867462158203125	0.86761474609375	-5.0994873046875E-07	-4.42439045400533E-07	-1701376.375	6.37335397186689E-05
1	233	89.3108307745118	0.857391357421875	0.8575439453125	-6.671142578125E-07	-5.72079784433299E-07	-1285452.875	6.36742697679438E-05
1	234	89.4115387742576	0.847320556640625	0.84747314453125	-8.1146240234375E-07	-6.87692590872757E-07	-1044377.625	6.35998148936778E-05
1	235	89.5122467740033	0.837249755859375	0.8367919921875	-9.25598144531251E-07	-7.74533077674278E-07	-904055.4375	6.35123433312401E-05
1	236	89.612954773749	0.827178955078125	0.82794189453125	-9.94262695312501E-07	-8.23191726340156E-07	-832719.5	6.34156749583781E-05
1	237	89.7136627734948	0.817108154296875	0.8172607421875	-1.01715087890625E-06	-8.31277532142849E-07	-803480.3125	6.33143936283886E-05
1	238	89.8143707732405	0.807037353515625	0.80718994140625	-1.0003662109375E-06	-8.07485548648401E-07	-806894.5	6.32127994322218E-05
1	239	89.9150787729862	0.796966552734375	0.79742431640625	-9.5855712890625E-07	-7.6437669349616E-07	-831900.75	6.31141592748463E-05
1	240	90.015786772732	0.786895751953125	0.78704833984375	-9.051513671875E-07	-7.12397877578042E-07	-869521.25	6.30203139735386E-05
1	241	90.1164947724777	0.776824951171875	0.77728271484375	-8.55407714843751E-07	-6.64893605062389E-07	-908669.3125	6.29316637059674E-05
1	242	90.2172027722235	0.766754150390625	0.7666015625	-8.2244873046875E-07	-6.30490490038937E-07	-932096.5	6.28471752861515E-05
1	243	90.3179107719692	0.756683349609375	0.7568359375	-8.16650390625E-07	-6.18070316704689E-07	-926756.375	6.27646440989338E-05
1	244	90.4186187717149	0.746612548828125	0.746551513671875	-8.47778320312501E-07	-6.32910200693004E-07	-880597.5625	6.2680832343176E-05
1	245	90.5193267714607	0.736541748046875	0.736419677734375	-9.2681884765625E-07	-6.82527627304808E-07	-794567.0625	6.25914763077162E-05
1	246	90.6200347712064	0.726470947265625	0.726409912109375	-1.05987548828125E-06	-7.69904033859348E-07	-685372.875	6.24914391664788E-05
1	247	90.7207427709521	0.716400146484375	0.71624755859375	-1.24908447265625E-06	-8.94653680916235E-07	-573418.0625	6.23751693638042E-05
1	248	90.8214507706979	0.706329345703125	0.70623779296875	-1.484375E-06	-1.04832167835411E-06	-475781.28125	6.22375300736167E-05
1	249	90.9221587704436	0.696258544921875	0.69622802734375	-1.7462158203125E-06	-1.21576431411086E-06	-398706.78125	6.20748542132787E-05
1	250	91.0228667701894	0.686187744140625	0.686187744140625	-2.0025634765625E-06	-1.37413451284374E-06	-342654.6875	6.1886094044894E-05
1	251	91.1235747699351	0.676116943359375	0.676055908203125	-2.2235107421875E-06	-1.50321750425064E-06	-304048.875	6.1673294112552E-05
1	252	91.2242827696808	0.666046142578125	0.665985107421875	-2.3809814453125E-06	-1.58569821451238E-06	-279710.34375	6.14414384472184E-05
1	253	91.3249907694266	0.655975341796875	0.655975341796875	-2.46185302734375E-06	-1.61491482231213E-06	-266455.9375	6.11975774518214E-05
1	254	91.4256987691723	0.645904541015625	0.64593505859375	-2.4652099609375E-06	-1.5923654927974E-06	-262020.296875	6.0949481849093E-05
1	255	91.526406768918	0.635833740234375	0.63580322265625	-2.40814208984375E-06	-1.53110454448324E-06	-264022.3125	6.07040892646182E-05
1	256	91.6271147686638	0.625762939453125	0.625701904296875	-2.308349609375E-06	-1.4443387499341E-06	-271060.28125	6.04665947321337E-05
1	257	91.7278227684095	0.615692138671875	0.61566162109375	-2.18505859375E-06	-1.3452566918204E-06	-281759.78125	6.02403342782054E-05
1	258	91.8285307681552	0.605621337890625	0.605621337890625	-2.05230712890625E-06	-1.24292091641109E-06	-295092.9375	6.00269668211695E-05
1	259	91.929238767901	0.595550537109375	0.59552001953125	-1.92047119140625E-06	-1.14367890091671E-06	-310090.59375	5.98269216425251E-05
1	260	92.0299467676467	0.585479736328125	0.585479736328125	-1.79473876953125E-06	-1.05078322576446E-06	-326220.03125	5.9639845858328E-05
1	261	92.1306547673925	0.575408935546875	0.575439453125	-1.67816162109375E-06	-9.65680328590679E-07	-342898.71875	5.946497185505E-05
1	262	92.2313627671382	0.565338134765625	0.56536865234375	-1.571044921875E-06	-8.88219517491962E-07	-359867.90625	5.93013610341586E-05
1	263	92.3320707668839	0.555267333984375	0.555267333984375	-1.4727783203125E-06	-8.17785689832817E-07	-377020.3125	5.91480929870158E-05
1	264	92.4327787666297	0.545196533203125	0.545166015625	-1.3848876953125E-06	-7.54993720875063E-07	-393653.59375	5.90041963732801E-05
1	265	92.5334867663754	0.535125732421875	0.535125732421875	-1.3043212890625E-06	-6.97975849561772E-07	-410271.4375	5.88687835261226E-05
1	266	92.6341947661211	0.525054931640625	0.52508544921875	-1.231689453125E-06	-6.46742194021499E-07	-426313.1875	5.87410868320148E-05
1	267	92.7349027658669	0.514984130859375	0.5150146484375	-1.16485595703125E-06	-5.99917882482259E-07	-442127.34375	5.86204114370048E-05
1	268	92.8356107656126	0.504913330078125	0.5048828125	-1.10382080078125E-06	-5.57300097625557E-07	-457395.65625	5.85061752644833E-05
1	269	92.9363187653584	0.494842529296875	0.494781494140625	-1.04766845703125E-06	-5.18366960022831E-07	-472269.15625	5.83978398935869E-05
1	270	93.0370267651041	0.484771728515625	0.484771728515625	-9.967041015625E-07	-4.8317394885089E-07	-486374.78125	5.82948960072827E-05
1	271	93.1377347648498	0.474700927734375	0.4747314453125	-9.4879150390625E-07	-4.50421140385515E-07	-500353.84375	5.81969325139653E-05
1	272	93.2384427645956	0.464630126953125	0.46466064453125	-9.051513671875E-07	-4.20588207816763E-07	-513351.3125	5.81035783397965E-05
1	273	93.3391507643413	0.454559326171875	0.454559326171875	-8.636474609375E-07	-3.92578982655323E-07	-526325.125	5.80145133426413E-05
1	274	93.439858764087	0.444488525390625	0.444549560546875	-8.26110839843749E-07	-3.67247196209064E-07	-538123.375	5.7929428294301E-05
1	275	93.5405667638328	0.434417724609375	0.434478759765625	-7.9010009765625E-07	-3.43281726600253E-07	-549903.4375	5.78480430704076E-05
1	276	93.6412747635785	0.424346923828125	0.42431640625	-7.5653076171875E-07	-3.21008428727509E-07	-560871.3125	5.77701648580842E-05
1	277	93.7419827633242	0.414276123046875	0.414276123046875	-7.25708007812501E-07	-3.0064350653447E-07	-570857.875	5.76955280848779E-05
1	278	93.84269076307	0.404205322265625	0.40423583984375	-6.96411132812499E-07	-2.81514331845756E-07	-580455.75	5.76239181100391E-05
1	279	93.9433987628157	0.394134521484375	0.394134521484375	-6.683349609375E-07	-2.63413880929875E-07	-589726	5.75552003283519E-05
1	280	94.0441067625615	0.384063720703125	0.38409423828125	-6.41784667968751E-07	-2.46505777568018E-07	-598478.375	5.74892292206641E-05
1	281	94.1448147623072	0.373992919921875	0.37396240234375	-6.1676025390625E-07	-2.30645142096364E-07	-606333.5	5.74258556298446E-05
1	282	94.2455227620529	0.363922119140625	0.363922119140625	-5.92956542968751E-07	-2.15790009860939E-07	-613741.625	5.73649413126986E-05
1	283	94.3462307617987	0.353851318359375	0.3538818359375	-5.70068359375001E-07	-2.01736824578802E-07	-620770.9375	5.73063807678409E-05
1	284	94.4469387615444	0.343780517578125	0.343780517578125	-5.48400878906249E-07	-1.88529526212733E-07	-626878.125	5.72500612179283E-05
1	285	94.5476467612901	0.333709716796875	0.333740234375	-5.2825927734375E-07	-1.76301369947396E-07	-631773.5625	5.71958444197662E-05
1	286	94.6483547610359	0.323638916015625	0.323699951171875	-5.084228515625E-07	-1.64576448469234E-07	-636674.6875	5.71436430618633E-05
1	287	94.7490627607816	0.313568115234375	0.3135986328125	-4.901123046875E-07	-1.53698550775516E-07	-639850.5625	5.70933625567704E-05
1	288	94.8497707605273	0.303497314453125	0.30352783203125	-4.718017578125E-07	-1.43204957225862E-07	-643337.6875	5.70449265069328E-05
1	289	94.9504787602731	0.293426513671875	0.293426513671875	-4.55322265624999E-07	-1.33603620611211E-07	-644437	5.69982439628802E-05
1	290	95.0511867600188	0.283355712890625	0.283355712890625	-4.38842773437501E-07	-1.2434860252597E-07	-645688.5	5.69532203371637E-05
1	291	95.1518947597646	0.273284912109375	0.273345947265625	-4.23278808593749E-07	-1.15701546121727E-07	-645782.25	5.69098083360586E-05
1	292	95.2526027595103	0.263214111328125	0.26324462890625	-4.0771484375E-07	-1.07328737897205E-07	-645658.6875	5.68679643038195E-05
1	293	95.353310759256	0.253143310546875	0.253082275390625	-3.93066406250001E-07	-9.94781359509034E-08	-643866.5	5.68276409467217E-05
1	294	95.4540187590018	0.243072509765625	0.243072509765625	-3.77502441406249E-07	-9.17604623396073E-08	-643896.5625	5.67888382647652E-05
1	295	95.5547267587475	0.233001708984375	0.2330322265625	-3.62548828125001E-07	-8.44855634341002E-08	-642760.9375	5.67515744478442E-05
1	296	95.6554347584932	0.222930908203125	0.22296142578125	-3.4820556640625E-07	-7.76364075250058E-08	-640315.5	5.67157876503188E-05
1	297	95.756142758239	0.212860107421875	0.212890625	-3.3416748046875E-07	-7.1141123214602E-08	-637077.625	5.66814269404858E-05
1	298	95.8568507579847	0.202789306640625	0.202789306640625	-3.21350097656251E-07	-6.51663611961339E-08	-631054.125	5.66484195587691E-05
1	299	95.9575587577305	0.192718505859375	0.192779541015625	-3.10363769531249E-07	-5.98317839717311E-08	-621140.625	5.66166090720799E-05
1	300	96.0582667574762	0.182647705078125	0.182647705078125	-3.0029296875E-07	-5.48478205075753E-08	-608231.75	5.65858608752023E-05
1	301	96.1589747572219	0.172576904296875	0.172607421875	-2.92358398437501E-07	-5.0463224710029E-08	-590396.6875	5.65560185350478E-05
1	302	96.2596827569677	0.162506103515625	0.162567138671875	-2.87475585937499E-07	-4.67340832699392E-08	-565498.9375	5.65268201171421E-05
1	303	96.3603907567134	0.152435302734375	0.1524658203125	-2.85949707031249E-07	-4.35975557877555E-08	-533191	5.64979454793502E-05
1	304	96.4610987564591	0.142364501953125	0.1424560546875	-2.90832519531251E-07	-4.14308516383244E-08	-489821.65625	5.64689034945332E-05
1	305	96.5618067562049	0.132293701171875	0.13238525390625	-3.02734374999999E-07	-4.00775661546504E-08	-437298.375	5.64390138606541E-05
1	306	96.6625147559506	0.122222900390625	0.122222900390625	-3.27148437499999E-07	-3.99850286214587E-08	-373600.75	5.64072979614139E-05
1	307	96.7632227556963	0.112152099609375	0.112213134765625	-3.65295410156249E-07	-4.09909404197606E-08	-307184.65625	5.63724315725267E-05
1	308	96.8639307554421	0.102081298828125	0.1021728515625	-4.23583984375001E-07	-4.32787814474977E-08	-241210.390625	5.63327048439533E-05
1	309	96.9646387551878	0.092010498046875	0.092071533203125	-5.0689697265625E-07	-4.66707810176104E-08	-181637.5625	5.62858513148967E-05
1	310	97.0653467549336	0.081939697265625	0.082000732421875	-6.2225341796875E-07	-5.10252355923058E-08	-131780.28125	5.62289969820995E-05
1	311	97.1660547546793	0.071868896484375	0.07196044921875	-7.74230957031249E-07	-5.57140076296037E-08	-92944.421875	5.61586784897372E-05
1	312	97.266762754425	0.061798095703125	0.06182861328125	-9.6282958984375E-07	-5.95304143757858E-08	-64215.53515625	5.60712105652783E-05
1	313	97.3674707541708	0.051727294921875	0.051849365234375	-1.185302734375E-06	-6.14571931123464E-08	-43743.5625	5.5963042541407E-05
1	314	97.4681787539165	0.041656494140625	0.0417633056640625	-1.42608642578125E-06	-5.95580829099163E-08	-29285.255859375	5.58315477974247E-05
1	315	97.5688867536622	0.031585693359375	0.0316925048828125	-1.6656494140625E-06	-5.27886001577826E-08	-19027.1171875	5.56758677703328E-05
1	316	97.669594753408	0.021514892578125	0.02164306640625	-1.87713623046875E-06	-4.06269826669359E-08	-11529.8330078125	5.54974722035695E-05
1	317	97.7703027531537	0.011444091796875	0.0115264892578125	-2.039794921875E-06	-2.35116743851904E-08	-5650.80810546875	5.5300239182543E-05
1	318	97.8710107528995	0.001373291015625	0.0014923095703125	-2.14111328125E-06	-3.19520410130281E-09	-696.978332519531	5.50897166249342E-05
1	319	97.9717187526452	-0.008697509765625	-0.00861206054687499	-2.18109130859375E-06	1.87836910470196E-08	3948.51000976563	5.48720745428E-05
1	320	98.0724267523909	-0.018768310546875	-0.0186431884765625	-2.17010498046875E-06	4.0457674543859E-08	8590.916015625	5.46529736311641E-05
1	321	98.1731347521367	-0.028839111328125	-0.0287139892578125	-2.1234130859375E-06	6.09716579447195E-08	13522.5654296875	5.4436779464595E-05
1	322	98.2738427518824	-0.038909912109375	-0.0387603759765625	-2.05535888671875E-06	7.96664849644912E-08	18858.203125	5.42263624083716E-05
1	323	98.3745507516281	-0.048980712890625	-0.048846435546875	-1.9775390625E-06	9.65957340781642E-08	24700.6171875	5.4023286793381E-05
1	324	98.4752587513739	-0.059051513671875	-0.05902099609375	-1.9000244140625E-06	1.12141329111637E-07	31063.283203125	5.38280364708044E-05
1	325	98.5759667511196	-0.069122314453125	-0.069000244140625	-1.82403564453125E-06	1.25858903743392E-07	37828.34375	5.36405168531928E-05
1	326	98.6766747508653	-0.079193115234375	-0.079132080078125	-1.75506591796875E-06	1.38882015221498E-07	45087.8125	5.34602950210683E-05
1	327	98.7773827506111	-0.089263916015625	-0.0892333984375	-1.6925048828125E-06	1.51027961692307E-07	52722.68359375	5.32866943103727E-05
1	328	98.8780907503568	-0.099334716796875	-0.099273681640625	-1.63787841796875E-06	1.62598226438604E-07	60611.140625	5.3118998039281E-05
1	329	98.9787987501026	-0.109405517578125	-0.109344482421875	-1.58935546875E-06	1.73787242374601E-07	68798.0078125	5.2956493163947E-05
1	330	99.0795067498483	-0.119476318359375	-0.119354248046875	-1.5478515625E-06	1.8474266028079E-07	77109.625	5.27985212102067E-05
1	331	99.180214749594	-0.129547119140625	-0.129486083984375	-1.5118408203125E-06	1.95762339672001E-07	85647.9609375	5.26444528077263E-05
1	332	99.2809227493398	-0.139617919921875	-0.13946533203125	-1.48101806640625E-06	2.06550666348448E-07	94168.5625	5.24937531736214E-05
1	333	99.3816307490855	-0.149688720703125	-0.149566650390625	-1.45477294921875E-06	2.17585508721641E-07	102810.9921875	5.23459239047952E-05
1	334	99.4823387488312	-0.159759521484375	-0.15966796875	-1.43280029296875E-06	2.28772293553448E-07	111437.703125	5.22005211678334E-05
1	335	99.583046748577	-0.169830322265625	-0.169647216796875	-1.41571044921875E-06	2.40171317500426E-07	119831.8671875	5.20570865774062E-05
1	336	99.6837547483227	-0.179901123046875	-0.179779052734375	-1.40228271484375E-06	2.52101045816744E-07	128204.5703125	5.19151908520143E-05
1	337	99.7844627480684	-0.189971923828125	-0.189788818359375	-1.39129638671875E-06	2.64052488319066E-07	136411.5	5.17745247634593E-05
1	338	99.8851707478142	-0.200042724609375	-0.199859619140625	-1.38519287109375E-06	2.76844104973861E-07	144282.890625	5.16347172379028E-05
1	339	99.9858787475599	-0.189971923828125	-0.18988037109375	-1.2322998046875E-06	2.3398952464504E-07	154086.1875	5.15029132657219E-05
2	340	100.086586747306	-0.179901123046875	-0.17974853515625	-1.12457275390625E-06	2.02140299165876E-07	159837.1875	5.13842351210769E-05
2	341	100.187294747051	-0.169830322265625	-0.169677734375	-1.03729248046875E-06	1.76005428897952E-07	163577.53125	5.12753795192111E-05
2	342	100.288002746797	-0.159759521484375	-0.15966796875	-9.63439941406249E-07	1.53830498561547E-07	165726.96875	5.11746329721063E-05
2	343	100.388710746543	-0.149688720703125	-0.14959716796875	-8.9874267578125E-07	1.34449351207877E-07	166451.609375	5.10808640683535E-05
2	344	100.489418746289	-0.139617919921875	-0.1395263671875	-8.40148925781251E-07	1.172229247004E-07	166073.375	5.09933051944245E-05
2	345	100.590126746034	-0.129547119140625	-0.129486083984375	-7.87353515625E-07	1.01951322051264E-07	164457.375	5.09113524458371E-05
2	346	100.69083474578	-0.119476318359375	-0.119415283203125	-7.37609863281249E-07	8.80818902260216E-08	161894.90625	5.08345656271558E-05
2	347	100.791542745526	-0.109405517578125	-0.109283447265625	-6.9091796875E-07	7.55058948698206E-08	158171.390625	5.07626318722032E-05
2	348	100.892250745272	-0.099334716796875	-0.0992431640625	-6.451416015625E-07	6.40258903672475E-08	153831.59375	5.06953583681025E-05
2	349	100.992958745017	-0.089263916015625	-0.08917236328125	-5.99060058593751E-07	5.34196011869881E-08	148853.796875	5.06327087350655E-05
2	350	101.093666744763	-0.079193115234375	-0.0791015625	-5.50537109375E-07	4.35483435978767E-08	143680.71875	5.05748212162871E-05
2	351	101.194374744509	-0.069122314453125	-0.069061279296875	-4.9774169921875E-07	3.43746755504526E-08	138749.25	5.05220341437962E-05
2	352	101.295082744255	-0.059051513671875	-0.0589599609375	-4.3670654296875E-07	2.5748200016551E-08	135010.484375	5.04749805259053E-05
2	353	101.395790744	-0.048980712890625	-0.04884033203125	-3.63769531249999E-07	1.77666237277663E-08	134261.75	5.04346753587015E-05
2	354	101.496498743746	-0.038909912109375	-0.038800048828125	-2.73742675781249E-07	1.06212292294572E-08	141739.140625	5.04025738337077E-05
2	355	101.597206743492	-0.028839111328125	-0.028729248046875	-1.59606933593751E-07	4.58538718106638E-09	180000.015625	5.03807532368228E-05
2	356	101.697914743237	-0.018768310546875	-0.0186553955078125	-1.49536132812503E-08	2.78965572864109E-10	1247551	5.03719638800249E-05
2	357	101.798622742983	-0.008697509765625	-0.00859680175781249	1.6510009765625E-07	-1.41933276243122E-09	-52070.24609375	5.0379523599986E-05
2	358	101.899330742729	0.001373291015625	0.00147705078125	3.82080078124999E-07	5.64351676501929E-10	3865.81494140625	5.04070776514709E-05
2	359	102.000038742475	0.011444091796875	0.0115570068359375	6.31103515625001E-07	7.29366744778304E-09	18312.380859375	5.04580930282827E-05
2	360	102.10074674222	0.021514892578125	0.0216217041015625	8.9874267578125E-07	1.94323472868518E-08	24057.724609375	5.05351272295229E-05
2	361	102.201454741966	0.031585693359375	0.031658935546875	1.1627197265625E-06	3.68104693393434E-08	27228.34765625	5.06389296788257E-05
2	362	102.302162741712	0.041656494140625	0.0417694091796875	1.39984130859375E-06	5.84705404094166E-08	29838.673828125	5.07679651491344E-05
2	363	102.402870741458	0.051727294921875	0.0517578125	1.585693359375E-06	8.20720202909797E-08	32640.494140625	5.09183009853587E-05
2	364	102.503578741203	0.061798095703125	0.061859130859375	1.70867919921875E-06	1.05697409935601E-07	36202.89453125	5.10841855430044E-05
2	365	102.604286740949	0.071868896484375	0.07183837890625	1.76849365234375E-06	1.27045709064078E-07	40621.2265625	5.12592741870321E-05
2	366	102.704994740695	0.081939697265625	0.082000732421875	1.77642822265625E-06	1.45668408890742E-07	46160.45703125	5.14377752551809E-05
2	367	102.805702740441	0.092010498046875	0.092041015625	1.74530029296875E-06	1.60639203272694E-07	52736.49609375	5.16151085321326E-05
2	368	102.906410740186	0.102081298828125	0.102081298828125	1.6912841796875E-06	1.72648483953708E-07	60357.2734375	5.17881526320707E-05
2	369	103.007118739932	0.112152099609375	0.1121826171875	1.62628173828125E-06	1.82440530238637E-07	68981.046875	5.19552049809135E-05
2	370	103.107826739678	0.122222900390625	0.12225341796875	1.5582275390625E-06	1.9049863908549E-07	78456.71875	5.21155598107725E-05
2	371	103.208534739423	0.132293701171875	0.132354736328125	1.4923095703125E-06	1.97514225419582E-07	88691.2109375	5.22691661899444E-05
2	372	103.309242739169	0.142364501953125	0.1424560546875	1.4300537109375E-06	2.03719807245761E-07	99615.8828125	5.24163187947124E-05
2	373	103.409950738915	0.152435302734375	0.1524658203125	1.37451171875E-06	2.09566053399612E-07	110923.625	5.25575378560461E-05
2	374	103.510658738661	0.162506103515625	0.162567138671875	1.32415771484375E-06	2.1526452087528E-07	122770.2265625	5.26934272784274E-05
2	375	103.611366738406	0.172576904296875	0.172607421875	1.279296875E-06	2.20816133378321E-07	134923.671875	5.2824521844741E-05
2	376	103.712074738152	0.182647705078125	0.182647705078125	1.24053955078125E-06	2.26581690299099E-07	147232.46875	5.29514072695747E-05
2	377	103.812782737898	0.192718505859375	0.19281005859375	1.20574951171875E-06	2.32480630302234E-07	159908.875	5.3074585594004E-05
2	378	103.913490737644	0.202789306640625	0.20281982421875	1.17523193359375E-06	2.38360328808085E-07	172578.5625	5.31944788235705E-05
2	379	104.014198737389	0.212860107421875	0.212890625	1.14837646484375E-06	2.44478570721185E-07	185384	5.33114834979642E-05
2	380	104.114906737135	0.222930908203125	0.222991943359375	1.1248779296875E-06	2.50838724014102E-07	198236.5625	5.34259488631506E-05
2	381	104.215614736881	0.233001708984375	0.2330322265625	1.1041259765625E-06	2.57296932204554E-07	211055.828125	5.35381877853069E-05
2	382	104.316322736627	0.243072509765625	0.24310302734375	1.08612060546875E-06	2.64039215380762E-07	223826.921875	5.36484767508227E-05
2	383	104.417030736372	0.253143310546875	0.253143310546875	1.06964111328125E-06	2.70772460453372E-07	236661.9375	5.37570267624687E-05
2	384	104.517738736118	0.263214111328125	0.26318359375	1.05438232421875E-06	2.77496127409904E-07	249609.265625	5.38639797014184E-05
2	385	104.618446735864	0.273284912109375	0.2733154296875	1.04156494140625E-06	2.84675763850828E-07	262408.4375	5.3969521104591E-05
2	386	104.71915473561	0.283355712890625	0.28338623046875	1.0302734375E-06	2.91965307042119E-07	275059.25	5.40738437848631E-05
2	387	104.819862735355	0.293426513671875	0.293365478515625	1.01959228515625E-06	2.991131680119E-07	287728.25	5.41770641575567E-05
2	388	104.920570735101	0.303497314453125	0.303497314453125	1.01043701171875E-06	3.06664929894396E-07	300362.4375	5.42792840860784E-05
2	389	105.021278734847	0.313568115234375	0.313568115234375	1.002197265625E-06	3.14257107447702E-07	312880.65625	5.43806272617076E-05
2	390	105.121986734592	0.323638916015625	0.32366943359375	9.9517822265625E-07	3.22108775208108E-07	325237.65625	5.44812028238084E-05
2	391	105.222694734338	0.333709716796875	0.333709716796875	9.88159179687501E-07	3.29758307771044E-07	337708.46875	5.45810726180207E-05
2	392	105.323402734084	0.343780517578125	0.343780517578125	9.82666015625E-07	3.37821404627903E-07	349844.75	5.46803130418994E-05
2	393	105.42411073383	0.353851318359375	0.35382080078125	9.77783203125E-07	3.45960046388427E-07	361860.1875	5.47790295968298E-05
2	394	105.524818733575	0.363922119140625	0.36395263671875	9.7320556640625E-07	3.54200693664097E-07	373973.0625	5.48772695765365E-05
2	395	105.625526733321	0.373992919921875	0.3740234375	9.6954345703125E-07	3.62631965344917E-07	385772.75	5.49750948266592E-05
2	396	105.726234733067	0.384063720703125	0.384063720703125	9.66796875000001E-07	3.7131158592274E-07	397253.8125	5.50725962966681E-05
2	397	105.826942732813	0.394134521484375	0.394195556640625	9.6466064453125E-07	3.80264964405796E-07	408636.5	5.51698540220968E-05
2	398	105.927650732558	0.404205322265625	0.4041748046875	9.619140625E-07	3.88781415949779E-07	420177.6875	5.52668643649668E-05
2	399	106.028358732304	0.414276123046875	0.414337158203125	9.6038818359375E-07	3.97924509343284E-07	431426.75	5.5363660067087E-05
2	400	106.12906673205	0.424346923828125	0.42437744140625	9.5947265625E-07	4.07178561090404E-07	442302.78125	5.54603320779279E-05
2	401	106.229774731796	0.434417724609375	0.4344482421875	9.58251953125E-07	4.16310854234325E-07	453375.8125	5.55568985873833E-05
2	402	106.330482731541	0.444488525390625	0.444549560546875	9.5794677734375E-07	4.25854807417636E-07	464065	5.5653385061305E-05
2	403	106.431190731287	0.454559326171875	0.454559326171875	9.57336425781249E-07	4.35166185752678E-07	474816.71875	5.5749827879481E-05
2	404	106.531898731033	0.464630126953125	0.464630126953125	9.5794677734375E-07	4.45090932998937E-07	485027.0625	5.5846270697657E-05
2	405	106.632606730779	0.474700927734375	0.47467041015625	9.58862304687499E-07	4.55143549515924E-07	495035	5.5942789913388E-05
2	406	106.733314730524	0.484771728515625	0.484771728515625	9.5947265625E-07	4.65125225446172E-07	505248.0625	5.60393855266739E-05
2	407	106.83402273027	0.494842529296875	0.494781494140625	9.6099853515625E-07	4.75484256412528E-07	514861.90625	5.61360866413452E-05
2	408	106.934730730016	0.504913330078125	0.5048828125	9.63134765625E-07	4.86270209876238E-07	524207.84375	5.62329769309144E-05
2	409	107.035438729761	0.514984130859375	0.515045166015625	9.661865234375E-07	4.97629685014545E-07	533070.125	5.6330125516979E-05
2	410	107.136146729507	0.525054931640625	0.525054931640625	9.70458984375E-07	5.09544236138026E-07	541037.75	5.64276415389031E-05
2	411	107.236854729253	0.535125732421875	0.53509521484375	9.7503662109375E-07	5.21737433700764E-07	548795	5.65256050322205E-05
2	412	107.337562728999	0.545196533203125	0.545166015625	9.81750488281249E-07	5.35216940988903E-07	555300	5.66241396882106E-05
2	413	107.438270728744	0.555267333984375	0.555267333984375	9.918212890625E-07	5.50725928860629E-07	559846.1875	5.67235147173051E-05
2	414	107.53897872849	0.565338134765625	0.56536865234375	1.00372314453125E-06	5.67473591672751E-07	563271.5	5.68239993299358E-05
2	415	107.639686728236	0.575408935546875	0.575408935546875	1.0211181640625E-06	5.87560464282433E-07	563508.6875	5.69259573239833E-05
2	416	107.740394727982	0.585479736328125	0.585479736328125	1.04522705078125E-06	6.1195925127322E-07	560146	5.70300071558449E-05
2	417	107.841102727727	0.595550537109375	0.5955810546875	1.08001708984375E-06	6.43237740405311E-07	551455.1875	5.71370219404344E-05
2	418	107.941810727473	0.605621337890625	0.605621337890625	1.12945556640625E-06	6.84022381847171E-07	536206.4375	5.72482786083128E-05
2	419	108.042518727219	0.615692138671875	0.6156005859375	1.201171875E-06	7.39442043595773E-07	512500.03125	5.7365632528672E-05
2	420	108.143226726965	0.625762939453125	0.62567138671875	1.3031005859375E-06	8.15312773738697E-07	480140.5	5.74917321500834E-05
2	421	108.24393472671	0.635833740234375	0.635772705078125	1.44439697265625E-06	9.18308160180459E-07	440164.8125	5.76300808461383E-05
2	422	108.344642726456	0.645904541015625	0.64581298828125	1.6314697265625E-06	1.05362425983913E-06	395847.375	5.77849641558714E-05
2	423	108.445350726202	0.655975341796875	0.65594482421875	1.86767578125E-06	1.22509220545908E-06	351209.15625	5.79611587454565E-05
2	424	108.546058725948	0.666046142578125	0.665985107421875	2.14996337890625E-06	1.4318436569738E-06	309765.78125	5.81634631089401E-05
2	425	108.646766725693	0.676116943359375	0.676055908203125	2.46551513671875E-06	1.66682605140522E-06	274204.75	5.83958717470523E-05
2	426	108.747474725439	0.686187744140625	0.686126708984375	2.79144287109375E-06	1.91528351933812E-06	245796.453125	5.86605783610139E-05
2	427	108.848182725185	0.696258544921875	0.696136474609375	3.09844970703125E-06	2.15694376493047E-06	224672.515625	5.89571609452832E-05
2	428	108.94889072493	0.706329345703125	0.70623779296875	3.3575439453125E-06	2.37122435464698E-06	210343.578125	5.92822434555274E-05
2	429	109.049598724676	0.716400146484375	0.71630859375	3.54522705078125E-06	2.53947655437514E-06	202048.734375	5.96298268646933E-05
2	430	109.150306724422	0.726470947265625	0.726318359375	3.653564453125E-06	2.65365088125691E-06	198797.203125	5.99923150730319E-05
2	431	109.251014724168	0.736541748046875	0.7364501953125	3.6895751953125E-06	2.71718840849644E-06	199602.984375	6.03620719630271E-05
2	432	109.351722723913	0.746612548828125	0.7464599609375	3.6700439453125E-06	2.73954083240824E-06	203392.65625	6.07326583121903E-05
2	433	109.452430723659	0.756683349609375	0.7568359375	3.6163330078125E-06	2.73697060038103E-06	209282.703125	6.10995557508431E-05
2	434	109.553138723405	0.766754150390625	0.7672119140625	3.5498046875E-06	2.72345232588123E-06	216127.921875	6.1460399592761E-05
2	435	109.653846723151	0.776824951171875	0.7769775390625	3.4857177734375E-06	2.70832447313296E-06	222903.171875	6.18146659689955E-05
2	436	109.754554722896	0.786895751953125	0.7867431640625	3.4381103515625E-06	2.70490977527515E-06	228830.109375	6.21633080299944E-05
2	437	109.855262722642	0.796966552734375	0.797119140625	3.41583251953125E-06	2.72282545665803E-06	233360.140625	6.25084285275079E-05
2	438	109.955970722388	0.807037353515625	0.80718994140625	3.4271240234375E-06	2.766339775917E-06	235529.84375	6.28530033282004E-05
2	439	110.056678722134	0.817108154296875	0.81756591796875	3.4771728515625E-06	2.84281804852071E-06	235123.75	6.32006631349213E-05
2	440	110.157386721879	0.827178955078125	0.8270263671875	3.56781005859375E-06	2.95067297884088E-06	231802.25	6.35554024484009E-05
2	441	110.258094721625	0.837249755859375	0.83770751953125	3.69354248046875E-06	3.09410825138912E-06	226803.28125	6.39210411463864E-05
2	442	110.358802721371	0.847320556640625	0.84716796875	3.84429931640625E-06	3.25676705870137E-06	220369.9375	6.43006060272455E-05
2	443	110.459510721117	0.857391357421875	0.8575439453125	4.00115966796875E-06	3.43117017109762E-06	214323.859375	6.46956541459076E-05
2	444	110.560218720862	0.867462158203125	0.8673095703125	4.1461181640625E-06	3.59596788257477E-06	209185.9375	6.51059017400257E-05
2	445	110.660926720608	0.877532958984375	0.8770751953125	4.2578125E-06	3.73442139789404E-06	205991.984375	6.55290714348666E-05
2	446	110.761634720354	0.887603759765625	0.8880615234375	4.32861328125E-06	3.84407485398697E-06	205160.75	6.59614306641743E-05
2	447	110.862342720099	0.897674560546875	0.8978271484375	4.3560791015625E-06	3.91100593333249E-06	206109.015625	6.63987448206171E-05
2	448	110.963050719845	0.907745361328125	0.90789794921875	4.35211181640625E-06	3.95127335650614E-06	208610.90625	6.68372376821935E-05
2	449	111.063758719591	0.917816162109375	0.91796875	4.326171875E-06	3.97129042539746E-06	212189.625	6.72742244205438E-05
2	450	111.164466719337	0.927886962890625	0.927734375	4.2987060546875E-06	3.98805696022464E-06	215817.140625	6.77085190545768E-05
2	451	111.265174719082	0.937957763671875	0.93780517578125	4.2840576171875E-06	4.0176114453061E-06	218905.828125	6.8140696384944E-05
2	452	111.365882718828	0.948028564453125	0.94818115234375	4.295654296875E-06	4.07305833505234E-06	220730.34375	6.85727209202014E-05
2	453	111.466590718574	0.958099365234375	0.95855712890625	4.3487548828125E-06	4.16852981288685E-06	220421.0625	6.90079978085123E-05
2	454	111.56729871832	0.968170166015625	0.968017578125	4.4561767578125E-06	4.3136574277014E-06	217230.53125	6.94513582857326E-05
2	455	111.668006718065	0.978240966796875	0.9783935546875	4.62554931640625E-06	4.52560743724462E-06	211519.4375	6.99086594977416E-05
2	456	111.768714717811	0.988311767578125	0.9881591796875	4.8583984375E-06	4.80087101095705E-06	203391.96875	7.03862169757485E-05
2	457	111.869422717557	0.998382568359375	0.99853515625	5.1513671875E-06	5.14382099936483E-06	193838.859375	7.08902516635135E-05
2	458	111.970130717303	1.00845336914063	1.00860595703125	5.474853515625E-06	5.52196979697328E-06	184225.203125	7.14253183105029E-05
2	459	112.070838717048	1.01852416992188	1.0186767578125	5.8135986328125E-06	5.92217747907853E-06	175223.109375	7.19937379471958E-05
2	460	112.171546716794	1.02859497070313	1.029052734375	6.1248779296875E-06	6.30282238489599E-06	168011.953125	7.25948921171948E-05
2	461	112.27225471654	1.03866577148438	1.03912353515625	6.3812255859375E-06	6.63088167129899E-06	162840.75	7.32246262487024E-05
2	462	112.372962716286	1.04873657226563	1.04827880859375	6.549072265625E-06	6.86525345372502E-06	160065.234375	7.38757153158076E-05
2	463	112.473670716031	1.05880737304688	1.05865478515625	6.622314453125E-06	7.01074486642028E-06	159861.75	7.45389479561709E-05
2	464	112.574378715777	1.06887817382813	1.0687255859375	6.6070556640625E-06	7.06112950865645E-06	161755.203125	7.52050982555375E-05
2	465	112.675086715523	1.07894897460938	1.07940673828125	6.524658203125E-06	7.04275998941739E-06	165434.984375	7.58663300075568E-05
2	466	112.775794715268	1.08901977539063	1.08917236328125	6.3934326171875E-06	6.96355027685058E-06	170358	7.65168078942224E-05
2	467	112.876502715014	1.09909057617188	1.09893798828125	6.2408447265625E-06	6.85830082147731E-06	176088.03125	7.71529958001338E-05
2	468	112.97721071476	1.10916137695313	1.1090087890625	6.0821533203125E-06	6.74516104481881E-06	182338.1875	7.77735112933442E-05
2	469	113.077918714506	1.11923217773438	1.11907958984375	5.926513671875E-06	6.63224045638344E-06	188825.953125	7.83781943027861E-05
2	470	113.178626714251	1.12930297851563	1.12884521484375	5.780029296875E-06	6.52475864626467E-06	195300.953125	7.89676632848568E-05
2	471	113.279334713997	1.13937377929688	1.138916015625	5.645751953125E-06	6.43003750155913E-06	201729.734375	7.95429950812832E-05
2	472	113.380042713743	1.14944458007813	1.1492919921875	5.523681640625E-06	6.34832304058364E-06	208066.3125	8.01054266048595E-05
2	473	113.480750713489	1.15951538085938	1.1590576171875	5.413818359375E-06	6.27492727289791E-06	214092.453125	8.06561729405075E-05
2	474	113.581458713234	1.16958618164063	1.16912841796875	5.3131103515625E-06	6.21170829617768E-06	220045.953125	8.11963182059117E-05
2	475	113.68216671298	1.17965698242188	1.1798095703125	5.224609375E-06	6.16404395259451E-06	225817.765625	8.17269319668412E-05
2	476	113.782874712726	1.18972778320313	1.1895751953125	5.1422119140625E-06	6.1170476328698E-06	231335.328125	8.22489455458708E-05
2	477	113.883582712472	1.19979858398438	1.199951171875	5.0689697265625E-06	6.08251593803288E-06	236724.875	8.27631156425923E-05
2	478	113.984290712217	1.20986938476563	1.209716796875	5.0048828125E-06	6.0544903135451E-06	241707.328125	8.32703735795803E-05
2	479	114.084998711963	1.21994018554688	1.2200927734375	4.94354248046875E-06	6.03158059675479E-06	246805.359375	8.37713159853593E-05
2	480	114.185706711709	1.23001098632813	1.23016357421875	4.8895263671875E-06	6.01491728957626E-06	251591.5625	8.4266452176962E-05
2	481	114.286414711455	1.24008178710938	1.23992919921875	4.84161376953125E-06	6.00325802224688E-06	256098.34375	8.47564515424892E-05
2	482	114.3871227112	1.25015258789063	1.25	4.7979736328125E-06	5.99746681473334E-06	260526.671875	8.52418452268466E-05
2	483	114.487830710946	1.26022338867188	1.26007080078125	4.75860595703125E-06	5.99618033447769E-06	264798.3125	8.57230552355759E-05
2	484	114.588538710692	1.27029418945313	1.27044677734375	4.7222900390625E-06	5.99941768086865E-06	269031.9375	8.62004599184729E-05
2	485	114.689246710437	1.28036499023438	1.28021240234375	4.68994140625E-06	6.00412113271886E-06	272969.8125	8.66744012455456E-05
2	486	114.789954710183	1.29043579101563	1.2908935546875	4.66156005859375E-06	6.0175780163263E-06	276923.0625	8.71452866704203E-05
2	487	114.890662709929	1.30050659179688	1.30096435546875	4.6356201171875E-06	6.03077614869107E-06	280645.1875	8.76134363352321E-05
2	488	114.991370709675	1.31057739257813	1.31103515625	4.6136474609375E-06	6.04865408604383E-06	284164.5625	8.80791776580736E-05
2	489	115.09207870942	1.32064819335938	1.31988525390625	4.59503173828125E-06	6.06491403232212E-06	287241.84375	8.85428671608679E-05
2	490	115.192786709166	1.33071899414063	1.33026123046875	4.57916259765625E-06	6.09148264629766E-06	290503.15625	8.900482498575E-05
2	491	115.293494708912	1.34078979492188	1.3409423828125	4.566650390625E-06	6.12361463936395E-06	293638.0625	8.94653567229398E-05
2	492	115.394202708658	1.35086059570313	1.3507080078125	4.5574951171875E-06	6.15584485785803E-06	296370.71875	8.99247897905298E-05
2	493	115.494910708403	1.36093139648438	1.36077880859375	4.552001953125E-06	6.19426782577648E-06	298940.75	9.03834952623583E-05
2	494	115.595618708149	1.37100219726563	1.370849609375	4.5501708984375E-06	6.23759979134775E-06	301274.34375	9.0841822384391E-05
2	495	115.696326707895	1.38107299804688	1.3812255859375	4.55108642578125E-06	6.2860772231943E-06	303493.59375	9.13001058506779E-05
2	496	115.797034707641	1.39114379882813	1.39129638671875	4.55535888671875E-06	6.33785430181888E-06	305419.71875	9.1758651251439E-05
2	497	115.897742707386	1.40121459960938	1.4013671875	4.56207275390625E-06	6.39313884676085E-06	307177.75	9.22177496249788E-05
2	498	115.998450707132	1.41128540039063	1.41082763671875	4.571533203125E-06	6.44964529783465E-06	308611.46875	9.26776629057713E-05
2	499	116.099158706878	1.42135620117188	1.4215087890625	4.58404541015625E-06	6.51626032777131E-06	310099.21875	9.31386894080788E-05
2	500	116.199866706624	1.43142700195313	1.43096923828125	4.5989990234375E-06	6.58102635497926E-06	311147.96875	9.36010910663754E-05
2	501	116.300574706369	1.44149780273438	1.441650390625	4.6148681640625E-06	6.65302604829776E-06	312392.5625	9.40650425036438E-05
2	502	116.401282706115	1.45156860351563	1.451416015625	4.63348388671875E-06	6.72511305310763E-06	313245.0625	9.4530732894782E-05
2	503	116.501990705861	1.46163940429688	1.46148681640625	4.65423583984375E-06	6.80210450809682E-06	314012.1875	9.49984096223488E-05
2	504	116.602698705606	1.47171020507813	1.47186279296875	4.67864990234375E-06	6.88633053869125E-06	314591.34375	9.54683564486913E-05
2	505	116.703406705352	1.48178100585938	1.48162841796875	4.7088623046875E-06	6.97678387950873E-06	314646.8125	9.5941053587012E-05
2	506	116.804114705098	1.49185180664063	1.49139404296875	4.744873046875E-06	7.07647541275946E-06	314316.96875	9.64170903898776E-05
2	507	116.904822704844	1.50192260742188	1.5020751953125	4.79095458984375E-06	7.19637364454684E-06	313523.15625	9.6897259936668E-05
2	508	117.005530704589	1.49185180664063	1.49169921875	4.560546875E-06	6.80296398058999E-06	327087.8125	9.73681453615427E-05
2	509	117.106238704335	1.48178100585938	1.48193359375	4.393310546875E-06	6.51059463052661E-06	337315.9375	9.78190073510632E-05
2	510	117.206946704081	1.47171020507813	1.47125244140625	4.25994873046875E-06	6.26745986664901E-06	345368.59375	9.82547280727886E-05
2	511	117.307654703827	1.46163940429688	1.4617919921875	4.15008544921875E-06	6.06656158197438E-06	352231.8125	9.86782106338069E-05
2	512	117.408362703572	1.45156860351563	1.4520263671875	4.056396484375E-06	5.88999455430894E-06	357959.6875	9.90914413705468E-05
2	513	117.509070703318	1.44149780273438	1.44134521484375	3.97552490234375E-06	5.73010311200051E-06	362554.71875	9.94958754745312E-05
2	514	117.609778703064	1.43142700195313	1.4312744140625	3.90380859375E-06	5.58742158318637E-06	366635.40625	9.98926334432326E-05
2	515	117.71048670281	1.42135620117188	1.4215087890625	3.84033203125E-06	5.45906550541986E-06	370152.59375	0.000100282581115607
2	516	117.811194702555	1.41128540039063	1.41143798828125	3.7835693359375E-06	5.34027321918984E-06	373044.0625	0.000100666475191247
2	517	117.911902702301	1.40121459960938	1.4013671875	3.731689453125E-06	5.22946675118874E-06	375531.59375	0.00010104489774676
2	518	118.012610702047	1.39114379882813	1.3909912109375	3.68438720703125E-06	5.1249503485451E-06	377536.65625	0.000101418328995351
2	519	118.113318701793	1.38107299804688	1.380615234375	3.6407470703125E-06	5.02647071698448E-06	379212.0625	0.000101787176390644
2	520	118.214026701538	1.37100219726563	1.370849609375	3.60076904296875E-06	4.93611241836334E-06	380710.25	0.000102151818282437
2	521	118.314734701284	1.36093139648438	1.36077880859375	3.563232421875E-06	4.84877136841533E-06	381894.46875	0.00010251255298499
2	522	118.41544270103	1.35086059570313	1.35040283203125	3.52874755859375E-06	4.76523064207868E-06	382686.1875	0.000102869664260652
2	523	118.516150700775	1.34078979492188	1.3409423828125	3.49578857421875E-06	4.68765074401745E-06	383587.96875	0.000103223377664108
2	524	118.616858700521	1.33071899414063	1.33026123046875	3.465576171875E-06	4.61012177765951E-06	383849.9375	0.000103573911474086
2	525	118.717566700267	1.32064819335938	1.32110595703125	3.436279296875E-06	4.53968914371217E-06	384458.25	0.000103921447589528
2	526	118.818274700013	1.31057739257813	1.31011962890625	3.40911865234375E-06	4.46635294792941E-06	384298.625	0.000104266138805542
2	527	118.918982699758	1.30050659179688	1.3006591796875	3.38348388671875E-06	4.40075928054284E-06	384414.1875	0.000104608174297027
2	528	119.019690699504	1.29043579101563	1.29058837890625	3.3587646484375E-06	4.33478271588683E-06	384244.96875	0.000104947670479305
2	529	119.12039869925	1.28036499023438	1.28021240234375	3.33526611328125E-06	4.2698488869064E-06	383841.15625	0.000105284743767697
2	530	119.221106698996	1.27029418945313	1.27044677734375	3.31298828125E-06	4.20897504227469E-06	383474.59375	0.000105619510577526
2	531	119.321814698741	1.26022338867188	1.26068115234375	3.29193115234375E-06	4.15007525589317E-06	382960.96875	0.00010595209460007
2	532	119.422522698487	1.25015258789063	1.25030517578125	3.27178955078125E-06	4.090735274076E-06	382147.21875	0.000106282604974695
2	533	119.523230698233	1.24008178710938	1.23992919921875	3.25225830078125E-06	4.03256990466616E-06	381251.78125	0.000106611114460975
2	534	119.623938697979	1.23001098632813	1.23016357421875	3.23333740234375E-06	3.97753365177778E-06	380462.5	0.00010693768854253
2	535	119.724646697724	1.21994018554688	1.2200927734375	3.21502685546875E-06	3.9226306398632E-06	379496.9375	0.000107262392702978
2	536	119.82535469747	1.20986938476563	1.20941162109375	3.19732666015625E-06	3.86688407161273E-06	378257.15625	0.000107585277874023
2	537	119.926062697216	1.19979858398438	1.19964599609375	3.1793212890625E-06	3.81406016458641E-06	377327.6875	0.000107906373159494
2	538	120.026770696962	1.18972778320313	1.18988037109375	3.16131591796875E-06	3.76158754988865E-06	376387.6875	0.000108225649455562
2	539	120.127478696707	1.17965698242188	1.1798095703125	3.14208984375E-06	3.70706766261719E-06	375485.625	0.000108543048554566
2	540	120.228186696453	1.16958618164063	1.16973876953125	3.121337890625E-06	3.65114988198911E-06	374755.59375	0.000108858439489268
2	541	120.328894696199	1.15951538085938	1.15966796875	3.09814453125E-06	3.59281875716988E-06	374310.5	0.000109171611256897
2	542	120.429602695944	1.14944458007813	1.14959716796875	3.07098388671875E-06	3.53039445144532E-06	374341.65625	0.000109482250991277
2	543	120.53031069569	1.13937377929688	1.13922119140625	3.0389404296875E-06	3.46202523360262E-06	374874.46875	0.000109789914858993
2	544	120.631018695436	1.12930297851563	1.12945556640625	2.99835205078125E-06	3.38650511366723E-06	376692.125	0.000110093911644071
2	545	120.731726695182	1.11923217773438	1.119384765625	2.94586181640625E-06	3.29755266648135E-06	379985.5	0.000110393229988404
2	546	120.832434694927	1.10916137695313	1.10931396484375	2.8759765625E-06	3.19036075779877E-06	385717.34375	0.000110686378320679
2	547	120.933142694673	1.09909057617188	1.0992431640625	2.78350830078125E-06	3.05975254377699E-06	394912.84375	0.000110971355752554
2	548	121.033850694419	1.08901977539063	1.0894775390625	2.6580810546875E-06	2.89591957880475E-06	409873.71875	0.000111245368316304
2	549	121.134558694165	1.07894897460938	1.0791015625	2.49114990234375E-06	2.68820372184564E-06	433174.09375	0.000111504647065885
2	550	121.23526669391	1.06887817382813	1.06842041015625	2.2723388671875E-06	2.4278131149913E-06	470185.34375	0.000111744506284595
2	551	121.335974693656	1.05880737304688	1.05865478515625	1.99554443359375E-06	2.11259271054587E-06	530509.25	0.000111959416244645
2	552	121.436682693402	1.04873657226563	1.048583984375	1.66015625E-06	1.74081310433394E-06	631617.6875	0.000112143490696326
2	553	121.537390693148	1.03866577148438	1.03851318359375	1.27532958984375E-06	1.32444654354913E-06	814309.6875	0.000112291309051216
2	554	121.638098692893	1.02859497070313	1.02874755859375	8.6212158203125E-07	8.86905468178156E-07	1193274.375	0.000112398935016245
2	555	121.738806692639	1.01852416992188	1.0186767578125	4.5135498046875E-07	4.59784814665909E-07	2256930.5	0.000112465073470958
2	556	121.839514692385	1.00845336914063	1.00860595703125	7.72094726562506E-08	7.7873934856143E-08	13063241	0.00011249168892391
2	557	121.940222692131	0.998382568359375	0.99822998046875	-2.2705078125E-07	-2.26648893431047E-07	-4396505.5	0.000112484143755864
2	558	122.040930691876	0.988311767578125	0.9881591796875	-4.38842773437501E-07	-4.33646505371144E-07	-2251738.5	0.000112450616143178
2	559	122.141638691622	0.978240966796875	0.9783935546875	-5.535888671875E-07	-5.41627741768025E-07	-1767365	0.000112400644866284
2	560	122.242346691368	0.968170166015625	0.968017578125	-5.8258056640625E-07	-5.63948162835004E-07	-1661603	0.000112343434011564
2	561	122.343054691113	0.958099365234375	0.9588623046875	-5.4443359375E-07	-5.22036827987904E-07	-1761210.75	0.000112286681542173
2	562	122.443762690859	0.948028564453125	0.94818115234375	-4.65087890625E-07	-4.40987548699923E-07	-2038714	0.00011223585170228
2	563	122.544470690605	0.937957763671875	0.93841552734375	-3.6773681640625E-07	-3.45089944175925E-07	-2551867.25	0.000112193913082592
2	564	122.645178690351	0.927886962890625	0.92803955078125	-2.7008056640625E-07	-2.50645456389975E-07	-3436158.25	0.000112161797005683
2	565	122.745886690096	0.917816162109375	0.91827392578125	-1.88598632812501E-07	-1.73185213725446E-07	-4868932	0.000112138703116216
2	566	122.846594689842	0.907745361328125	0.908203125	-1.42822265625001E-07	-1.29711622776085E-07	-6358974.5	0.000112122012069449
2	567	122.947302689588	0.897674560546875	0.897216796875	-1.4617919921875E-07	-1.3115442243361E-07	-6137787.5	0.00011210746015422
2	568	123.048010689334	0.887603759765625	0.887451171875	-2.01416015625E-07	-1.78746873302771E-07	-4406060.5	0.000112089954200201
2	569	123.148718689079	0.877532958984375	0.877685546875	-3.0548095703125E-07	-2.68116195911716E-07	-2873127	0.00011206443014089
2	570	123.249426688825	0.867462158203125	0.86761474609375	-4.46166992187499E-07	-3.87101039223126E-07	-1944596.5	0.000112026580609381
2	571	123.350134688571	0.857391357421875	0.8575439453125	-6.04248046875E-07	-5.18169258612033E-07	-1419191.875	0.000111973691673484
2	572	123.450842688317	0.847320556640625	0.84747314453125	-7.55615234375E-07	-6.40363566617452E-07	-1121567.125	0.000111905217636377
2	573	123.551550688062	0.837249755859375	0.83770751953125	-8.795166015625E-07	-7.3677762202351E-07	-952463.625	0.000111822882900015
2	574	123.652258687808	0.827178955078125	0.82763671875	-9.60693359375001E-07	-7.95105108863936E-07	-861499.375	0.00011173021630384
2	575	123.752966687554	0.817108154296875	0.8172607421875	-9.9456787109375E-07	-8.1282121300319E-07	-821724.5	0.000111631765321363
2	576	123.8536746873	0.807037353515625	0.80718994140625	-9.8602294921875E-07	-7.95907737938251E-07	-818632.0625	0.000111532033770345
2	577	123.954382687045	0.796966552734375	0.79742431640625	-9.490966796875E-07	-7.56832776005467E-07	-840192.9375	0.000111434594145976
2	578	124.055090686791	0.786895751953125	0.787353515625	-8.9752197265625E-07	-7.06667037775333E-07	-877252.6875	0.000111341607407667
2	579	124.155798686537	0.776824951171875	0.7763671875	-8.465576171875E-07	-6.57239525025943E-07	-917087.25	0.000111253786599264
2	580	124.256506686282	0.766754150390625	0.7666015625	-8.09326171875E-07	-6.20430682829465E-07	-947209.6875	0.000111170404125005
2	581	124.357214686028	0.756683349609375	0.75653076171875	-7.965087890625E-07	-6.0258338407948E-07	-949808.5	0.000111089546408039
2	582	124.457922685774	0.746612548828125	0.746612548828125	-8.20312500000001E-07	-6.12455608006712E-07	-910156.25	0.000111008128442336
2	583	124.55863068552	0.736541748046875	0.7364501953125	-8.8958740234375E-07	-6.55136830118863E-07	-827855.9375	0.000110922032035887
2	584	124.659338685265	0.726470947265625	0.72650146484375	-1.01409912109375E-06	-7.36744482310314E-07	-716400.875	0.00011082617129432
2	585	124.760046685011	0.716400146484375	0.71636962890625	-1.1962890625E-06	-8.56985138852906E-07	-598826.5	0.000110714870970696
2	586	124.860754684757	0.706329345703125	0.706329345703125	-1.42730712890625E-06	-1.00814884262945E-06	-494868.53125	0.000110582761408295
2	587	124.961462684503	0.696258544921875	0.696136474609375	-1.6912841796875E-06	-1.17736465199414E-06	-411602.3125	0.000110425731691066
2	588	125.062170684248	0.686187744140625	0.686126708984375	-1.95587158203125E-06	-1.34197568968375E-06	-350803.5625	0.000110242079244927
2	589	125.162878683994	0.676116943359375	0.676116943359375	-2.188720703125E-06	-1.47983109854977E-06	-308909.65625	0.000110033382952679
2	590	125.26358668374	0.666046142578125	0.66595458984375	-2.36236572265625E-06	-1.57322824634321E-06	-281901.5625	0.000109804219391663
2	591	125.364294683486	0.655975341796875	0.65594482421875	-2.45941162109375E-06	-1.61323816882941E-06	-266708.03125	0.000109561420686077
2	592	125.465002683231	0.645904541015625	0.645843505859375	-2.4774169921875E-06	-1.60002366556E-06	-260692.296875	0.000109312830318231
2	593	125.565710682977	0.635833740234375	0.635772705078125	-2.430419921875E-06	-1.54519466377678E-06	-261589.65625	0.000109065702417865
2	594	125.666418682723	0.625762939453125	0.62567138671875	-2.33551025390625E-06	-1.46126183153683E-06	-267894.96875	0.000108825719507877
2	595	125.767126682469	0.615692138671875	0.615753173828125	-2.2137451171875E-06	-1.36312053200527E-06	-278150	0.000108596650534309
2	596	125.867834682214	0.605621337890625	0.605560302734375	-2.08038330078125E-06	-1.25979750009719E-06	-291081.125	0.000108380423625931
2	597	125.96854268196	0.595550537109375	0.5955810546875	-1.94610595703125E-06	-1.15906379960506E-06	-306037.34375	0.000108177671791054
2	598	126.069250681706	0.585479736328125	0.585479736328125	-1.81671142578125E-06	-1.06364768726053E-06	-322274.5	0.000107988198578823
2	599	126.169958681451	0.575408935546875	0.575408935546875	-1.6961669921875E-06	-9.75989564722113E-07	-339240.75	0.000107811312773265
2	600	126.270666681197	0.565338134765625	0.565338134765625	-1.5850830078125E-06	-8.96107849257533E-07	-356661.5625	0.000107646083051804
2	601	126.371374680943	0.555267333984375	0.555267333984375	-1.48529052734375E-06	-8.24733263016242E-07	-373844.28125	0.000107491483504418
2	602	126.472082680689	0.545196533203125	0.545166015625	-1.3934326171875E-06	-7.59652095894126E-07	-391239.59375	0.000107346524600871
2	603	126.572790680434	0.535125732421875	0.53509521484375	-1.3104248046875E-06	-7.01201997799217E-07	-408337.21875	0.000107210376881994
2	604	126.67349868018	0.525054931640625	0.52508544921875	-1.2353515625E-06	-6.48665093194722E-07	-425049.40625	0.000107082189060748
2	605	126.774206679926	0.514984130859375	0.514984130859375	-1.16668701171875E-06	-6.00825273977534E-07	-441407.28125	0.000106961233541369
2	606	126.874914679672	0.504913330078125	0.504852294921875	-1.10382080078125E-06	-5.57266446321592E-07	-457368	0.000106846906419378
2	607	126.975622679417	0.494842529296875	0.494842529296875	-1.046142578125E-06	-5.17675800892903E-07	-473016.34375	0.000106738647446036
2	608	127.076330679163	0.484771728515625	0.484771728515625	-9.930419921875E-07	-4.81398672036448E-07	-488168.40625	0.000106635961856227
2	609	127.177038678909	0.474700927734375	0.474700927734375	-9.4451904296875E-07	-4.48364033900361E-07	-502584.84375	0.000106538398540579
2	610	127.277746678655	0.464630126953125	0.46466064453125	-8.990478515625E-07	-4.1775214754125E-07	-516836.375	0.000106445571873337
2	611	127.3784546784	0.454559326171875	0.45458984375	-8.56933593750001E-07	-3.8955329273449E-07	-530484.3125	0.000106357147160452
2	612	127.479162678146	0.444488525390625	0.444488525390625	-8.1756591796875E-07	-3.63398640956802E-07	-543673.0625	0.000106272833363619
2	613	127.579870677892	0.434417724609375	0.43438720703125	-7.8094482421875E-07	-3.39232428814285E-07	-556232.9375	0.000106192339444533
2	614	127.680578677638	0.424346923828125	0.42431640625	-7.46765136718749E-07	-3.16864685601104E-07	-568206	0.000106115410744678
2	615	127.781286677383	0.414276123046875	0.414306640625	-7.1533203125E-07	-2.96366806651349E-07	-579180.875	0.000106041792605538
2	616	127.881994677129	0.404205322265625	0.404205322265625	-6.8511962890625E-07	-2.7692900061993E-07	-589977.75	0.000105971274024341
2	617	127.982702676875	0.394134521484375	0.394134521484375	-6.5643310546875E-07	-2.58722934631805E-07	-600418.4375	0.000105903716757894
2	618	128.08341067662	0.384063720703125	0.384033203125	-6.3018798828125E-07	-2.42013101114935E-07	-609394.6875	0.000105838931631297
2	619	128.184118676366	0.373992919921875	0.374053955078125	-6.0455322265625E-07	-2.26135512093606E-07	-618727.9375	0.000105776758573484
2	620	128.284826676112	0.363922119140625	0.363922119140625	-5.8013916015625E-07	-2.1112546733093E-07	-627301.4375	0.000105717102997005
2	621	128.385534675858	0.353851318359375	0.3538818359375	-5.5694580078125E-07	-1.97093001474968E-07	-635397.25	0.000105659848486539
2	622	128.486242675603	0.343780517578125	0.34381103515625	-5.34973144531251E-07	-1.83929671493388E-07	-642669.6875	0.000105604864074849
2	623	128.586950675349	0.333709716796875	0.33380126953125	-5.1422119140625E-07	-1.7164768451039E-07	-649139.4375	0.000105552033346612
2	624	128.687658675095	0.323638916015625	0.323699951171875	-4.94384765625E-07	-1.60032328722082E-07	-654753.0625	0.000105501247162465
2	625	128.788366674841	0.313568115234375	0.31353759765625	-4.74853515625E-07	-1.48884424788776E-07	-660282.8125	0.000105452440038789
2	626	128.889074674586	0.303497314453125	0.30352783203125	-4.5623779296875E-07	-1.38480871214597E-07	-665284.3125	0.000105405561043881
2	627	128.989782674332	0.293426513671875	0.29339599609375	-4.38537597656249E-07	-1.28665178067422E-07	-669032.6875	0.000105360501038376
2	628	129.090490674078	0.283355712890625	0.28338623046875	-4.2083740234375E-07	-1.19259524922199E-07	-673386.5625	0.000105317230918445
2	629	129.191198673824	0.273284912109375	0.27325439453125	-4.0313720703125E-07	-1.10159007249422E-07	-677819.875	0.000105275736132171
2	630	129.291906673569	0.263214111328125	0.263275146484375	-3.857421875E-07	-1.01556324239027E-07	-682515.875	0.000105236016679555
2	631	129.392614673315	0.253143310546875	0.253173828125	-3.68347167968749E-07	-9.32558563704333E-08	-687324	0.000105198043456767
2	632	129.493322673061	0.243072509765625	0.243133544921875	-3.51867675781251E-07	-8.55508304198338E-08	-690980.0625	0.000105161780084018
2	633	129.594030672807	0.233001708984375	0.233001708984375	-3.3538818359375E-07	-7.81460158805203E-08	-694722.5	0.000105127175629605
2	634	129.694738672552	0.222930908203125	0.222991943359375	-3.2012939453125E-07	-7.13862746692939E-08	-696568.1875	0.000105094164609909
2	635	129.795446672298	0.212860107421875	0.212921142578125	-3.06091308593751E-07	-6.51733103040897E-08	-695613.1875	0.000105062630609609
2	636	129.896154672044	0.202789306640625	0.202850341796875	-2.92358398437501E-07	-5.93049982455796E-08	-693841.375	0.000105032500869129
2	637	129.996862671789	0.192718505859375	0.1927490234375	-2.8045654296875E-07	-5.40577218544058E-08	-687268.8125	0.000105003651697189
2	638	130.097570671535	0.182647705078125	0.18267822265625	-2.70690917968749E-07	-4.94493370695182E-08	-674859.0625	0.000104975901194848
2	639	130.198278671281	0.172576904296875	0.172607421875	-2.62451171875E-07	-4.53010180478941E-08	-657674.4375	0.000104949052911252
2	640	130.298986671027	0.162506103515625	0.1624755859375	-2.57568359375E-07	-4.18485690545367E-08	-630805.6875	0.000104922874015756
2	641	130.399694670772	0.152435302734375	0.1524658203125	-2.5665283203125E-07	-3.91307857228185E-08	-594054.6875	0.000104896978882607
2	642	130.500402670518	0.142364501953125	0.142364501953125	-2.62451171875E-07	-3.73637263351156E-08	-542441.875	0.000104870836366899
2	643	130.601110670264	0.132293701171875	0.132415771484375	-2.75573730468751E-07	-3.64903058880373E-08	-480509.4375	0.000104843747976702
2	644	130.70181867001	0.122222900390625	0.12225341796875	-2.99072265625E-07	-3.65626071641145E-08	-408775.5	0.00010481481149327
2	645	130.802526669755	0.112152099609375	0.112213134765625	-3.375244140625E-07	-3.78746705109734E-08	-332459.34375	0.000104782753624022
2	646	130.903234669501	0.102081298828125	0.10211181640625	-3.936767578125E-07	-4.01990476461833E-08	-259379.859375	0.000104745937278494
2	647	131.003942669247	0.092010498046875	0.092132568359375	-4.75158691406249E-07	-4.37775895534287E-08	-193898.53125	0.00010470218694536
2	648	131.104650668993	0.081939697265625	0.08203125	-5.877685546875E-07	-4.82153907910288E-08	-139563.859375	0.00010464866500115
2	649	131.205358668738	0.071868896484375	0.0718994140625	-7.36389160156251E-07	-5.29459498466167E-08	-97637.796875	0.000104581988125574
2	650	131.306066668484	0.061798095703125	0.061859130859375	-9.234619140625E-07	-5.71245486469252E-08	-66986.125	0.00010449840920046
2	651	131.40677466823	0.051727294921875	0.0517578125	-1.14532470703125E-06	-5.92794968667931E-08	-45190.515625	0.000104394239315297
2	652	131.507482667976	0.041656494140625	0.0417327880859375	-1.38946533203125E-06	-5.79862593497182E-08	-30035.142578125	0.000104266597190872
2	653	131.608190667721	0.031585693359375	0.03167724609375	-1.63604736328125E-06	-5.18254736903145E-08	-19362.060546875	0.000104114253190346
2	654	131.708898667467	0.021514892578125	0.0216094970703125	-1.85791015625E-06	-4.01484996359613E-08	-11631.0771484375	0.000103938320535235
2	655	131.809606667213	0.011444091796875	0.01156005859375	-2.03369140625E-06	-2.35095907186178E-08	-5684.27392578125	0.00010374236444477
2	656	131.910314666958	0.001373291015625	0.0014495849609375	-2.1484375E-06	-3.11434256161647E-09	-674.715942382813	0.000103531776403543
2	657	132.011022666704	-0.008697509765625	-0.0085784912109375	-2.19940185546875E-06	1.8867549300694E-08	3900.375	0.000103312842838932
2	658	132.11173066645	-0.018768310546875	-0.0186370849609375	-2.196044921875E-06	4.09278726465345E-08	8486.66015625	0.000103091515484266
2	659	132.212438666196	-0.028839111328125	-0.028692626953125	-2.154541015625E-06	6.18194420098916E-08	13317.28125	0.000102872443676461
2	660	132.313146665941	-0.038909912109375	-0.0387664794921875	-2.088623046875E-06	8.0968561633199E-08	18560.78515625	0.00010265878518112
2	661	132.413854665687	-0.048980712890625	-0.048858642578125	-2.0111083984375E-06	9.82600241172804E-08	24294.38671875	0.000102452344435733
2	662	132.514562665433	-0.059051513671875	-0.0589599609375	-1.932373046875E-06	1.1393262866477E-07	30511.689453125	0.000102253776276484
2	663	132.615270665179	-0.069122314453125	-0.069061279296875	-1.8548583984375E-06	1.28098889717876E-07	37232.640625	0.000102063073427416
2	664	132.715978664924	-0.079193115234375	-0.079132080078125	-1.7840576171875E-06	1.4117618718501E-07	44355.1171875	0.000101879842986818
2	665	132.81668666467	-0.089263916015625	-0.089202880859375	-1.72088623046875E-06	1.53508011635495E-07	51835.43359375	0.000101703350082971
2	666	132.917394664416	-0.099334716796875	-0.0992431640625	-1.66412353515625E-06	1.65152883369046E-07	59636.8984375	0.000101532903499901
2	667	133.018102664162	-0.109405517578125	-0.109283447265625	-1.614990234375E-06	1.76491695924597E-07	67668.1796875	0.000101367790193763
2	668	133.118810663907	-0.119476318359375	-0.119384765625	-1.572265625E-06	1.87704557674806E-07	75931.6796875	0.000101207297120709
2	669	133.219518663653	-0.129547119140625	-0.12945556640625	-1.53594970703125E-06	1.98837227571858E-07	84283.734375	0.00010105078399647
2	670	133.320226663399	-0.139617919921875	-0.139495849609375	-1.50482177734375E-06	2.09916393600906E-07	92699.25	0.000100897668744437
2	671	133.420934663145	-0.149688720703125	-0.1495361328125	-1.4788818359375E-06	2.2114626574421E-07	101114.3203125	0.000100747427495662
2	672	133.52164266289	-0.159759521484375	-0.159576416015625	-1.45782470703125E-06	2.32634434382817E-07	109462.0078125	0.000100599550933111
2	673	133.622350662636	-0.169830322265625	-0.169647216796875	-1.4410400390625E-06	2.44468424170918E-07	117725.5390625	0.000100453587947413
2	674	133.723058662382	-0.179901123046875	-0.17974853515625	-1.42791748046875E-06	2.56666083942036E-07	125881.6015625	0.000100309123808984
2	675	133.823766662127	-0.189971923828125	-0.1898193359375	-1.41876220703125E-06	2.69308486622322E-07	133792.21875	0.000100165780168027
2	676	133.924474661873	-0.200042724609375	-0.19989013671875	-1.41387939453125E-06	2.82620533198497E-07	141377.078125	0.000100023142294958
2	677	134.025182661619	-0.189971923828125	-0.1898193359375	-1.25640869140625E-06	2.38490656556678E-07	151080.890625	9.98886825982481E-05
