Potential - Start -0.2 V, Upper Vertex 1.5 V, Lower Vertex -0.2 V, Stop -0.19 V; Scan - # end cross 5, Rate 0.1 Vps, Step 0.01 V 
Scan	Index	Time (s)	Potential applied (V)	WE(1).Potential (V)	WE(1).Current (A)	WE(1).Power (W)	WE(1).Resistance (Ω)	WE(1).Charge (C)
1	1	65.9335778335337	-0.189971923828125	-0.1898193359375	-2.17590332031251E-07	4.13028509171909E-08	872370.3125	0
1	2	66.0342858332795	-0.179901123046875	-0.179718017578125	-1.8646240234375E-07	3.35106520310546E-08	963829.8125	-2.03456718139705E-08
1	3	66.1349938330252	-0.169830322265625	-0.169677734375	-1.60827636718749E-07	2.72888698304996E-08	1055028.5	-3.78331144190724E-08
1	4	66.2357018327709	-0.159759521484375	-0.15960693359375	-1.3885498046875E-07	2.21622169505054E-08	1149450.625	-5.29233332713375E-08
1	5	66.3364098325167	-0.149688720703125	-0.1495361328125	-1.1871337890625E-07	1.7751938585775E-08	1259640.125	-6.58929266705854E-08
1	6	66.4371178322624	-0.139617919921875	-0.139434814453125	-9.918212890625E-08	1.38294407037165E-08	1405846.25	-7.68648362736712E-08
1	7	66.5378258320081	-0.129547119140625	-0.12939453125	-8.05664062500003E-08	1.04248520926831E-08	1606060.75	-8.59158930666126E-08
1	8	66.6385338317539	-0.119476318359375	-0.119384765625	-6.19506835937506E-08	7.39596739407489E-09	1927093.75	-9.30921970621057E-08
1	9	66.7392418314996	-0.109405517578125	-0.109283447265625	-4.18090820312494E-08	4.5690402572518E-09	2613868.75	-9.83169172741327E-08
1	10	66.8399498312453	-0.099334716796875	-0.099273681640625	-1.95312500000003E-08	1.93893900934938E-09	5082812.5	-1.01405653651909E-07
1	11	66.9406578309911	-0.089263916015625	-0.089202880859375	7.32421875000028E-09	-6.53341380996153E-10	-12179167	-1.02020322856333E-07
1	12	67.0413658307368	-0.079193115234375	-0.07916259765625	3.99780273437497E-08	-3.16476445050284E-09	-1980152.75	-9.96384628138003E-08
1	13	67.1420738304826	-0.069122314453125	-0.069061279296875	8.14819335937494E-08	-5.6272462245488E-09	-847565.5625	-9.35224733211726E-08
1	14	67.2427818302283	-0.059051513671875	-0.05902099609375	1.36413574218749E-07	-8.05126543212964E-09	-432662.1875	-8.25505637180868E-08
1	15	67.343489829974	-0.048980712890625	-0.0488250732421875	2.093505859375E-07	-1.02215569341979E-08	-233221.59375	-6.51399503226457E-08
1	16	67.4441978297198	-0.038909912109375	-0.0387725830078125	3.0670166015625E-07	-1.18916148039716E-08	-126417.9140625	-3.915465995874E-08
1	17	67.5449058294655	-0.028839111328125	-0.0286865234375	4.33349609375E-07	-1.24312942162419E-08	-66197.1796875	-1.89011828410912E-09
1	18	67.6456138292112	-0.018768310546875	-0.018634033203125	5.92651367187499E-07	-1.10434843492158E-08	-31441.8125	4.97731349469177E-08
1	19	67.746321828957	-0.008697509765625	-0.00859680175781249	7.855224609375E-07	-6.75298084118481E-09	-10944.056640625	1.19169698109545E-07
1	20	67.8470298287027	0.001373291015625	0.00147399902343751	1.002197265625E-06	1.47723766552588E-09	1470.76745605469	2.09188527833248E-07
1	21	67.9477378284485	0.011444091796875	0.011541748046875	1.22894287109375E-06	1.41841498546569E-08	9391.6064453125	3.21535367220349E-07
1	22	68.0484458281942	0.021514892578125	0.0216278076171875	1.44317626953125E-06	3.12127390600381E-08	14986.255859375	4.56087235534142E-07
1	23	68.1491538279399	0.031585693359375	0.031683349609375	1.6229248046875E-06	5.14196898393493E-08	19522.376953125	6.10477684404032E-07
1	24	68.2498618276857	0.041656494140625	0.0417510986328125	1.75201416015625E-06	7.31485130245346E-08	23830.34375	7.80419384227571E-07
1	25	68.3505698274314	0.051727294921875	0.051788330078125	1.82464599609375E-06	9.44953697512574E-08	28382.671875	9.60518491410767E-07
1	26	68.4512778271771	0.061798095703125	0.061798095703125	1.844482421875E-06	1.13985500149738E-07	33504.30078125	1.14527381356311E-06
1	27	68.5519858269229	0.071868896484375	0.071929931640625	1.8243408203125E-06	1.31224709321032E-07	39427.90234375	1.33001367430552E-06
1	28	68.6526938266686	0.081939697265625	0.082000732421875	1.7779541015625E-06	1.4579353546651E-07	46120.83984375	1.51140363868763E-06
1	29	68.7534018264143	0.092010498046875	0.092010498046875	1.717529296875E-06	1.58030715624591E-07	53571.4296875	1.68741519246396E-06
1	30	68.8541098261601	0.102081298828125	0.10211181640625	1.65191650390625E-06	1.68680188039616E-07	61814.15234375	1.85708029221132E-06
1	31	68.9548178259058	0.112152099609375	0.112152099609375	1.58660888671875E-06	1.77941515744351E-07	70686.671875	2.02015303329972E-06
1	32	69.0555258256516	0.122222900390625	0.122283935546875	1.52557373046875E-06	1.86553151593216E-07	80156.03125	2.17686374526238E-06
1	33	69.1562338253973	0.132293701171875	0.13232421875	1.4691162109375E-06	1.9439966081336E-07	90070.625	2.32765842156368E-06
1	34	69.256941825143	0.142364501953125	0.14239501953125	1.41754150390625E-06	2.01850852477037E-07	100452.1015625	2.47301318268001E-06
1	35	69.3576498248888	0.152435302734375	0.152496337890625	1.3720703125E-06	2.09235693660048E-07	111143.2421875	2.61348145613738E-06
1	36	69.4583578246345	0.162506103515625	0.162567138671875	1.3311767578125E-06	2.16405581454637E-07	122122.8828125	2.74960075330455E-06
1	37	69.5590658243802	0.172576904296875	0.172607421875	1.295166015625E-06	2.23555247202967E-07	133270.515625	2.88184742203157E-06
1	38	69.659773824126	0.182647705078125	0.182647705078125	1.26251220703125E-06	2.30594963568365E-07	144670.046875	3.01063687402348E-06
1	39	69.7604818238717	0.192718505859375	0.1927490234375	1.2335205078125E-06	2.37759863352949E-07	156259.28125	3.13632199322456E-06
1	40	69.8611898236175	0.202789306640625	0.202850341796875	1.20758056640625E-06	2.44958130224404E-07	167980.796875	3.25924133903754E-06
1	41	69.9618978233632	0.212860107421875	0.21295166015625	1.18408203125E-06	2.52152204893719E-07	179845.375	3.37967094310443E-06
1	42	70.0626058231089	0.222930908203125	0.22296142578125	1.1627197265625E-06	2.5924165925062E-07	191758.53125	3.49784181707946E-06
1	43	70.1633138228547	0.233001708984375	0.23297119140625	1.14349365234375E-06	2.66401059434429E-07	203736.328125	3.61396905645961E-06
1	44	70.2640218226004	0.243072509765625	0.2431640625	1.12640380859375E-06	2.73900894853796E-07	215876.46875	3.72826730199449E-06
1	45	70.3647298223461	0.253143310546875	0.25311279296875	1.11053466796875E-06	2.81090535736439E-07	227919.765625	3.84090617444599E-06
1	46	70.4654378220919	0.263214111328125	0.26312255859375	1.09619140625E-06	2.88432659090176E-07	240033.421875	3.9520236896351E-06
1	47	70.5661458218376	0.273284912109375	0.27325439453125	1.08306884765625E-06	2.95953299200846E-07	252296.4375	4.06175831813016E-06
1	48	70.6668538215833	0.283355712890625	0.2833251953125	1.07147216796875E-06	3.03575063753669E-07	264426.09375	4.17024784837849E-06
1	49	70.7675618213291	0.293426513671875	0.293365478515625	1.06109619140625E-06	3.11288999910175E-07	276473.96875	4.27763143306947E-06
1	50	70.8682698210748	0.303497314453125	0.30352783203125	1.05133056640625E-06	3.19108067969864E-07	288708.28125	4.38400047642062E-06
1	51	70.9689778208206	0.313568115234375	0.31365966796875	1.04278564453125E-06	3.27079789030904E-07	300790.1875	4.48944729214418E-06
1	52	71.0696858205663	0.323638916015625	0.3236083984375	1.03515625E-06	3.34985230665552E-07	312617.9375	4.59408011010964E-06
1	53	71.170393820312	0.333709716796875	0.33367919921875	1.02813720703125E-06	3.43067966923627E-07	324547.375	4.69797532787197E-06
1	54	71.2711018200578	0.343780517578125	0.34375	1.0223388671875E-06	3.51428980138735E-07	336238.8125	4.80122480439604E-06
1	55	71.3718098198035	0.353851318359375	0.353851318359375	1.01776123046875E-06	3.60136141352996E-07	347676.1875	4.90395223096129E-06
1	56	71.4725178195492	0.363922119140625	0.3638916015625	1.01318359375E-06	3.68689001106759E-07	359156.625	5.0062180889654E-06
1	57	71.573225819295	0.373992919921875	0.373992919921875	1.00921630859375E-06	3.77439732801577E-07	370577.59375	5.10805421072291E-06
1	58	71.6739338190407	0.384063720703125	0.384063720703125	1.00677490234375E-06	3.86665675478071E-07	381479.28125	5.2095674618613E-06
1	59	71.7746418187864	0.394134521484375	0.394195556640625	1.004638671875E-06	3.9602409174222E-07	392375.46875	5.31085015609278E-06
1	60	71.8753498185322	0.404205322265625	0.40423583984375	1.00311279296875E-06	4.05494120059302E-07	402981.46875	5.41194822289981E-06
1	61	71.9760578182779	0.414276123046875	0.414337158203125	1.00311279296875E-06	4.15626885796883E-07	413051.4375	5.51296989215189E-06
1	62	72.0767658180237	0.424346923828125	0.424346923828125	1.00189208984375E-06	4.25149835336924E-07	423545.53125	5.61392971576424E-06
1	63	72.1774738177694	0.434417724609375	0.434417724609375	1.00189208984375E-06	4.35239684293265E-07	433597.3125	5.71482860323158E-06
1	64	72.2781818175151	0.444488525390625	0.444488525390625	1.00189208984375E-06	4.45329533249605E-07	443649.09375	5.81572703595157E-06
1	65	72.3788898172609	0.454559326171875	0.454559326171875	1.00311279296875E-06	4.55974259239156E-07	453148.78125	5.91668685956392E-06
1	66	72.4795978170066	0.464630126953125	0.4647216796875	1.0040283203125E-06	4.66593689907313E-07	462857.15625	6.01775445829844E-06
1	67	72.5803058167523	0.474700927734375	0.4747314453125	1.0064697265625E-06	4.77802814202732E-07	471679.8125	6.11899122304749E-06
1	68	72.6810138164981	0.484771728515625	0.484771728515625	1.009521484375E-06	4.89387502966565E-07	480199.5	6.22050447418587E-06
1	69	72.7817218162438	0.494842529296875	0.494842529296875	1.01318359375E-06	5.01366343996779E-07	488403.625	6.32235560260597E-06
1	70	72.8824298159896	0.504913330078125	0.50494384765625	1.01776123046875E-06	5.13912254973548E-07	496131.96875	6.42462191535742E-06
1	71	72.9831378157353	0.514984130859375	0.514984130859375	1.0235595703125E-06	5.27116924331494E-07	503130.59375	6.52741073281504E-06
1	72	73.083845815481	0.525054931640625	0.525054931640625	1.02996826171875E-06	5.40789869774017E-07	509777.8125	6.63081391394371E-06
1	73	73.1845538152268	0.535125732421875	0.535125732421875	1.038818359375E-06	5.55898452603287E-07	515129.25	6.73498561809538E-06
1	74	73.2852618149725	0.545196533203125	0.545196533203125	1.04949951171875E-06	5.72183466829301E-07	519482.4375	6.84014094076701E-06
1	75	73.3859698147182	0.555267333984375	0.555267333984375	1.0638427734375E-06	5.9071714986203E-07	521944.9375	6.9465559136006E-06
1	76	73.486677814464	0.565338134765625	0.565338134765625	1.0821533203125E-06	6.11782525083981E-07	522419.65625	7.05461570760235E-06
1	77	73.5873858142097	0.575408935546875	0.575408935546875	1.10687255859375E-06	6.36904360362678E-07	519851.125	7.16484191798372E-06
1	78	73.6880938139554	0.585479736328125	0.585479736328125	1.13983154296875E-06	6.67348274419055E-07	513654.625	7.27797214494785E-06
1	79	73.7888018137012	0.595550537109375	0.59552001953125	1.1865234375E-06	7.06598427768768E-07	501903.3125	7.39511369829415E-06
1	80	73.8895098134469	0.605621337890625	0.605560302734375	1.25152587890625E-06	7.57874374812673E-07	483857.59375	7.51787911212887E-06
1	81	73.9902178131927	0.615692138671875	0.61566162109375	1.34124755859375E-06	8.25754625566333E-07	459021.625	7.64843571232632E-06
1	82	74.0909258129384	0.625762939453125	0.625732421875	1.46240234375E-06	9.15072575935483E-07	427879.8125	7.78961020841962E-06
1	83	74.1916338126841	0.635833740234375	0.63580322265625	1.61956787109375E-06	1.02972637705534E-06	392575.875	7.94480001786724E-06
1	84	74.2923418124299	0.645904541015625	0.645843505859375	1.8133544921875E-06	1.17114313979982E-06	356159.5625	8.11766130937031E-06
1	85	74.3930498121756	0.655975341796875	0.65594482421875	2.037353515625E-06	1.33639139221486E-06	321959.28125	8.31156012282008E-06
1	86	74.4937578119213	0.666046142578125	0.666046142578125	2.28057861328125E-06	1.51897063460638E-06	292051.375	8.52898483572062E-06
1	87	74.5944658116671	0.676116943359375	0.67608642578125	2.51861572265625E-06	1.70280191014172E-06	268435.71875	8.7706439444446E-06
1	88	74.6951738114128	0.686187744140625	0.6861572265625	2.73223876953125E-06	1.87474529411702E-06	251133.703125	9.03504496818641E-06
1	89	74.7958818111586	0.696258544921875	0.696197509765625	2.89886474609375E-06	2.01818238565465E-06	240162.125	9.31859358388465E-06
1	90	74.8965898109043	0.706329345703125	0.706298828125	3.00872802734375E-06	2.12506097341247E-06	234749.984375	9.61606474447763E-06
1	91	74.99729781065	0.716400146484375	0.71636962890625	3.06182861328125E-06	2.19340086005104E-06	233967.921875	9.92174136627E-06
1	92	75.0980058103958	0.726470947265625	0.7264404296875	3.06884765625E-06	2.22933499571809E-06	236714.40625	1.02304456959246E-05
1	93	75.1987138101415	0.736541748046875	0.736480712890625	3.048095703125E-06	2.24486348088249E-06	241619.953125	1.05384579001111E-05
1	94	75.2994218098872	0.746612548828125	0.746551513671875	3.0145263671875E-06	2.25049916480202E-06	247651.34375	1.08437352537294E-05
1	95	75.400129809633	0.756683349609375	0.7568359375	2.9840087890625E-06	2.25840494749718E-06	253630.609375	1.11457857201458E-05
1	96	75.5008378093787	0.766754150390625	0.7672119140625	2.96783447265625E-06	2.27695795729232E-06	258509	1.14454851427581E-05
1	97	75.6015458091244	0.776824951171875	0.77667236328125	2.9779052734375E-06	2.31285685003968E-06	260811.640625	1.17448762466665E-05
1	98	75.7022538088702	0.786895751953125	0.787353515625	3.02337646484375E-06	2.38046595768537E-06	260421.9375	1.20470649562776E-05
1	99	75.8029618086159	0.796966552734375	0.79681396484375	3.11004638671875E-06	2.47812818088278E-06	256206.46875	1.23559075291269E-05
1	100	75.9036698083617	0.807037353515625	0.8074951171875	3.243408203125E-06	2.61903619502846E-06	248965	1.26758295664331E-05
1	101	76.0043778081074	0.817108154296875	0.81756591796875	3.42041015625E-06	2.79641085398907E-06	239025.6875	1.30113794511999E-05
1	102	76.1050858078531	0.827178955078125	0.82733154296875	3.63189697265625E-06	3.00478268400184E-06	227796	1.33664907480124E-05
1	103	76.2057938075989	0.837249755859375	0.83770751953125	3.85711669921875E-06	3.23113545164233E-06	217184.90625	1.37435927172191E-05
1	104	76.3065018073446	0.847320556640625	0.84716796875	4.073486328125E-06	3.45092712450423E-06	207971.234375	1.41429300128948E-05
1	105	76.4072098070903	0.857391357421875	0.8575439453125	4.2559814453125E-06	3.64969105248747E-06	201491.46875	1.45623525895644E-05
1	106	76.5079178068361	0.867462158203125	0.86700439453125	4.385986328125E-06	3.80266942556773E-06	197676.03125	1.49975103340694E-05
1	107	76.6086258065818	0.877532958984375	0.87738037109375	4.45343017578125E-06	3.90735203836812E-06	197012.28125	1.54426106746541E-05
1	108	76.7093338063275	0.887603759765625	0.887451171875	4.46502685546875E-06	3.96249333789456E-06	198756.0625	1.58916900545591E-05
1	109	76.8100418060733	0.897674560546875	0.8978271484375	4.43084716796875E-06	3.97813482777565E-06	202631.03125	1.63396325660869E-05
1	110	76.910749805819	0.907745361328125	0.9075927734375	4.371337890625E-06	3.96739460484241E-06	207623.578125	1.67828584380914E-05
1	111	77.0114578055648	0.917816162109375	0.91796875	4.30206298828125E-06	3.94915923607186E-06	213378.75	1.72195977938827E-05
1	112	77.1121658053105	0.927886962890625	0.927734375	4.23553466796875E-06	3.9294509406318E-06	219035.953125	1.76495013874955E-05
1	113	77.2128738050562	0.937957763671875	0.9381103515625	4.18548583984375E-06	3.92644733437919E-06	224134.171875	1.80735332833137E-05
1	114	77.313581804802	0.948028564453125	0.94818115234375	4.15863037109375E-06	3.94313519791467E-06	228003.21875	1.84936925506918E-05
1	115	77.4142898045477	0.958099365234375	0.95855712890625	4.16351318359375E-06	3.99096506953356E-06	230227.96875	1.89127458725125E-05
1	116	77.5149978042934	0.968170166015625	0.96832275390625	4.20440673828125E-06	4.07122251999681E-06	230311.390625	1.93341038539074E-05
1	117	77.6157058040392	0.978240966796875	0.97869873046875	4.28253173828125E-06	4.1913085624401E-06	228532.734375	1.97614554053871E-05
1	118	77.7164138037849	0.988311767578125	0.98846435546875	4.39178466796875E-06	4.34112234870554E-06	225071.234375	2.01982420549029E-05
1	119	77.8171218035307	0.998382568359375	0.99853515625	4.5220947265625E-06	4.51547020929866E-06	220812.53125	2.06470904231537E-05
1	120	77.9178298032764	1.00845336914063	1.00860595703125	4.65087890625E-06	4.69090400656569E-06	216863.515625	2.11089864023961E-05
1	121	78.0185378030221	1.01852416992188	1.01837158203125	4.76104736328125E-06	4.84851534565678E-06	213896.546875	2.1582914996543E-05
1	122	78.1192458027679	1.02859497070313	1.02874755859375	4.83551025390625E-06	4.97451901537715E-06	212748.515625	2.20661404455313E-05
1	123	78.2199538025136	1.03866577148438	1.03851318359375	4.8638916015625E-06	5.05121533933561E-06	213514.890625	2.25545445573516E-05
1	124	78.3206618022593	1.04873657226563	1.048583984375	4.8492431640625E-06	5.08483844896546E-06	216236.640625	2.30436380661558E-05
1	125	78.4213698020051	1.05880737304688	1.05865478515625	4.80072021484375E-06	5.08230505147367E-06	220520	2.35295538004721E-05
1	126	78.5220778017508	1.06887817382813	1.06842041015625	4.72869873046875E-06	5.05223806612776E-06	225943.859375	2.40093977481592E-05
1	127	78.6227858014965	1.07894897460938	1.07879638671875	4.644775390625E-06	5.01076692671631E-06	232260.1875	2.44813891185913E-05
1	128	78.7234938012423	1.08901977539063	1.08917236328125	4.55780029296875E-06	4.96423035656335E-06	238968.859375	2.49447766691446E-05
1	129	78.824201800988	1.09909057617188	1.099853515625	4.471435546875E-06	4.91792434331728E-06	245973.234375	2.53994348895503E-05
1	130	78.9249098007338	1.10916137695313	1.1090087890625	4.38995361328125E-06	4.86849694425473E-06	252624.265625	2.58456402661977E-05
1	131	79.0256178004795	1.11923217773438	1.1187744140625	4.31396484375E-06	4.82635368825868E-06	259337.859375	2.62839184870245E-05
1	132	79.1263258002252	1.12930297851563	1.12884521484375	4.2449951171875E-06	4.79194250146975E-06	265923.78125	2.67148952843854E-05
1	133	79.227033799971	1.13937377929688	1.14013671875	4.18243408203125E-06	4.76854665976134E-06	272601.25	2.71392509603174E-05
1	134	79.3277417997167	1.14944458007813	1.14898681640625	4.12567138671875E-06	4.74034186481731E-06	278496.9375	2.75575966952601E-05
1	135	79.4284497994624	1.15951538085938	1.15966796875	4.07470703125E-06	4.7253070079023E-06	284601.5625	2.79705182038015E-05
1	136	79.5291577992082	1.16958618164063	1.1700439453125	4.02862548828125E-06	4.71366865895106E-06	290432.5625	2.83785539068049E-05
1	137	79.6298657989539	1.17965698242188	1.17919921875	3.9874267578125E-06	4.70197028334951E-06	295729.375	2.87821931124199E-05
1	138	79.7305737986997	1.18972778320313	1.1895751953125	3.94927978515625E-06	4.69796532343025E-06	301213.1875	2.91818396362942E-05
1	139	79.8312817984454	1.19979858398438	1.19964599609375	3.9154052734375E-06	4.69709993922152E-06	306391.28125	2.95778572763084E-05
1	140	79.9319897981911	1.20986938476563	1.209716796875	3.8848876953125E-06	4.69961378257722E-06	311390.4375	2.99706334772054E-05
1	141	80.0326977979369	1.21994018554688	1.21978759765625	3.8568115234375E-06	4.70449094791547E-06	316268.40625	3.03604592772899E-05
1	142	80.1334057976826	1.23001098632813	1.23016357421875	3.8311767578125E-06	4.71297425974626E-06	321092.875	3.0747578421142E-05
1	143	80.2341137974283	1.24008178710938	1.23992919921875	3.80828857421875E-06	4.72200827061897E-06	325587	3.11322583002038E-05
1	144	80.3348217971741	1.25015258789063	1.25	3.7872314453125E-06	4.73403906653402E-06	330056.40625	3.15147226501722E-05
1	145	80.4355297969198	1.26022338867188	1.2603759765625	3.76800537109375E-06	4.74910302727949E-06	334494.21875	3.18951570079662E-05
1	146	80.5362377966655	1.27029418945313	1.27044677734375	3.751220703125E-06	4.76572631669114E-06	338675.5625	3.22737832902931E-05
1	147	80.6369457964113	1.28036499023438	1.28021240234375	3.7359619140625E-06	4.78282481708447E-06	342672.78125	3.26507906720508E-05
1	148	80.737653796157	1.29043579101563	1.290283203125	3.7225341796875E-06	4.80312337458599E-06	346614.21875	3.30263574142009E-05
1	149	80.8383617959028	1.30050659179688	1.3006591796875	3.71124267578125E-06	4.82706172988401E-06	350464.625	3.34006763296202E-05
1	150	80.9390697956485	1.31057739257813	1.3104248046875	3.701171875E-06	4.85010741613223E-06	354056.71875	3.37739220412914E-05
1	151	81.0397777953942	1.32064819335938	1.32080078125	3.692626953125E-06	4.87722445541294E-06	357685.9375	3.41462291544303E-05
1	152	81.14048579514	1.33071899414063	1.33056640625	3.6859130859375E-06	4.90435195388272E-06	360986.9375	3.4517768654041E-05
1	153	81.2411937948857	1.34078979492188	1.34033203125	3.68072509765625E-06	4.93339348395239E-06	364148.90625	3.48887078871485E-05
1	154	81.3419017946314	1.35086059570313	1.3507080078125	3.67767333984375E-06	4.96746270073345E-06	367272.4375	3.5259232390672E-05
1	155	81.4426097943772	1.36093139648438	1.36077880859375	3.675537109375E-06	5.00159285365953E-06	370225.84375	3.56294949597213E-05
1	156	81.5433177941229	1.37100219726563	1.37115478515625	3.67645263671875E-06	5.04098534293007E-06	372955.9375	3.59996993211098E-05
1	157	81.6440257938686	1.38107299804688	1.3812255859375	3.67889404296875E-06	5.08138236909872E-06	375445.875	3.63700673915446E-05
1	158	81.7447337936144	1.39114379882813	1.39129638671875	3.68438720703125E-06	5.12607448399649E-06	377619.5	3.67408392776269E-05
1	159	81.8454417933601	1.40121459960938	1.40106201171875	3.6932373046875E-06	5.1744541451626E-06	379358.78125	3.71123314835131E-05
1	160	81.9461497931059	1.41128540039063	1.4111328125	3.70635986328125E-06	5.2301661526144E-06	380732.8125	3.74849332729355E-05
1	161	82.0468577928516	1.42135620117188	1.4215087890625	3.72467041015625E-06	5.29465160070686E-06	381646.875	3.78591139451601E-05
1	162	82.1475657925973	1.43142700195313	1.43157958984375	3.7481689453125E-06	5.3658018259739E-06	381941.0625	3.8235401007114E-05
1	163	82.2482737923431	1.44149780273438	1.441650390625	3.77899169921875E-06	5.44798467672081E-06	381490.75	3.86144238291308E-05
1	164	82.3489817920888	1.45156860351563	1.451416015625	3.818359375E-06	5.54202779312618E-06	380115.09375	3.89969791285694E-05
1	165	82.4496897918345	1.46163940429688	1.4617919921875	3.86627197265625E-06	5.65168556931894E-06	378088.25	3.93839327443857E-05
1	166	82.5503977915803	1.47171020507813	1.47216796875	3.92486572265625E-06	5.77806167711969E-06	375087.46875	3.97762487409636E-05
1	167	82.651105791326	1.48178100585938	1.48162841796875	3.99505615234375E-06	5.91918842474115E-06	370865.5	4.01750476157758E-05
1	168	82.7518137910718	1.49185180664063	1.49169921875	4.07684326171875E-06	6.08142363489605E-06	365895.65625	4.05815007979982E-05
1	169	82.8525217908175	1.50192260742188	1.50177001953125	4.1668701171875E-06	6.25768052486819E-06	360407.21875	4.09966050938237E-05
1	170	82.9532297905632	1.49185180664063	1.49169921875	3.8812255859375E-06	5.78962090003188E-06	384337.1875	4.14018577430397E-05
1	171	83.053937790309	1.48178100585938	1.48162841796875	3.67462158203125E-06	5.44442355021602E-06	403205.71875	4.1782324842643E-05
1	172	83.1546457900547	1.47171020507813	1.47186279296875	3.51409912109375E-06	5.1722718126257E-06	418845	4.21443037339486E-05
1	173	83.2553537898004	1.46163940429688	1.46209716796875	3.38531494140625E-06	4.94965934194624E-06	431894	4.24917197960895E-05
1	174	83.3560617895462	1.45156860351563	1.45172119140625	3.27789306640625E-06	4.75858678328223E-06	442882.40625	4.28272360295523E-05
1	175	83.4567697892919	1.44149780273438	1.44134521484375	3.1890869140625E-06	4.59657485407661E-06	451961.75	4.31528751505539E-05
1	176	83.5574777890376	1.43142700195313	1.431884765625	3.11309814453125E-06	4.45759769718279E-06	459954.90625	4.34702160418965E-05
1	177	83.6581857887834	1.42135620117188	1.4208984375	3.0487060546875E-06	4.33190143667161E-06	466066.0625	4.37804883404169E-05
1	178	83.7588937885291	1.41128540039063	1.4111328125	2.9931640625E-06	4.22375160269439E-06	471451.90625	4.40847215941176E-05
1	179	83.8596017882749	1.40121459960938	1.40106201171875	2.94464111328125E-06	4.12562440033071E-06	475800.625	4.43837125203572E-05
1	180	83.9603097880206	1.39114379882813	1.3909912109375	2.9022216796875E-06	4.03696503781248E-06	479284.96875	4.46781268692575E-05
1	181	84.0610177877663	1.38107299804688	1.38092041015625	2.86529541015625E-06	3.956744876632E-06	481946.96875	4.49685430794489E-05
1	182	84.1617257875121	1.37100219726563	1.37115478515625	2.83233642578125E-06	3.88357148040086E-06	484107.34375	4.52554413641337E-05
1	183	84.2624337872578	1.36093139648438	1.36077880859375	2.80303955078125E-06	3.81431664209231E-06	485465.4375	4.55392037110869E-05
1	184	84.3631417870035	1.35086059570313	1.35101318359375	2.7764892578125E-06	3.75107356376247E-06	486590.46875	4.5820157538401E-05
1	185	84.4638497867493	1.34078979492188	1.3409423828125	2.752685546875E-06	3.69119265997142E-06	487139.6875	4.60985720565077E-05
1	186	84.564557786495	1.33071899414063	1.33056640625	2.730712890625E-06	3.6333947264211E-06	487259.75	4.63746837340295E-05
1	187	84.6652657862408	1.32064819335938	1.32080078125	2.7105712890625E-06	3.58012448486988E-06	487277.65625	4.66486744699068E-05
1	188	84.7659737859865	1.31057739257813	1.3104248046875	2.69134521484375E-06	3.52680535797845E-06	486903.28125	4.69206825073343E-05
1	189	84.8666817857322	1.30050659179688	1.30096435546875	2.67333984375E-06	3.47791979038448E-06	486643.84375	4.71908169856761E-05
1	190	84.967389785478	1.29043579101563	1.29058837890625	2.65594482421875E-06	3.42773159900389E-06	485924.375	4.74591652164236E-05
1	191	85.0680977852237	1.28036499023438	1.280517578125	2.63885498046875E-06	3.37910023517907E-06	485255	4.77257817692589E-05
1	192	85.1688057849694	1.27029418945313	1.270751953125	2.623291015625E-06	3.33355228576693E-06	484411.34375	4.79907503176946E-05
1	193	85.2695137847152	1.26022338867188	1.26068115234375	2.607421875E-06	3.2871273560886E-06	483497.21875	4.82541363453493E-05
1	194	85.3702217844609	1.25015258789063	1.24969482421875	2.591552734375E-06	3.23864992424205E-06	482218.59375	4.85159289382864E-05
1	195	85.4709297842066	1.24008178710938	1.23992919921875	2.5762939453125E-06	3.19442187901586E-06	481284.09375	4.87761499243788E-05
1	196	85.5716377839524	1.23001098632813	1.22955322265625	2.562255859375E-06	3.15042984766478E-06	479871.375	4.90348938910756E-05
1	197	85.6723457836981	1.21994018554688	1.22039794921875	2.54730224609375E-06	3.10872223963088E-06	479094.3125	4.92921826662496E-05
1	198	85.7730537834439	1.20986938476563	1.20941162109375	2.53326416015625E-06	3.0637588679383E-06	477412.375	4.95480089739431E-05
1	199	85.8737617831896	1.19979858398438	1.199951171875	2.518310546875E-06	3.02184980682796E-06	476490.53125	4.98023764521349E-05
1	200	85.9744697829353	1.18972778320313	1.18988037109375	2.50457763671875E-06	2.98014788313594E-06	475082.25	5.00552996527404E-05
1	201	86.0751777826811	1.17965698242188	1.1798095703125	2.4896240234375E-06	2.93728226097301E-06	473890.65625	5.03067749377806E-05
1	202	86.1758857824268	1.16958618164063	1.16943359375	2.47528076171875E-06	2.8946765269211E-06	472444.8125	5.05567804793827E-05
1	203	86.2765937821725	1.15951538085938	1.15966796875	2.45941162109375E-06	2.85210080619436E-06	471522.5625	5.08052617078647E-05
1	204	86.3773017819183	1.14944458007813	1.14959716796875	2.4432373046875E-06	2.80873859992425E-06	470522.125	5.10521276737563E-05
1	205	86.478009781664	1.13937377929688	1.1395263671875	2.42462158203125E-06	2.76292007583834E-06	469981.15625	5.12972437718417E-05
1	206	86.5787177814098	1.12930297851563	1.129150390625	2.4041748046875E-06	2.71467479251442E-06	469662.375	5.15403953613713E-05
1	207	86.6794257811555	1.11923217773438	1.119384765625	2.3809814453125E-06	2.66523443315236E-06	470135.875	5.17813459737226E-05
1	208	86.7801337809012	1.10916137695313	1.1090087890625	2.352294921875E-06	2.60871570390009E-06	471458.25	5.20196845172904E-05
1	209	86.880841780647	1.09909057617188	1.0986328125	2.31719970703125E-06	2.54575161307002E-06	474120.90625	5.22548143635504E-05
1	210	86.9815497803927	1.08901977539063	1.08917236328125	2.2723388671875E-06	2.47496859628882E-06	479317.75	5.24859133292921E-05
1	211	87.0822577801384	1.07894897460938	1.0791015625	2.21435546875E-06	2.38951429309964E-06	487320.84375	5.27118390891701E-05
1	212	87.1829657798842	1.06887817382813	1.0687255859375	2.137451171875E-06	2.28434851123893E-06	500000.03125	5.29309691046365E-05
1	213	87.2836737796299	1.05880737304688	1.058349609375	2.03765869140625E-06	2.15655518331914E-06	519394.96875	5.31412006239407E-05
1	214	87.3843817793756	1.04873657226563	1.048583984375	1.91009521484375E-06	2.0028951439599E-06	548969.5	5.33399870619178E-05
1	215	87.4850897791214	1.03866577148438	1.038818359375	1.75201416015625E-06	1.82002440851647E-06	592928.0625	5.35243889316916E-05
1	216	87.5857977788671	1.02859497070313	1.0284423828125	1.56646728515625E-06	1.61102138918068E-06	656536.125	5.3691488574259E-05
1	217	87.6865057786129	1.01852416992188	1.01837158203125	1.36260986328125E-06	1.38764312396233E-06	747368.4375	5.38389795110561E-05
1	218	87.7872137783586	1.00845336914063	1.00860595703125	1.153564453125E-06	1.16349190193432E-06	874338.625	5.39656793989707E-05
1	219	87.8879217781043	0.998382568359375	0.99853515625	9.6221923828125E-07	9.6080975708901E-07	1037741.8125	5.40722176083364E-05
1	220	87.9886297778501	0.988311767578125	0.9881591796875	8.0413818359375E-07	7.94616482835409E-07	1228842.5	5.41611589142121E-05
1	221	88.0893377775958	0.978240966796875	0.97808837890625	6.9122314453125E-07	6.76077320349577E-07	1415011	5.42364577995613E-05
1	222	88.1900457773415	0.968170166015625	0.96832275390625	6.268310546875E-07	6.06974765560153E-07	1544790.75	5.43028254469391E-05
1	223	88.2907537770873	0.958099365234375	0.95855712890625	6.0577392578125E-07	5.80668881866586E-07	1582367.875	5.43648930033669E-05
1	224	88.391461776833	0.948028564453125	0.94818115234375	6.12792968750001E-07	5.81038761993113E-07	1547310.75	5.44262511539273E-05
1	225	88.4921697765787	0.937957763671875	0.93841552734375	6.317138671875E-07	5.92810124544485E-07	1485507.25	5.44889189768583E-05
1	226	88.5928777763245	0.927886962890625	0.92864990234375	6.46362304687501E-07	6.00244277393358E-07	1436732.75	5.45532748219557E-05
1	227	88.6935857760702	0.917816162109375	0.9173583984375	6.4361572265625E-07	5.90426282087719E-07	1425320.125	5.46182309335563E-05
1	228	88.794293775816	0.907745361328125	0.908203125	6.1492919921875E-07	5.58480621748458E-07	1476923	5.46816045243759E-05
1	229	88.8950017755617	0.897674560546875	0.8978271484375	5.511474609375E-07	4.94835092013091E-07	1629014.5	5.47403178643435E-05
1	230	88.9957097753074	0.887603759765625	0.8880615234375	4.473876953125E-07	3.97307786670353E-07	1984993.25	5.47905983694363E-05
1	231	89.0964177750532	0.877532958984375	0.877685546875	2.99072265625E-07	2.62491397506892E-07	2934693.75	5.48281859664712E-05
1	232	89.1971257747989	0.867462158203125	0.86761474609375	1.080322265625E-07	9.37303497039466E-08	8031073.5	5.48486859770492E-05
1	233	89.2978337745446	0.857391357421875	0.85723876953125	-1.1627197265625E-07	-9.96728388713564E-08	-7372703.5	5.48482712474652E-05
1	234	89.3985417742904	0.847320556640625	0.84747314453125	-3.54919433593751E-07	-3.00784677165211E-07	-2387790.25	5.48245443496853E-05
1	235	89.4992497740361	0.837249755859375	0.83770751953125	-5.83801269531251E-07	-4.89054684749135E-07	-1434919	5.47772760910448E-05
1	236	89.5999577737819	0.827178955078125	0.8270263671875	-7.794189453125E-07	-6.44599992938311E-07	-1061080.625	5.47086347069126E-05
1	237	89.7006657735276	0.817108154296875	0.81756591796875	-9.24072265625001E-07	-7.55489963921718E-07	-884742.4375	5.46228548046201E-05
1	238	89.8013737732733	0.807037353515625	0.80718994140625	-1.0089111328125E-06	-8.14382929092972E-07	-800060.5	5.45255206816364E-05
1	239	89.9020817730191	0.796966552734375	0.79681396484375	-1.03973388671875E-06	-8.28474469471985E-07	-766363.375	5.44223657925613E-05
1	240	90.0027897727648	0.786895751953125	0.78704833984375	-1.02813720703125E-06	-8.0919363654175E-07	-765509.125	5.43182395631447E-05
1	241	90.1034977725105	0.776824951171875	0.77667236328125	-9.9090576171875E-07	-7.69609073358879E-07	-783800.4375	5.42165726074018E-05
1	242	90.2042057722563	0.766754150390625	0.76690673828125	-9.43603515624999E-07	-7.23655887213681E-07	-812742.5625	5.41191620868631E-05
1	243	90.304913772002	0.756683349609375	0.7568359375	-9.0087890625E-07	-6.81817539316398E-07	-840108.4375	5.4026284487918E-05
1	244	90.4056217717477	0.746612548828125	0.746490478515625	-8.72802734375E-07	-6.51538925922068E-07	-855279.75	5.39369721082039E-05
1	245	90.5063297714935	0.736541748046875	0.73651123046875	-8.697509765625E-07	-6.40581390598527E-07	-846807	5.38492276973557E-05
1	246	90.6070377712392	0.726470947265625	0.726409912109375	-8.984375E-07	-6.52633900699584E-07	-808525.875	5.37601918040309E-05
1	247	90.707745770985	0.716400146484375	0.71630859375	-9.65576171875E-07	-6.91650541284616E-07	-741845.75	5.36663319508079E-05
1	248	90.8084537707307	0.706329345703125	0.706329345703125	-1.07269287109375E-06	-7.57674456508539E-07	-658463.75	5.35636972927023E-05
1	249	90.9091617704764	0.696258544921875	0.6961669921875	-1.2188720703125E-06	-8.48538491027284E-07	-571156.75	5.34483078808989E-05
1	250	91.0098697702222	0.686187744140625	0.686126708984375	-1.3897705078125E-06	-9.53558640048868E-07	-493697.875	5.33169513801113E-05
1	251	91.1105777699679	0.676116943359375	0.67608642578125	-1.5692138671875E-06	-1.06092420537607E-06	-430844.03125	5.3167954320088E-05
1	252	91.2112857697136	0.666046142578125	0.666046142578125	-1.73309326171875E-06	-1.15431998892745E-06	-384310.625	5.30016695847735E-05
1	253	91.3119937694594	0.655975341796875	0.655853271484375	-1.86004638671875E-06	-1.2199175216665E-06	-352600.5	5.28207419847604E-05
1	254	91.4127017692051	0.645904541015625	0.645904541015625	-1.9354248046875E-06	-1.25009967177903E-06	-333727.53125	5.26296244061086E-05
1	255	91.5134097689509	0.635833740234375	0.63580322265625	-1.95587158203125E-06	-1.24354937725002E-06	-325074.125	5.24336828675587E-05
1	256	91.6141177686966	0.625762939453125	0.625701904296875	-1.9287109375E-06	-1.20679806059343E-06	-324414.5625	5.22380796610378E-05
1	257	91.7148257684423	0.615692138671875	0.615631103515625	-1.86767578125E-06	-1.14979923182545E-06	-329624.1875	5.20469147886615E-05
1	258	91.8155337681881	0.605621337890625	0.605621337890625	-1.78497314453125E-06	-1.08101778550918E-06	-339288.78125	5.18629894941114E-05
1	259	91.9162417679338	0.595550537109375	0.595550537109375	-1.69281005859375E-06	-1.00815384485031E-06	-351811.8125	5.16878681082744E-05
1	260	92.0169497676795	0.585479736328125	0.58544921875	-1.59942626953125E-06	-9.36382832605887E-07	-366037.03125	5.15220926899929E-05
1	261	92.1176577674253	0.575408935546875	0.575439453125	-1.50848388671875E-06	-8.68041126977914E-07	-381468.75	5.13655977556482E-05
1	262	92.218365767171	0.565338134765625	0.5653076171875	-1.42333984375E-06	-8.04624789907393E-07	-397169.84375	5.12179685756564E-05
1	263	92.3190737669167	0.555267333984375	0.555145263671875	-1.34490966796875E-06	-7.46620173686097E-07	-412775.15625	5.10785757796839E-05
1	264	92.4197817666625	0.545196533203125	0.545135498046875	-1.2738037109375E-06	-6.94395623668242E-07	-427958.78125	5.0946713599842E-05
1	265	92.5204897664082	0.535125732421875	0.53515625	-1.2091064453125E-06	-6.47060801384214E-07	-442604.78125	5.08216871821787E-05
1	266	92.621197766154	0.525054931640625	0.52508544921875	-1.15081787109375E-06	-6.04277715865464E-07	-456271.5625	5.07028562424239E-05
1	267	92.7219057658997	0.514984130859375	0.515045166015625	-1.09771728515625E-06	-5.6537396631029E-07	-469196.5625	5.05896350659896E-05
1	268	92.8226137656454	0.504913330078125	0.504913330078125	-1.05010986328125E-06	-5.30214492755476E-07	-480819.53125	5.04814815940335E-05
1	269	92.9233217653912	0.494842529296875	0.49481201171875	-1.00677490234375E-06	-4.9816429736893E-07	-491482.3125	5.03779083373956E-05
1	270	93.0240297651369	0.484771728515625	0.48480224609375	-9.674072265625E-07	-4.69001207648034E-07	-501135.65625	5.02785005664919E-05
1	271	93.1247377648826	0.474700927734375	0.47467041015625	-9.31701660156251E-07	-4.42251206322908E-07	-509466.09375	5.01828726555686E-05
1	272	93.2254457646284	0.464630126953125	0.464599609375	-8.984375E-07	-4.17413701825353E-07	-517119.59375	5.00907190144062E-05
1	273	93.3261537643741	0.454559326171875	0.454498291015625	-8.67919921875E-07	-3.94468088416033E-07	-523663.875	5.00017777085304E-05
1	274	93.4268617641198	0.444488525390625	0.444488525390625	-8.39843749999999E-07	-3.73300906630902E-07	-529251.5	4.99157831654884E-05
1	275	93.5275697638656	0.434417724609375	0.434478759765625	-8.14208984375001E-07	-3.53756519189119E-07	-533620.6875	4.98324952786788E-05
1	276	93.6282777636113	0.424346923828125	0.424285888671875	-7.904052734375E-07	-3.35357782432766E-07	-536795.375	4.97516957693733E-05
1	277	93.7289857633571	0.414276123046875	0.414276123046875	-7.6904296875E-07	-3.18596136139604E-07	-538690.5	4.96731736348011E-05
1	278	93.8296937631028	0.404205322265625	0.40423583984375	-7.48291015624999E-07	-3.02486029113425E-07	-540212.125	4.95967688038945E-05
1	279	93.9304017628485	0.394134521484375	0.394134521484375	-7.2906494140625E-07	-2.87349649852331E-07	-540602.75	4.95223757752683E-05
1	280	94.0311097625943	0.384063720703125	0.384033203125	-7.1136474609375E-07	-2.73187680477349E-07	-539854.125	4.94498453917913E-05
1	281	94.13181776234	0.373992919921875	0.3740234375	-6.94580078125E-07	-2.59789231904506E-07	-538488.5625	4.93790503242053E-05
1	282	94.2325257620857	0.363922119140625	0.36395263671875	-6.78405761718751E-07	-2.46907546852526E-07	-536482.25	4.93099141749553E-05
1	283	94.3332337618315	0.353851318359375	0.3538818359375	-6.634521484375E-07	-2.34783655628235E-07	-533394.6875	4.92423459945712E-05
1	284	94.4339417615772	0.343780517578125	0.34381103515625	-6.488037109375E-07	-2.23065867999139E-07	-529915.375	4.9176269385498E-05
1	285	94.534649761323	0.333709716796875	0.333770751953125	-6.353759765625E-07	-2.12069906524448E-07	-525312.1875	4.91116079501808E-05
1	286	94.6353577610687	0.323638916015625	0.32366943359375	-6.21643066406249E-07	-2.01206844963053E-07	-520667.65625	4.90483107569162E-05
1	287	94.7360657608144	0.313568115234375	0.3135986328125	-6.1004638671875E-07	-1.91309709407506E-07	-514057.0625	4.89862904942129E-05
1	288	94.8367737605602	0.303497314453125	0.30352783203125	-5.9844970703125E-07	-1.81646129249202E-07	-507190.25	4.89254380227067E-05
1	289	94.9374817603059	0.293426513671875	0.29345703125	-5.8746337890625E-07	-1.72395260733538E-07	-499532.46875	4.88657206005882E-05
1	290	95.0381897600516	0.283355712890625	0.283416748046875	-5.77697753906251E-07	-1.63729211521968E-07	-490596.96875	4.88070509163663E-05
1	291	95.1388977597974	0.273284912109375	0.2733154296875	-5.6884765625E-07	-1.55474850771498E-07	-480472.09375	4.87493198306765E-05
1	292	95.2396057595431	0.263214111328125	0.26324462890625	-5.60302734375E-07	-1.47496692193272E-07	-469825.71875	4.86924618599005E-05
1	293	95.3403137592888	0.253143310546875	0.25323486328125	-5.52978515624999E-07	-1.40033435513942E-07	-457947.03125	4.8636404244462E-05
1	294	95.4410217590346	0.243072509765625	0.2430419921875	-5.462646484375E-07	-1.32765237026433E-07	-444916.21875	4.85810523969121E-05
1	295	95.5417297587803	0.233001708984375	0.23297119140625	-5.40771484374999E-07	-1.25984172427707E-07	-430812.65625	4.85263153677806E-05
1	296	95.6424377585261	0.222930908203125	0.222991943359375	-5.352783203125E-07	-1.19362752570851E-07	-416590.65625	4.84721313114278E-05
1	297	95.7431457582718	0.212860107421875	0.212890625	-5.316162109375E-07	-1.13176106708579E-07	-400459.25	4.84184092783835E-05
1	298	95.8438537580175	0.202789306640625	0.202789306640625	-5.2825927734375E-07	-1.07125323722812E-07	-383882.15625	4.83650401292834E-05
1	299	95.9445617577633	0.192718505859375	0.192718505859375	-5.27343750000001E-07	-1.01628899074058E-07	-365451.40625	4.8311885620933E-05
1	300	96.045269757509	0.182647705078125	0.182647705078125	-5.2764892578125E-07	-9.63738671089232E-08	-346153.84375	4.82587638543919E-05
1	301	96.1459777572547	0.172576904296875	0.172576904296875	-5.2947998046875E-07	-9.1376016086997E-08	-325936.625	4.82055329484865E-05
1	302	96.2466857570005	0.162506103515625	0.16259765625	-5.33447265625001E-07	-8.67372733637239E-08	-304805.5	4.81520110042766E-05
1	303	96.3473937567462	0.152435302734375	0.152496337890625	-5.401611328125E-07	-8.23725940790609E-08	-282316.375	4.80979506392032E-05
1	304	96.448101756492	0.142364501953125	0.142364501953125	-5.50231933593751E-07	-7.83334925813506E-08	-258735.453125	4.80430426250678E-05
1	305	96.5488097562377	0.132293701171875	0.132354736328125	-5.65185546875E-07	-7.48049799881301E-08	-234179.265625	4.79868795082439E-05
1	306	96.6495177559834	0.122222900390625	0.122314453125	-5.8563232421875E-07	-7.16312982262934E-08	-208858.78125	4.79289301438257E-05
1	307	96.7502257557292	0.112152099609375	0.1121826171875	-6.134033203125E-07	-6.88131862602859E-08	-182885.578125	4.78685542475432E-05
1	308	96.8509337554749	0.102081298828125	0.102081298828125	-6.5277099609375E-07	-6.66357138356943E-08	-156381.484375	4.78047986689489E-05
1	309	96.9516417552206	0.092010498046875	0.092071533203125	-7.049560546875E-07	-6.4906387819974E-08	-130606.0625	4.77364301332273E-05
1	310	97.0523497549664	0.081939697265625	0.082000732421875	-7.763671875E-07	-6.36626751315816E-08	-105621.0703125	4.76618406537455E-05
1	311	97.1530577547121	0.071868896484375	0.07196044921875	-8.709716796875E-07	-6.26755110033628E-08	-82620.890625	4.75788874609862E-05
1	312	97.2537657544578	0.061798095703125	0.0618896484375	-9.94262695312501E-07	-6.15345641108433E-08	-62246.77734375	4.74849657621235E-05
1	313	97.3544737542036	0.051727294921875	0.05181884765625	-1.14990234375E-06	-5.95866147534707E-08	-45063.6953125	4.73770014650654E-05
1	314	97.4551817539493	0.041656494140625	0.041796875	-1.33636474609375E-06	-5.58558674867982E-08	-31276.548828125	4.7251807700377E-05
1	315	97.5558897536951	0.031585693359375	0.0316497802734375	-1.5472412109375E-06	-4.89698415151452E-08	-20455.62109375	4.71066050522495E-05
1	316	97.6565977534408	0.021514892578125	0.0216217041015625	-1.76513671875E-06	-3.81652611736172E-08	-12249.30859375	4.69398146378808E-05
1	317	97.7573057531865	0.011444091796875	0.0115875244140625	-1.9696044921875E-06	-2.28228405063646E-08	-5883.17333984375	4.6751752961427E-05
1	318	97.8580137529323	0.001373291015625	0.00147094726562499	-2.1392822265625E-06	-3.14677106594274E-09	-687.589233398438	4.65448574686889E-05
1	319	97.958721752678	-0.008697509765625	-0.00856933593750001	-2.25738525390625E-06	1.93442915019659E-08	3796.13354492188	4.63234646304045E-05
1	320	98.0594297524237	-0.018768310546875	-0.018658447265625	-2.3199462890625E-06	4.32865938648774E-08	8042.62109375	4.60929804830812E-05
1	321	98.1601377521695	-0.028839111328125	-0.0287078857421875	-2.33184814453125E-06	6.69424267130125E-08	12311.216796875	4.5858741941629E-05
1	322	98.2608457519152	-0.038909912109375	-0.038726806640625	-2.3065185546875E-06	8.93240965638142E-08	16790.15625	4.56251837022137E-05
1	323	98.3615537516609	-0.048980712890625	-0.0488189697265625	-2.25677490234375E-06	1.1017342416153E-07	21632.18359375	4.53954016848002E-05
1	324	98.4622617514067	-0.059051513671875	-0.058929443359375	-2.1942138671875E-06	1.29303799667468E-07	26856.748046875	4.51712767244317E-05
1	325	98.5629697511524	-0.069122314453125	-0.06903076171875	-2.127685546875E-06	1.46875748896491E-07	32444.0625	4.49536528321914E-05
1	326	98.6636777508982	-0.079193115234375	-0.07916259765625	-2.06298828125E-06	1.63311497658469E-07	38372.78125	4.47426355094649E-05
1	327	98.7643857506439	-0.089263916015625	-0.089202880859375	-2.0025634765625E-06	1.78634422809409E-07	44544.34765625	4.45379191660322E-05
1	328	98.8650937503896	-0.099334716796875	-0.099151611328125	-1.94915771484375E-06	1.93262124525972E-07	50868.953125	4.43389326392207E-05
1	329	98.9658017501354	-0.109405517578125	-0.10931396484375	-1.90216064453125E-06	2.07932728812921E-07	57468.3125	4.41450029029511E-05
1	330	99.0665097498811	-0.119476318359375	-0.119384765625	-1.8621826171875E-06	2.22316231202058E-07	64110.12890625	4.39554532931652E-05
1	331	99.1672177496268	-0.129547119140625	-0.129425048828125	-1.82769775390625E-06	2.36549865917368E-07	70813.15625	4.37696544395294E-05
1	332	99.2679257493726	-0.139617919921875	-0.139495849609375	-1.79901123046875E-06	2.5095459932345E-07	77540.2890625	4.3587035179371E-05
1	333	99.3686337491183	-0.149688720703125	-0.149566650390625	-1.7767333984375E-06	2.65740055738206E-07	84180.6953125	4.34069806942716E-05
1	334	99.4693417488641	-0.159759521484375	-0.15960693359375	-1.7578125E-06	2.8055904977009E-07	90798.609375	4.32290034950711E-05
1	335	99.5700497486098	-0.169830322265625	-0.169708251953125	-1.74468994140625E-06	2.96088273898931E-07	97271.296875	4.30526379204821E-05
1	336	99.6707577483555	-0.179901123046875	-0.17974853515625	-1.73553466796875E-06	3.11959809096152E-07	103569.546875	4.28773964813445E-05
1	337	99.7714657481013	-0.189971923828125	-0.1898193359375	-1.7303466796875E-06	3.28453239717419E-07	109700.1796875	4.27028753620107E-05
1	338	99.872173747847	-0.200042724609375	-0.199920654296875	-1.7291259765625E-06	3.45687993785759E-07	115619.484375	4.25286743848119E-05
1	339	99.9728817475927	-0.189971923828125	-0.189788818359375	-1.53167724609375E-06	2.90695197691093E-07	123909.1484375	4.23644814873114E-05
2	340	100.073589747338	-0.179901123046875	-0.179718017578125	-1.3909912109375E-06	2.49986186418028E-07	129201.40625	4.22173143306281E-05
2	341	100.174297747084	-0.169830322265625	-0.169647216796875	-1.2762451171875E-06	2.16511423900556E-07	132926.84375	4.20830074290279E-05
2	342	100.27500574683	-0.159759521484375	-0.15966796875	-1.17950439453125E-06	1.8832906789612E-07	135368.703125	4.19593488913961E-05
2	343	100.375713746576	-0.149688720703125	-0.14959716796875	-1.0943603515625E-06	1.63713195888704E-07	136698.28125	4.18448507844005E-05
2	344	100.476421746321	-0.139617919921875	-0.139495849609375	-1.0186767578125E-06	1.42101171718423E-07	136938.296875	4.17384508182295E-05
2	345	100.577129746067	-0.129547119140625	-0.12945556640625	-9.4940185546875E-07	1.22905348121094E-07	136354.875	4.16393522755243E-05
2	346	100.677837745813	-0.119476318359375	-0.119415283203125	-8.85925292968751E-07	1.05793013460698E-07	134791.59375	4.15469366998877E-05
2	347	100.778545745559	-0.109405517578125	-0.109344482421875	-8.24890136718751E-07	9.01971830558068E-08	132556.421875	4.14607893617358E-05
2	348	100.879253745304	-0.099334716796875	-0.0992431640625	-7.6507568359375E-07	7.59285256890507E-08	129716.796875	4.13807283621281E-05
2	349	100.97996174505	-0.089263916015625	-0.08917236328125	-7.049560546875E-07	6.28625969056884E-08	126493.5078125	4.13067064073402E-05
2	350	101.080669744796	-0.079193115234375	-0.079071044921875	-6.41479492187499E-07	5.07224520163163E-08	123263.5625	4.12389090342913E-05
2	351	101.181377744542	-0.069122314453125	-0.069061279296875	-5.7098388671875E-07	3.94328800723542E-08	120951.359375	4.11778564739507E-05
2	352	101.282085744287	-0.059051513671875	-0.05889892578125	-4.89501953125E-07	2.88311383656037E-08	120324.1953125	4.11244545830414E-05
2	353	101.382793744033	-0.048980712890625	-0.04886474609375	-3.91235351562499E-07	1.91176159347606E-08	124898.59375	4.10801076213829E-05
2	354	101.483501743779	-0.038909912109375	-0.038751220703125	-2.703857421875E-07	1.04777777565346E-08	143318.296875	4.10467910114676E-05
2	355	101.584209743525	-0.028839111328125	-0.028717041015625	-1.2237548828125E-07	3.51426177047642E-09	234663.359375	4.10270149586722E-05
2	356	101.68491774327	-0.018768310546875	-0.018682861328125	5.88989257812506E-08	-1.10040043743709E-09	-317202.09375	4.10238171753008E-05
2	357	101.785625743016	-0.008697509765625	-0.008575439453125	2.7008056640625E-07	-2.31605956635406E-09	-31751.412109375	4.10403845307883E-05
2	358	101.886333742762	0.001373291015625	0.0014801025390625	5.04150390624999E-07	7.46194217526863E-10	2935.83544921875	4.10793691116851E-05
2	359	101.987041742507	0.011444091796875	0.011529541015625	7.4737548828125E-07	8.61689564146673E-09	15426.705078125	4.11423898185603E-05
2	360	102.087749742253	0.021514892578125	0.0215911865234375	9.7625732421875E-07	2.10785540133429E-08	22116.287109375	4.12291810789611E-05
2	361	102.188457741999	0.031585693359375	0.0317047119140625	1.16912841796875E-06	3.70668793436835E-08	27118.248046875	4.13372108596377E-05
2	362	102.289165741745	0.041656494140625	0.0417816162109375	1.31103515625E-06	5.47771641379313E-08	31869.1796875	4.14620953961276E-05
2	363	102.38987374149	0.051727294921875	0.0517578125	1.3946533203125E-06	7.21841999506978E-08	37111.59765625	4.15983377024531E-05
2	364	102.490581741236	0.061798095703125	0.061859130859375	1.427001953125E-06	8.8273104381642E-08	43349.015625	4.17404189647641E-05
2	365	102.591289740982	0.071868896484375	0.071868896484375	1.4178466796875E-06	1.01899075843903E-07	50688.765625	4.18836680182721E-05
2	366	102.691997740728	0.081939697265625	0.08203125	1.38275146484375E-06	1.13428825443407E-07	59324.65625	4.20246906287502E-05
2	367	102.792705740473	0.092010498046875	0.092041015625	1.33392333984375E-06	1.22775645650108E-07	69000.234375	4.21614859078545E-05
2	368	102.893413740219	0.102081298828125	0.102142333984375	1.27899169921875E-06	1.30639193685056E-07	79861.609375	4.22930570493918E-05
2	369	102.994121739965	0.112152099609375	0.11224365234375	1.22406005859375E-06	1.37392973442729E-07	91697.8359375	4.24190948251635E-05
2	370	103.094829739711	0.122222900390625	0.122344970703125	1.1724853515625E-06	1.43447678624398E-07	104346.6953125	4.25397702201735E-05
2	371	103.195537739456	0.132293701171875	0.132415771484375	1.12548828125E-06	1.4903238820807E-07	117651.8515625	4.26554834120907E-05
2	372	103.296245739202	0.142364501953125	0.14239501953125	1.0833740234375E-06	1.54267056018398E-07	131436.625	4.27667073381599E-05
2	373	103.396953738948	0.152435302734375	0.1524658203125	1.04644775390625E-06	1.59547525413473E-07	145698.453125	4.28739513154142E-05
2	374	103.497661738694	0.162506103515625	0.1624755859375	1.01409912109375E-06	1.64766348120793E-07	160216.671875	4.29777101089712E-05
2	375	103.598369738439	0.172576904296875	0.172637939453125	9.8541259765625E-07	1.70119605513719E-07	175193.5625	4.30783948104363E-05
2	376	103.699077738185	0.182647705078125	0.18267822265625	9.60693359375001E-07	1.75497746113251E-07	190152.484375	4.31763874075841E-05
2	377	103.799785737931	0.192718505859375	0.1927490234375	9.38720703125E-07	1.80937490767974E-07	205331.609375	4.32720298704226E-05
2	378	103.900493737676	0.202789306640625	0.202850341796875	9.20715332031249E-07	1.86767408649757E-07	220318.203125	4.33656605309807E-05
2	379	104.001201737422	0.212860107421875	0.212921142578125	9.04541015625E-07	1.92595891235214E-07	235391.375	4.3457570427563E-05
2	380	104.101909737168	0.222930908203125	0.222930908203125	8.88977050781251E-07	1.9818045871034E-07	250772.40625	4.35478796134703E-05
2	381	104.202617736914	0.233001708984375	0.2330322265625	8.7615966796875E-07	2.04173431939125E-07	265970.0625	4.36367627116852E-05
2	382	104.303325736659	0.243072509765625	0.243072509765625	8.648681640625E-07	2.10225664432073E-07	281051.53125	4.37244307249784E-05
2	383	104.404033736405	0.253143310546875	0.253143310546875	8.5601806640625E-07	2.16695241306297E-07	295721.9375	4.38110837421846E-05
2	384	104.504741736151	0.263214111328125	0.26324462890625	8.4716796875E-07	2.23012406763701E-07	310734.875	4.38968454545829E-05
2	385	104.605449735897	0.273284912109375	0.2733154296875	8.40148925781251E-07	2.29625655379095E-07	325317.84375	4.39818068116438E-05
2	386	104.706157735642	0.283355712890625	0.28338623046875	8.331298828125E-07	2.36097534411783E-07	340146.53125	4.40660660387948E-05
2	387	104.806865735388	0.293426513671875	0.29339599609375	8.27941894531251E-07	2.42914836690034E-07	354367.875	4.41497068095487E-05
2	388	104.907573735134	0.303497314453125	0.303497314453125	8.23059082031249E-07	2.49796215712195E-07	368743.0625	4.42328419012483E-05
2	389	105.00828173488	0.313568115234375	0.313568115234375	8.18786621093751E-07	2.56745380511347E-07	382966.84375	4.43155149696395E-05
2	390	105.108989734625	0.323638916015625	0.3236083984375	8.15734863281251E-07	2.63978648717966E-07	396707.84375	4.43978206021711E-05
2	391	105.209697734371	0.333709716796875	0.333770751953125	8.1329345703125E-07	2.71453558298163E-07	410394.03125	4.44798461103346E-05
2	392	105.310405734117	0.343780517578125	0.34375	8.11767578125E-07	2.79045110573861E-07	423458.65625	4.45616751676425E-05
2	393	105.411113733863	0.353851318359375	0.3538818359375	8.09631347656251E-07	2.86513824221402E-07	437090.09375	4.46433186880313E-05
2	394	105.511821733608	0.363922119140625	0.363922119140625	8.0902099609375E-07	2.94420630098102E-07	449830.25	4.47248239652254E-05
2	395	105.612529733354	0.373992919921875	0.374053955078125	8.0902099609375E-07	3.0261750794125E-07	462353.8125	4.4806300138589E-05
2	396	105.7132377331	0.384063720703125	0.384063720703125	8.09326171875E-07	3.10832803052108E-07	474547.53125	4.48877908638678E-05
2	397	105.813945732845	0.394134521484375	0.394134521484375	8.10852050781249E-07	3.19584785302141E-07	486074.53125	4.49693725386169E-05
2	398	105.914653732591	0.404205322265625	0.404266357421875	8.123779296875E-07	3.28417058881314E-07	497633.375	4.50511070084758E-05
2	399	106.015361732337	0.414276123046875	0.414276123046875	8.13903808593749E-07	3.37180921405889E-07	508998.875	4.51329979114234E-05
2	400	106.116069732083	0.424346923828125	0.42437744140625	8.15429687499999E-07	3.46049944255356E-07	520434.15625	4.5215041609481E-05
2	401	106.216777731828	0.434417724609375	0.43450927734375	8.1695556640625E-07	3.54974758920434E-07	531864.0625	4.52972381026484E-05
2	402	106.317485731574	0.444488525390625	0.444488525390625	8.1939697265625E-07	3.64212553449761E-07	542458.125	4.53796346846502E-05
2	403	106.41819373132	0.454559326171875	0.45458984375	8.21533203124999E-07	3.73460665059611E-07	553343.25	4.54622640972957E-05
2	404	106.518901731066	0.464630126953125	0.464630126953125	8.24584960937499E-07	3.83127002123729E-07	563471.5	4.55451518064365E-05
2	405	106.619609730811	0.474700927734375	0.474700927734375	8.2733154296875E-07	3.92735046261805E-07	573773.5625	4.56283341918606E-05
2	406	106.720317730557	0.484771728515625	0.48480224609375	8.3038330078125E-07	4.0257168620883E-07	583829.5	4.57118039776105E-05
2	407	106.821025730303	0.494842529296875	0.494873046875	8.343505859375E-07	4.128976058837E-07	593123.6875	4.57956302852836E-05
2	408	106.921733730049	0.504913330078125	0.504974365234375	8.39843749999999E-07	4.24099539486633E-07	601271.8125	4.58799331681803E-05
2	409	107.022441729794	0.514984130859375	0.514892578125	8.453369140625E-07	4.35257703657044E-07	609097.5	4.59647890238557E-05
2	410	107.12314972954	0.525054931640625	0.525054931640625	8.52355957031251E-07	4.47533693659352E-07	616004.3125	4.60502742498647E-05
2	411	107.223857729286	0.535125732421875	0.535125732421875	8.612060546875E-07	4.60853527783911E-07	621367.8125	4.61365598312113E-05
2	412	107.324565729032	0.545196533203125	0.54510498046875	8.7188720703125E-07	4.75270070410261E-07	625201.25	4.62238276668359E-05
2	413	107.425273728777	0.555267333984375	0.555267333984375	8.85620117187499E-07	4.91755884013401E-07	626981.4375	4.63123251392972E-05
2	414	107.525981728523	0.565338134765625	0.565338134765625	9.04541015625E-07	5.11371524680726E-07	625000.0625	4.64024669781793E-05
2	415	107.626689728269	0.575408935546875	0.575439453125	9.2926025390625E-07	5.34732976120722E-07	619244.6875	4.64948061562609E-05
2	416	107.727397728014	0.585479736328125	0.585479736328125	9.6435546875E-07	5.64610559194989E-07	607120.3125	4.65901575807948E-05
2	417	107.82810572776	0.595550537109375	0.59552001953125	1.01226806640625E-06	6.02825878104341E-07	588302.6875	4.6689689042978E-05
2	418	107.928813727506	0.605621337890625	0.605560302734375	1.080322265625E-06	6.54200277949712E-07	560536.75	4.67950594611466E-05
2	419	108.029521727252	0.615692138671875	0.61572265625	1.17340087890625E-06	7.22489460258657E-07	524733.4375	4.6908542572055E-05
2	420	108.130229726997	0.625762939453125	0.625732421875	1.29730224609375E-06	8.11764039099216E-07	482333.59375	4.70329505333211E-05
2	421	108.230937726743	0.635833740234375	0.63580322265625	1.45843505859375E-06	9.27277653772762E-07	435948.96875	4.717171395896E-05
2	422	108.331645726489	0.645904541015625	0.645904541015625	1.65618896484375E-06	1.06973993752035E-06	389994.46875	4.73285472253338E-05
2	423	108.432353726235	0.655975341796875	0.655914306640625	1.8853759765625E-06	1.23664506190835E-06	347895.78125	4.75068809464574E-05
2	424	108.53306172598	0.666046142578125	0.66595458984375	2.1319580078125E-06	1.41978716783342E-06	312367.59375	4.77091707580257E-05
2	425	108.633769725726	0.676116943359375	0.67608642578125	2.3748779296875E-06	1.60562262863095E-06	284682.625	4.79361078760121E-05
2	426	108.734477725472	0.686187744140625	0.68609619140625	2.59246826171875E-06	1.77868264472636E-06	264649.78125	4.81862334709149E-05
2	427	108.835185725218	0.696258544921875	0.696136474609375	2.76214599609375E-06	1.92283050637343E-06	252027.40625	4.84558586322237E-05
2	428	108.935893724963	0.706329345703125	0.706268310546875	2.8765869140625E-06	2.03164222511987E-06	245523.015625	4.87397919641808E-05
2	429	109.036601724709	0.716400146484375	0.71636962890625	2.93304443359375E-06	2.10114399123995E-06	244240.96875	4.90323291160166E-05
2	430	109.137309724455	0.726470947265625	0.72637939453125	2.94464111328125E-06	2.13892644751468E-06	246678.421875	4.93282932438888E-05
2	431	109.238017724201	0.736541748046875	0.736419677734375	2.9266357421875E-06	2.15523209590174E-06	251626.703125	4.96239372296259E-05
2	432	109.338725723946	0.746612548828125	0.746551513671875	2.8973388671875E-06	2.16301259570173E-06	257668	4.99171983392444E-05
2	433	109.439433723692	0.756683349609375	0.7568359375	2.86956787109375E-06	2.17179217543162E-06	263745.625	5.02075854456052E-05
2	434	109.540141723438	0.766754150390625	0.76690673828125	2.8570556640625E-06	2.19109506360837E-06	268425.5625	5.04959425597917E-05
2	435	109.640849723183	0.776824951171875	0.77667236328125	2.8692626953125E-06	2.22847688746697E-06	270687.09375	5.0784285122063E-05
2	436	109.741557722929	0.786895751953125	0.787353515625	2.91534423828125E-06	2.29540637519676E-06	270072.25	5.10755635332316E-05
2	437	109.842265722675	0.796966552734375	0.797119140625	3.001708984375E-06	2.39271957980236E-06	265555.125	5.13735103595536E-05
2	438	109.942973722421	0.807037353515625	0.806884765625	3.13323974609375E-06	2.52816334977979E-06	257524.109375	5.16824293299578E-05
2	439	110.043681722166	0.817108154296875	0.8172607421875	3.30657958984375E-06	2.70233749688487E-06	247161.984375	5.20067005709279E-05
2	440	110.144389721912	0.827178955078125	0.82733154296875	3.51287841796875E-06	2.90631510324602E-06	235513.859375	5.23500857525505E-05
2	441	110.245097721658	0.837249755859375	0.83740234375	3.73291015625E-06	3.12594761453511E-06	224329.640625	5.27149422850925E-05
2	442	110.345805721404	0.847320556640625	0.8477783203125	3.94287109375E-06	3.34268065671495E-06	215015.484375	5.31014484295156E-05
2	443	110.446513721149	0.857391357421875	0.85723876953125	4.1192626953125E-06	3.53119139617775E-06	208104.921875	5.35074104845989E-05
2	444	110.547221720895	0.867462158203125	0.86700439453125	4.244384765625E-06	3.67990037375421E-06	204270.921875	5.39285501872655E-05
2	445	110.647929720641	0.877532958984375	0.877685546875	4.307861328125E-06	3.78094750885793E-06	203740.4375	5.43591922905762E-05
2	446	110.748637720387	0.887603759765625	0.88775634765625	4.31732177734375E-06	3.83272981707705E-06	205626.640625	5.47935051145032E-05
2	447	110.849345720132	0.897674560546875	0.8978271484375	4.28436279296875E-06	3.84661689167842E-06	209559.09375	5.52266319573391E-05
2	448	110.950053719878	0.907745361328125	0.90789794921875	4.22637939453125E-06	3.83712085749721E-06	214816.96875	5.56551822228357E-05
2	449	111.050761719624	0.917816162109375	0.91796875	4.15924072265625E-06	3.81805284632719E-06	220705.84375	5.60774315090384E-05
2	450	111.15146971937	0.927886962890625	0.92803955078125	4.09698486328125E-06	3.80216397388722E-06	226517.6875	5.64931651751976E-05
2	451	111.252177719115	0.937957763671875	0.93841552734375	4.0509033203125E-06	3.80143023903656E-06	231655.890625	5.6903445511125E-05
2	452	111.352885718861	0.948028564453125	0.94818115234375	4.0283203125E-06	3.81957715944736E-06	235378.796875	5.73102661292069E-05
2	453	111.453593718607	0.958099365234375	0.958251953125	4.03717041015625E-06	3.86862620871398E-06	237357.34375	5.77163955313154E-05
2	454	111.554301718352	0.968170166015625	0.96832275390625	4.08355712890625E-06	3.95420101995114E-06	237127.265625	5.81253079872113E-05
2	455	111.655009718098	0.978240966796875	0.97869873046875	4.1668701171875E-06	4.07811057812069E-06	234876.234375	5.85407506150659E-05
2	456	111.755717717844	0.988311767578125	0.9881591796875	4.28131103515625E-06	4.23061646870337E-06	230807.625	5.89661503909156E-05
2	457	111.85642571759	0.998382568359375	0.99822998046875	4.4140625E-06	4.4062494453101E-06	226147.671875	5.94039956922643E-05
2	458	111.957133717335	1.00845336914063	1.00860595703125	4.5477294921875E-06	4.58686690762988E-06	221782.3125	5.98552578594536E-05
2	459	112.057841717081	1.01852416992188	1.01837158203125	4.66094970703125E-06	4.74657872473472E-06	218490.140625	6.03189510002267E-05
2	460	112.158549716827	1.02859497070313	1.02874755859375	4.73724365234375E-06	4.87342776978039E-06	217161.625	6.07921901973896E-05
2	461	112.259257716573	1.03866577148438	1.038818359375	4.76776123046875E-06	4.95283802592894E-06	217883.890625	6.12708026892506E-05
2	462	112.359965716318	1.04873657226563	1.04827880859375	4.7552490234375E-06	4.9848267735797E-06	220446.671875	6.17503246758133E-05
2	463	112.460673716064	1.05880737304688	1.05865478515625	4.708251953125E-06	4.98441340823774E-06	224850.9375	6.2226848967839E-05
2	464	112.56138171581	1.06887817382813	1.0687255859375	4.637451171875E-06	4.95616268381127E-06	230455.375	6.26974433544092E-05
2	465	112.662089715556	1.07894897460938	1.0791015625	4.554443359375E-06	4.91470700580976E-06	236933.796875	6.31602961220779E-05
2	466	112.762797715301	1.08901977539063	1.0888671875	4.46685791015625E-06	4.86381486553E-06	243765.8125	6.36145487078466E-05
2	467	112.863505715047	1.09909057617188	1.0992431640625	4.3798828125E-06	4.81455617773463E-06	250975.484375	6.40600192127749E-05
2	468	112.964213714793	1.10916137695313	1.1090087890625	4.29779052734375E-06	4.76628747492214E-06	258041.625	6.44969768472947E-05
2	469	113.064921714539	1.11923217773438	1.119384765625	4.2205810546875E-06	4.72445435661939E-06	265220.53125	6.49259091005661E-05
2	470	113.165629714284	1.12930297851563	1.129150390625	4.15069580078125E-06	4.68675943920971E-06	272038.84375	6.53474344289862E-05
2	471	113.26633771403	1.13937377929688	1.13922119140625	4.08660888671875E-06	4.65555149276042E-06	278769.3125	6.57622149446979E-05
2	472	113.367045713776	1.14944458007813	1.14959716796875	4.02862548828125E-06	4.63129617855884E-06	285357.1875	6.61708545521833E-05
2	473	113.467753713521	1.15951538085938	1.15966796875	3.975830078125E-06	4.61064291812363E-06	291679.4375	6.6573906224221E-05
2	474	113.568461713267	1.16958618164063	1.16973876953125	3.92852783203125E-06	4.59535112895537E-06	297755	6.69719229335897E-05
2	475	113.669169713013	1.17965698242188	1.17919921875	3.885498046875E-06	4.58177601103671E-06	303487.28125	6.73653921694495E-05
2	476	113.769877712759	1.18972778320313	1.1895751953125	3.8458251953125E-06	4.5748984121019E-06	309315.96875	6.77546922815964E-05
2	477	113.870585712504	1.19979858398438	1.19964599609375	3.81011962890625E-06	4.5707947720075E-06	314857.84375	6.81402016198263E-05
2	478	113.97129371225	1.20986938476563	1.2103271484375	3.77777099609375E-06	4.57233863926376E-06	320381.3125	6.85222839820199E-05
2	479	114.072001711996	1.21994018554688	1.219482421875	3.74786376953125E-06	4.57045371149434E-06	325380.6875	6.89012304064818E-05
2	480	114.172709711742	1.23001098632813	1.2298583984375	3.72039794921875E-06	4.57556279798155E-06	330571.75	6.92772882757708E-05
2	481	114.273417711487	1.24008178710938	1.2396240234375	3.6956787109375E-06	4.58125168734114E-06	335425.28125	6.96507122484036E-05
2	482	114.374125711233	1.25015258789063	1.25030517578125	3.6724853515625E-06	4.59172724731616E-06	340452.0625	7.00217351550236E-05
2	483	114.474833710979	1.26022338867188	1.26068115234375	3.65142822265625E-06	4.60328647022834E-06	345257	7.03905170666985E-05
2	484	114.575541710725	1.27029418945313	1.270751953125	3.63189697265625E-06	4.61523995909374E-06	349886.59375	7.07572617102414E-05
2	485	114.67624971047	1.28036499023438	1.28021240234375	3.614501953125E-06	4.62732987216441E-06	354187.78125	7.11221509845927E-05
2	486	114.776957710216	1.29043579101563	1.2908935546875	3.59954833984375E-06	4.64663389720954E-06	358626.53125	7.14854031684808E-05
2	487	114.877665709962	1.30050659179688	1.30035400390625	3.58551025390625E-06	4.66243227492669E-06	362669.1875	7.18472001608461E-05
2	488	114.978373709708	1.31057739257813	1.31072998046875	3.5736083984375E-06	4.6840355025779E-06	366780.53125	7.22076947567984E-05
2	489	115.079081709453	1.32064819335938	1.32049560546875	3.56353759765625E-06	4.70563554699766E-06	370557.5	7.25670761312358E-05
2	490	115.179789709199	1.33071899414063	1.33056640625	3.5552978515625E-06	4.73055979455239E-06	374248.9375	7.29255407350138E-05
2	491	115.280497708945	1.34078979492188	1.34063720703125	3.5491943359375E-06	4.75818160339259E-06	377730.03125	7.32832777430303E-05
2	492	115.38120570869	1.35086059570313	1.35101318359375	3.544921875E-06	4.78923629998462E-06	381112.28125	7.36404981580563E-05
2	493	115.481913708436	1.36093139648438	1.36138916015625	3.54278564453125E-06	4.8231099754048E-06	384270.8125	7.39973911549896E-05
2	494	115.582621708182	1.37100219726563	1.370849609375	3.543701171875E-06	4.85788132209564E-06	386841.21875	7.4354225944262E-05
2	495	115.683329707928	1.38107299804688	1.3812255859375	3.54705810546875E-06	4.8992874326359E-06	389400.34375	7.47112717363052E-05
2	496	115.784037707673	1.39114379882813	1.39129638671875	3.55316162109375E-06	4.94350069857319E-06	391565.75	7.5068797741551E-05
2	497	115.884745707419	1.40121459960938	1.4013671875	3.56292724609375E-06	4.99296902489732E-06	393319.0625	7.54271168261766E-05
2	498	115.985453707165	1.41128540039063	1.41082763671875	3.5760498046875E-06	5.04518993693637E-06	394521.25	7.5786592788063E-05
2	499	116.086161706911	1.42135620117188	1.4215087890625	3.59375E-06	5.10854715685127E-06	395550.28125	7.61476258048788E-05
2	500	116.186869706656	1.43142700195313	1.4312744140625	3.61602783203125E-06	5.17552780365804E-06	395814	7.65106669859961E-05
2	501	116.287577706402	1.44149780273438	1.441650390625	3.64288330078125E-06	5.2517639232974E-06	395744.34375	7.68761819927022E-05
2	502	116.388285706148	1.45156860351563	1.45111083984375	3.67645263671875E-06	5.33493994225864E-06	394704.09375	7.7244738349691E-05
2	503	116.488993705894	1.46163940429688	1.46148681640625	3.71795654296875E-06	5.4337442634278E-06	393088.75	7.76170782046393E-05
2	504	116.589701705639	1.47171020507813	1.4715576171875	3.76800537109375E-06	5.54483676751261E-06	390540.21875	7.79940237407573E-05
2	505	116.690409705385	1.48178100585938	1.48193359375	3.8287353515625E-06	5.67393135497696E-06	387055.625	7.83765499363653E-05
2	506	116.791117705131	1.49185180664063	1.49139404296875	3.89923095703125E-06	5.81528956900002E-06	382484.1875	7.87656827014871E-05
2	507	116.891825704877	1.50192260742188	1.50146484375	3.9813232421875E-06	5.97781672695419E-06	377127.09375	7.91624988778494E-05
2	508	116.992533704622	1.49185180664063	1.49200439453125	3.7371826171875E-06	5.5758928283467E-06	399232.40625	7.95511587057263E-05
2	509	117.093241704368	1.48178100585938	1.48162841796875	3.5595703125E-06	5.27396014149417E-06	416238.03125	7.99185800133273E-05
2	510	117.193949704114	1.47171020507813	1.47216796875	3.4210205078125E-06	5.03631690662587E-06	430330.0625	8.02700815256685E-05
2	511	117.294657703859	1.46163940429688	1.4617919921875	3.30780029296875E-06	4.83531584904995E-06	441922.6875	8.06089010438882E-05
2	512	117.395365703605	1.45156860351563	1.451416015625	3.2135009765625E-06	4.66412666355609E-06	451661.9375	8.09372795629315E-05
2	513	117.496073703351	1.44149780273438	1.44134521484375	3.13385009765625E-06	4.51695950687281E-06	459927.96875	8.12568905530497E-05
2	514	117.596781703097	1.43142700195313	1.4312744140625	3.06640625E-06	4.38886854681186E-06	466759.5625	8.15691018942744E-05
2	515	117.697489702842	1.42135620117188	1.42120361328125	3.00750732421875E-06	4.27428039984079E-06	472552	8.18749467725866E-05
2	516	117.798197702588	1.41128540039063	1.41143798828125	2.95654296875E-06	4.17297678723116E-06	477394.71875	8.21752546471544E-05
2	517	117.898905702334	1.40121459960938	1.40167236328125	2.91168212890625E-06	4.08122423323221E-06	481396.09375	8.24707458377816E-05
2	518	117.99961370208	1.39114379882813	1.3909912109375	2.8717041015625E-06	3.99451528210193E-06	484378.34375	8.27619660412893E-05
2	519	118.100321701825	1.38107299804688	1.3812255859375	2.835693359375E-06	3.91673211197485E-06	487085.6875	8.30493518151343E-05
2	520	118.201029701571	1.37100219726563	1.370849609375	2.8045654296875E-06	3.84463737646001E-06	488792.1875	8.33333615446463E-05
2	521	118.301737701317	1.36093139648438	1.361083984375	2.77496337890625E-06	3.77695823772228E-06	490487.1875	8.36143153719604E-05
2	522	118.402445701063	1.35086059570313	1.3507080078125	2.7484130859375E-06	3.71230339624162E-06	491450.15625	8.38924388517626E-05
2	523	118.503153700808	1.34078979492188	1.34033203125	2.72369384765625E-06	3.65065398000297E-06	492100.84375	8.41679793666117E-05
2	524	118.603861700554	1.33071899414063	1.33056640625	2.70111083984375E-06	3.59400723937142E-06	492599.71875	8.4441140643321E-05
2	525	118.7045697003	1.32064819335938	1.32080078125	2.679443359375E-06	3.53901077687624E-06	492938.53125	8.47120754770003E-05
2	526	118.805277700046	1.31057739257813	1.3104248046875	2.6593017578125E-06	3.48481512446597E-06	492770.25	8.49809002829716E-05
2	527	118.905985699791	1.30050659179688	1.30096435546875	2.6397705078125E-06	3.43424721904739E-06	492832.375	8.52477314765565E-05
2	528	119.006693699537	1.29043579101563	1.28997802734375	2.620849609375E-06	3.38083827955415E-06	492198.4375	8.55126272654161E-05
2	529	119.107401699283	1.28036499023438	1.280517578125	2.60223388671875E-06	3.33220600623463E-06	492084	8.57756240293384E-05
2	530	119.208109699028	1.27029418945313	1.2701416015625	2.58453369140625E-06	3.28272358274262E-06	491439.375	8.60368018038571E-05
2	531	119.308817698774	1.26022338867188	1.2603759765625	2.5677490234375E-06	3.23632889376313E-06	490848.625	8.6296240624506E-05
2	532	119.40952569852	1.25015258789063	1.25030517578125	2.55126953125E-06	3.18986553793366E-06	490071.78125	8.65540059749037E-05
2	533	119.510233698266	1.24008178710938	1.2396240234375	2.5341796875E-06	3.14142994284339E-06	489161.84375	8.68100760271773E-05
2	534	119.610941698011	1.23001098632813	1.22955322265625	2.518310546875E-06	3.09639676743245E-06	488245.28125	8.70644871611148E-05
2	535	119.711649697757	1.21994018554688	1.22039794921875	2.50335693359375E-06	3.05509161080408E-06	487504.59375	8.73173485160805E-05
2	536	119.812357697503	1.20986938476563	1.2103271484375	2.48748779296875E-06	3.01067393593257E-06	486566.0625	8.75686600920744E-05
2	537	119.913065697249	1.19979858398438	1.19964599609375	2.471923828125E-06	2.96543362310331E-06	485308.625	8.78183855093084E-05
2	538	120.013773696994	1.18972778320313	1.1895751953125	2.45697021484375E-06	2.92275080937543E-06	484163.46875	8.80665756994858E-05
2	539	120.11448169674	1.17965698242188	1.17950439453125	2.44110107421875E-06	2.87928946818283E-06	483185.40625	8.83132088347338E-05
2	540	120.215189696486	1.16958618164063	1.16943359375	2.425537109375E-06	2.83650456367468E-06	482133.875	8.85582703631371E-05
2	541	120.315897696232	1.15951538085938	1.15936279296875	2.40875244140625E-06	2.79261780633533E-06	481312.5625	8.88016948010772E-05
2	542	120.416605695977	1.14944458007813	1.14959716796875	2.39166259765625E-06	2.749448412942E-06	480668.625	8.9043409388978E-05
2	543	120.517313695723	1.13937377929688	1.13922119140625	2.373046875E-06	2.70342525254819E-06	480066.90625	8.92833340913057E-05
2	544	120.618021695469	1.12930297851563	1.12945556640625	2.35107421875E-06	2.65543394561973E-06	480399.78125	8.95212142495438E-05
2	545	120.718729695215	1.11923217773438	1.11907958984375	2.32696533203125E-06	2.60405954577436E-06	480918.03125	8.9756773377303E-05
2	546	120.81943769496	1.10916137695313	1.1090087890625	2.29766845703125E-06	2.54813426181499E-06	482667.0625	8.9989640400745E-05
2	547	120.920145694706	1.09909057617188	1.0992431640625	2.26104736328125E-06	2.48544074565871E-06	486165.5	9.02191895875148E-05
2	548	121.020853694452	1.08901977539063	1.08917236328125	2.21466064453125E-06	2.41214706875326E-06	491801.03125	9.04445623746142E-05
2	549	121.121561694197	1.07894897460938	1.0791015625	2.15545654296875E-06	2.32595652960299E-06	500637.125	9.06646091607399E-05
2	550	121.222269693943	1.06887817382813	1.0687255859375	2.0770263671875E-06	2.21977097680792E-06	514546.03125	9.08777365111746E-05
2	551	121.322977693689	1.05880737304688	1.05926513671875	1.97540283203125E-06	2.09247514249E-06	536227.4375	9.10817907424644E-05
2	552	121.423685693435	1.04873657226563	1.048583984375	1.84539794921875E-06	1.93505479728628E-06	568215.625	9.12741816136986E-05
2	553	121.52439369318	1.03866577148438	1.03851318359375	1.68609619140625E-06	1.75103309629776E-06	615927.625	9.14520060177892E-05
2	554	121.625101692926	1.02859497070313	1.0284423828125	1.49871826171875E-06	1.54134534113837E-06	686214.625	9.16123753995635E-05
2	555	121.725809692672	1.01852416992188	1.01837158203125	1.29180908203125E-06	1.31554168092407E-06	788329.75	9.17528886930086E-05
2	556	121.826517692418	1.00845336914063	1.00860595703125	1.08154296875E-06	1.09085056010372E-06	932562.125	9.18723962968215E-05
2	557	121.927225692163	0.998382568359375	0.99822998046875	8.8836669921875E-07	8.86794282450865E-07	1123668.875	9.19715894269757E-05
2	558	122.027933691909	0.988311767578125	0.9881591796875	7.28759765625001E-07	7.2013062890619E-07	1355946.5	9.20530219445936E-05
2	559	122.128641691655	0.978240966796875	0.9783935546875	6.16455078125E-07	6.03135674737132E-07	1587128.75	9.21207538340241E-05
2	560	122.229349691401	0.968170166015625	0.96771240234375	5.51452636718749E-07	5.33647551037575E-07	1754842.375	9.21795653994195E-05
2	561	122.330057691146	0.958099365234375	0.958251953125	5.2978515625E-07	5.07667664351175E-07	1808755.75	9.22340113902465E-05
2	562	122.430765690892	0.948028564453125	0.94818115234375	5.38024902343751E-07	5.10145071075385E-07	1762337	9.22877807170153E-05
2	563	122.531473690638	0.937957763671875	0.9381103515625	5.5694580078125E-07	5.2247662551963E-07	1684383.625	9.23429179238155E-05
2	564	122.632181690384	0.927886962890625	0.927734375	5.7098388671875E-07	5.29721376096859E-07	1624799.5	9.23997140489519E-05
2	565	122.732889690129	0.917816162109375	0.91766357421875	5.68542480468751E-07	5.21730726177339E-07	1614063.375	9.24570922506973E-05
2	566	122.833597689875	0.907745361328125	0.908203125	5.3985595703125E-07	4.90298816657742E-07	1682306.5	9.25129061215557E-05
2	567	122.934305689621	0.897674560546875	0.897216796875	4.7576904296875E-07	4.26867984515411E-07	1885824.25	9.25640415516682E-05
2	568	123.035013689366	0.887603759765625	0.8880615234375	3.7261962890625E-07	3.30909131207591E-07	2383292.5	9.26067659747787E-05
2	569	123.135721689112	0.877532958984375	0.87799072265625	2.23693847656251E-07	1.96401117591449E-07	3924966	9.26367865758948E-05
2	570	123.236429688858	0.867462158203125	0.867919921875	3.38745117187497E-08	2.94003630330053E-08	25621622	9.26497596083209E-05
2	571	123.337137688604	0.857391357421875	0.8575439453125	-1.9073486328125E-07	-1.63563512955989E-07	-4496000.5	9.26418579183519E-05
2	572	123.437845688349	0.847320556640625	0.8477783203125	-4.2755126953125E-07	-3.62468711045949E-07	-1982869.375	9.26107313716784E-05
2	573	123.538553688095	0.837249755859375	0.83709716796875	-6.5582275390625E-07	-5.48987372894771E-07	-1276407.625	9.25561762414873E-05
2	574	123.639261687841	0.827178955078125	0.82733154296875	-8.50830078125001E-07	-7.03918544786575E-07	-972381.625	9.24803098314442E-05
2	575	123.739969687587	0.817108154296875	0.81756591796875	-9.9517822265625E-07	-8.13623785234086E-07	-821527.1875	9.23873521969654E-05
2	576	123.840677687332	0.807037353515625	0.80657958984375	-1.080322265625E-06	-8.71365898547083E-07	-746610.1875	9.22828476177529E-05
2	577	123.941385687078	0.796966552734375	0.797119140625	-1.11114501953125E-06	-8.85714939613536E-07	-717385.3125	9.21725004445761E-05
2	578	124.042093686824	0.786895751953125	0.78765869140625	-1.10015869140625E-06	-8.66549555667007E-07	-715950.0625	9.20611491892487E-05
2	579	124.14280168657	0.776824951171875	0.7769775390625	-1.064453125E-06	-8.2705611248457E-07	-729931.25	9.19521553441882E-05
2	580	124.243509686315	0.766754150390625	0.76690673828125	-1.01776123046875E-06	-7.80527898314176E-07	-753523.25	9.18473015190102E-05
2	581	124.344217686061	0.756683349609375	0.75714111328125	-9.7625732421875E-07	-7.39164534024894E-07	-775554.875	9.17469005798921E-05
2	582	124.444925685807	0.746612548828125	0.746551513671875	-9.4970703125E-07	-7.09005178123334E-07	-786086.125	9.16499193408526E-05
2	583	124.545633685553	0.736541748046875	0.736480712890625	-9.48181152343749E-07	-6.98317137448612E-07	-776730	9.15543496375903E-05
2	584	124.646341685298	0.726470947265625	0.72637939453125	-9.77783203125E-07	-7.10241579326976E-07	-742883.875	9.14573683985509E-05
2	585	124.747049685044	0.716400146484375	0.71636962890625	-1.0455322265625E-06	-7.48987474707974E-07	-685172.25	9.13554904400371E-05
2	586	124.84775768479	0.706329345703125	0.706329345703125	-1.153564453125E-06	-8.14796408121765E-07	-612301.625	9.12447576411068E-05
2	587	124.948465684535	0.696258544921875	0.6961669921875	-1.29913330078125E-06	-9.04413695934636E-07	-535870.375	9.11212555365637E-05
2	588	125.049173684281	0.686187744140625	0.6861572265625	-1.4703369140625E-06	-1.00888223641959E-06	-466666.6875	9.09817972569726E-05
2	589	125.149881684027	0.676116943359375	0.67608642578125	-1.649169921875E-06	-1.11498138721799E-06	-409955.59375	9.082471660804E-05
2	590	125.250589683773	0.666046142578125	0.666046142578125	-1.81243896484375E-06	-1.20716788387654E-06	-367486.125	9.06504137674347E-05
2	591	125.351297683518	0.655975341796875	0.655975341796875	-1.9378662109375E-06	-1.27119244552887E-06	-338503.9375	9.04615735635161E-05
2	592	125.452005683264	0.645904541015625	0.645843505859375	-2.01141357421875E-06	-1.29905834000965E-06	-321089.375	9.02627070900053E-05
2	593	125.55271368301	0.635833740234375	0.635772705078125	-2.0318603515625E-06	-1.29180125441053E-06	-312901.78125	9.00591112440452E-05
2	594	125.653421682756	0.625762939453125	0.62567138671875	-2.0037841796875E-06	-1.2537104794319E-06	-312244.90625	8.98559010238387E-05
2	595	125.754129682501	0.615692138671875	0.61566162109375	-1.94244384765625E-06	-1.19588810321147E-06	-316952.09375	8.96571946213953E-05
2	596	125.854837682247	0.605621337890625	0.6055908203125	-1.86004638671875E-06	-1.12642703697929E-06	-325578.34375	8.94657205208205E-05
2	597	125.955545681993	0.595550537109375	0.595550537109375	-1.76849365234375E-06	-1.0532272654018E-06	-336755.84375	8.92830139491707E-05
2	598	126.056253681739	0.585479736328125	0.585540771484375	-1.67572021484375E-06	-9.81202560979E-07	-349426.34375	8.9109584223479E-05
2	599	126.156961681484	0.575408935546875	0.575408935546875	-1.58447265625E-06	-9.11719723717397E-07	-363154.84375	8.89454167918302E-05
2	600	126.25766968123	0.565338134765625	0.56536865234375	-1.49993896484375E-06	-8.48018430588127E-07	-376927.78125	8.87901042005979E-05
2	601	126.358377680976	0.555267333984375	0.55523681640625	-1.4215087890625E-06	-7.89273997270357E-07	-390596.84375	8.86429988895543E-05
2	602	126.459085680722	0.545196533203125	0.545196533203125	-1.35040283203125E-06	-7.36234937903646E-07	-403728.8125	8.85034241946414E-05
2	603	126.559793680467	0.535125732421875	0.5350341796875	-1.28662109375E-06	-6.88386251113116E-07	-415844.40625	8.83706379681826E-05
2	604	126.660501680213	0.525054931640625	0.5250244140625	-1.22802734375E-06	-6.44744318378798E-07	-427534.8125	8.82440144778229E-05
2	605	126.761209679959	0.514984130859375	0.514984130859375	-1.175537109375E-06	-6.05382979301794E-07	-438084.09375	8.81229861988686E-05
2	606	126.861917679704	0.504913330078125	0.504913330078125	-1.12762451171875E-06	-5.69352664570033E-07	-447767.25	8.80070147104561E-05
2	607	126.96262567945	0.494842529296875	0.494842529296875	-1.08428955078125E-06	-5.36552590801875E-07	-456374.875	8.78956343512982E-05
2	608	127.063333679196	0.484771728515625	0.484771728515625	-1.044921875E-06	-5.06548587964062E-07	-463931.0625	8.77884231158532E-05
2	609	127.164041678942	0.474700927734375	0.474761962890625	-1.00921630859375E-06	-4.79137497677584E-07	-470426.40625	8.768498810241E-05
2	610	127.264749678687	0.464630126953125	0.464691162109375	-9.765625E-07	-4.53799941624311E-07	-475843.78125	8.75849946169183E-05
2	611	127.365457678433	0.454559326171875	0.454620361328125	-9.46044921875E-07	-4.30091290581913E-07	-480548.40625	8.74881807249039E-05
2	612	127.466165678179	0.444488525390625	0.44451904296875	-9.1827392578125E-07	-4.0819023183758E-07	-484081.125	8.73943063197657E-05
2	613	127.566873677925	0.434417724609375	0.434417724609375	-8.9263916015625E-07	-3.87778271715433E-07	-486666.6875	8.73031167429872E-05
2	614	127.66758167767	0.424346923828125	0.424407958984375	-8.69140625000001E-07	-3.68870189504378E-07	-488307.59375	8.72144082677551E-05
2	615	127.768289677416	0.414276123046875	0.414276123046875	-8.47778320312501E-07	-3.51214310967407E-07	-488660.90625	8.71279553393833E-05
2	616	127.868997677162	0.404205322265625	0.404205322265625	-8.2763671875E-07	-3.34535172896722E-07	-488384.96875	8.70435906108469E-05
2	617	127.969705676908	0.394134521484375	0.3941650390625	-8.0902099609375E-07	-3.18887799721779E-07	-487212.375	8.6961175838951E-05
2	618	128.070413676653	0.384063720703125	0.384124755859375	-7.916259765625E-07	-3.04083130231447E-07	-485235.1875	8.68805800564587E-05
2	619	128.171121676399	0.373992919921875	0.3740234375	-7.75146484375E-07	-2.8992295142416E-07	-482519.6875	8.68016868480481E-05
2	620	128.271829676145	0.363922119140625	0.36395263671875	-7.6019287109375E-07	-2.76674199994886E-07	-478763.5625	8.67243725224398E-05
2	621	128.37253767589	0.353851318359375	0.35382080078125	-7.45239257812499E-07	-2.63681130263649E-07	-474774.8125	8.66485715960152E-05
2	622	128.473245675636	0.343780517578125	0.343841552734375	-7.3150634765625E-07	-2.51522266125903E-07	-470045.90625	8.65742113091983E-05
2	623	128.573953675382	0.333709716796875	0.333740234375	-7.18078613281251E-07	-2.39651711808619E-07	-464768.40625	8.65012189024128E-05
2	624	128.674661675128	0.323638916015625	0.32366943359375	-7.0526123046875E-07	-2.28271488822429E-07	-458935.5625	8.64295507199131E-05
2	625	128.775369674873	0.313568115234375	0.31353759765625	-6.939697265625E-07	-2.17585593986769E-07	-451803	8.63590903463773E-05
2	626	128.876077674619	0.303497314453125	0.303497314453125	-6.8359375E-07	-2.07468858093307E-07	-443973.21875	8.62897213664837E-05
2	627	128.976785674365	0.293426513671875	0.293365478515625	-6.7291259765625E-07	-1.97409320890074E-07	-435963.75	8.62214219523594E-05
2	628	129.077493674111	0.283355712890625	0.283355712890625	-6.640625E-07	-1.8816589886228E-07	-426700.375	8.61540975165553E-05
2	629	129.178201673856	0.273284912109375	0.2733154296875	-6.5582275390625E-07	-1.79246484321993E-07	-416751.96875	8.60876389197074E-05
2	630	129.278909673602	0.263214111328125	0.2633056640625	-6.48193359375E-07	-1.70672976196329E-07	-406214.6875	8.60219734022394E-05
2	631	129.379617673348	0.253143310546875	0.25311279296875	-6.4239501953125E-07	-1.62598382758006E-07	-394014.28125	8.59569845488295E-05
2	632	129.480325673094	0.243072509765625	0.243133544921875	-6.3629150390625E-07	-1.5470379821636E-07	-382110.34375	8.58925995999016E-05
2	633	129.581033672839	0.233001708984375	0.233062744140625	-6.3201904296875E-07	-1.47300085018287E-07	-368759.0625	8.58287385199219E-05
2	634	129.681741672585	0.222930908203125	0.22296142578125	-6.29272460937499E-07	-1.40303484386095E-07	-354316.21875	8.57652266859077E-05
2	635	129.782449672331	0.212860107421875	0.212890625	-6.2774658203125E-07	-1.3364135043048E-07	-339134.6875	8.57019258546643E-05
2	636	129.883157672077	0.202789306640625	0.202789306640625	-6.2713623046875E-07	-1.27176519981731E-07	-323357.65625	8.56387414387427E-05
2	637	129.983865671822	0.192718505859375	0.1927490234375	-6.28662109375E-07	-1.21174011269432E-07	-306601.9375	8.55755060911179E-05
2	638	130.084573671568	0.182647705078125	0.182647705078125	-6.317138671875E-07	-1.15381091347899E-07	-289130.4375	8.55120379128493E-05
2	639	130.185281671314	0.172576904296875	0.172637939453125	-6.378173828125E-07	-1.10111479045827E-07	-270669.84375	8.54481113492511E-05
2	640	130.285989671059	0.162506103515625	0.16253662109375	-6.4605712890625E-07	-1.05007941897384E-07	-251582.4375	8.53834644658491E-05
2	641	130.386697670805	0.152435302734375	0.1524658203125	-6.57958984375E-07	-1.00316256634869E-07	-231725.421875	8.53178062243387E-05
2	642	130.487405670551	0.142364501953125	0.1424560546875	-6.73828125000001E-07	-9.59908916797758E-08	-211413.0625	8.52507437230088E-05
2	643	130.588113670297	0.132293701171875	0.132354736328125	-6.9427490234375E-07	-9.18905698199524E-08	-190637.359375	8.51818549563177E-05
2	644	130.688821670042	0.122222900390625	0.122344970703125	-7.220458984375E-07	-8.83386803707253E-08	-169442.109375	8.51105360197835E-05
2	645	130.789529669788	0.112152099609375	0.112213134765625	-7.5714111328125E-07	-8.49611723197086E-08	-148206.375	8.50360520416871E-05
2	646	130.890237669534	0.102081298828125	0.10211181640625	-8.0230712890625E-07	-8.19250374206604E-08	-127272.7265625	8.49575299071148E-05
2	647	130.99094566928	0.092010498046875	0.092132568359375	-8.6090087890625E-07	-7.93170045199076E-08	-107018.7890625	8.48737763590179E-05
2	648	131.091653669025	0.081939697265625	0.082061767578125	-9.368896484375E-07	-7.68828201103133E-08	-87589.578125	8.47832561703399E-05
2	649	131.192361668771	0.071868896484375	0.07196044921875	-1.03485107421875E-06	-7.4468346156209E-08	-69537.015625	8.46839684527367E-05
2	650	131.293069668517	0.061798095703125	0.06182861328125	-1.15966796875E-06	-7.17006614081583E-08	-53315.79296875	8.45734684844501E-05
2	651	131.393777668263	0.051727294921875	0.051849365234375	-1.31591796875E-06	-6.82295109299957E-08	-39401.66796875	8.44488095026463E-05
2	652	131.494485668008	0.041656494140625	0.0417572021484375	-1.50238037109375E-06	-6.2735203698594E-08	-27794.029296875	8.43068992253393E-05
2	653	131.595193667754	0.031585693359375	0.03165283203125	-1.7120361328125E-06	-5.41907887452453E-08	-18488.412109375	8.41450382722542E-05
2	654	131.6959016675	0.021514892578125	0.0216217041015625	-1.9287109375E-06	-4.17020160625725E-08	-11210.443359375	8.39617132442072E-05
2	655	131.796609667246	0.011444091796875	0.011553955078125	-2.1319580078125E-06	-2.46325466690678E-08	-5419.41064453125	8.37572442833334E-05
2	656	131.897317666991	0.001373291015625	0.00147705078125	-2.3004150390625E-06	-3.39782979530412E-09	-642.080139160156	8.35340542835183E-05
2	657	131.998025666737	-0.008697509765625	-0.00859375	-2.418212890625E-06	2.07815151753721E-08	3553.76098632813	8.32964506116696E-05
2	658	132.098733666483	-0.018768310546875	-0.0186279296875	-2.48016357421875E-06	4.62003129086952E-08	7510.767578125	8.30498029245064E-05
2	659	132.199441666228	-0.028839111328125	-0.0287322998046875	-2.4920654296875E-06	7.16027699354527E-08	11529.513671875	8.27994299470447E-05
2	660	132.300149665974	-0.038909912109375	-0.0387847900390625	-2.4658203125E-06	9.56363237492042E-08	15728.9609375	8.25497772893868E-05
2	661	132.40085766572	-0.048980712890625	-0.048846435546875	-2.41546630859375E-06	1.17986914460744E-07	20222.36328125	8.23039881652221E-05
2	662	132.501565665466	-0.059051513671875	-0.0589599609375	-2.352294921875E-06	1.38691206075237E-07	25064.869140625	8.20639106677845E-05
2	663	132.602273665211	-0.069122314453125	-0.069091796875	-2.28485107421875E-06	1.57864462835278E-07	30239.08203125	8.18304106360301E-05
2	664	132.702981664957	-0.079193115234375	-0.079071044921875	-2.2198486328125E-06	1.7552574149704E-07	35620.01953125	8.1603582657408E-05
2	665	132.803689664703	-0.089263916015625	-0.089111328125	-2.159423828125E-06	1.92429112644277E-07	41266.25390625	8.13830702099949E-05
2	666	132.904397664449	-0.099334716796875	-0.0992431640625	-2.105712890625E-06	2.08977610327565E-07	47130.4375	8.11682984931394E-05
2	667	133.005105664194	-0.109405517578125	-0.109283447265625	-2.05841064453125E-06	2.2495021312352E-07	53091.17578125	8.09586199466139E-05
2	668	133.10581366394	-0.119476318359375	-0.119476318359375	-2.01751708984375E-06	2.41045512439086E-07	59219.484375	8.0753379734233E-05
2	669	133.206521663686	-0.129547119140625	-0.12945556640625	-1.98333740234375E-06	2.56754049132724E-07	65271.58203125	8.05519230198115E-05
2	670	133.307229663432	-0.139617919921875	-0.1395263671875	-1.95556640625E-06	2.72853071692225E-07	71348.3125	8.03535804152489E-05
2	671	133.407937663177	-0.149688720703125	-0.149566650390625	-1.932373046875E-06	2.89018544208375E-07	77400.5078125	8.0157806223724E-05
2	672	133.508645662923	-0.159759521484375	-0.15960693359375	-1.91436767578125E-06	3.05546365098053E-07	83373.1875	7.99641129560769E-05
2	673	133.609353662669	-0.169830322265625	-0.169677734375	-1.9012451171875E-06	3.22598936008944E-07	89245.59375	7.97719767433591E-05
2	674	133.710061662415	-0.179901123046875	-0.179718017578125	-1.89300537109375E-06	3.4020717976091E-07	94937.9375	7.95809246483259E-05
2	675	133.81076966216	-0.189971923828125	-0.18975830078125	-1.88873291015625E-06	3.58402729716545E-07	100468.578125	7.93904982856475E-05
2	676	133.911477661906	-0.200042724609375	-0.199920654296875	-1.88873291015625E-06	3.77596705902761E-07	105849.0859375	7.92002902016975E-05
2	677	134.012185661652	-0.189971923828125	-0.189849853515625	-1.6748046875E-06	3.17961394102895E-07	113356.421875	7.90208505350165E-05
