Potential - Start -0.2 V, Upper Vertex 1.5 V, Lower Vertex -0.2 V, Stop -0.19 V; Scan - # end cross 5, Rate 0.1 Vps, Step 0.01 V 
Scan	Index	Time (s)	Potential applied (V)	WE(1).Potential (V)	WE(1).Current (A)	WE(1).Power (W)	WE(1).Resistance (Ω)	WE(1).Charge (C)
1	1	66.1695768329379	-0.189971923828125	-0.189788818359375	-2.545166015625E-07	4.83044075849648E-08	745683.4375	0
1	2	66.2702848326836	-0.179901123046875	-0.17974853515625	-2.20642089843751E-07	3.96600903229682E-08	814661.1875	-2.39261410683866E-08
1	3	66.3709928324294	-0.169830322265625	-0.169708251953125	-1.94396972656249E-07	3.2990769227581E-08	872998.5	-4.48250148110674E-08
1	4	66.4717008321751	-0.159759521484375	-0.159637451171875	-1.71508789062499E-07	2.73792259974925E-08	930782.9375	-6.32498355912503E-08
1	5	66.5724088319208	-0.149688720703125	-0.14959716796875	-1.513671875E-07	2.26441034811842E-08	988306.4375	-7.95079344584337E-08
1	6	66.6731168316666	-0.139617919921875	-0.13946533203125	-1.324462890625E-07	1.84716650863948E-08	1052995.375	-9.37990733973493E-08
1	7	66.7738248314123	-0.129547119140625	-0.129425048828125	-1.13830566406251E-07	1.47325263100129E-08	1136997.375	-1.06200097604869E-07
1	8	66.874532831158	-0.119476318359375	-0.11944580078125	-9.58251953125003E-08	1.14459171030035E-08	1246496.875	-1.1675710709369E-07
1	9	66.9752408309038	-0.109405517578125	-0.10931396484375	-7.62939453125E-08	8.33999358462734E-09	1432800	-1.25423994745688E-07
1	10	67.0759488306495	-0.099334716796875	-0.099212646484375	-5.55419921874995E-08	5.51046808183742E-09	1786263.75	-1.32062453417348E-07
1	11	67.1766568303952	-0.089263916015625	-0.089202880859375	-3.14331054687506E-08	2.80392331575285E-09	2837864.25	-1.36441997256043E-07
1	12	67.277364830141	-0.079193115234375	-0.07916259765625	-1.52587890625E-09	1.20792528757185E-10	51880000	-1.38101626134812E-07
1	13	67.3780728298867	-0.069122314453125	-0.069061279296875	3.63159179687503E-08	-2.50802378864989E-09	-1901680.75	-1.3634979723065E-07
1	14	67.4787808296325	-0.059051513671875	-0.05902099609375	8.51440429687503E-08	-5.0252859651323E-09	-693190	-1.3023381484345E-07
1	15	67.5794888293782	-0.048980712890625	-0.04884033203125	1.495361328125E-07	-7.30339477783559E-09	-326612.25	-1.18416721761605E-07
1	16	67.6801968291239	-0.038909912109375	-0.0387969970703125	2.3651123046875E-07	-9.17592579696702E-09	-164038.71875	-9.89776935966802E-08
1	17	67.7809048288697	-0.028839111328125	-0.0286956787109375	3.51562499999999E-07	-1.00883239539939E-08	-81623.265625	-6.93658321893054E-08
1	18	67.8816128286154	-0.018768310546875	-0.0186676025390625	5.023193359375E-07	-9.37709732085068E-09	-37162.8203125	-2.63694666102765E-08
1	19	67.9823208283611	-0.008697509765625	-0.00861206054687499	6.9122314453125E-07	-5.95285554183533E-09	-12459.162109375	3.3730170656554E-08
1	20	68.0830288281069	0.001373291015625	0.0014495849609375	9.16442871093751E-07	1.32846178502177E-09	1581.75158691406	1.14682585206083E-07
1	21	68.1837368278526	0.011444091796875	0.0115447998046875	1.1712646484375E-06	1.35220155073057E-08	9856.6953125	2.1980700637414E-07
1	22	68.2844448275983	0.021514892578125	0.0216064453125	1.434326171875E-06	3.09906873496857E-08	15063.830078125	3.51008935695063E-07
1	23	68.3851528273441	0.031585693359375	0.0316802978515625	1.68365478515625E-06	5.33386845802397E-08	18816.384765625	5.08011737565539E-07
1	24	68.4858608270898	0.041656494140625	0.04176025390625	1.89361572265625E-06	7.90778713621876E-08	22053.18359375	6.88141597038339E-07
1	25	68.5865688268356	0.051727294921875	0.051788330078125	2.0440673828125E-06	1.05858831034311E-07	25335.921875	8.86419684320572E-07
1	26	68.6872768265813	0.061798095703125	0.061920166015625	2.12860107421875E-06	1.31803318481616E-07	29089.607421875	1.09653024082945E-06
1	27	68.787984826327	0.071868896484375	0.071868896484375	2.15179443359375E-06	1.54647096906046E-07	33399.51953125	1.31206525111338E-06
1	28	68.8886928260728	0.081939697265625	0.08203125	2.12738037109375E-06	1.74511669115418E-07	38559.74609375	1.52753887050494E-06
1	29	68.9894008258185	0.092010498046875	0.092071533203125	2.0709228515625E-06	1.90673034694555E-07	44459.1796875	1.73894022736931E-06
1	30	69.0901088255642	0.102081298828125	0.10211181640625	1.9976806640625E-06	2.03986786573296E-07	51115.1875	1.94381073015393E-06
1	31	69.19081682531	0.112152099609375	0.1121826171875	1.9183349609375E-06	2.15203826314792E-07	58479.1640625	2.14099759432429E-06
1	32	69.2915248250557	0.122222900390625	0.122222900390625	1.83929443359375E-06	2.24803898163373E-07	66450.96875	2.33020932682848E-06
1	33	69.3922328248015	0.132293701171875	0.132293701171875	1.7633056640625E-06	2.3327422127295E-07	75025.9609375	2.51161463893368E-06
1	34	69.4929408245472	0.142364501953125	0.14239501953125	1.6937255859375E-06	2.4117807129187E-07	84072.078125	2.68569010586361E-06
1	35	69.5936488242929	0.152435302734375	0.1524658203125	1.63116455078125E-06	2.48696835569717E-07	93470.53125	2.8531114821817E-06
1	36	69.6943568240387	0.162506103515625	0.16253662109375	1.57470703125E-06	2.55947554705926E-07	103217.0546875	3.01453997053613E-06
1	37	69.7950648237844	0.172576904296875	0.17254638671875	1.52435302734375E-06	2.63021604496316E-07	113193.1953125	3.17059016197163E-06
1	38	69.8957728235301	0.182647705078125	0.18267822265625	1.47979736328125E-06	2.70326751206085E-07	123448.1328125	3.32186095874931E-06
1	39	69.9964808232759	0.192718505859375	0.1927490234375	1.43951416015625E-06	2.77464948794659E-07	133898.671875	3.46886008628644E-06
1	40	70.0971888230216	0.202789306640625	0.202789306640625	1.40380859375E-06	2.84677383888265E-07	144456.515625	3.61203274223953E-06
1	41	70.1978968227673	0.212860107421875	0.212860107421875	1.37115478515625E-06	2.91864154178256E-07	155241.484375	3.75176318812009E-06
1	42	70.2986048225131	0.222930908203125	0.222930908203125	1.3433837890625E-06	2.99481740739793E-07	165947.3125	3.88845091947587E-06
1	43	70.3993128222588	0.233001708984375	0.233001708984375	1.317138671875E-06	3.06895543644714E-07	176899.90625	4.02241903429967E-06
1	44	70.5000208220046	0.243072509765625	0.2430419921875	1.29364013671875E-06	3.1440887937606E-07	187874.5	4.15388240071479E-06
1	45	70.6007288217503	0.253143310546875	0.253082275390625	1.27227783203125E-06	3.21990967222519E-07	198920.609375	4.28308658229071E-06
1	46	70.701436821496	0.263214111328125	0.263214111328125	1.25274658203125E-06	3.2974057262436E-07	210109.625	4.41023166786181E-06
1	47	70.8021448212418	0.273284912109375	0.27325439453125	1.2353515625E-06	3.37565239760806E-07	221195.65625	4.53551729151513E-06
1	48	70.9028528209875	0.283355712890625	0.283294677734375	1.21917724609375E-06	3.45386411026993E-07	232365.46875	4.65911261926522E-06
1	49	71.0035608207332	0.293426513671875	0.29339599609375	1.20452880859375E-06	3.53403919461925E-07	243577.40625	4.78115589430672E-06
1	50	71.104268820479	0.303497314453125	0.303466796875	1.19110107421875E-06	3.61459626674332E-07	254778.375	4.90178535983432E-06
1	51	71.2049768202247	0.313568115234375	0.313568115234375	1.1798095703125E-06	3.69950640788375E-07	265778.59375	5.02117018186254E-06
1	52	71.3056848199705	0.323638916015625	0.323638916015625	1.168212890625E-06	3.78079135998632E-07	277037.625	5.13940267410362E-06
1	53	71.4063928197162	0.333709716796875	0.333740234375	1.15875244140625E-06	3.86722291523256E-07	288016.875	5.25657469552243E-06
1	54	71.5071008194619	0.343780517578125	0.343780517578125	1.1492919921875E-06	3.95104194694795E-07	299123.75	5.37279402124113E-06
1	55	71.6078088192077	0.353851318359375	0.3538818359375	1.14166259765625E-06	4.04013633215072E-07	309970.59375	5.48815251022461E-06
1	56	71.7085168189534	0.363922119140625	0.363983154296875	1.13433837890625E-06	4.12880069688981E-07	320877.0625	5.60275839234237E-06
1	57	71.8092248186991	0.373992919921875	0.374053955078125	1.12823486328125E-06	4.22020718815475E-07	331539.09375	5.71668806514936E-06
1	58	71.9099328184449	0.384063720703125	0.38409423828125	1.123046875E-06	4.313558576996E-07	342010.875	5.83004884902039E-06
1	59	72.0106408181906	0.394134521484375	0.394134521484375	1.11846923828125E-06	4.40827307102154E-07	352387.46875	5.94291805100511E-06
1	60	72.1113488179363	0.404205322265625	0.404266357421875	1.114501953125E-06	4.50555660336249E-07	362732.75	6.05535706199589E-06
1	61	72.2120568176821	0.414276123046875	0.41424560546875	1.11114501953125E-06	4.60286941006416E-07	372809.65625	6.16742727288511E-06
1	62	72.3127648174278	0.424346923828125	0.42431640625	1.10870361328125E-06	4.70441136712907E-07	382714	6.27920553597505E-06
1	63	72.4134728171736	0.434417724609375	0.434417724609375	1.10626220703125E-06	4.80579899431177E-07	392689.65625	6.39073823549552E-06
1	64	72.5141808169193	0.444488525390625	0.44451904296875	1.104736328125E-06	4.9107632094092E-07	402375.71875	6.5020708461816E-06
1	65	72.614888816665	0.454559326171875	0.454620361328125	1.103515625E-06	5.01680688103079E-07	411974.5625	6.613265213673E-06
1	66	72.7155968164108	0.464630126953125	0.46466064453125	1.1029052734375E-06	5.12476674430218E-07	421306.0625	6.72436726745218E-06
1	67	72.8163048161565	0.474700927734375	0.474700927734375	1.10260009765625E-06	5.23405276453559E-07	430528.65625	6.83542339174892E-06
1	68	72.9170128159022	0.484771728515625	0.4847412109375	1.103515625E-06	5.34919479378004E-07	439269.90625	6.94650998411817E-06
1	69	73.017720815648	0.494842529296875	0.494903564453125	1.10504150390625E-06	5.46888998087525E-07	447859.6875	7.0577198130195E-06
1	70	73.1184288153937	0.504913330078125	0.504974365234375	1.10687255859375E-06	5.58942247153027E-07	456217.25	7.16909835318802E-06
1	71	73.2191368151394	0.514984130859375	0.5150146484375	1.1090087890625E-06	5.71155737816298E-07	464391.875	7.28067698219093E-06
1	72	73.3198448148852	0.525054931640625	0.5250244140625	1.11114501953125E-06	5.83378266583168E-07	472507.5625	7.39247025194345E-06
1	73	73.4205528146309	0.535125732421875	0.53509521484375	1.114501953125E-06	5.96364657212689E-07	480120.46875	7.50454091758002E-06
1	74	73.5212608143767	0.545196533203125	0.545196533203125	1.1181640625E-06	6.09619178248977E-07	487581.875	7.61696446716087E-06
1	75	73.6219688141224	0.555267333984375	0.555145263671875	1.1224365234375E-06	6.23115340658842E-07	494589.46875	7.7297872849158E-06
1	76	73.7226768138681	0.565338134765625	0.5653076171875	1.12701416015625E-06	6.37109678791603E-07	501597.625	7.8430566645693E-06
1	77	73.8233848136139	0.575408935546875	0.575408935546875	1.13250732421875E-06	6.51654829653125E-07	508084.0625	7.95683263277169E-06
1	78	73.9240928133596	0.585479736328125	0.585479736328125	1.1395263671875E-06	6.67169615553576E-07	513792.1875	8.07123797130771E-06
1	79	74.0248008131053	0.595550537109375	0.59552001953125	1.14837646484375E-06	6.83881182794721E-07	518575.625	8.18644366518129E-06
1	80	74.1255088128511	0.605621337890625	0.605560302734375	1.15753173828125E-06	7.00955297361361E-07	523147.90625	8.30255521577783E-06
1	81	74.2262168125968	0.615692138671875	0.615692138671875	1.17034912109375E-06	7.20574689694331E-07	526075.6875	8.41977362142643E-06
1	82	74.3269248123426	0.625762939453125	0.625732421875	1.18621826171875E-06	7.42255224395194E-07	527501.9375	8.53843539516674E-06
1	83	74.4276328120883	0.635833740234375	0.635711669921875	1.20697021484375E-06	7.67285030178755E-07	526700.375	8.65894253365695E-06
1	84	74.528340811834	0.645904541015625	0.645904541015625	1.23291015625E-06	7.96342249032023E-07	523886.15625	8.78179980645655E-06
1	85	74.6290488115798	0.655975341796875	0.65594482421875	1.26495361328125E-06	8.29739747132408E-07	518552.5	8.90757746674353E-06
1	86	74.7297568113255	0.666046142578125	0.666015625	1.30126953125E-06	8.66665857301996E-07	511819.875	9.03679756447673E-06
1	87	74.8304648110712	0.676116943359375	0.676055908203125	1.34124755859375E-06	9.06758316432388E-07	504050.0625	9.16985845833551E-06
1	88	74.931172810817	0.686187744140625	0.6861572265625	1.3812255859375E-06	9.47737873957522E-07	496774.21875	9.30694568523904E-06
1	89	75.0318808105627	0.696258544921875	0.696136474609375	1.41754150390625E-06	9.86802319857816E-07	491087.1875	9.44787461776286E-06
1	90	75.1325888103084	0.706329345703125	0.706268310546875	1.44622802734375E-06	1.02142496416491E-06	488351.96875	9.59207682171836E-06
1	91	75.2332968100542	0.716400146484375	0.716339111328125	1.46759033203125E-06	1.05129231542378E-06	488105.625	9.73879923549248E-06
1	92	75.3340048097999	0.726470947265625	0.72637939453125	1.4825439453125E-06	1.07688936168415E-06	489954.71875	9.88735064311186E-06
1	93	75.4347128095457	0.736541748046875	0.736419677734375	1.49383544921875E-06	1.10008977571852E-06	492972.4375	1.00372235465329E-05
1	94	75.5354208092914	0.746612548828125	0.74652099609375	1.5057373046875E-06	1.1240645108046E-06	495784.375	1.01882633316563E-05
1	95	75.6361288090371	0.756683349609375	0.7568359375	1.522216796875E-06	1.15206830741954E-06	497193.28125	1.03407337519457E-05
1	96	75.7368368087829	0.766754150390625	0.76690673828125	1.549072265625E-06	1.18799391657376E-06	495074.875	1.04953851405298E-05
1	97	75.8375448085286	0.776824951171875	0.7769775390625	1.59027099609375E-06	1.2356048273432E-06	488581.875	1.06534635051503E-05
1	98	75.9382528082743	0.786895751953125	0.787353515625	1.65191650390625E-06	1.30064222503279E-06	476630.34375	1.08167205326026E-05
1	99	76.0389608080201	0.796966552734375	0.797119140625	1.7401123046875E-06	1.38707673613681E-06	458084.90625	1.09875227281009E-05
1	100	76.1396688077658	0.807037353515625	0.80718994140625	1.85821533203125E-06	1.49993275044835E-06	434389.875	1.11687131720828E-05
1	101	76.2403768075116	0.817108154296875	0.8172607421875	2.00897216796875E-06	1.64185405537864E-06	406805.40625	1.13634414447006E-05
1	102	76.3410848072573	0.827178955078125	0.82733154296875	2.1905517578125E-06	1.81231246187963E-06	377681.8125	1.1574904419831E-05
1	103	76.441792807003	0.837249755859375	0.83709716796875	2.3919677734375E-06	2.00230942937196E-06	349961.75	1.18056523206178E-05
1	104	76.5425008067488	0.847320556640625	0.84747314453125	2.5994873046875E-06	2.2029955744074E-06	326015.5	1.20569920909475E-05
1	105	76.6432088064945	0.857391357421875	0.8575439453125	2.79327392578125E-06	2.39535506807442E-06	307003.1875	1.23285390145611E-05
1	106	76.7439168062402	0.867462158203125	0.86761474609375	2.95562744140625E-06	2.5643460048741E-06	293546.71875	1.26180193547043E-05
1	107	76.844624805986	0.877532958984375	0.877685546875	3.07098388671875E-06	2.69535826191714E-06	285799.46875	1.29214831758873E-05
1	108	76.9453328057317	0.887603759765625	0.88775634765625	3.1353759765625E-06	2.78344987236778E-06	283141.90625	1.32339982883423E-05
1	109	77.0460408054774	0.897674560546875	0.8978271484375	3.15277099609375E-06	2.8306433250691E-06	284774	1.35506315928069E-05
1	110	77.1467488052232	0.907745361328125	0.908203125	3.135986328125E-06	2.84811244455341E-06	289606.875	1.38672958200914E-05
1	111	77.2474568049689	0.917816162109375	0.91796875	3.095703125E-06	2.84175871456682E-06	296529.96875	1.41810860441183E-05
1	112	77.3481648047147	0.927886962890625	0.9283447265625	3.04595947265625E-06	2.82770042758784E-06	304779.09375	1.44903433465515E-05
1	113	77.4488728044604	0.937957763671875	0.9381103515625	2.99774169921875E-06	2.81221241493768E-06	312939.03125	1.47946684592171E-05
1	114	77.5495808042061	0.948028564453125	0.94818115234375	2.95501708984375E-06	2.80189146906196E-06	320871.65625	1.50944133565645E-05
1	115	77.6502888039519	0.958099365234375	0.9576416015625	2.9248046875E-06	2.80091467175225E-06	327420.6875	1.53904857143061E-05
1	116	77.7509968036976	0.968170166015625	0.968017578125	2.9119873046875E-06	2.8188546821184E-06	332425.09375	1.56843907461734E-05
1	117	77.8517048034433	0.978240966796875	0.9783935546875	2.91839599609375E-06	2.85533974420105E-06	335250.4375	1.59779756359058E-05
1	118	77.9524128031891	0.988311767578125	0.98876953125	2.943115234375E-06	2.910062448791E-06	335960.1875	1.62731248565251E-05
1	119	78.0531208029348	0.998382568359375	0.99822998046875	2.9840087890625E-06	2.9787270250381E-06	334526.5	1.65715791808907E-05
1	120	78.1538288026806	1.00845336914063	1.00830078125	3.03497314453125E-06	3.06016568174527E-06	332227.25	1.68746591953095E-05
1	121	78.2545368024263	1.01852416992188	1.0186767578125	3.08624267578125E-06	3.1438835321751E-06	330070.21875	1.71828869497404E-05
1	122	78.355244802172	1.02859497070313	1.0284423828125	3.12713623046875E-06	3.21607922160183E-06	328876.75	1.74957549461396E-05
1	123	78.4559528019178	1.03866577148438	1.03851318359375	3.1512451171875E-06	3.27260954691155E-06	329556.46875	1.78118971234653E-05
1	124	78.5566608016635	1.04873657226563	1.0491943359375	3.1549072265625E-06	3.31011051457608E-06	332559.5	1.81294381036423E-05
1	125	78.6573688014092	1.05880737304688	1.0589599609375	3.1396484375E-06	3.32476201947429E-06	337286.15625	1.84463933692314E-05
1	126	78.758076801155	1.06887817382813	1.0687255859375	3.109130859375E-06	3.32280774273386E-06	343737.71875	1.87610439752461E-05
1	127	78.8587848009007	1.07894897460938	1.07879638671875	3.0706787109375E-06	3.31263686348393E-06	351321.8125	1.90722221304895E-05
1	128	78.9594928006464	1.08901977539063	1.0888671875	3.02764892578125E-06	3.29670729115605E-06	359641.1875	1.93792984646279E-05
1	129	79.0602008003922	1.09909057617188	1.0986328125	2.98309326171875E-06	3.27732414007187E-06	368286.4375	1.96819619304733E-05
1	130	79.1609088001379	1.10916137695313	1.109619140625	2.940673828125E-06	3.2630277928547E-06	377335	1.99802470888244E-05
1	131	79.2616167998837	1.11923217773438	1.119384765625	2.9010009765625E-06	3.24733628076501E-06	385861.5625	2.02743995032506E-05
1	132	79.3623247996294	1.12930297851563	1.129150390625	2.86468505859375E-06	3.23466019835905E-06	394162.15625	2.05647247639718E-05
1	133	79.4630327993751	1.13937377929688	1.13922119140625	2.83233642578125E-06	3.22665755447815E-06	402219.59375	2.08515921258368E-05
1	134	79.5637407991209	1.14944458007813	1.1492919921875	2.8033447265625E-06	3.22186156154203E-06	409971.71875	2.11353726626839E-05
1	135	79.6644487988666	1.15951538085938	1.15936279296875	2.777099609375E-06	3.21966581395827E-06	417472.53125	2.14163701457437E-05
1	136	79.7651567986123	1.16958618164063	1.16912841796875	2.75421142578125E-06	3.22002688335488E-06	424487.53125	2.16948938032147E-05
1	137	79.8658647983581	1.17965698242188	1.17889404296875	2.7337646484375E-06	3.22281880471564E-06	431234.65625	2.19712346734013E-05
1	138	79.9665727981038	1.18972778320313	1.1895751953125	2.71636962890625E-06	3.23132599078235E-06	437928.3125	2.22456710616825E-05
1	139	80.0672807978495	1.19979858398438	1.19964599609375	2.701416015625E-06	3.24074289892451E-06	444080.4375	2.25184776354581E-05
1	140	80.1679887975953	1.20986938476563	1.21002197265625	2.68829345703125E-06	3.25289397551387E-06	450107.875	2.27898708544672E-05
1	141	80.268696797341	1.21994018554688	1.21978759765625	2.67791748046875E-06	3.26649046655803E-06	455498.59375	2.30600817303639E-05
1	142	80.3694047970868	1.23001098632813	1.2298583984375	2.66876220703125E-06	3.28219948642072E-06	460834.78125	2.33293085329933E-05
1	143	80.4701127968325	1.24008178710938	1.23992919921875	2.6617431640625E-06	3.30037300955155E-06	465833.53125	2.35977204283699E-05
1	144	80.5708207965782	1.25015258789063	1.25	2.65716552734375E-06	3.32145668835437E-06	470426.125	2.3865548428148E-05
1	145	80.671528796324	1.26022338867188	1.259765625	2.65472412109375E-06	3.34433025273029E-06	474537.3125	2.41330235439818E-05
1	146	80.7722367960697	1.27029418945313	1.2701416015625	2.65411376953125E-06	3.37110031978227E-06	478555.8125	2.44003440457163E-05
1	147	80.8729447958154	1.28036499023438	1.28021240234375	2.65533447265625E-06	3.39939197147032E-06	482128.5	2.46676972892601E-05
1	148	80.9736527955612	1.29043579101563	1.290283203125	2.65899658203125E-06	3.43085844178859E-06	485251.9375	2.49352942773839E-05
1	149	81.0743607953069	1.30050659179688	1.3006591796875	2.664794921875E-06	3.46598994838132E-06	488089.78125	2.52033696597209E-05
1	150	81.1750687950527	1.31057739257813	1.31072998046875	2.67333984375E-06	3.50402660842519E-06	490296.8125	2.54721653618617E-05
1	151	81.2757767947984	1.32064819335938	1.32080078125	2.68341064453125E-06	3.5442508306005E-06	492209.71875	2.57418996625347E-05
1	152	81.3764847945441	1.33071899414063	1.33087158203125	2.69500732421875E-06	3.58670854438969E-06	493828.59375	2.60127235378604E-05
1	153	81.4771927942899	1.34078979492188	1.34063720703125	2.70904541015625E-06	3.63184676643868E-06	494874.4375	2.62848388956627E-05
1	154	81.5779007940356	1.35086059570313	1.3507080078125	2.72369384765625E-06	3.67891493624484E-06	495910.375	2.65584003500408E-05
1	155	81.6786087937813	1.36093139648438	1.36077880859375	2.73895263671875E-06	3.72710860574443E-06	496824.53125	2.68334661086556E-05
1	156	81.7793167935271	1.37100219726563	1.37115478515625	2.755126953125E-06	3.77770538761979E-06	497673.9375	2.71101143880514E-05
1	157	81.8800247932728	1.38107299804688	1.380615234375	2.77191162109375E-06	3.82694315703702E-06	498073.34375	2.73884234047728E-05
1	158	81.9807327930185	1.39114379882813	1.3909912109375	2.789306640625E-06	3.8799007597845E-06	498687.09375	2.76684531854698E-05
1	159	82.0814407927643	1.40121459960938	1.4007568359375	2.8070068359375E-06	3.93193386116764E-06	499021.5625	2.79502492048778E-05
1	160	82.18214879251	1.41128540039063	1.41143798828125	2.825927734375E-06	3.98862175643444E-06	499460.0625	2.82338896795409E-05
1	161	82.2828567922558	1.42135620117188	1.42181396484375	2.84820556640625E-06	4.04961838285089E-06	499196.4375	2.85196056211134E-05
1	162	82.3835647920015	1.43142700195313	1.43096923828125	2.874755859375E-06	4.11368728236994E-06	497770.6875	2.88077790173702E-05
1	163	82.4842727917472	1.44149780273438	1.44195556640625	2.9083251953125E-06	4.19367552240146E-06	495802.75	2.90989810309839E-05
1	164	82.584980791493	1.45156860351563	1.451416015625	2.95440673828125E-06	4.28807334174053E-06	491271.5625	2.93941920972429E-05
1	165	82.6856887912387	1.46163940429688	1.46209716796875	3.01239013671875E-06	4.40440726379165E-06	485361.15625	2.9694645490963E-05
1	166	82.7863967909844	1.47171020507813	1.47186279296875	3.08624267578125E-06	4.54252540293965E-06	476910.9375	3.00017363770166E-05
1	167	82.8871047907302	1.48178100585938	1.48193359375	3.17626953125E-06	4.7070202526811E-06	466564.1875	3.03170781990048E-05
1	168	82.9878127904759	1.49185180664063	1.49169921875	3.28216552734375E-06	4.89600370201515E-06	454486.3125	3.06422844005283E-05
1	169	83.0885207902217	1.50192260742188	1.50177001953125	3.40179443359375E-06	5.108712684887E-06	441464.0625	3.09788483718876E-05
1	170	83.1892287899674	1.49185180664063	1.49139404296875	3.0841064453125E-06	4.59961756860139E-06	483574.125	3.13054406433366E-05
1	171	83.2899367897131	1.48178100585938	1.48162841796875	2.85125732421875E-06	4.22450375481276E-06	519640.375	3.16043115162756E-05
1	172	83.3906447894589	1.47171020507813	1.47216796875	2.6666259765625E-06	3.92572110285982E-06	552071.4375	3.18821585096885E-05
1	173	83.4913527892046	1.46163940429688	1.46148681640625	2.51678466796875E-06	3.67824759450741E-06	580696	3.21431616612244E-05
1	174	83.5920607889503	1.45156860351563	1.45111083984375	2.3919677734375E-06	3.47101013176143E-06	606659.875	3.23903404932935E-05
1	175	83.6927687886961	1.44149780273438	1.441650390625	2.2869873046875E-06	3.29703607349074E-06	630371	3.26259432767984E-05
1	176	83.7934767884418	1.43142700195313	1.43157958984375	2.19879150390625E-06	3.14774501930515E-06	651075.6875	3.28518181049731E-05
1	177	83.8941847881875	1.42135620117188	1.42120361328125	2.122802734375E-06	3.01693489745958E-06	669494	3.30694310832769E-05
1	178	83.9948927879333	1.41128540039063	1.41143798828125	2.05841064453125E-06	2.9053189791739E-06	685693.0625	3.32799718307797E-05
1	179	84.095600787679	1.40121459960938	1.40167236328125	2.00225830078125E-06	2.80651011053124E-06	700045.75	3.34844407916535E-05
1	180	84.1963087874248	1.39114379882813	1.3909912109375	1.95343017578125E-06	2.71720432465372E-06	712076.25	3.36836274072994E-05
1	181	84.2970167871705	1.38107299804688	1.38092041015625	1.9110107421875E-06	2.63895367424993E-06	722612.625	3.38782156177331E-05
1	182	84.3977247869162	1.37100219726563	1.37115478515625	1.8731689453125E-06	2.56840462498076E-06	731997.375	3.40687656716909E-05
1	183	84.498432786662	1.36093139648438	1.361083984375	1.83990478515625E-06	2.50426478487498E-06	739757.875	3.42557323165238E-05
1	184	84.5991407864077	1.35086059570313	1.3507080078125	1.8096923828125E-06	2.44436591856356E-06	746374.375	3.4439504815964E-05
1	185	84.6998487861534	1.34078979492188	1.34124755859375	1.7828369140625E-06	2.39122550738102E-06	752310.875	3.46204033121467E-05
1	186	84.8005567858992	1.33071899414063	1.33056640625	1.7572021484375E-06	2.33807395488839E-06	757207.375	3.47986569977365E-05
1	187	84.9012647856449	1.32064819335938	1.32080078125	1.73370361328125E-06	2.28987710215733E-06	761837.6875	3.49744404957164E-05
1	188	85.0019727853906	1.31057739257813	1.3104248046875	1.71234130859375E-06	2.24389441427775E-06	765282.5	3.51479611708783E-05
1	189	85.1026807851364	1.30050659179688	1.3006591796875	1.69189453125E-06	2.20057813749008E-06	768759.0625	3.53193790942896E-05
1	190	85.2033887848821	1.29043579101563	1.29058837890625	1.67327880859375E-06	2.15951422433136E-06	771293.0625	3.54888288711663E-05
1	191	85.3040967846279	1.28036499023438	1.28021240234375	1.65557861328125E-06	2.11949213735352E-06	773271.9375	3.56564487447031E-05
1	192	85.4048047843736	1.27029418945313	1.2701416015625	1.6387939453125E-06	2.08150026992371E-06	775046.5625	3.58223333023489E-05
1	193	85.5055127841193	1.26022338867188	1.259765625	1.6229248046875E-06	2.04450475393969E-06	776231.6875	3.59865734935738E-05
1	194	85.6062207838651	1.25015258789063	1.2506103515625	1.607666015625E-06	2.0105635485379E-06	777904.375	3.61492493539117E-05
1	195	85.7069287836108	1.24008178710938	1.2396240234375	1.5924072265625E-06	1.97398617274303E-06	778459.1875	3.63103827112354E-05
1	196	85.8076367833565	1.23001098632813	1.22955322265625	1.57806396484375E-06	1.94031349565194E-06	779153	3.64700317732058E-05
1	197	85.9083447831023	1.21994018554688	1.21978759765625	1.56402587890625E-06	1.90777927855379E-06	779902.4375	3.66282474715263E-05
1	198	86.009052782848	1.20986938476563	1.21002197265625	1.55059814453125E-06	1.87625778380607E-06	780358.25	3.67850807379E-05
1	199	86.1097607825938	1.19979858398438	1.199951171875	1.53656005859375E-06	1.84379700840509E-06	780933.5	3.6940531572327E-05
1	200	86.2104687823395	1.18972778320313	1.1895751953125	1.52374267578125E-06	1.81260645604198E-06	780693	3.70946290786378E-05
1	201	86.3111767820852	1.17965698242188	1.17919921875	1.51092529296875E-06	1.78168181719229E-06	780448.4375	3.72474387404509E-05
1	202	86.411884781831	1.16958618164063	1.16912841796875	1.49749755859375E-06	1.75076684172382E-06	780721.4375	3.73989241779782E-05
1	203	86.5125927815767	1.15951538085938	1.15936279296875	1.48468017578125E-06	1.72128295616858E-06	780883.875	3.75490890291985E-05
1	204	86.6133007813224	1.14944458007813	1.14990234375	1.47064208984375E-06	1.69109466696682E-06	781905	3.76979005523026E-05
1	205	86.7140087810682	1.13937377929688	1.13983154296875	1.45599365234375E-06	1.65958738307381E-06	782854.8125	3.78452677978203E-05
1	206	86.8147167808139	1.12930297851563	1.129150390625	1.4398193359375E-06	1.62577248374873E-06	784230.6875	3.79910852643661E-05
1	207	86.9154247805596	1.11923217773438	1.119384765625	1.4215087890625E-06	1.59121520937333E-06	787462.4375	3.81351637770422E-05
1	208	87.0161327803054	1.10916137695313	1.1083984375	1.40045166015625E-06	1.55225836806494E-06	791457.8125	3.82772595912684E-05
1	209	87.1168407800511	1.09909057617188	1.0992431640625	1.37542724609375E-06	1.51192898556474E-06	799201.25	3.84170380129945E-05
1	210	87.2175487797969	1.08901977539063	1.08917236328125	1.343994140625E-06	1.46384115851106E-06	810399.6875	3.85539715352934E-05
1	211	87.3182567795426	1.07894897460938	1.07879638671875	1.30462646484375E-06	1.40742622534162E-06	826900.625	3.86873398383614E-05
1	212	87.4189647792883	1.06887817382813	1.06842041015625	1.2542724609375E-06	1.34009030716697E-06	851824.8125	3.88161897717509E-05
1	213	87.5196727790341	1.05880737304688	1.0589599609375	1.19049072265625E-06	1.26068198369467E-06	889515.5	3.89392953366041E-05
1	214	87.6203807787798	1.04873657226563	1.04827880859375	1.11328125E-06	1.16702904051635E-06	941611.875	3.90552995668259E-05
1	215	87.7210887785255	1.03866577148438	1.038818359375	1.02142333984375E-06	1.06107324882032E-06	1017030.25	3.91627872886602E-05
1	216	87.8217967782713	1.02859497070313	1.02874755859375	9.2041015625E-07	9.46869647577842E-07	1117705.625	3.92605688830372E-05
1	217	87.922504778017	1.01852416992188	1.0186767578125	8.1756591796875E-07	8.32835382880148E-07	1245987.375	3.93480804632418E-05
1	218	88.0232127777628	1.00845336914063	1.00860595703125	7.2174072265625E-07	7.27951999124343E-07	1397463	3.94255912397057E-05
1	219	88.1239207775085	0.998382568359375	0.99884033203125	6.43005371093749E-07	6.42259692540392E-07	1553393.5	3.94943126593716E-05
1	220	88.2246287772542	0.988311767578125	0.98876953125	5.86853027343751E-07	5.80262337734894E-07	1684867.5	3.95562419726048E-05
1	221	88.325336777	0.978240966796875	0.97869873046875	5.54504394531249E-07	5.42692703220382E-07	1764997.375	3.96137111238204E-05
1	222	88.4260447767457	0.968170166015625	0.968017578125	5.4046630859375E-07	5.23180915479315E-07	1791078.5	3.96688483306207E-05
1	223	88.5267527764914	0.958099365234375	0.95794677734375	5.352783203125E-07	5.12768167482136E-07	1789623.625	3.97230178350583E-05
1	224	88.6274607762372	0.948028564453125	0.94879150390625	5.31005859375E-07	5.03813851082668E-07	1786781.625	3.97767071262933E-05
1	225	88.7281687759829	0.937957763671875	0.93780517578125	5.19409179687499E-07	4.87104614421696E-07	1805522.875	3.98295997001696E-05
1	226	88.8288767757286	0.927886962890625	0.9283447265625	4.95300292968751E-07	4.59809427866276E-07	1874306.875	3.98806951125152E-05
1	227	88.9295847754744	0.917816162109375	0.91827392578125	4.50744628906249E-07	4.1390703131583E-07	2037237.75	3.99283344449941E-05
1	228	89.0302927752201	0.907745361328125	0.908203125	3.802490234375E-07	3.45343352137206E-07	2388443	3.99701784772333E-05
1	229	89.1310007749659	0.897674560546875	0.8984375	2.76794433593749E-07	2.48682482606455E-07	3245865.5	4.0003262256505E-05
1	230	89.2317087747116	0.887603759765625	0.88775634765625	1.3763427734375E-07	1.22185696227461E-07	6450111	4.00241297029424E-05
1	231	89.3324167744573	0.877532958984375	0.877685546875	-3.72314453124994E-08	-3.26775015935254E-08	-23573770	4.00291864934843E-05
1	232	89.4331247742031	0.867462158203125	0.8673095703125	-2.398681640625E-07	-2.08039963922602E-07	-3615776	4.00152312067803E-05
1	233	89.5338327739488	0.857391357421875	0.8575439453125	-4.5654296875E-07	-3.91505636798684E-07	-1878342.375	3.99801647290587E-05
1	234	89.6345407736945	0.847320556640625	0.84716796875	-6.6497802734375E-07	-5.6334806686209E-07	-1273978.875	3.99236923840363E-05
1	235	89.7352487734403	0.837249755859375	0.83709716796875	-8.44726562500001E-07	-7.07118147147412E-07	-990968.25	3.98476731788833E-05
1	236	89.835956773186	0.827178955078125	0.82763671875	-9.7808837890625E-07	-8.09501841558813E-07	-846177.875	3.97558869735803E-05
1	237	89.9366647729317	0.817108154296875	0.81695556640625	-1.05804443359375E-06	-8.64375238052162E-07	-772137.3125	3.96533578168601E-05
1	238	90.0373727726775	0.807037353515625	0.8074951171875	-1.085205078125E-06	-8.76297804097703E-07	-744094.5	3.95454371755477E-05
1	239	90.1380807724232	0.796966552734375	0.79742431640625	-1.07025146484375E-06	-8.53444475978904E-07	-745081.3125	3.94369017158169E-05
1	240	90.238788772169	0.786895751953125	0.7879638671875	-1.02630615234375E-06	-8.08692107057141E-07	-767766.9375	3.93313312088139E-05
1	241	90.3394967719147	0.776824951171875	0.77667236328125	-9.65576171875E-07	-7.49936361899017E-07	-804361.5625	3.92310321331024E-05
1	242	90.4402047716604	0.766754150390625	0.7672119140625	-8.978271484375E-07	-6.88823661221249E-07	-854520.75	3.91372013837099E-05
1	243	90.5409127714062	0.756683349609375	0.75592041015625	-8.3160400390625E-07	-6.28626423804235E-07	-908990.875	3.90501190850046E-05
1	244	90.6416207711519	0.746612548828125	0.74652099609375	-7.7178955078125E-07	-5.76157106024766E-07	-967259.8125	3.89693814213388E-05
1	245	90.7423287708976	0.736541748046875	0.736480712890625	-7.20825195312499E-07	-5.30873876414262E-07	-1021718.875	3.88942244171631E-05
1	246	90.8430367706434	0.726470947265625	0.726348876953125	-6.805419921875E-07	-4.94310882004356E-07	-1067309.5	3.88236585422419E-05
1	247	90.9437447703891	0.716400146484375	0.71630859375	-6.5185546875E-07	-4.6692963451278E-07	-1098876.5	3.87565669370815E-05
1	248	91.0444527701349	0.706329345703125	0.70623779296875	-6.34765625E-07	-4.48295480737215E-07	-1112596.125	3.86917818104848E-05
1	249	91.1451607698806	0.696258544921875	0.696197509765625	-6.24694824218749E-07	-4.34910958801993E-07	-1114460.25	3.86283609259408E-05
1	250	91.2458687696263	0.686187744140625	0.6861572265625	-6.207275390625E-07	-4.25916681479066E-07	-1105408.125	3.85656494472641E-05
1	251	91.3465767693721	0.676116943359375	0.67608642578125	-6.170654296875E-07	-4.17189568224785E-07	-1095647.875	3.85033199563622E-05
1	252	91.4472847691178	0.666046142578125	0.665985107421875	-6.1065673828125E-07	-4.0668828660273E-07	-1090604.75	3.84414997824933E-05
1	253	91.5479927688635	0.655975341796875	0.655914306640625	-5.9844970703125E-07	-3.92531688930831E-07	-1096022.5	3.83806182071567E-05
1	254	91.6487007686093	0.645904541015625	0.64581298828125	-5.80444335937499E-07	-3.74858473151107E-07	-1112618.375	3.83212573069613E-05
1	255	91.749408768355	0.635833740234375	0.63580322265625	-5.56030273437499E-07	-3.53525848595382E-07	-1143468.75	3.8264028262347E-05
1	256	91.8501167681007	0.625762939453125	0.625762939453125	-5.27343750000001E-07	-3.29992161596238E-07	-1186632	3.82094767701346E-05
1	257	91.9508247678465	0.615692138671875	0.615631103515625	-4.9713134765625E-07	-3.06049514620099E-07	-1238367.125	3.81578902306501E-05
1	258	92.0515327675922	0.605621337890625	0.605621337890625	-4.66003417968749E-07	-2.82221606084931E-07	-1299607.125	3.81093923351727E-05
1	259	92.152240767338	0.595550537109375	0.5955810546875	-4.3487548828125E-07	-2.59003599012431E-07	-1369543.875	3.80640303774271E-05
1	260	92.2529487670837	0.585479736328125	0.585418701171875	-4.05273437500001E-07	-2.37254639046114E-07	-1444503	3.80217243218794E-05
1	261	92.3536567668294	0.575408935546875	0.5753173828125	-3.7689208984375E-07	-2.1683256079541E-07	-1526477.75	3.79823395633139E-05
1	262	92.4543647665752	0.565338134765625	0.565338134765625	-3.497314453125E-07	-1.97716516936453E-07	-1616492.125	3.7945752410451E-05
1	263	92.5550727663209	0.555267333984375	0.55523681640625	-3.22265625E-07	-1.78933731831421E-07	-1722916.75	3.79119155695662E-05
1	264	92.6557807660666	0.545196533203125	0.54510498046875	-2.960205078125E-07	-1.61362237349749E-07	-1841443.375	3.78807817469351E-05
1	265	92.7564887658124	0.535125732421875	0.53509521484375	-2.70690917968749E-07	-1.44845415661621E-07	-1976775.625	3.78522454411723E-05
1	266	92.8571967655581	0.525054931640625	0.525054931640625	-2.45361328125E-07	-1.28828176571005E-07	-2139925.5	3.78262593585532E-05
1	267	92.9579047653039	0.514984130859375	0.51495361328125	-2.21862792968749E-07	-1.14249047555859E-07	-2321045.5	3.78027325496078E-05
1	268	93.0586127650496	0.504913330078125	0.504913330078125	-1.99279785156251E-07	-1.00619018894577E-07	-2533690.75	3.77815267711412E-05
1	269	93.1593207647953	0.494842529296875	0.49481201171875	-1.7822265625E-07	-8.8186709490401E-08	-2776370	3.77625183318742E-05
1	270	93.2600287645411	0.484771728515625	0.48480224609375	-1.58081054687501E-07	-7.66380452432713E-08	-3066795.5	3.77455835405272E-05
1	271	93.3607367642868	0.474700927734375	0.474761962890625	-1.3885498046875E-07	-6.5923060788009E-08	-3419121	3.773063144763E-05
1	272	93.4614447640325	0.464630126953125	0.464691162109375	-1.2176513671875E-07	-5.65831861365496E-08	-3816290.5	3.77175092580728E-05
1	273	93.5621527637783	0.454559326171875	0.45458984375	-1.068115234375E-07	-4.85554316753678E-08	-4256000	3.77059986931272E-05
1	274	93.662860763524	0.444488525390625	0.4444580078125	-9.36889648437495E-08	-4.16408099113141E-08	-4743974	3.76959033019375E-05
1	275	93.7635687632697	0.434417724609375	0.4344482421875	-8.17871093750006E-08	-3.55322633538435E-08	-5311940.5	3.76870666514151E-05
1	276	93.8642767630155	0.424346923828125	0.424407958984375	-7.14111328125003E-08	-3.03074507712608E-08	-5943162.5	3.7679354136344E-05
1	277	93.9649847627612	0.414276123046875	0.414337158203125	-6.13403320312497E-08	-2.54155771983733E-08	-6754726.5	3.76726675312966E-05
1	278	94.065692762507	0.404205322265625	0.404205322265625	-5.31005859375003E-08	-2.14635385020756E-08	-7612069	3.76669049728662E-05
1	279	94.1664007622527	0.394134521484375	0.394195556640625	-4.45556640624997E-08	-1.75636447607985E-08	-8847261	3.7661986425519E-05
1	280	94.2671087619984	0.384063720703125	0.38409423828125	-3.72314453124994E-08	-1.43003830999078E-08	-10316394	3.76578682335094E-05
1	281	94.3678167617442	0.373992919921875	0.373992919921875	-3.0517578125E-08	-1.14133573703157E-08	-12255001	3.76544594473671E-05
1	282	94.4685247614899	0.363922119140625	0.363922119140625	-2.41088867187503E-08	-8.77375683216997E-09	-15094937	3.7651709135389E-05
1	283	94.5692327612356	0.353851318359375	0.35382080078125	-1.86157226562497E-08	-6.58662990815628E-09	-19006558	3.76495554519352E-05
1	284	94.6699407609814	0.343780517578125	0.34375	-1.34277343750003E-08	-4.61578375521299E-09	-25600000	3.76479438273236E-05
1	285	94.7706487607271	0.333709716796875	0.33367919921875	-8.23974609374945E-09	-2.74943179334741E-09	-40496296	3.76468524336815E-05
1	286	94.8713567604728	0.323638916015625	0.323638916015625	-3.66210937499945E-09	-1.1852010484148E-09	-88375000	3.76462521671783E-05
1	287	94.9720647602186	0.313568115234375	0.313568115234375	6.10351562499445E-10	1.91386781422942E-10	513750016	3.76460993720684E-05
1	288	95.0727727599643	0.303497314453125	0.303466796875	4.27246093750028E-09	1.29655008951346E-09	71028568	3.76463431166485E-05
1	289	95.1734807597101	0.293426513671875	0.293426513671875	7.62939453125E-09	2.23866658544125E-09	38460004	3.76469433831517E-05
1	290	95.2741887594558	0.283355712890625	0.283355712890625	1.03759765625003E-08	2.94009216972313E-09	27308824	3.76478492398746E-05
1	291	95.3748967592015	0.273284912109375	0.2733154296875	1.220703125E-08	3.33636984706231E-09	22390000	3.76489879272413E-05
1	292	95.4756047589473	0.263214111328125	0.263214111328125	1.43432617187494E-08	3.77534892237463E-09	18351064	3.76503230654635E-05
1	293	95.576312758693	0.253143310546875	0.253204345703125	1.61743164062506E-08	4.09540712453804E-09	15654718	3.76518619304989E-05
1	294	95.6770207584387	0.243072509765625	0.243072509765625	1.70898437499997E-08	4.15407086507003E-09	14223215	3.76535354007501E-05
1	295	95.7777287581845	0.233001708984375	0.233001708984375	1.77001953125006E-08	4.12417566764134E-09	13163793	3.76552889065351E-05
1	296	95.8784367579302	0.222930908203125	0.222991943359375	1.77001953125006E-08	3.94700094830114E-09	12598276	3.76570715161506E-05
1	297	95.979144757676	0.212860107421875	0.212860107421875	1.70898437499997E-08	3.63774566025654E-09	12455358	3.76588213839568E-05
1	298	96.0798527574217	0.202789306640625	0.20281982421875	1.58691406249994E-08	3.21857629437261E-09	12780769	3.76604839402717E-05
1	299	96.1805607571674	0.192718505859375	0.19268798828125	1.31225585937506E-08	2.52855936189178E-09	14683721	3.76619427697733E-05
1	300	96.2812687569132	0.182647705078125	0.18267822265625	9.46044921874972E-09	1.72821801314171E-09	19309678	3.76630778191611E-05
1	301	96.3819767566589	0.172576904296875	0.172576904296875	3.96728515625056E-09	6.84661771721551E-10	43500000	3.76637544832192E-05
1	302	96.4826847564046	0.162506103515625	0.16253662109375	-3.66210937499945E-09	-5.95226867794452E-10	-44383336	3.76637690351345E-05
1	303	96.5833927561504	0.152435302734375	0.15252685546875	-1.46484375000006E-08	-2.23428009427096E-09	-10412500	3.76628486264963E-05
1	304	96.6841007558961	0.142364501953125	0.142486572265625	-2.99072265625006E-08	-4.26137836129215E-09	-4764285.5	3.76606039935723E-05
1	305	96.7848087556418	0.132293701171875	0.13232421875	-5.12695312500006E-08	-6.78420075672648E-09	-2580952.5	3.76565185433719E-05
1	306	96.8855167553876	0.122222900390625	0.122222900390625	-8.14819335937494E-08	-9.95895810262937E-09	-1500000.125	3.76498319383245E-05
1	307	96.9862247551333	0.112152099609375	0.11224365234375	-1.2359619140625E-07	-1.38728886156514E-08	-908148.125	3.763950735447E-05
1	308	97.0869327548791	0.102081298828125	0.102142333984375	-1.8341064453125E-07	-1.873399035901E-08	-556905.1875	3.76240459445398E-05
1	309	97.1876407546248	0.092010498046875	0.092041015625	-2.655029296875E-07	-2.44371598512316E-08	-346666.65625	3.76014431822114E-05
1	310	97.2883487543705	0.081939697265625	0.08203125	-3.765869140625E-07	-3.08918934877056E-08	-217828.203125	3.75691124645527E-05
1	311	97.3890567541163	0.071868896484375	0.0718994140625	-5.2398681640625E-07	-3.76743436447669E-08	-137216.078125	3.75237650587223E-05
1	312	97.489764753862	0.061798095703125	0.061859130859375	-7.10144042968749E-07	-4.39288925235815E-08	-87107.8671875	3.74616211047396E-05
1	313	97.5904727536077	0.051727294921875	0.051788330078125	-9.3536376953125E-07	-4.84409277135001E-08	-55367.05078125	3.73787624994293E-05
1	314	97.6911807533535	0.041656494140625	0.04178466796875	-1.18927001953125E-06	-4.96932486271362E-08	-35134.71875	3.72717768186703E-05
1	315	97.7918887530992	0.031585693359375	0.0316925048828125	-1.4556884765625E-06	-4.61344136226671E-08	-21771.48828125	3.71385940525215E-05
1	316	97.892596752845	0.021514892578125	0.0216064453125	-1.70806884765625E-06	-3.69052948201443E-08	-12649.6337890625	3.6979286960559E-05
1	317	97.9933047525907	0.011444091796875	0.0115447998046875	-1.92169189453125E-06	-2.21855458448772E-08	-6007.62255859375	3.67965149052907E-05
1	318	98.0940127523364	0.001373291015625	0.00147705078125	-2.0758056640625E-06	-3.06607050859498E-09	-711.555419921875	3.65952218999155E-05
1	319	98.1947207520822	-0.008697509765625	-0.0085784912109375	-2.161865234375E-06	1.85455419909886E-08	3968.09716796875	3.63818398909643E-05
1	320	98.2954287518279	-0.018768310546875	-0.0186370849609375	-2.183837890625E-06	4.07003710733989E-08	8534.09765625	3.61630154657178E-05
1	321	98.3961367515736	-0.028839111328125	-0.0287078857421875	-2.156982421875E-06	6.19224067577306E-08	13309.28125	3.59444384230301E-05
1	322	98.4968447513194	-0.038909912109375	-0.03875732421875	-2.09747314453125E-06	8.12924412230132E-08	18478.103515625	3.57302087650169E-05
1	323	98.5975527510651	-0.048980712890625	-0.0488189697265625	-2.02056884765625E-06	9.8642090051726E-08	24161.001953125	3.55228512489703E-05
1	324	98.6982607508108	-0.059051513671875	-0.058990478515625	-1.937255859375E-06	1.14279643526061E-07	30450.537109375	3.5323559131939E-05
1	325	98.7989687505566	-0.069122314453125	-0.06903076171875	-1.85516357421875E-06	1.28063348370233E-07	37210.06640625	3.51325943483971E-05
1	326	98.8996767503023	-0.079193115234375	-0.07916259765625	-1.77825927734375E-06	1.40771618362123E-07	44516.90234375	3.49496367562097E-05
1	327	99.0003847500481	-0.089263916015625	-0.0892333984375	-1.7083740234375E-06	1.52444016521258E-07	52232.94140625	3.47740715369582E-05
1	328	99.1010927497938	-0.099334716796875	-0.099273681640625	-1.646728515625E-06	1.63476798320517E-07	60285.3984375	3.46051274391357E-05
1	329	99.2018007495395	-0.109405517578125	-0.1092529296875	-1.591796875E-06	1.73908460965322E-07	68634.96875	3.44420550391078E-05
1	330	99.3025087492853	-0.119476318359375	-0.119354248046875	-1.54510498046875E-06	1.8441484428422E-07	77246.6953125	3.42841012752615E-05
1	331	99.403216749031	-0.129547119140625	-0.12945556640625	-1.50360107421875E-06	1.94649530271818E-07	86097.015625	3.41305858455598E-05
1	332	99.5039247487767	-0.139617919921875	-0.139495849609375	-1.468505859375E-06	2.04850465479467E-07	94991.6875	3.39809266733937E-05
1	333	99.6046327485225	-0.149688720703125	-0.149566650390625	-1.43829345703125E-06	2.15120735447272E-07	103988.96875	3.3834559872048E-05
1	334	99.7053407482682	-0.159759521484375	-0.159637451171875	-1.41326904296875E-06	2.25610662596409E-07	112956.1640625	3.36909724865109E-05
1	335	99.8060487480139	-0.169830322265625	-0.16961669921875	-1.3916015625E-06	2.36038843581809E-07	121885.9765625	3.35497352352832E-05
1	336	99.9067567477597	-0.179901123046875	-0.179779052734375	-1.37420654296875E-06	2.4705354917387E-07	130823.8984375	3.34104661305901E-05
1	337	100.007464747505	-0.189971923828125	-0.189788818359375	-1.35986328125E-06	2.58086856774753E-07	139564.625	3.32727940985933E-05
1	338	100.108172747251	-0.200042724609375	-0.19989013671875	-1.34979248046875E-06	2.69810186637187E-07	148089.53125	3.31363517034333E-05
1	339	100.208880746997	-0.189971923828125	-0.189788818359375	-1.19598388671875E-06	2.26984354867454E-07	158688.453125	3.30081602442078E-05
2	340	100.309588746743	-0.179901123046875	-0.179779052734375	-1.0882568359375E-06	1.95645782241627E-07	165199.109375	3.28931419062428E-05
2	341	100.410296746488	-0.169830322265625	-0.169708251953125	-1.00341796875E-06	1.70288316780898E-07	169130.171875	3.27878151438199E-05
2	342	100.511004746234	-0.159759521484375	-0.15960693359375	-9.307861328125E-07	1.48559919921354E-07	171475.421875	3.26904228131752E-05
2	343	100.61171274598	-0.149688720703125	-0.14959716796875	-8.6669921875E-07	1.29655745695345E-07	172605.625	3.25999099004548E-05
2	344	100.712420745726	-0.139617919921875	-0.139556884765625	-8.09631347656251E-07	1.12989624767579E-07	172370.90625	3.25155015161727E-05
2	345	100.813128745471	-0.129547119140625	-0.129425048828125	-7.574462890625E-07	9.80325225441447E-08	170870.265625	3.24365937558468E-05
2	346	100.913836745217	-0.119476318359375	-0.11932373046875	-7.086181640625E-07	8.45549621431019E-08	168389.328125	3.23627718898933E-05
2	347	101.014544744963	-0.109405517578125	-0.109344482421875	-6.6131591796875E-07	7.23112449918517E-08	165343.796875	3.22937885357533E-05
2	348	101.115252744709	-0.099334716796875	-0.099273681640625	-6.15234375E-07	6.10765766850818E-08	161359.140625	3.22295090882108E-05
2	349	101.215960744454	-0.089263916015625	-0.089202880859375	-5.66711425781249E-07	5.05522912419565E-08	157404.40625	3.21699953929055E-05
2	350	101.3166687442	-0.079193115234375	-0.0791015625	-5.1544189453125E-07	4.07722566819757E-08	153463.59375	3.21155021083541E-05
2	351	101.417376743946	-0.069122314453125	-0.069061279296875	-4.5654296875E-07	3.15294386155074E-08	151270.0625	3.20665603794623E-05
2	352	101.518084743691	-0.059051513671875	-0.058929443359375	-3.875732421875E-07	2.28394743118088E-08	152047.25	3.20240542350803E-05
2	353	101.618792743437	-0.048980712890625	-0.048828125	-3.02734374999999E-07	1.47819516627123E-08	161290.328125	3.19892969855573E-05
2	354	101.719500743183	-0.038909912109375	-0.0387786865234375	-1.9561767578125E-07	7.58579599136056E-09	198237.125	3.1964202207746E-05
2	355	101.820208742929	-0.028839111328125	-0.0286865234375	-5.950927734375E-08	1.70711422775582E-09	482051.28125	3.19513565045781E-05
2	356	101.920916742674	-0.018768310546875	-0.0186614990234375	1.11999511718749E-07	-2.09007877671752E-09	-166621.25	3.19539976771921E-05
2	357	102.02162474242	-0.008697509765625	-0.0086029052734375	3.21350097656251E-07	-2.76454437120321E-09	-26771.130859375	3.1975818274077E-05
2	358	102.122332742166	0.001373291015625	0.00148925781250001	5.67626953125E-07	8.45342851274467E-10	2623.65576171875	3.20205836032983E-05
2	359	102.223040741912	0.011444091796875	0.0115570068359375	8.40148925781251E-07	9.70960734036908E-09	13755.9033203125	3.20914696203545E-05
2	360	102.323748741657	0.021514892578125	0.021600341796875	1.11968994140625E-06	2.41856845661914E-08	19291.359375	3.21901534334756E-05
2	361	102.424456741403	0.031585693359375	0.031689453125	1.38214111328125E-06	4.37992930812925E-08	22927.80078125	3.23161330015864E-05
2	362	102.525164741149	0.041656494140625	0.04178466796875	1.60247802734375E-06	6.69590036750378E-08	26075.033203125	3.24664215440862E-05
2	363	102.625872740895	0.051727294921875	0.0517578125	1.76177978515625E-06	9.11858606400529E-08	29378.140625	3.26358240272384E-05
2	364	102.72658074064	0.061798095703125	0.0618896484375	1.8524169921875E-06	1.14645438031857E-07	33410.21484375	3.28178139170632E-05
2	365	102.827288740386	0.071868896484375	0.0718994140625	1.8798828125E-06	1.35162466108341E-07	38246.75390625	3.30057482642587E-05
2	366	102.927996740132	0.081939697265625	0.08197021484375	1.86004638671875E-06	1.52468402347949E-07	44068.91015625	3.31940682372078E-05
2	367	103.028704739878	0.092010498046875	0.092071533203125	1.80755615234375E-06	1.66424470648963E-07	50937.0234375	3.3378746593371E-05
2	368	103.129412739623	0.102081298828125	0.102142333984375	1.73858642578125E-06	1.77583274307835E-07	58750.21875	3.35573095071595E-05
2	369	103.230120739369	0.112152099609375	0.1121826171875	1.6632080078125E-06	1.86583022809828E-07	67449.5390625	3.37286037392914E-05
2	370	103.330828739115	0.122222900390625	0.12225341796875	1.5887451171875E-06	1.94229514249855E-07	76949.6796875	3.38923528033774E-05
2	371	103.43153673886	0.132293701171875	0.13238525390625	1.5179443359375E-06	2.00953437001772E-07	87213.515625	3.40487858920824E-05
2	372	103.532244738606	0.142364501953125	0.142425537109375	1.45355224609375E-06	2.07022949894053E-07	97984.46875	3.41984159604181E-05
2	373	103.632952738352	0.152435302734375	0.15252685546875	1.395263671875E-06	2.12815180589132E-07	109317.5859375	3.43418651027605E-05
2	374	103.733660738098	0.162506103515625	0.162506103515625	1.34429931640625E-06	2.18456847278503E-07	120885.359375	3.44798099831678E-05
2	375	103.834368737843	0.172576904296875	0.172576904296875	1.298828125E-06	2.24147740368608E-07	132871.234375	3.46129017998464E-05
2	376	103.935076737589	0.182647705078125	0.1826171875	1.25885009765625E-06	2.29887646696625E-07	145066.671875	3.47416935255751E-05
2	377	104.035784737335	0.192718505859375	0.192718505859375	1.22314453125E-06	2.35722581010123E-07	157559.875	3.48666726495139E-05
2	378	104.136492737081	0.202789306640625	0.20281982421875	1.1920166015625E-06	2.41764610109385E-07	170148.484375	3.49882830050774E-05
2	379	104.237200736826	0.212860107421875	0.212860107421875	1.16455078125E-06	2.47886390525309E-07	182783.015625	3.51069465978071E-05
2	380	104.337908736572	0.222930908203125	0.222930908203125	1.14013671875E-06	2.54171709457296E-07	195529.984375	3.52229981217533E-05
2	381	104.438616736318	0.233001708984375	0.23297119140625	1.1187744140625E-06	2.60642224247931E-07	208237.859375	3.53367431671359E-05
2	382	104.539324736064	0.243072509765625	0.243072509765625	1.09893798828125E-06	2.67121635033618E-07	221188.546875	3.54484145645984E-05
2	383	104.640032735809	0.253143310546875	0.253143310546875	1.08123779296875E-06	2.73708110398729E-07	234123.625	3.55581942130812E-05
2	384	104.740740735555	0.263214111328125	0.263214111328125	1.06536865234375E-06	2.80420067610976E-07	247063.875	3.56662822014187E-05
2	385	104.841448735301	0.273284912109375	0.273284912109375	1.051025390625E-06	2.87229369178021E-07	260017.421875	3.57728531525936E-05
2	386	104.942156735047	0.283355712890625	0.283355712890625	1.038818359375E-06	2.94355118057865E-07	272767.34375	3.58780853275675E-05
2	387	105.042864734792	0.293426513671875	0.29339599609375	1.0272216796875E-06	3.01382726775046E-07	285620.9375	3.59821169695351E-05
2	388	105.143572734538	0.303497314453125	0.303466796875	1.016845703125E-06	3.08578904650858E-07	298439.375	3.60850463039242E-05
2	389	105.244280734284	0.313568115234375	0.313629150390625	1.00799560546875E-06	3.16136805622591E-07	311141.375	3.61870042979717E-05
2	390	105.344988734029	0.323638916015625	0.32373046875	9.991455078125E-07	3.23453861028611E-07	324007.3125	3.62880709872115E-05
2	391	105.445696733775	0.333709716796875	0.333740234375	9.91210937500001E-07	3.30806955162188E-07	336699.53125	3.63882936653681E-05
2	392	105.546404733521	0.343780517578125	0.34381103515625	9.85107421875001E-07	3.38690796297669E-07	349008.6875	3.64878105756361E-05
2	393	105.647112733267	0.353851318359375	0.353851318359375	9.783935546875E-07	3.46205865753291E-07	361665.625	3.65866799256764E-05
2	394	105.747820733012	0.363922119140625	0.3638916015625	9.7320556640625E-07	3.54141292291388E-07	373910.34375	3.66849490092136E-05
2	395	105.848528732758	0.373992919921875	0.373992919921875	9.6893310546875E-07	3.62374123596965E-07	385984.25	3.67827451555058E-05
2	396	105.949236732504	0.384063720703125	0.384033203125	9.6405029296875E-07	3.7022732612968E-07	398353.90625	3.68800792784896E-05
2	397	106.04994473225	0.394134521484375	0.3941650390625	9.6160888671875E-07	3.79032599084894E-07	409901.625	3.6977042327635E-05
2	398	106.150652731995	0.404205322265625	0.40423583984375	9.59167480468751E-07	3.87729841122564E-07	421444.5	3.70737616322003E-05
2	399	106.251360731741	0.414276123046875	0.414215087890625	9.564208984375E-07	3.96163954974327E-07	433088.71875	3.71702190022916E-05
2	400	106.352068731487	0.424346923828125	0.424346923828125	9.552001953125E-07	4.05336265885126E-07	444249.1875	3.72664762835484E-05
2	401	106.452776731233	0.434417724609375	0.43438720703125	9.53369140625E-07	4.14131363868364E-07	455633.8125	3.73625807696953E-05
2	402	106.553484730978	0.444488525390625	0.4444580078125	9.521484375E-07	4.23189987941441E-07	466794.875	3.74585324607324E-05
2	403	106.654192730724	0.454559326171875	0.45452880859375	9.521484375E-07	4.32778875847362E-07	477371.8125	3.75544186681509E-05
2	404	106.75490073047	0.464630126953125	0.464599609375	9.521484375E-07	4.42367792174991E-07	487948.71875	3.76503085135482E-05
2	405	106.855608730216	0.474700927734375	0.4747314453125	9.5245361328125E-07	4.52159667929664E-07	498430	3.77462129108608E-05
2	406	106.956316729961	0.484771728515625	0.4847412109375	9.5245361328125E-07	4.61693502984417E-07	508939.4375	3.78421318600886E-05
2	407	107.057024729707	0.494842529296875	0.494781494140625	9.539794921875E-07	4.72011379315518E-07	518650.0625	3.79381308448501E-05
2	408	107.157732729453	0.504913330078125	0.504852294921875	9.5550537109375E-07	4.8238905492326E-07	528361.5625	3.80342789867427E-05
2	409	107.258440729198	0.514984130859375	0.5150146484375	9.57641601562501E-07	4.93199422635371E-07	537794.8125	3.81306163035333E-05
2	410	107.359148728944	0.525054931640625	0.525054931640625	9.5947265625E-07	5.03775879678869E-07	547232.8125	3.82271500711795E-05
2	411	107.45985672869	0.535125732421875	0.535064697265625	9.6282958984375E-07	5.15176111548499E-07	555721.125	3.83239457732998E-05
2	412	107.560564728436	0.545196533203125	0.545166015625	9.6588134765625E-07	5.26565656855382E-07	564423.375	3.84210616175551E-05
2	413	107.661272728181	0.555267333984375	0.55523681640625	9.6954345703125E-07	5.3832621915717E-07	572678.6875	3.85185194318183E-05
2	414	107.761980727927	0.565338134765625	0.56524658203125	9.747314453125E-07	5.50963591194886E-07	579899.8125	3.86164210794959E-05
2	415	107.862688727673	0.575408935546875	0.57537841796875	9.796142578125E-07	5.63648882234702E-07	587352.0625	3.87148320442066E-05
2	416	107.963396727419	0.585479736328125	0.58538818359375	9.86328124999999E-07	5.77384810185322E-07	593502.5	3.88138250855263E-05
2	417	108.064104727164	0.595550537109375	0.59552001953125	9.9456787109375E-07	5.92285061884468E-07	598772.6875	3.89135711884592E-05
2	418	108.16481272691	0.605621337890625	0.6055908203125	1.00555419921875E-06	6.089543944654E-07	602245.875	3.90142849937547E-05
2	419	108.265520726656	0.615692138671875	0.61566162109375	1.01837158203125E-06	6.26972280315385E-07	604555	3.91161956940778E-05
2	420	108.366228726402	0.625762939453125	0.62567138671875	1.03607177734375E-06	6.48240472855832E-07	603888.0625	3.92196452594362E-05
2	421	108.466936726147	0.635833740234375	0.63580322265625	1.05804443359375E-06	6.72708040383441E-07	600923	3.93250920751598E-05
2	422	108.567644725893	0.645904541015625	0.645904541015625	1.08551025390625E-06	7.01136002589919E-07	595023.9375	3.94330309063662E-05
2	423	108.668352725639	0.655975341796875	0.655914306640625	1.1199951171875E-06	7.34620812181674E-07	585640.3125	3.95440838474315E-05
2	424	108.769060725385	0.666046142578125	0.665985107421875	1.15875244140625E-06	7.71711825109378E-07	574743.25	3.96588293369859E-05
2	425	108.86976872513	0.676116943359375	0.67608642578125	1.20147705078125E-06	8.12302346275828E-07	562712.75	3.97776784666348E-05
2	426	108.970476724876	0.686187744140625	0.68609619140625	1.243896484375E-06	8.53432652547781E-07	551570.1875	3.99008094973397E-05
2	427	109.071184724622	0.696258544921875	0.69622802734375	1.2823486328125E-06	8.92807065611123E-07	542931.9375	4.00280187022872E-05
2	428	109.171892724367	0.706329345703125	0.70623779296875	1.31378173828125E-06	9.27842279452307E-07	537561	4.01587421947625E-05
2	429	109.272600724113	0.716400146484375	0.71636962890625	1.33697509765625E-06	9.57768293119443E-07	535813.75	4.02922196371946E-05
2	430	109.373308723859	0.726470947265625	0.7264404296875	1.35528564453125E-06	9.8453426744527E-07	536005.4375	4.04277852794621E-05
2	431	109.474016723605	0.736541748046875	0.736419677734375	1.36962890625E-06	1.00862166618754E-06	537678.25	4.05649952881504E-05
2	432	109.57472472335	0.746612548828125	0.74652099609375	1.38580322265625E-06	1.03453123756481E-06	538691.9375	4.07037441618741E-05
2	433	109.675432723096	0.756683349609375	0.75714111328125	1.40625E-06	1.06472975858196E-06	538411.4375	4.08443338528741E-05
2	434	109.776140722842	0.766754150390625	0.7666015625	1.43646240234375E-06	1.10119435703382E-06	533673.25	4.09874774049968E-05
2	435	109.876848722588	0.776824951171875	0.77728271484375	1.4813232421875E-06	1.15140699108451E-06	524721.875	4.11343971791212E-05
2	436	109.977556722333	0.786895751953125	0.78704833984375	1.5472412109375E-06	1.21775360639731E-06	508678.53125	4.12868976127356E-05
2	437	110.078264722079	0.796966552734375	0.797119140625	1.63787841796875E-06	1.30558419186855E-06	486677.84375	4.14472815464251E-05
2	438	110.178972721825	0.807037353515625	0.8074951171875	1.75872802734375E-06	1.42016426707414E-06	459135.875	4.16183138440829E-05
2	439	110.279680721571	0.817108154296875	0.81756591796875	1.9110107421875E-06	1.56237717874319E-06	427818.59375	4.18031013396103E-05
2	440	110.380388721316	0.827178955078125	0.8270263671875	2.0928955078125E-06	1.73087983057485E-06	395158.9375	4.20047144871205E-05
2	441	110.481096721062	0.837249755859375	0.83831787109375	2.29278564453125E-06	1.92208312910225E-06	365632.90625	4.22255507146474E-05
2	442	110.581804720808	0.847320556640625	0.84747314453125	2.49786376953125E-06	2.11687256523874E-06	339279.15625	4.2466777813388E-05
2	443	110.682512720554	0.857391357421875	0.8575439453125	2.68829345703125E-06	2.30532964451413E-06	318991.96875	4.27279228460975E-05
2	444	110.783220720299	0.867462158203125	0.8673095703125	2.8460693359375E-06	2.46842319029383E-06	304739.4375	4.30065992986783E-05
2	445	110.883928720045	0.877532958984375	0.87738037109375	2.95684814453125E-06	2.59428043136722E-06	296728.25	4.32987981184851E-05
2	446	110.984636719791	0.887603759765625	0.88775634765625	3.01727294921875E-06	2.67860309577372E-06	294224.75	4.35996189480647E-05
2	447	111.085344719536	0.897674560546875	0.8978271484375	3.03131103515625E-06	2.7215933187108E-06	296184.4375	4.39041905337945E-05
2	448	111.186052719282	0.907745361328125	0.90728759765625	3.0126953125E-06	2.73338105216681E-06	301154.78125	4.42085292888805E-05
2	449	111.286760719028	0.917816162109375	0.91827392578125	2.97210693359375E-06	2.72920829047507E-06	308963.96875	4.45098885393236E-05
2	450	111.387468718774	0.927886962890625	0.927734375	2.9229736328125E-06	2.71174303634325E-06	317394.03125	4.48067294200882E-05
2	451	111.488176718519	0.937957763671875	0.9375	2.87506103515625E-06	2.69536963060091E-06	326080.03125	4.5098684495315E-05
2	452	111.588884718265	0.948028564453125	0.9478759765625	2.83416748046875E-06	2.68643907475052E-06	334446	4.53861684945878E-05
2	453	111.689592718011	0.958099365234375	0.958251953125	2.80609130859375E-06	2.68894245891715E-06	341489.9375	4.56701782240998E-05
2	454	111.790300717757	0.968170166015625	0.96832275390625	2.79510498046875E-06	2.70656369139033E-06	346435.21875	4.59522198070772E-05
2	455	111.891008717502	0.978240966796875	0.9783935546875	2.802734375E-06	2.742177230175E-06	349085.375	4.62340940430295E-05
2	456	111.991716717248	0.988311767578125	0.98876953125	2.8289794921875E-06	2.7972087082162E-06	349514.5625	4.65176708530635E-05
2	457	112.092424716994	0.998382568359375	0.99822998046875	2.87109375E-06	2.86601198240533E-06	347682.8125	4.68046928290278E-05
2	458	112.19313271674	1.00845336914063	1.00830078125	2.92144775390625E-06	2.94569804282219E-06	345137.375	4.70963714178652E-05
2	459	112.293840716485	1.01852416992188	1.01837158203125	2.9718017578125E-06	3.0263984172052E-06	342678.1875	4.73931213491596E-05
2	460	112.394548716231	1.02859497070313	1.02813720703125	3.01177978515625E-06	3.09652273244865E-06	341372	4.7694418753963E-05
2	461	112.495256715977	1.03866577148438	1.03851318359375	3.033447265625E-06	3.15027500619181E-06	342354.125	4.79988193546887E-05
2	462	112.595964715723	1.04873657226563	1.048583984375	3.03436279296875E-06	3.18178399538738E-06	345569.75	4.83043586427812E-05
2	463	112.696672715468	1.05880737304688	1.0589599609375	3.0169677734375E-06	3.19484797728364E-06	351001.4375	4.86090648337267E-05
2	464	112.797380715214	1.06887817382813	1.0687255859375	2.984619140625E-06	3.18973866342276E-06	358077.71875	4.8911268095253E-05
2	465	112.89808871496	1.07894897460938	1.0784912109375	2.94342041015625E-06	3.17445301334374E-06	366407.46875	4.92097715323325E-05
2	466	112.998796714705	1.08901977539063	1.08917236328125	2.89794921875E-06	3.15636611958325E-06	375842.46875	4.95039057568647E-05
2	467	113.099504714451	1.09909057617188	1.0992431640625	2.8521728515625E-06	3.13523150907713E-06	385405.53125	4.97934488521423E-05
2	468	113.200212714197	1.10916137695313	1.10931396484375	2.8076171875E-06	3.11452890855435E-06	395108.6875	5.00784408359323E-05
2	469	113.300920713943	1.11923217773438	1.11907958984375	2.76641845703125E-06	3.09584243041172E-06	404522.90625	5.03591145388782E-05
2	470	113.401628713688	1.12930297851563	1.129150390625	2.72857666015625E-06	3.08097332890611E-06	413823.96875	5.0635811930988E-05
2	471	113.502336713434	1.13937377929688	1.13922119140625	2.694091796875E-06	3.06916649606137E-06	422859.09375	5.09088640683331E-05
2	472	113.60304471318	1.14944458007813	1.14990234375	2.66326904296875E-06	3.06249921777635E-06	431763.5	5.11786274728365E-05
2	473	113.703752712926	1.15951538085938	1.15966796875	2.635498046875E-06	3.05630260299949E-06	440018.53125	5.14454441145062E-05
2	474	113.804460712671	1.16958618164063	1.16943359375	2.61138916015625E-06	3.05384628518368E-06	447820.5	5.17096450494137E-05
2	475	113.905168712417	1.17965698242188	1.17950439453125	2.58941650390625E-06	3.05422804558475E-06	455509.71875	5.19715249538422E-05
2	476	114.005876712163	1.18972778320313	1.18988037109375	2.57110595703125E-06	3.05930825561518E-06	462789.34375	5.22313785040751E-05
2	477	114.106584711909	1.19979858398438	1.1993408203125	2.55462646484375E-06	3.06386777992884E-06	469477.96875	5.2489478548523E-05
2	478	114.207292711654	1.20986938476563	1.21002197265625	2.5408935546875E-06	3.07453706227534E-06	476219.0625	5.27460579178296E-05
2	479	114.3080007114	1.21994018554688	1.21978759765625	2.529296875E-06	3.08520498037979E-06	482263.53125	5.30013639945537E-05
2	480	114.408708711146	1.23001098632813	1.2298583984375	2.51953125E-06	3.09866641146073E-06	488129.875	5.32555932295509E-05
2	481	114.509416710892	1.24008178710938	1.23992919921875	2.51190185546875E-06	3.114580295005E-06	493621.6875	5.35089457116555E-05
2	482	114.610124710637	1.25015258789063	1.25030517578125	2.5054931640625E-06	3.13263103635109E-06	499025.59375	5.37615924258716E-05
2	483	114.710832710383	1.26022338867188	1.26007080078125	2.50213623046875E-06	3.15286865770759E-06	503598.03125	5.401374437497E-05
2	484	114.811540710129	1.27029418945313	1.27044677734375	2.50030517578125E-06	3.17650460601726E-06	508116.71875	5.4265638027573E-05
2	485	114.912248709874	1.28036499023438	1.280517578125	2.501220703125E-06	3.20285698762746E-06	511957.0625	5.45174843864515E-05
2	486	115.01295670962	1.29043579101563	1.290283203125	2.50457763671875E-06	3.23161452797649E-06	515169.96875	5.47695490240585E-05
2	487	115.113664709366	1.30050659179688	1.30035400390625	2.51007080078125E-06	3.26398048855481E-06	518054.71875	5.50220538571011E-05
2	488	115.214372709112	1.31057739257813	1.3104248046875	2.51800537109375E-06	3.29965655510023E-06	520421.8125	5.52752389921807E-05
2	489	115.315080708857	1.32064819335938	1.32110595703125	2.52777099609375E-06	3.33945308739203E-06	522636.75	5.55293117940892E-05
2	490	115.415788708603	1.33071899414063	1.33056640625	2.54119873046875E-06	3.38123368237575E-06	523597.9375	5.57845560251735E-05
2	491	115.516496708349	1.34078979492188	1.3409423828125	2.55645751953125E-06	3.42806220032799E-06	524531.4375	5.60412445338443E-05
2	492	115.617204708095	1.35086059570313	1.3507080078125	2.57293701171875E-06	3.47528634847549E-06	524967.4375	5.62995301152114E-05
2	493	115.71791270784	1.36093139648438	1.361083984375	2.59185791015625E-06	3.52773599843204E-06	525138.375	5.65595983061939E-05
2	494	115.818620707586	1.37100219726563	1.370849609375	2.61138916015625E-06	3.57982185050787E-06	524950.3125	5.68216019019019E-05
2	495	115.919328707332	1.38107299804688	1.38031005859375	2.63153076171875E-06	3.6323281165096E-06	524527.4375	5.70856027479749E-05
2	496	116.020036707078	1.39114379882813	1.3916015625	2.65380859375E-06	3.69304393643688E-06	524379.0625	5.73517427255865E-05
2	497	116.120744706823	1.40121459960938	1.40106201171875	2.6763916015625E-06	3.74979026673827E-06	523489.1875	5.76201382500585E-05
2	498	116.221452706569	1.41128540039063	1.4105224609375	2.69927978515625E-06	3.80739470529079E-06	522555.125	5.7890825701179E-05
2	499	116.322160706315	1.42135620117188	1.4208984375	2.72430419921875E-06	3.87095951737138E-06	521563.8125	5.81639251322486E-05
2	500	116.422868706061	1.43142700195313	1.431884765625	2.752685546875E-06	3.94152857552399E-06	520177.375	5.84397130296566E-05
2	501	116.523576705806	1.44149780273438	1.44134521484375	2.7874755859375E-06	4.01771467295475E-06	517079.0625	5.8718680520542E-05
2	502	116.624284705552	1.45156860351563	1.451416015625	2.83172607421875E-06	4.11001246902742E-06	512555.21875	5.90016315982211E-05
2	503	116.724992705298	1.46163940429688	1.4617919921875	2.8875732421875E-06	4.22103130404139E-06	506235.5	5.92896212765481E-05
2	504	116.825700705043	1.47171020507813	1.470947265625	2.957763671875E-06	4.35071433457779E-06	497317.375	5.95839555899147E-05
2	505	116.926408704789	1.48178100585938	1.48162841796875	3.04290771484375E-06	4.50845845989534E-06	486912.0625	5.98861151956953E-05
2	506	117.027116704535	1.49185180664063	1.49169921875	3.14483642578125E-06	4.69115002488252E-06	474332.84375	6.01976935286075E-05
2	507	117.127824704281	1.50192260742188	1.50177001953125	3.2598876953125E-06	4.89560125060962E-06	460681.53125	6.05201967118774E-05
2	508	117.228532704026	1.49185180664063	1.49139404296875	2.96356201171875E-06	4.41983866039664E-06	503243.78125	6.08335722063202E-05
2	509	117.329240703772	1.48178100585938	1.48162841796875	2.74688720703125E-06	4.06986600864911E-06	539384.5625	6.1121114413254E-05
2	510	117.429948703518	1.47171020507813	1.47186279296875	2.57568359375E-06	3.79105267711566E-06	571445.5	6.138913158793E-05
2	511	117.530656703264	1.46163940429688	1.46148681640625	2.43682861328125E-06	3.56139275936584E-06	599749.5625	6.16415272816084E-05
2	512	117.631364703009	1.45156860351563	1.45172119140625	2.32086181640625E-06	3.36924426846963E-06	625509.5625	6.1881095462013E-05
2	513	117.732072702755	1.44149780273438	1.441650390625	2.22442626953125E-06	3.20684489452105E-06	648099.875	6.21099679847248E-05
2	514	117.832780702501	1.43142700195313	1.43157958984375	2.14263916015625E-06	3.06735819322057E-06	668138.5	6.23298692516983E-05
2	515	117.933488702247	1.42135620117188	1.4208984375	2.0733642578125E-06	2.94603978545638E-06	685310.625	6.25421598670073E-05
2	516	118.034196701992	1.41128540039063	1.4105224609375	2.0135498046875E-06	2.840157094397E-06	700515.375	6.27479530521668E-05
2	517	118.134904701738	1.40121459960938	1.4013671875	1.962890625E-06	2.75073034572415E-06	713930.375	6.29481874057092E-05
2	518	118.235612701484	1.39114379882813	1.39129638671875	1.91864013671875E-06	2.6693969630287E-06	725147.1875	6.31436341791414E-05
2	519	118.33632070123	1.38107299804688	1.3812255859375	1.8804931640625E-06	2.5973852189054E-06	734501.8125	6.33349336567335E-05
2	520	118.437028700975	1.37100219726563	1.370849609375	1.846923828125E-06	2.53185476140061E-06	742234	6.3522624259349E-05
2	521	118.537736700721	1.36093139648438	1.361083984375	1.81671142578125E-06	2.47269667852379E-06	749202.125	6.37071061646566E-05
2	522	118.638444700467	1.35086059570313	1.35101318359375	1.7901611328125E-06	2.41853126681235E-06	754688.0625	6.38887286186218E-05
2	523	118.739152700212	1.34078979492188	1.3409423828125	1.76666259765625E-06	2.36899268202251E-06	759025.75	6.4067826315295E-05
2	524	118.839860699958	1.33071899414063	1.33026123046875	1.74468994140625E-06	2.32089337259822E-06	762462.8125	6.42446393612772E-05
2	525	118.940568699704	1.32064819335938	1.32049560546875	1.72454833984375E-06	2.27725831791759E-06	765705.1875	6.44193278276362E-05
2	526	119.04127669945	1.31057739257813	1.31072998046875	1.70623779296875E-06	2.23641700358712E-06	768198.9375	6.45920808892697E-05
2	527	119.141984699195	1.30050659179688	1.3006591796875	1.68853759765625E-06	2.19621188080055E-06	770287.4375	6.47630222374573E-05
2	528	119.242692698941	1.29043579101563	1.28997802734375	1.67205810546875E-06	2.15691807170515E-06	771491.1875	6.49322391836904E-05
2	529	119.343400698687	1.28036499023438	1.280517578125	1.6571044921875E-06	2.12195141102711E-06	772744	6.50998772471212E-05
2	530	119.444108698433	1.27029418945313	1.27044677734375	1.64276123046875E-06	2.08704068427323E-06	773360.625	6.52660382911563E-05
2	531	119.544816698178	1.26022338867188	1.26007080078125	1.62811279296875E-06	2.05153742172115E-06	773945.6875	6.54307368677109E-05
2	532	119.645524697924	1.25015258789063	1.25030517578125	1.61468505859375E-06	2.01884904527105E-06	774333.75	6.55940311844461E-05
2	533	119.74623269767	1.24008178710938	1.240234375	1.6015625E-06	1.98631278180983E-06	774390.3125	6.57559794490226E-05
2	534	119.846940697416	1.23001098632813	1.2298583984375	1.5887451171875E-06	1.95393135982158E-06	774106.875	6.59166253171861E-05
2	535	119.947648697161	1.21994018554688	1.2200927734375	1.575927734375E-06	1.9227779830544E-06	774206.0625	6.60759760648943E-05
2	536	120.048356696907	1.20986938476563	1.20941162109375	1.5631103515625E-06	1.89044385479065E-06	773721.1875	6.62340389681049E-05
2	537	120.149064696653	1.19979858398438	1.19964599609375	1.55120849609375E-06	1.86090107945347E-06	773362.1875	6.63908576825634E-05
2	538	120.249772696399	1.18972778320313	1.18927001953125	1.53900146484375E-06	1.83028828359966E-06	772754.3125	6.65464613121003E-05
2	539	120.350480696144	1.17965698242188	1.17889404296875	1.5264892578125E-06	1.79956907686574E-06	772291.125	6.67008207528852E-05
2	540	120.45118869589	1.16958618164063	1.16973876953125	1.514892578125E-06	1.77202855411451E-06	772159.5625	6.68539723847061E-05
2	541	120.551896695636	1.15951538085938	1.15966796875	1.50238037109375E-06	1.74226238414121E-06	771887.0625	6.70059016556479E-05
2	542	120.652604695381	1.14944458007813	1.14959716796875	1.48956298828125E-06	1.7123973066191E-06	771768.125	6.71565576340072E-05
2	543	120.753312695127	1.13937377929688	1.138916015625	1.475830078125E-06	1.68084648066724E-06	771712.1875	6.73058748361655E-05
2	544	120.854020694873	1.12930297851563	1.1297607421875	1.46026611328125E-06	1.64975131156098E-06	773667.75	6.74537222948857E-05
2	545	120.954728694619	1.11923217773438	1.11907958984375	1.44287109375E-06	1.61468756232352E-06	775592.25	6.75999035593122E-05
2	546	121.055436694364	1.10916137695313	1.10870361328125	1.42242431640625E-06	1.57704687353544E-06	779446.5	6.77441857988015E-05
2	547	121.15614469411	1.09909057617188	1.0992431640625	1.397705078125E-06	1.536417812531E-06	786462.875	6.78861906635575E-05
2	548	121.256852693856	1.08901977539063	1.08917236328125	1.36566162109375E-06	1.4874408407195E-06	797541.9375	6.80253360769711E-05
2	549	121.357560693602	1.07894897460938	1.0791015625	1.32659912109375E-06	1.43153511089622E-06	813434.5625	6.81609017192386E-05
2	550	121.458268693347	1.06887817382813	1.06842041015625	1.27532958984375E-06	1.36258802285738E-06	837760.3125	6.82919198879972E-05
2	551	121.558976693093	1.05880737304688	1.0589599609375	1.21124267578125E-06	1.28265742205258E-06	874275.6875	6.84171245666221E-05
2	552	121.659684692839	1.04873657226563	1.04827880859375	1.13250732421875E-06	1.18718344310764E-06	925626.5	6.85351478750817E-05
2	553	121.760392692585	1.03866577148438	1.038818359375	1.0400390625E-06	1.08041160729044E-06	998826.3125	6.8644541897811E-05
2	554	121.86110069233	1.02859497070313	1.02874755859375	9.3841552734375E-07	9.65392700891243E-07	1096260.25	6.87441643094644E-05
2	555	121.961808692076	1.01852416992188	1.01837158203125	8.3465576171875E-07	8.49989703510801E-07	1220109.75	6.8833447585348E-05
2	556	122.062516691822	1.00845336914063	1.00860595703125	7.3822021484375E-07	7.44573299016338E-07	1366267.125	6.89126463839784E-05
2	557	122.163224691568	0.998382568359375	0.99822998046875	6.5948486328125E-07	6.58317560464639E-07	1513651.125	6.89830267219804E-05
2	558	122.263932691313	0.988311767578125	0.98876953125	6.03332519531249E-07	5.96556844811857E-07	1638846.75	6.90466113155708E-05
2	559	122.364640691059	0.978240966796875	0.9783935546875	5.706787109375E-07	5.58348347112769E-07	1714438.5	6.9105728471186E-05
2	560	122.465348690805	0.968170166015625	0.968017578125	5.55419921875E-07	5.37656205779058E-07	1742857.25	6.9162437284831E-05
2	561	122.56605669055	0.958099365234375	0.9576416015625	5.48706054687501E-07	5.25463747180765E-07	1745272.5	6.92180328769609E-05
2	562	122.666764690296	0.948028564453125	0.94818115234375	5.413818359375E-07	5.13328075157915E-07	1751409.25	6.92729227012023E-05
2	563	122.767472690042	0.937957763671875	0.93780517578125	5.28564453124999E-07	4.95690471780108E-07	1774249.5	6.93268011673354E-05
2	564	122.868180689788	0.927886962890625	0.927734375	5.01403808593751E-07	4.65169534891174E-07	1850273.875	6.93786641932093E-05
2	565	122.968888689533	0.917816162109375	0.9173583984375	4.5440673828125E-07	4.16853822571284E-07	2018804.625	6.94267873768695E-05
2	566	123.069596689279	0.907745361328125	0.90789794921875	3.8116455078125E-07	3.46058499189894E-07	2381905.5	6.94688642397523E-05
2	567	123.170304689025	0.897674560546875	0.8978271484375	2.75573730468751E-07	2.47417546006545E-07	3258029	6.95019334671088E-05
2	568	123.271012688771	0.887603759765625	0.88775634765625	1.3427734375E-07	1.19205566306846E-07	6611363.5	6.95225680829026E-05
2	569	123.371720688516	0.877532958984375	0.87799072265625	-4.2724609375E-08	-3.75118105466754E-08	-20550000	6.952718104003E-05
2	570	123.472428688262	0.867462158203125	0.867919921875	-2.45361328125E-07	-2.12953978007135E-07	-3537313.5	6.95126727805473E-05
2	571	123.573136688008	0.857391357421875	0.85784912109375	-4.61730957031251E-07	-3.96095487076309E-07	-1857898.25	6.94770715199411E-05
2	572	123.673844687754	0.847320556640625	0.84716796875	-6.683349609375E-07	-5.66191999951116E-07	-1267579.875	6.94201662554406E-05
2	573	123.774552687499	0.837249755859375	0.83770751953125	-8.45947265625E-07	-7.08656330061785E-07	-990259.8125	6.93439142196439E-05
2	574	123.875260687245	0.827178955078125	0.82763671875	-9.765625E-07	-8.08238951321982E-07	-847500.0625	6.92521425662562E-05
2	575	123.975968686991	0.817108154296875	0.8172607421875	-1.05499267578125E-06	-8.62204046825354E-07	-774660.1875	6.91498498781584E-05
2	576	124.076676686737	0.807037353515625	0.80780029296875	-1.08062744140625E-06	-8.72931138928834E-07	-747529	6.90423112246208E-05
2	577	124.177384686482	0.796966552734375	0.79681396484375	-1.0662841796875E-06	-8.49630112043087E-07	-747281.0625	6.89342050463893E-05
2	578	124.278092686228	0.786895751953125	0.78704833984375	-1.02264404296875E-06	-8.04870296633453E-07	-769621	6.88290238031186E-05
2	579	124.378800685974	0.776824951171875	0.77728271484375	-9.63439941406249E-07	-7.48865204514004E-07	-806778.625	6.87290157657117E-05
2	580	124.479508685719	0.766754150390625	0.7672119140625	-8.98132324218751E-07	-6.89057799263537E-07	-854230.375	6.86352723278105E-05
2	581	124.580216685465	0.756683349609375	0.7568359375	-8.3282470703125E-07	-6.30311660643201E-07	-908757.8125	6.85481136315502E-05
2	582	124.680924685211	0.746612548828125	0.74652099609375	-7.74230957031249E-07	-5.779796765637E-07	-964209.6875	6.84671904309653E-05
2	583	124.781632684957	0.736541748046875	0.736480712890625	-7.244873046875E-07	-5.33570926108951E-07	-1016554.375	6.8391724198591E-05
2	584	124.882340684702	0.726470947265625	0.726409912109375	-6.85729980468749E-07	-4.98121039527177E-07	-1059323.625	6.83207181282341E-05
2	585	124.983048684448	0.716400146484375	0.71630859375	-6.58264160156249E-07	-4.7152025217656E-07	-1088178.125	6.82530444464646E-05
2	586	125.083756684194	0.706329345703125	0.706268310546875	-6.40869140625E-07	-4.52625556590647E-07	-1102047.625	6.81876263115555E-05
2	587	125.18446468394	0.696258544921875	0.6961669921875	-6.32629394531251E-07	-4.40415703906183E-07	-1100434.125	6.81234960211441E-05
2	588	125.285172683685	0.686187744140625	0.686126708984375	-6.2835693359375E-07	-4.31132463063477E-07	-1091937.875	6.80600060150027E-05
2	589	125.385880683431	0.676116943359375	0.676055908203125	-6.24694824218749E-07	-4.22328611193734E-07	-1082217.875	6.79969089105725E-05
2	590	125.486588683177	0.666046142578125	0.666046142578125	-6.1798095703125E-07	-4.11603821248718E-07	-1077777.75	6.79343356750906E-05
2	591	125.587296682923	0.655975341796875	0.6558837890625	-6.0546875E-07	-3.97117133843494E-07	-1083266.125	6.78727301419713E-05
2	592	125.688004682668	0.645904541015625	0.645843505859375	-5.865478515625E-07	-3.78818128865532E-07	-1101092.625	6.78127034916542E-05
2	593	125.788712682414	0.635833740234375	0.635772705078125	-5.62438964843751E-07	-3.57583331833666E-07	-1130385.25	6.77548523526639E-05
2	594	125.88942068216	0.625762939453125	0.625762939453125	-5.33142089843749E-07	-3.33620562287251E-07	-1173726.375	6.76996787660755E-05
2	595	125.990128681906	0.615692138671875	0.61566162109375	-5.02624511718749E-07	-3.09446619439768E-07	-1224893.75	6.76475247018971E-05
2	596	126.090836681651	0.605621337890625	0.6055908203125	-4.718017578125E-07	-2.85718812165214E-07	-1283570.5	6.75984629197046E-05
2	597	126.191544681397	0.595550537109375	0.595550537109375	-4.4097900390625E-07	-2.62625263758309E-07	-1350519	6.75525006954558E-05
2	598	126.292252681143	0.585479736328125	0.585418701171875	-4.107666015625E-07	-2.40470455992181E-07	-1425185.75	6.75096089253202E-05
2	599	126.392960680888	0.575408935546875	0.575347900390625	-3.8177490234375E-07	-2.19653387034668E-07	-1507034.375	6.74697002978064E-05
2	600	126.493668680634	0.565338134765625	0.5653076171875	-3.5369873046875E-07	-1.99948573254005E-07	-1598274.5	6.74326656735502E-05
2	601	126.59437668038	0.555267333984375	0.55523681640625	-3.2623291015625E-07	-1.8113651378826E-07	-1701964.5	6.73984322929755E-05
2	602	126.695084680126	0.545196533203125	0.545135498046875	-2.98156738281249E-07	-1.62535812364695E-07	-1828352.25	6.73669928801246E-05
2	603	126.795792679871	0.535125732421875	0.53515625	-2.716064453125E-07	-1.45351876312816E-07	-1970337.125	6.73383037792519E-05
2	604	126.896500679617	0.525054931640625	0.524993896484375	-2.46276855468749E-07	-1.29293837858313E-07	-2131722.5	6.7312219471205E-05
2	605	126.997208679363	0.514984130859375	0.515045166015625	-2.215576171875E-07	-1.14112175708669E-07	-2324655.75	6.72886671964079E-05
2	606	127.097916679109	0.504913330078125	0.504913330078125	-1.9805908203125E-07	-1.00002672809296E-07	-2549306.5	6.72675378154963E-05
2	607	127.198624678854	0.494842529296875	0.494781494140625	-1.77001953125E-07	-8.75772911967942E-08	-2795344.75	6.72486494295299E-05
2	608	127.2993326786	0.484771728515625	0.484710693359375	-1.5838623046875E-07	-7.67714993799018E-08	-3060308.25	6.72317619319074E-05
2	609	127.400040678346	0.474700927734375	0.474700927734375	-1.416015625E-07	-6.72183944061544E-08	-3352370.75	6.72166570439003E-05
2	610	127.500748678092	0.464630126953125	0.464630126953125	-1.26953125E-07	-5.89862452216039E-08	-3659855.75	6.72031310386956E-05
2	611	127.601456677837	0.454559326171875	0.454559326171875	-1.13830566406251E-07	-5.174274519959E-08	-3993297.5	6.71910092933103E-05
2	612	127.702164677583	0.444488525390625	0.444488525390625	-1.0223388671875E-07	-4.54417872219892E-08	-4347761.5	6.71801317366771E-05
2	613	127.802872677329	0.434417724609375	0.4344482421875	-9.18579101562497E-08	-3.99075048562736E-08	-4729568.5	6.71703528496437E-05
2	614	127.903580677075	0.424346923828125	0.424468994140625	-8.17871093750006E-08	-3.47160913349853E-08	-5189925.5	6.7161614424549E-05
2	615	128.00428867682	0.414276123046875	0.414306640625	-7.35473632812497E-08	-3.047115981758E-08	-5633195	6.71537927701138E-05
2	616	128.104996676566	0.404205322265625	0.40423583984375	-6.62231445312494E-08	-2.67697686240354E-08	-6104147.5	6.71467496431433E-05
2	617	128.205704676312	0.394134521484375	0.3941650390625	-5.85937499999994E-08	-2.30956072044819E-08	-6727083.5	6.71404704917222E-05
2	618	128.306412676057	0.384063720703125	0.384063720703125	-5.09643554687494E-08	-1.95735587738E-08	-7535928.5	6.71349480398931E-05
2	619	128.407120675803	0.373992919921875	0.373992919921875	-4.45556640624997E-08	-1.6663502577785E-08	-8393836	6.71301386319101E-05
2	620	128.507828675549	0.363922119140625	0.363922119140625	-3.78417968750003E-08	-1.37714666337274E-08	-9616935	6.712599133607E-05
2	621	128.608536675295	0.353851318359375	0.3538818359375	-3.17382812500003E-08	-1.12316014266867E-08	-11150000	6.71224916004576E-05
2	622	128.70924467504	0.343780517578125	0.343780517578125	-2.65502929687494E-08	-9.12747299963712E-09	-12948276	6.71195521135814E-05
2	623	128.809952674786	0.333709716796875	0.33367919921875	-2.13623046875E-08	-7.12815628745034E-09	-15620001	6.71171437716112E-05
2	624	128.910660674532	0.323638916015625	0.32366943359375	-1.64794921875003E-08	-5.33390753787444E-09	-19640742	6.71152374707162E-05
2	625	129.011368674278	0.313568115234375	0.3135986328125	-1.25122070312497E-08	-3.92381060976277E-09	-25063416	6.71137750032358E-05
2	626	129.112076674023	0.303497314453125	0.30340576171875	-8.85009765625028E-09	-2.68517053036987E-09	-34282760	6.71126981615089E-05
2	627	129.212784673769	0.293426513671875	0.293365478515625	-5.18798828124945E-09	-1.5219766558161E-09	-56547060	6.71119923936203E-05
2	628	129.313492673515	0.283355712890625	0.2833251953125	-2.44140625000056E-09	-6.91711909972526E-10	-116050000	6.71116067678668E-05
2	629	129.414200673261	0.273284912109375	0.27325439453125	6.10351562499445E-10	1.66781241595082E-10	447700000	6.71115194563754E-05
2	630	129.514908673006	0.263214111328125	0.26318359375	2.74658203125028E-09	7.22855331147798E-10	95822224	6.71116868034005E-05
2	631	129.615616672752	0.253143310546875	0.253082275390625	4.57763671875E-09	1.15851861437477E-09	55286668	6.71120578772388E-05
2	632	129.716324672498	0.243072509765625	0.24310302734375	5.79833984375028E-09	1.40959388605921E-09	41926316	6.71125744702294E-05
2	633	129.817032672243	0.233001708984375	0.233001708984375	6.71386718749945E-09	1.56434243336889E-09	34704548	6.71132074785419E-05
2	634	129.917740671989	0.222930908203125	0.222900390625	7.01904296875056E-09	1.56454738053924E-09	31756524	6.71138986945152E-05
2	635	130.018448671735	0.212860107421875	0.212921142578125	6.71386718749945E-09	1.42952416570807E-09	31713638	6.71145899104886E-05
2	636	130.119156671481	0.202789306640625	0.20281982421875	5.79833984375028E-09	1.17601817173352E-09	34978948	6.7115222918801E-05
2	637	130.219864671226	0.192718505859375	0.1927490234375	4.57763671875E-09	8.82334982854616E-10	42106668	6.71157395117916E-05
2	638	130.320572670972	0.182647705078125	0.18267822265625	3.05175781249722E-10	5.57489679420264E-11	598600000	6.71159868943505E-05
2	639	130.421280670718	0.172576904296875	0.172607421875	-3.96728515625056E-09	-6.84782841542386E-10	-43507692	6.71158049954101E-05
2	640	130.521988670464	0.162506103515625	0.16253662109375	-1.19018554687503E-08	-1.93448745910985E-09	-13656410	6.71150046400726E-05
2	641	130.622696670209	0.152435302734375	0.152496337890625	-2.25830078125003E-08	-3.44382589112513E-09	-6752703	6.71132656862028E-05
2	642	130.723404669955	0.142364501953125	0.142425537109375	-3.78417968750003E-08	-5.38963851326457E-09	-3763709.75	6.71102243359201E-05
2	643	130.824112669701	0.132293701171875	0.13238525390625	-6.01196289062494E-08	-7.95895171989969E-09	-2202030.5	6.71052912366576E-05
2	644	130.924820669447	0.122222900390625	0.122222900390625	-9.09423828125006E-08	-1.11152411719218E-08	-1343959.75	6.70976878609508E-05
2	645	131.025528669192	0.112152099609375	0.112152099609375	-1.35192871093751E-07	-1.51621630806176E-08	-829571.125	6.70863009872846E-05
2	646	131.126236668938	0.102081298828125	0.10211181640625	-1.9683837890625E-07	-2.00995238230917E-08	-518759.71875	6.70695808366872E-05
2	647	131.226944668684	0.092010498046875	0.092071533203125	-2.8350830078125E-07	-2.61030432824327E-08	-324757.8125	6.70453955535777E-05
2	648	131.32765266843	0.081939697265625	0.08203125	-3.9947509765625E-07	-3.27694422708191E-08	-205347.59375	6.70110021019354E-05
2	649	131.428360668175	0.071868896484375	0.07196044921875	-5.5419921875E-07	-3.98804260726138E-08	-129845.8125	6.69629807816818E-05
2	650	131.529068667921	0.061798095703125	0.061859130859375	-7.4737548828125E-07	-4.62319960092827E-08	-82768.484375	6.68974389554933E-05
2	651	131.629776667667	0.051727294921875	0.051727294921875	-9.783935546875E-07	-5.06096533570144E-08	-52869.6171875	6.68105421937071E-05
2	652	131.730484667412	0.041656494140625	0.0417633056640625	-1.2371826171875E-06	-5.16688345442162E-08	-33756.78515625	6.66989799356088E-05
2	653	131.831192667158	0.031585693359375	0.03167724609375	-1.50543212890625E-06	-4.7687944260133E-08	-21041.962890625	6.6560874984134E-05
2	654	131.931900666904	0.021514892578125	0.021612548828125	-1.75567626953125E-06	-3.79446376541637E-08	-12310.099609375	6.63966711726971E-05
2	655	132.03260866665	0.011444091796875	0.011566162109375	-1.9635009765625E-06	-2.27101697447551E-08	-5890.58154296875	6.62093952996656E-05
2	656	132.133316666395	0.001373291015625	0.00147705078125	-2.10968017578125E-06	-3.11610470760115E-09	-700.130249023438	6.60042933304794E-05
2	657	132.234024666141	-0.008697509765625	-0.00858459472656251	-2.18719482421875E-06	1.87761788339458E-08	3924.93383789063	6.57879281789064E-05
2	658	132.334732665887	-0.018768310546875	-0.0186492919921875	-2.2021484375E-06	4.10685068175098E-08	8468.6806640625	6.55669064144604E-05
2	659	132.435440665633	-0.028839111328125	-0.028668212890625	-2.1697998046875E-06	6.22042790610067E-08	13212.3779296875	6.5346757764928E-05
2	660	132.536148665378	-0.038909912109375	-0.038787841796875	-2.1063232421875E-06	8.16997243191508E-08	18414.953125	6.51314403512515E-05
2	661	132.636856665124	-0.048980712890625	-0.04881591796875	-2.0281982421875E-06	9.90083535157282E-08	24068.61328125	6.49232533760369E-05
2	662	132.73756466487	-0.059051513671875	-0.05902099609375	-1.94488525390625E-06	1.14789067140464E-07	30346.775390625	6.47231936454773E-05
2	663	132.838272664616	-0.069122314453125	-0.069091796875	-1.86248779296875E-06	1.28682614786158E-07	37096.51171875	6.45314721623436E-05
2	664	132.938980664361	-0.079193115234375	-0.07916259765625	-1.78680419921875E-06	1.41448069257422E-07	44304.01171875	6.43477178527974E-05
2	665	133.039688664107	-0.089263916015625	-0.089202880859375	-1.7181396484375E-06	1.5326300228935E-07	51918.296875	6.41712322249077E-05
2	666	133.140396663853	-0.099334716796875	-0.0992431640625	-1.65771484375E-06	1.64516862355413E-07	59867.453125	6.40012440271676E-05
2	667	133.241104663599	-0.109405517578125	-0.109283447265625	-1.60491943359375E-06	1.75391122070323E-07	68092.796875	6.38369529042393E-05
2	668	133.341812663344	-0.119476318359375	-0.119354248046875	-1.558837890625E-06	1.86053924267071E-07	76566.171875	6.36776458122768E-05
2	669	133.44252066309	-0.129547119140625	-0.129425048828125	-1.51947021484375E-06	1.96657495621366E-07	85177.75	6.35226388112642E-05
2	670	133.543228662836	-0.139617919921875	-0.139556884765625	-1.48651123046875E-06	2.07452870881752E-07	93882.1640625	6.33712770650163E-05
2	671	133.643936662581	-0.149688720703125	-0.149566650390625	-1.45904541015625E-06	2.18224528225619E-07	102509.9375	6.32229566690512E-05
2	672	133.744644662327	-0.159759521484375	-0.159637451171875	-1.43646240234375E-06	2.29313201316472E-07	111132.3515625	6.30771610303782E-05
2	673	133.845352662073	-0.169830322265625	-0.169708251953125	-1.41754150390625E-06	2.40568482468007E-07	119720.125	6.29334463155828E-05
2	674	133.946060661819	-0.179901123046875	-0.1798095703125	-1.4031982421875E-06	2.52308467452167E-07	128142.671875	6.27914123469964E-05
2	675	134.046768661564	-0.189971923828125	-0.1898193359375	-1.39312744140625E-06	2.6444251943758E-07	136254.109375	6.26506080152467E-05
2	676	134.14747666131	-0.200042724609375	-0.19989013671875	-1.38702392578125E-06	2.77252382829829E-07	144114.421875	6.25106113147922E-05
2	677	134.248184661056	-0.189971923828125	-0.1898193359375	-1.2255859375E-06	2.32639905561882E-07	154880.484375	6.23790620011277E-05
