Potential - Start -0.2 V, Upper Vertex 1.5 V, Lower Vertex -0.2 V, Stop -0.19 V; Scan - # end cross 5, Rate 0.1 Vps, Step 0.01 V 
Scan	Index	Time (s)	Potential applied (V)	WE(1).Potential (V)	WE(1).Current (A)	WE(1).Power (W)	WE(1).Resistance (Ω)	WE(1).Charge (C)
1	1	66.163575832953	-0.189971923828125	-0.1898193359375	-3.021240234375E-07	5.73489806754424E-08	628282.8125	0
1	2	66.2642838326988	-0.179901123046875	-0.17974853515625	-2.667236328125E-07	4.79431783162454E-08	673913.0625	-2.8643754035329E-08
1	3	66.3649918324445	-0.169830322265625	-0.169708251953125	-2.38037109375E-07	4.03968591911052E-08	712948.75	-5.40604752075069E-08
1	4	66.4656998321902	-0.159759521484375	-0.15966796875	-2.14538574218751E-07	3.4254938441336E-08	744239	-7.68494743397241E-08
1	5	66.566407831936	-0.149688720703125	-0.1495361328125	-1.9378662109375E-07	2.89781016959978E-08	771653.5625	-9.74102789541575E-08
1	6	66.6671158316817	-0.139617919921875	-0.139495849609375	-1.7425537109375E-07	2.4307899693099E-08	800525.4375	-1.1594266169368E-07
1	7	66.7678238314274	-0.129547119140625	-0.12945556640625	-1.5594482421875E-07	2.01879242212044E-08	830137	-1.3256956776786E-07
1	8	66.8685318311732	-0.119476318359375	-0.11932373046875	-1.36413574218749E-07	1.62773758916046E-08	874720.375	-1.47290975860415E-07
1	9	66.9692398309189	-0.109405517578125	-0.109283447265625	-1.177978515625E-07	1.28733548265814E-08	927720.25	-1.6009154535368E-07
1	10	67.0699478306647	-0.099334716796875	-0.0992431640625	-9.70458984375006E-08	9.63114210605909E-09	1022641.5	-1.70909785879303E-07
1	11	67.1706558304104	-0.089263916015625	-0.089202880859375	-7.41577148437506E-08	6.61508137156375E-09	1202880.75	-1.79530573518605E-07
1	12	67.2713638301561	-0.079193115234375	-0.079071044921875	-4.63867187499994E-08	3.66784624894478E-09	1704605.375	-1.85600455893109E-07
1	13	67.3720718299019	-0.069122314453125	-0.069122314453125	-1.220703125E-08	8.43778213965862E-10	5662500	-1.8855088512737E-07
1	14	67.4727798296476	-0.059051513671875	-0.0589599609375	3.23486328124997E-08	-1.90727389437484E-09	-1822641.625	-1.87536684848055E-07
1	15	67.5734878293933	-0.048980712890625	-0.0488433837890625	9.06372070312494E-08	-4.42702807745832E-09	-538888.875	-1.81343850158555E-07
1	16	67.6741958291391	-0.038909912109375	-0.0387969970703125	1.68457031249999E-07	-6.53562670649421E-09	-230308	-1.68297418667862E-07
1	17	67.7749038288848	-0.028839111328125	-0.0287628173828125	2.7313232421875E-07	-7.85605447362059E-09	-105307.265625	-1.46061637451567E-07
1	18	67.8756118286306	-0.018768310546875	-0.0186767578125	4.107666015625E-07	-7.6717885377775E-09	-45468.0546875	-1.11624586907055E-07
1	19	67.9763198283763	-0.008697509765625	-0.0085906982421875	5.865478515625E-07	-5.03885555502848E-09	-14646.2021484375	-6.14058137671236E-08
1	20	68.077027828122	0.001373291015625	0.00144348144531251	8.02001953125001E-07	1.15767484487606E-09	1799.84777832031	8.51322123907039E-09
1	21	68.1777358278678	0.011444091796875	0.011517333984375	1.0504150390625E-06	1.20979803952537E-08	10964.5556640625	1.01789822792853E-07
1	22	68.2784438276135	0.021514892578125	0.02161865234375	1.31622314453125E-06	2.84549717122218E-08	16424.763671875	2.20959520902397E-07
1	23	68.3791518273592	0.031585693359375	0.0316558837890625	1.57623291015625E-06	4.98970464946069E-08	20083.25390625	3.66606258239699E-07
1	24	68.479859827105	0.041656494140625	0.0417266845703125	1.802978515625E-06	7.52323146002709E-08	23143.197265625	5.36763025138498E-07
1	25	68.5805678268507	0.051727294921875	0.051727294921875	1.97509765625E-06	1.0216645307537E-07	26189.7421875	7.27004305645096E-07
1	26	68.6812758265964	0.061798095703125	0.0618896484375	2.081298828125E-06	1.28810853539107E-07	29736.0703125	9.3126010369815E-07
1	27	68.7819838263422	0.071868896484375	0.0718994140625	2.1234130859375E-06	1.52672143372001E-07	33860.3046875	1.14298416065139E-06
1	28	68.8826918260879	0.081939697265625	0.08197021484375	2.1142578125E-06	1.73306162309927E-07	38770.20703125	1.35636776121828E-06
1	29	68.9833998258337	0.092010498046875	0.092071533203125	2.0684814453125E-06	1.9044824739467E-07	44511.66015625	1.56698547471024E-06
1	30	69.0841078255794	0.102081298828125	0.10211181640625	2.0025634765625E-06	2.04485388621833E-07	50990.5546875	1.77197887296643E-06
1	31	69.1848158253251	0.112152099609375	0.112213134765625	1.92657470703125E-06	2.16186975876553E-07	58244.89453125	1.96982659872447E-06
1	32	69.2855238250709	0.122222900390625	0.12225341796875	1.849365234375E-06	2.26091216859459E-07	66105.609375	2.15996033148258E-06
1	33	69.3862318248166	0.132293701171875	0.132354736328125	1.77490234375E-06	2.34916726071788E-07	74570.1484375	2.34245658248255E-06
1	34	69.4869398245623	0.142364501953125	0.142364501953125	1.7059326171875E-06	2.42864246047247E-07	83452.59375	2.51773076342943E-06
1	35	69.5876478243081	0.152435302734375	0.152496337890625	1.64306640625E-06	2.50561612347155E-07	92812.0390625	2.68636608780071E-06
1	36	69.6883558240538	0.162506103515625	0.16259765625	1.58660888671875E-06	2.57978882700627E-07	102481.25	2.84899329017207E-06
1	37	69.7890638237996	0.172576904296875	0.172576904296875	1.53594970703125E-06	2.65069445504196E-07	112358.4375	3.0062265068409E-06
1	38	69.8897718235453	0.182647705078125	0.182647705078125	1.49078369140625E-06	2.72288218639005E-07	122517.9140625	3.15863462674315E-06
1	39	69.990479823291	0.192718505859375	0.192718505859375	1.45050048828125E-06	2.79538284075898E-07	132863.453125	3.30674015458499E-06
1	40	70.0911878230368	0.202789306640625	0.20281982421875	1.4141845703125E-06	2.86824672457442E-07	143418.21875	3.4509885153966E-06
1	41	70.1918958227825	0.212860107421875	0.212921142578125	1.38214111328125E-06	2.94287048063779E-07	154051.671875	3.59179466613568E-06
1	42	70.2926038225282	0.222930908203125	0.222900390625	1.3531494140625E-06	3.0161751851665E-07	164727.109375	3.7295274069038E-06
1	43	70.393311822274	0.233001708984375	0.23297119140625	1.32720947265625E-06	3.09201567461059E-07	175534.609375	3.86449437428382E-06
1	44	70.4940198220197	0.243072509765625	0.243072509765625	1.30401611328125E-06	3.16970471203604E-07	186403	3.996986833954E-06
1	45	70.5947278217654	0.253143310546875	0.253082275390625	1.2823486328125E-06	3.24539712437399E-07	197358.390625	4.12722056353232E-06
1	46	70.6954358215112	0.263214111328125	0.263214111328125	1.263427734375E-06	3.32552019699506E-07	208333.328125	4.25541065851576E-06
1	47	70.7961438212569	0.273284912109375	0.2733154296875	1.2457275390625E-06	3.40476560722891E-07	219402.265625	4.38175675299135E-06
1	48	70.8968518210027	0.283355712890625	0.28338623046875	1.22955322265625E-06	3.48438447872468E-07	230479.03125	4.50639709015377E-06
1	49	70.9975598207484	0.293426513671875	0.29339599609375	1.21490478515625E-06	3.56448168759016E-07	241497.125	4.62948537460761E-06
1	50	71.0982678204941	0.303497314453125	0.303436279296875	1.202392578125E-06	3.64849540801515E-07	252360.40625	4.75120577902999E-06
1	51	71.1989758202399	0.313568115234375	0.31353759765625	1.190185546875E-06	3.73167921452477E-07	263435.90625	4.87168199470034E-06
1	52	71.2996838199856	0.323638916015625	0.32366943359375	1.17950439453125E-06	3.81769496016204E-07	274411.40625	4.99100497108884E-06
1	53	71.4003918197313	0.333709716796875	0.333770751953125	1.17034912109375E-06	3.90628287050276E-07	285189.0625	5.10932977704215E-06
1	54	71.5010998194771	0.343780517578125	0.343780517578125	1.16180419921875E-06	3.9940564988683E-07	295902.28125	5.22676282344037E-06
1	55	71.6018078192228	0.353851318359375	0.35382080078125	1.15447998046875E-06	4.08479024827102E-07	306476.34375	5.34339687874308E-06
1	56	71.7025158189685	0.363922119140625	0.363922119140625	1.1474609375E-06	4.17586420553562E-07	317154.25	5.45930879525258E-06
1	57	71.8032238187143	0.373992919921875	0.373992919921875	1.1419677734375E-06	4.27087883281274E-07	327498.65625	5.57459088668111E-06
1	58	71.90393181846	0.384063720703125	0.38409423828125	1.1370849609375E-06	4.36747768617352E-07	337788.53125	5.68935047340347E-06
1	59	72.0046398182058	0.394134521484375	0.394134521484375	1.13311767578125E-06	4.46600779469009E-07	347831.96875	5.8036639529746E-06
1	60	72.1053478179515	0.404205322265625	0.404205322265625	1.1297607421875E-06	4.56655271818818E-07	357779.59375	5.91760908719152E-06
1	61	72.2060558176972	0.414276123046875	0.41424560546875	1.12701416015625E-06	4.66860655023993E-07	367560.25	6.03124681219924E-06
1	62	72.306763817443	0.424346923828125	0.424346923828125	1.12548828125E-06	4.77597438930388E-07	377033.65625	6.14466944170999E-06
1	63	72.4074718171887	0.434417724609375	0.43438720703125	1.124267578125E-06	4.88367447815108E-07	386373.5	6.25795337327872E-06
1	64	72.5081798169344	0.444488525390625	0.44451904296875	1.124267578125E-06	4.99758357364044E-07	395385.46875	6.37117636870244E-06
1	65	72.6088878166802	0.454559326171875	0.45452880859375	1.12396240234375E-06	5.10873292114411E-07	404398.59375	6.48438344796887E-06
1	66	72.7095958164259	0.464630126953125	0.464630126953125	1.12457275390625E-06	5.22510333667014E-07	413161.5	6.59760644339258E-06
1	67	72.8103038161717	0.474700927734375	0.47467041015625	1.1260986328125E-06	5.34525668172137E-07	421517.625	6.7109367591911E-06
1	68	72.9110118159174	0.484771728515625	0.484771728515625	1.1285400390625E-06	5.4708431207473E-07	429556.53125	6.82446670907666E-06
1	69	73.0117198156631	0.494842529296875	0.494781494140625	1.1322021484375E-06	5.60192631837708E-07	437008.09375	6.93830406817142E-06
1	70	73.1124278154089	0.504913330078125	0.5048828125	1.1370849609375E-06	5.74094656258239E-07	444015.03125	7.05257161826012E-06
1	71	73.2131358151546	0.514984130859375	0.5150146484375	1.14471435546875E-06	5.89544640661188E-07	449906.6875	7.16746944817714E-06
1	72	73.3138438149003	0.525054931640625	0.525054931640625	1.15447998046875E-06	6.06165372118994E-07	454797.78125	7.28324312149198E-06
1	73	73.4145518146461	0.535125732421875	0.535064697265625	1.1676025390625E-06	6.24742881427665E-07	458259.3125	7.40016912459396E-06
1	74	73.5152598143918	0.545196533203125	0.545166015625	1.18621826171875E-06	6.46685862193408E-07	459583.21875	7.5186935646343E-06
1	75	73.6159678141375	0.555267333984375	0.555206298828125	1.2127685546875E-06	6.73336728596041E-07	457800.71875	7.63949174142908E-06
1	76	73.7166758138833	0.565338134765625	0.565277099609375	1.24969482421875E-06	7.06423861629446E-07	452332.09375	7.76348679210059E-06
1	77	73.817383813629	0.575408935546875	0.57537841796875	1.30218505859375E-06	7.49249181808409E-07	441856.09375	7.89198475104058E-06
1	78	73.9180918133748	0.585479736328125	0.585479736328125	1.3714599609375E-06	8.02962006218877E-07	426902.5625	8.02661270427052E-06
1	79	74.0187998131205	0.595550537109375	0.595489501953125	1.4654541015625E-06	8.72662496931298E-07	406351.53125	8.16946339909919E-06
1	80	74.1195078128662	0.605621337890625	0.6055908203125	1.58905029296875E-06	9.62314288699417E-07	381102.375	8.32326986710541E-06
1	81	74.220215812612	0.615692138671875	0.615631103515625	1.75628662109375E-06	1.08122458186699E-06	350530	8.49172101879958E-06
1	82	74.3209238123577	0.625762939453125	0.625701904296875	1.9805908203125E-06	1.23925940442859E-06	315916.8125	8.67988728714408E-06
1	83	74.4216318121034	0.635833740234375	0.63580322265625	2.2796630859375E-06	1.44941714097513E-06	278902.28125	8.89440798346186E-06
1	84	74.5223398118492	0.645904541015625	0.6458740234375	2.66448974609375E-06	1.72092472894292E-06	242400.640625	9.14336578716757E-06
1	85	74.6230478115949	0.655975341796875	0.655975341796875	3.14117431640625E-06	2.06053277906904E-06	208831.25	9.43570466915844E-06
1	86	74.7237558113407	0.666046142578125	0.665924072265625	3.70361328125E-06	2.46632521339052E-06	179803.890625	9.78036678134231E-06
1	87	74.8244638110864	0.676116943359375	0.67608642578125	4.32373046875E-06	2.92321556116804E-06	156366.453125	1.01845753306407E-05
1	88	74.9251718108321	0.686187744140625	0.686126708984375	4.9652099609375E-06	3.40676319865452E-06	138186.84375	1.06523111753631E-05
1	89	75.0258798105779	0.696258544921875	0.69610595703125	5.5755615234375E-06	3.8811813283246E-06	124849.484375	1.11830813693814E-05
1	90	75.1265878103236	0.706329345703125	0.70623779296875	6.103515625E-06	4.31053331340081E-06	115710.0078125	1.17711688290001E-05
1	91	75.2272958100693	0.716400146484375	0.716217041015625	6.500244140625E-06	4.65558559881174E-06	110183.1015625	1.24058187793707E-05
1	92	75.3280038098151	0.726470947265625	0.726318359375	6.73828125E-06	4.89413741888711E-06	107789.859375	1.30724320115405E-05
1	93	75.4287118095608	0.736541748046875	0.73638916015625	6.82373046875E-06	5.02492093801266E-06	107915.921875	1.37553333843243E-05
1	94	75.5294198093065	0.746612548828125	0.746429443359375	6.781005859375E-06	5.06154219692689E-06	110076.515625	1.44403857120778E-05
1	95	75.6301278090523	0.756683349609375	0.7568359375	6.6497802734375E-06	5.0327926146565E-06	113813.6796875	1.51166796058533E-05
1	96	75.730835808798	0.766754150390625	0.7672119140625	6.4727783203125E-06	4.96599250254803E-06	118529	1.57774538820377E-05
1	97	75.8315438085438	0.776824951171875	0.7769775390625	6.2896728515625E-06	4.88693467559642E-06	123532.265625	1.64200937433634E-05
1	98	75.9322518082895	0.786895751953125	0.7867431640625	6.1248779296875E-06	4.81870574731147E-06	128450.421875	1.7045216736733E-05
1	99	76.0329598080352	0.796966552734375	0.797119140625	5.999755859375E-06	4.78252013635938E-06	132858.609375	1.76557405211497E-05
1	100	76.133667807781	0.807037353515625	0.806884765625	5.92041015625E-06	4.77708863400039E-06	136288.671875	1.8255967006553E-05
1	101	76.2343758075267	0.817108154296875	0.81756591796875	5.8990478515625E-06	4.82286031910917E-06	138592.859375	1.88511239684885E-05
1	102	76.3350838072724	0.827178955078125	0.82733154296875	5.9417724609375E-06	4.91581567985122E-06	139239.859375	1.9447357772151E-05
1	103	76.4357918070182	0.837249755859375	0.83740234375	6.0394287109375E-06	5.05743173562223E-06	138655.890625	2.00506583496463E-05
1	104	76.5364998067639	0.847320556640625	0.84747314453125	6.1798095703125E-06	5.23722246725811E-06	137135.796875	2.06659460673109E-05
1	105	76.6372078065097	0.857391357421875	0.85723876953125	6.33544921875E-06	5.43099258720758E-06	135308.28125	2.12961404031375E-05
1	106	76.7379158062554	0.867462158203125	0.8673095703125	6.48193359375E-06	5.62184277441702E-06	133804.15625	2.19415451283567E-05
1	107	76.8386238060011	0.877532958984375	0.877685546875	6.585693359375E-06	5.78016761210165E-06	133271.5625	2.2599553631153E-05
1	108	76.9393318057469	0.887603759765625	0.88775634765625	6.6314697265625E-06	5.88712919125101E-06	133870.234375	2.32650909310905E-05
1	109	77.0400398054926	0.897674560546875	0.8978271484375	6.6162109375E-06	5.94021366850939E-06	135701.109375	2.39321634580847E-05
1	110	77.1407478052383	0.907745361328125	0.90789794921875	6.549072265625E-06	5.9458893701958E-06	138630.015625	2.45950886892388E-05
1	111	77.2414558049841	0.917816162109375	0.91796875	6.439208984375E-06	5.91099251323612E-06	142559.25	2.52491008723155E-05
1	112	77.3421638047298	0.927886962890625	0.9283447265625	6.31103515625E-06	5.85881616643746E-06	147098.640625	2.58911259152228E-05
1	113	77.4428718044755	0.937957763671875	0.93780517578125	6.1737060546875E-06	5.78973322262755E-06	151903.109375	2.65197832050035E-05
1	114	77.5435798042213	0.948028564453125	0.94818115234375	6.0333251953125E-06	5.7206848396163E-06	157157.3125	2.71344561042497E-05
1	115	77.644287803967	0.958099365234375	0.958251953125	5.902099609375E-06	5.65569825994316E-06	162357.8125	2.77354520221706E-05
1	116	77.7449958037128	0.968170166015625	0.9686279296875	5.77392578125E-06	5.59278578293743E-06	167758.984375	2.83233875961741E-05
1	117	77.8457038034585	0.978240966796875	0.9783935546875	5.657958984375E-06	5.53571044292767E-06	172923.421875	2.88990286207991E-05
1	118	77.9464118032042	0.988311767578125	0.9881591796875	5.5511474609375E-06	5.48541720490903E-06	178009.90625	2.94634519377723E-05
1	119	78.04711980295	0.998382568359375	0.99853515625	5.45654296875E-06	5.44854992767796E-06	182997.765625	3.00177325698314E-05
1	120	78.1478278026957	1.00845336914063	1.00830078125	5.3680419921875E-06	5.41260078534833E-06	187834	3.05627945635933E-05
1	121	78.2485358024414	1.01852416992188	1.0186767578125	5.28564453125E-06	5.38436324859504E-06	192725.171875	3.10992509184871E-05
1	122	78.3492438021872	1.02859497070313	1.029052734375	5.21240234375E-06	5.36383686267072E-06	197423.890625	3.16278674290515E-05
1	123	78.4499518019329	1.03866577148438	1.0382080078125	5.1422119140625E-06	5.33868524144054E-06	201899.125	3.21492625516839E-05
1	124	78.5506598016786	1.04873657226563	1.04888916015625	5.078125E-06	5.32639023731463E-06	206550.484375	3.26638983096927E-05
1	125	78.6513678014244	1.05880737304688	1.05865478515625	5.0201416015625E-06	5.31459681951674E-06	210881.46875	3.31723858835176E-05
1	126	78.7520758011701	1.06887817382813	1.06903076171875	4.96490478515625E-06	5.30763600181672E-06	215317.484375	3.36751727445517E-05
1	127	78.8527838009159	1.07894897460938	1.07940673828125	4.91455078125E-06	5.30479883309454E-06	219634.875	3.41726445185486E-05
1	128	78.9534918006616	1.08901977539063	1.08917236328125	4.86785888671875E-06	5.30193756276276E-06	223747.71875	3.46652268490288E-05
1	129	79.0541998004073	1.09909057617188	1.09893798828125	4.8248291015625E-06	5.30218767380575E-06	227767.25	3.51532944478095E-05
1	130	79.1549078001531	1.10916137695313	1.10931396484375	4.78424072265625E-06	5.30722491021152E-06	231868.359375	3.56371492671315E-05
1	131	79.2556157998988	1.11923217773438	1.11907958984375	4.74639892578125E-06	5.31159776073764E-06	235774.46875	3.6117053241469E-05
1	132	79.3563237996445	1.12930297851563	1.129150390625	4.7113037109375E-06	5.31977002538042E-06	239668.359375	3.65932864951901E-05
1	133	79.4570317993903	1.13937377929688	1.138916015625	4.6783447265625E-06	5.32824196852744E-06	243444.21875	3.7066092772875E-05
1	134	79.557739799136	1.14944458007813	1.14898681640625	4.647216796875E-06	5.33959109816351E-06	247241.921875	3.7535672163358E-05
1	135	79.6584477988818	1.15951538085938	1.1590576171875	4.61822509765625E-06	5.35278877578094E-06	250974.703125	3.80022247554734E-05
1	136	79.7591557986275	1.16958618164063	1.16973876953125	4.591064453125E-06	5.37034566150396E-06	254785.96875	3.84659506380558E-05
1	137	79.8598637983732	1.17965698242188	1.1798095703125	4.5660400390625E-06	5.38705762664904E-06	258387.921875	3.89270462619606E-05
1	138	79.960571798119	1.18972778320313	1.190185546875	4.5428466796875E-06	5.40683004146558E-06	261991.140625	3.93857153540011E-05
1	139	80.0612797978647	1.19979858398438	1.1993408203125	4.521484375E-06	5.42280076842871E-06	265253.78125	3.98421398131177E-05
1	140	80.1619877976104	1.20986938476563	1.21002197265625	4.501953125E-06	5.44746171726729E-06	268777.125	4.02965051762294E-05
1	141	80.2626957973562	1.21994018554688	1.2200927734375	4.48333740234375E-06	5.47008767171064E-06	272139.40625	4.07489533245098E-05
1	142	80.3634037971019	1.23001098632813	1.22955322265625	4.46624755859375E-06	5.49148899153806E-06	275298.9375	4.11996006732807E-05
1	143	80.4641117968476	1.24008178710938	1.240234375	4.45159912109375E-06	5.52102619622019E-06	278604.25	4.16486473113764E-05
1	144	80.5648197965934	1.25015258789063	1.25030517578125	4.43817138671875E-06	5.54906864635996E-06	281716.28125	4.2096282413695E-05
1	145	80.6655277963391	1.26022338867188	1.259765625	4.4256591796875E-06	5.57529301659088E-06	284650.40625	4.25426151196007E-05
1	146	80.7662357960849	1.27029418945313	1.2701416015625	4.41497802734375E-06	5.6076469263644E-06	287689.21875	4.29877763963304E-05
1	147	80.8669437958306	1.28036499023438	1.28082275390625	4.40582275390625E-06	5.64307765671401E-06	290711.375	4.34319372288883E-05
1	148	80.9676517955763	1.29043579101563	1.290283203125	4.3988037109375E-06	5.67570214116131E-06	293325.9375	4.38752867921721E-05
1	149	81.0683597953221	1.30050659179688	1.30096435546875	4.39422607421875E-06	5.71673126614769E-06	296062.25	4.4318050640868E-05
1	150	81.1690677950678	1.31057739257813	1.31072998046875	4.3914794921875E-06	5.75604371988447E-06	298471.1875	4.47604434157256E-05
1	151	81.2697757948135	1.32064819335938	1.32049560546875	4.39178466796875E-06	5.79933202971006E-06	300674.0625	4.52027161372826E-05
1	152	81.3704837945593	1.33071899414063	1.33056640625	4.39544677734375E-06	5.84843337492202E-06	302714.71875	4.56451889476739E-05
1	153	81.471191794305	1.34078979492188	1.3409423828125	4.4024658203125E-06	5.90345234741108E-06	304588.96875	4.60882001789287E-05
1	154	81.5718997940508	1.35086059570313	1.35101318359375	4.412841796875E-06	5.96180689171888E-06	306154.9375	4.65320845250972E-05
1	155	81.6726077937965	1.36093139648438	1.36077880859375	4.4256591796875E-06	6.02234285906889E-06	307474.84375	4.69771403004415E-05
1	156	81.7733157935422	1.37100219726563	1.37054443359375	4.44061279296875E-06	6.08605705565424E-06	308638.5625	4.74235930596478E-05
1	157	81.874023793288	1.38107299804688	1.38092041015625	4.45587158203125E-06	6.15320368524408E-06	309910.28125	4.78715664939955E-05
1	158	81.9747317930337	1.39114379882813	1.3909912109375	4.47265625E-06	6.22142533757142E-06	310998.90625	4.83211515529547E-05
1	159	82.0754397927794	1.40121459960938	1.4007568359375	4.48974609375E-06	6.28904263066943E-06	311990.21875	4.87724464619532E-05
1	160	82.1761477925252	1.41128540039063	1.4111328125	4.50592041015625E-06	6.35845208307728E-06	313173.03125	4.9225414841203E-05
1	161	82.2768557922709	1.42135620117188	1.422119140625	4.52117919921875E-06	6.42965551378438E-06	314546.0625	4.96799621032551E-05
1	162	82.3775637920166	1.43142700195313	1.43096923828125	4.5355224609375E-06	6.49019284537644E-06	315502.625	5.01360045745969E-05
1	163	82.4782717917624	1.44149780273438	1.441650390625	4.54833984375E-06	6.55711573926965E-06	316961.90625	5.05934149259701E-05
1	164	82.5789797915081	1.45156860351563	1.451416015625	4.55963134765625E-06	6.61792182654608E-06	318318.71875	5.10520367242862E-05
1	165	82.6796877912539	1.46163940429688	1.4617919921875	4.5697021484375E-06	6.6799539126805E-06	319887.8125	5.15117353643291E-05
1	166	82.7803957909996	1.47171020507813	1.4715576171875	4.5794677734375E-06	6.73895056024776E-06	321338.125	5.19724308105651E-05
1	167	82.8811037907453	1.48178100585938	1.48193359375	4.58953857421875E-06	6.80139146425063E-06	322893.8125	5.24341267009731E-05
1	168	82.9818117904911	1.49185180664063	1.49139404296875	4.6014404296875E-06	6.86256043991307E-06	324114.625	5.28969321749173E-05
1	169	83.0825197902368	1.50192260742188	1.5020751953125	4.61578369140625E-06	6.93325364409247E-06	325421.5	5.33610545971896E-05
1	170	83.1832277899825	1.49185180664063	1.49169921875	4.43267822265625E-06	6.61222247799742E-06	336523.25	5.38166823389474E-05
1	171	83.2839357897283	1.48178100585938	1.48193359375	4.300537109375E-06	6.37311040918576E-06	344592.6875	5.42564339411911E-05
1	172	83.384643789474	1.47171020507813	1.4715576171875	4.19525146484375E-06	6.1735540839436E-06	350767.46875	5.46842311450746E-05
1	173	83.4853517892197	1.46163940429688	1.461181640625	4.1064453125E-06	6.00026260144659E-06	355826.375	5.51022530999035E-05
1	174	83.5860597889655	1.45156860351563	1.4520263671875	4.029541015625E-06	5.85099951422308E-06	360345.375	5.55119331693277E-05
1	175	83.6867677887112	1.44149780273438	1.441650390625	3.96209716796875E-06	5.71195914744749E-06	363860.4375	5.59143445570953E-05
1	176	83.787475788457	1.43142700195313	1.4306640625	3.90167236328125E-06	5.58198235012242E-06	366679.71875	5.63103167223744E-05
1	177	83.8881837882027	1.42135620117188	1.4215087890625	3.8482666015625E-06	5.47034505871125E-06	369389.375	5.67005554330535E-05
1	178	83.9888917879484	1.41128540039063	1.4111328125	3.79852294921875E-06	5.36022025698912E-06	371495.15625	5.70856027479749E-05
1	179	84.0895997876942	1.40121459960938	1.4013671875	3.75335693359375E-06	5.25983114130213E-06	373363.6875	5.74658697587438E-05
1	180	84.1903077874399	1.39114379882813	1.39129638671875	3.71185302734375E-06	5.16428781338618E-06	374825.28125	5.7841774832923E-05
1	181	84.2910157871856	1.38107299804688	1.3812255859375	3.6724853515625E-06	5.07253071191371E-06	376101.0625	5.82136053708382E-05
1	182	84.3917237869314	1.37100219726563	1.370849609375	3.63616943359375E-06	4.98464123666054E-06	377003.78125	5.85816269449424E-05
1	183	84.4924317866771	1.36093139648438	1.36077880859375	3.6016845703125E-06	4.90109596285038E-06	377817.3125	5.89460796618368E-05
1	184	84.5931397864229	1.35086059570313	1.35040283203125	3.5693359375E-06	4.82004134028102E-06	378334.5	5.93071708863135E-05
1	185	84.6938477861686	1.34078979492188	1.3409423828125	3.5382080078125E-06	4.74453281640308E-06	378989.15625	5.96650643274188E-05
1	186	84.7945557859143	1.33071899414063	1.33087158203125	3.50860595703125E-06	4.66950405098032E-06	379316.34375	6.00198982283473E-05
1	187	84.8952637856601	1.32064819335938	1.32049560546875	3.48052978515625E-06	4.59602415503468E-06	379395.03125	6.03718290221877E-05
1	188	84.9959717854058	1.31057739257813	1.31072998046875	3.45245361328125E-06	4.52523408966954E-06	379651.75	6.07209331064951E-05
1	189	85.0966797851515	1.30050659179688	1.30035400390625	3.42620849609375E-06	4.45528394266148E-06	379531.5	6.10673014307395E-05
1	190	85.1973877848973	1.29043579101563	1.290283203125	3.40057373046875E-06	4.38770302935154E-06	379431.03125	6.14110540482216E-05
1	191	85.298095784643	1.28036499023438	1.280517578125	3.375244140625E-06	4.32205933975638E-06	379385.1875	6.17522455286235E-05
1	192	85.3988037843887	1.27029418945313	1.26983642578125	3.35174560546875E-06	4.25616872234968E-06	378858.25	6.20909777353518E-05
1	193	85.4995117841345	1.26022338867188	1.2603759765625	3.328857421875E-06	4.19561183662154E-06	378621.21875	6.24273743596859E-05
1	194	85.6002197838802	1.25015258789063	1.25030517578125	3.3062744140625E-06	4.13385168940295E-06	378161.375	6.27614790573716E-05
1	195	85.700927783626	1.24008178710938	1.23992919921875	3.284912109375E-06	4.07305833505234E-06	377461.90625	6.30933718639426E-05
1	196	85.8016357833717	1.23001098632813	1.23016357421875	3.26324462890625E-06	4.01432453145389E-06	376975.59375	6.34230964351445E-05
1	197	85.9023437831174	1.21994018554688	1.21978759765625	3.2427978515625E-06	3.95552433474222E-06	376152.84375	6.37507037026808E-05
1	198	86.0030517828632	1.20986938476563	1.20941162109375	3.22235107421875E-06	3.89714887205628E-06	375319.625	6.40762445982546E-05
1	199	86.1037597826089	1.19979858398438	1.199951171875	3.2025146484375E-06	3.84286113330745E-06	374690.3125	6.43997627776116E-05
1	200	86.2044677823546	1.18972778320313	1.18927001953125	3.1842041015625E-06	3.7868783238082E-06	373490.53125	6.47213601041585E-05
1	201	86.3051757821004	1.17965698242188	1.1798095703125	3.16558837890625E-06	3.73479156223766E-06	372698.34375	6.50411020615138E-05
1	202	86.4058837818461	1.16958618164063	1.16973876953125	3.14727783203125E-06	3.68149289897701E-06	371666.84375	6.53589740977623E-05
1	203	86.5065917815919	1.15951538085938	1.15936279296875	3.1298828125E-06	3.62866967407172E-06	370417.3125	6.56750562484376E-05
1	204	86.6072997813376	1.14944458007813	1.14990234375	3.11279296875E-06	3.57940780304489E-06	369411.78125	6.59893994452432E-05
1	205	86.7080077810833	1.13937377929688	1.138916015625	3.095703125E-06	3.52574579665088E-06	367902.21875	6.63020255160518E-05
1	206	86.8087157808291	1.12930297851563	1.12945556640625	3.07952880859375E-06	3.47819104717928E-06	366762.46875	6.66129708406515E-05
1	207	86.9094237805748	1.11923217773438	1.119384765625	3.0633544921875E-06	3.4290721941943E-06	365411.4375	6.69222863507457E-05
1	208	87.0101317803205	1.10916137695313	1.10931396484375	3.0474853515625E-06	3.38061795446265E-06	364009.625	6.72299938742071E-05
1	209	87.1108397800663	1.09909057617188	1.09893798828125	3.03131103515625E-06	3.33122284246201E-06	362528.9375	6.75360861350782E-05
1	210	87.211547779812	1.08901977539063	1.08856201171875	3.016357421875E-06	3.28349210576562E-06	360886.28125	6.78406140650623E-05
1	211	87.3122557795577	1.07894897460938	1.07879638671875	3.0010986328125E-06	3.23757421938353E-06	359467.15625	6.81436140439473E-05
1	212	87.4129637793035	1.06887817382813	1.06842041015625	2.98583984375E-06	3.19013201988128E-06	357829.125	6.84450787957758E-05
1	213	87.5136717790492	1.05880737304688	1.05865478515625	2.97119140625E-06	3.14546605295618E-06	356306.5	6.87450374243781E-05
1	214	87.614379778795	1.04873657226563	1.04827880859375	2.95562744140625E-06	3.09832171296875E-06	354672.1875	6.90434826537967E-05
1	215	87.7150877785407	1.03866577148438	1.038818359375	2.9400634765625E-06	3.05419189317035E-06	353331.9375	6.9340349000413E-05
1	216	87.8157957782864	1.02859497070313	1.02813720703125	2.92449951171875E-06	3.0067867555772E-06	351560.0625	6.96356582920998E-05
1	217	87.9165037780322	1.01852416992188	1.0186767578125	2.9083251953125E-06	2.96264306598459E-06	350262.34375	6.9929359597154E-05
1	218	88.0172117777779	1.00845336914063	1.00799560546875	2.890625E-06	2.91373726213351E-06	348712	7.02213583281264E-05
1	219	88.1179197775236	0.998382568359375	0.99822998046875	2.8717041015625E-06	2.86662111648184E-06	347608.9375	7.05115162418224E-05
1	220	88.2186277772694	0.988311767578125	0.9881591796875	2.850341796875E-06	2.81659117717936E-06	346680.96875	7.07996441633441E-05
1	221	88.3193357770151	0.978240966796875	0.97808837890625	2.82501220703125E-06	2.76311152447306E-06	346224.46875	7.10854219505563E-05
1	222	88.4200437767608	0.968170166015625	0.968017578125	2.79510498046875E-06	2.70571058536007E-06	346326.03125	7.136842032196E-05
1	223	88.5207517765066	0.958099365234375	0.958251953125	2.757568359375E-06	2.64244522441004E-06	347498.875	7.16480208211578E-05
1	224	88.6214597762523	0.948028564453125	0.948486328125	2.70965576171875E-06	2.57007150139543E-06	350039.40625	7.19233139534481E-05
1	225	88.7221677759981	0.937957763671875	0.93841552734375	2.64678955078125E-06	2.48378819378559E-06	354548.625	7.21930337022059E-05
1	226	88.8228757757438	0.927886962890625	0.92742919921875	2.56256103515625E-06	2.37659378399258E-06	361915	7.24553465261124E-05
1	227	88.9235837754895	0.917816162109375	0.91766357421875	2.45208740234375E-06	2.25019130084547E-06	374237.71875	7.2707851359155E-05
1	228	89.0242917752353	0.907745361328125	0.9075927734375	2.30804443359375E-06	2.09476456802804E-06	393230.1875	7.29475432308391E-05
1	229	89.124999774981	0.897674560546875	0.8978271484375	2.1234130859375E-06	1.90645778275211E-06	422822.6875	7.31706822989509E-05
1	230	89.2257077747267	0.887603759765625	0.88775634765625	1.89971923828125E-06	1.68648784892866E-06	467309.25	7.33732667868026E-05
1	231	89.3264157744725	0.877532958984375	0.87799072265625	1.63848876953125E-06	1.43857789680624E-06	535854	7.35514258849435E-05
1	232	89.4271237742182	0.867462158203125	0.86761474609375	1.35650634765625E-06	1.17692491130583E-06	639595.0625	7.37022419343702E-05
1	233	89.527831773964	0.857391357421875	0.8575439453125	1.07452392578125E-06	9.21451430713205E-07	798068.75	7.38246526452713E-05
1	234	89.6285397737097	0.847320556640625	0.84716796875	8.1939697265625E-07	6.94166885750747E-07	1033892	7.39200186217204E-05
1	235	89.7292477734554	0.837249755859375	0.83770751953125	6.11267089843751E-07	5.12063024871168E-07	1370444.375	7.39920578780584E-05
1	236	89.8299557732012	0.827178955078125	0.8270263671875	4.6356201171875E-07	3.83377994239709E-07	1784068.5	7.40461764507927E-05
1	237	89.9306637729469	0.817108154296875	0.81695556640625	3.753662109375E-07	3.06657511828234E-07	2176422.75	7.40884206607006E-05
1	238	90.0313717726926	0.807037353515625	0.8074951171875	3.35083007812501E-07	2.70577885430612E-07	2409836	7.41241965442896E-05
1	239	90.1320797724384	0.796966552734375	0.797119140625	3.25927734375001E-07	2.59803215385546E-07	2445693	7.41574840503745E-05
1	240	90.2327877721841	0.786895751953125	0.78704833984375	3.2379150390625E-07	2.54839562785492E-07	2430726	7.41901967558078E-05
1	241	90.3334957719298	0.776824951171875	0.77728271484375	3.070068359375E-07	2.38631088222974E-07	2531809.25	7.42219635867514E-05
1	242	90.4342037716756	0.766754150390625	0.7672119140625	2.55432128906249E-07	1.95970571326143E-07	3003584.25	7.42502816137858E-05
1	243	90.5349117714213	0.756683349609375	0.7568359375	1.5106201171875E-07	1.14329161249316E-07	5010101	7.42707488825545E-05
1	244	90.6356197711671	0.746612548828125	0.74652099609375	-2.25830078125003E-08	-1.68586886672983E-08	-33056758	7.42772172088735E-05
1	245	90.7363277709128	0.736541748046875	0.7364501953125	-2.80151367187501E-07	-2.06317537276846E-07	-2628758.25	7.42619740776718E-05
1	246	90.8370357706585	0.726470947265625	0.726409912109375	-6.29272460937499E-07	-4.5710973495261E-07	-1154364.75	7.42161792004481E-05
1	247	90.9377437704043	0.716400146484375	0.716400146484375	-1.0699462890625E-06	-7.66509685945493E-07	-669566.4375	7.41306212148629E-05
1	248	91.03845177015	0.706329345703125	0.70623779296875	-1.58416748046875E-06	-1.11879887754185E-06	-445810.0625	7.39969764254056E-05
1	249	91.1391597698957	0.696258544921875	0.696197509765625	-2.1417236328125E-06	-1.49106267599564E-06	-325064.125	7.38093585823663E-05
1	250	91.2398677696415	0.686187744140625	0.686126708984375	-2.69256591796875E-06	-1.84744135367509E-06	-254822.625	7.35659341444261E-05
1	251	91.3405757693872	0.676116943359375	0.6761474609375	-3.18878173828125E-06	-2.15608656617405E-06	-212039.4375	7.32697881176136E-05
1	252	91.441283769133	0.666046142578125	0.665985107421875	-3.5809326171875E-06	-2.38484767578484E-06	-185980.90625	7.29289022274315E-05
1	253	91.5419917688787	0.655975341796875	0.655975341796875	-3.83575439453125E-06	-2.51616029345314E-06	-171016	7.25554418750107E-05
1	254	91.6426997686244	0.645904541015625	0.64599609375	-3.944091796875E-06	-2.54786777986737E-06	-163788.3125	7.21636970411055E-05
1	255	91.7434077683702	0.635833740234375	0.63580322265625	-3.92120361328125E-06	-2.49311392508389E-06	-162144.90625	7.17676448402926E-05
1	256	91.8441157681159	0.625762939453125	0.625762939453125	-3.8006591796875E-06	-2.37831159211055E-06	-164645.90625	7.13788249413483E-05
1	257	91.9448237678616	0.615692138671875	0.61572265625	-3.6199951171875E-06	-2.22891299017647E-06	-170089.375	7.10051608621143E-05
1	258	92.0455317676074	0.605621337890625	0.605621337890625	-3.4100341796875E-06	-2.06518939194211E-06	-177599.78125	7.0651170972269E-05
1	259	92.1462397673531	0.595550537109375	0.59552001953125	-3.19427490234375E-06	-1.90225455298787E-06	-186433.5625	7.03186160535552E-05
1	260	92.2469477670988	0.585479736328125	0.58544921875	-2.9852294921875E-06	-1.74770025296311E-06	-196115.3125	7.0007452450227E-05
1	261	92.3476557668446	0.575408935546875	0.575439453125	-2.7899169921875E-06	-1.60542822413845E-06	-206256.84375	6.97166542522609E-05
1	262	92.4483637665903	0.565338134765625	0.56536865234375	-2.6104736328125E-06	-1.47587991250475E-06	-216577.046875	6.94447226123884E-05
1	263	92.5490717663361	0.555267333984375	0.5552978515625	-2.44903564453125E-06	-1.35994412175933E-06	-226741.453125	6.91899549565278E-05
1	264	92.6497797660818	0.545196533203125	0.545135498046875	-2.30377197265625E-06	-1.25586780086451E-06	-236627.375	6.89506341586821E-05
1	265	92.7504877658275	0.535125732421875	0.53515625	-2.1734619140625E-06	-1.1631416327873E-06	-246222.984375	6.87251886120066E-05
1	266	92.8511957655733	0.525054931640625	0.5250244140625	-2.056884765625E-06	-1.07991468212276E-06	-255252.21875	6.85121704009362E-05
1	267	92.951903765319	0.514984130859375	0.514984130859375	-1.9512939453125E-06	-1.00488534826582E-06	-263919.3125	6.83103426126763E-05
1	268	93.0526117650647	0.504913330078125	0.504913330078125	-1.856689453125E-06	-9.37467234507494E-07	-271942.8125	6.81185993016697E-05
1	269	93.1533197648105	0.494842529296875	0.49481201171875	-1.7706298828125E-06	-8.76128922300268E-07	-279455.375	6.79359436617233E-05
1	270	93.2540277645562	0.484771728515625	0.484771728515625	-1.69219970703125E-06	-8.20330569695216E-07	-286474.3125	6.7761582613457E-05
1	271	93.3547357643019	0.474700927734375	0.474639892578125	-1.62078857421875E-06	-7.69290920743515E-07	-292845.03125	6.7594759457279E-05
1	272	93.4554437640477	0.464630126953125	0.464599609375	-1.55487060546875E-06	-7.22392258012405E-07	-298802.75	6.74348484608345E-05
1	273	93.5561517637934	0.454559326171875	0.45452880859375	-1.49505615234375E-06	-6.7954607629872E-07	-304021.21875	6.72812748234719E-05
1	274	93.6568597635392	0.444488525390625	0.4444580078125	-1.43951416015625E-06	-6.39803545254836E-07	-308755.5625	6.71335074002855E-05
1	275	93.7575677632849	0.434417724609375	0.434356689453125	-1.38824462890625E-06	-6.02993338816304E-07	-312881.9375	6.69911169097759E-05
1	276	93.8582757630306	0.424346923828125	0.424346923828125	-1.3409423828125E-06	-5.69024791730044E-07	-316454.25	6.68536958983168E-05
1	277	93.9589837627764	0.414276123046875	0.414276123046875	-1.29669189453125E-06	-5.37188441285252E-07	-319486.9375	6.67208805680275E-05
1	278	94.0596917625221	0.404205322265625	0.40423583984375	-1.2554931640625E-06	-5.07515323988628E-07	-321973.78125	6.65923653286882E-05
1	279	94.1603997622678	0.394134521484375	0.3941650390625	-1.217041015625E-06	-4.7971502681321E-07	-323871.625	6.64678591419943E-05
1	280	94.2611077620136	0.384063720703125	0.384124755859375	-1.18133544921875E-06	-4.53780160114547E-07	-325161.46875	6.63470927975141E-05
1	281	94.3618157617593	0.373992919921875	0.373992919921875	-1.14776611328125E-06	-4.29256374445686E-07	-325844.21875	6.6229811636731E-05
1	282	94.4625237615051	0.363922119140625	0.36395263671875	-1.1163330078125E-06	-4.06292343768655E-07	-326025.15625	6.6115811932832E-05
1	283	94.5632317612508	0.353851318359375	0.35382080078125	-1.08673095703125E-06	-3.84507984563243E-07	-325582.71875	6.60048754070885E-05
1	284	94.6639397609965	0.343780517578125	0.343841552734375	-1.058349609375E-06	-3.63904547384664E-07	-324884.6875	6.5896863816306E-05
1	285	94.7646477607423	0.333709716796875	0.333740234375	-1.03271484375E-06	-3.44658502626771E-07	-323167.84375	6.57915661577135E-05
1	286	94.865355760488	0.323638916015625	0.323699951171875	-1.00830078125E-06	-3.263868961767E-07	-321035.125	6.56887932564132E-05
1	287	94.9660637602337	0.313568115234375	0.31365966796875	-9.8419189453125E-07	-3.08701288531665E-07	-318697.6875	6.55884650768712E-05
1	288	95.0667717599795	0.303497314453125	0.30352783203125	-9.6282958984375E-07	-2.92245545097103E-07	-315245.65625	6.54904215480201E-05
1	289	95.1674797597252	0.293426513671875	0.293426513671875	-9.417724609375E-07	-2.76341012295234E-07	-311568.375	6.53945171507075E-05
1	290	95.2681877594709	0.283355712890625	0.283355712890625	-9.2315673828125E-07	-2.61581732274863E-07	-306942.15625	6.53006136417389E-05
1	291	95.3688957592167	0.273284912109375	0.273284912109375	-9.051513671875E-07	-2.47364198457944E-07	-301921.78125	6.52085509500466E-05
1	292	95.4696037589624	0.263214111328125	0.263153076171875	-8.88671874999999E-07	-2.33856738418581E-07	-296119.5	6.51182272122242E-05
1	293	95.5703117587082	0.253143310546875	0.253143310546875	-8.7310791015625E-07	-2.21021409174682E-07	-289933.59375	6.50295114610344E-05
1	294	95.6710197584539	0.243072509765625	0.243072509765625	-8.5906982421875E-07	-2.08816260283129E-07	-282948.5	6.49422872811556E-05
1	295	95.7717277581996	0.233001708984375	0.2330322265625	-8.4564208984375E-07	-1.97061865492287E-07	-275568.375	6.48564528091811E-05
1	296	95.8724357579454	0.222930908203125	0.222930908203125	-8.33740234374999E-07	-1.85866468882523E-07	-267386.53125	6.47718843538314E-05
1	297	95.9731437576911	0.212860107421875	0.212921142578125	-8.2275390625E-07	-1.75181696704385E-07	-258790.8125	6.46884800517E-05
1	298	96.0738517574368	0.202789306640625	0.202850341796875	-8.13903808593749E-07	-1.65100658477968E-07	-249231.34375	6.46060652798042E-05
1	299	96.1745597571826	0.192718505859375	0.1927490234375	-8.06884765625E-07	-1.55526251433002E-07	-238880.484375	6.45244508632459E-05
1	300	96.2752677569283	0.182647705078125	0.182647705078125	-8.02001953125001E-07	-1.46483813523446E-07	-227739.734375	6.44434403511696E-05
1	301	96.3759757566741	0.172576904296875	0.172607421875	-7.9986572265625E-07	-1.38062759447166E-07	-215795.5	6.43627790850587E-05
1	302	96.4766837564198	0.162506103515625	0.162506103515625	-8.02001953125001E-07	-1.30330207070983E-07	-202625.578125	6.42821178189479E-05
1	303	96.5773917561655	0.152435302734375	0.15252685546875	-8.08105468750001E-07	-1.23257777318031E-07	-188746.234375	6.4201041823253E-05
1	304	96.6780997559113	0.142364501953125	0.14239501953125	-8.2061767578125E-07	-1.16851865072931E-07	-173521.765625	6.4119027229026E-05
1	305	96.778807755657	0.132293701171875	0.13238525390625	-8.4075927734375E-07	-1.113041250278E-07	-157459.171875	6.40353682683781E-05
1	306	96.8795157554027	0.122222900390625	0.122344970703125	-8.72192382812501E-07	-1.06708348823759E-07	-140272.921875	6.39491190668195E-05
1	307	96.9802237551485	0.112152099609375	0.112152099609375	-9.1888427734375E-07	-1.03054802025326E-07	-122052.4765625	6.38589262962341E-05
1	308	97.0809317548942	0.102081298828125	0.102081298828125	-9.8297119140625E-07	-1.00342973041734E-07	-103849.734375	6.37631601421162E-05
1	309	97.1816397546399	0.092010498046875	0.09210205078125	-1.07177734375E-06	-9.87128885299171E-08	-85933.9453125	6.36596960248426E-05
1	310	97.2823477543857	0.081939697265625	0.08203125	-1.18927001953125E-06	-9.75572973516137E-08	-68976.140625	6.35458491160534E-05
1	311	97.3830557541314	0.071868896484375	0.0718994140625	-1.34246826171875E-06	-9.65226760740734E-08	-53557.62890625	6.34183597867377E-05
1	312	97.4837637538772	0.061798095703125	0.061859130859375	-1.53228759765625E-06	-9.47859746247559E-08	-40370.4453125	6.32736046100035E-05
1	313	97.5844717536229	0.051727294921875	0.051727294921875	-1.75628662109375E-06	-9.08479549366348E-08	-29452.650390625	6.31080110906623E-05
1	314	97.6851797533686	0.041656494140625	0.041729736328125	-2.00439453125E-06	-8.36428526440613E-08	-20819.125	6.29186470177956E-05
1	315	97.7858877531144	0.031585693359375	0.031646728515625	-2.25799560546875E-06	-7.14581673832981E-08	-14015.408203125	6.27040208200924E-05
1	316	97.8865957528601	0.021514892578125	0.0216339111328125	-2.489013671875E-06	-5.38471027766718E-08	-8691.7607421875	6.24649910605513E-05
1	317	97.9873037526058	0.011444091796875	0.01151123046875	-2.6751708984375E-06	-3.0794510053056E-08	-4302.98876953125	6.2204955611378E-05
1	318	98.0880117523516	0.001373291015625	0.00147094726562499	-2.7984619140625E-06	-4.11638989561425E-09	-525.627075195313	6.19293350609951E-05
1	319	98.1887197520973	-0.008697509765625	-0.0086029052734375	-2.85858154296875E-06	2.45921043529052E-08	3009.50146484375	6.16444813203998E-05
1	320	98.289427751843	-0.018768310546875	-0.018682861328125	-2.86224365234375E-06	5.34748991753986E-08	6527.3486328125	6.1356411606539E-05
1	321	98.3901357515888	-0.028839111328125	-0.0287017822265625	-2.82379150390625E-06	8.10478439916551E-08	10164.271484375	6.10700953984633E-05
1	322	98.4908437513345	-0.038909912109375	-0.0387847900390625	-2.75787353515625E-06	1.06963547352734E-07	14063.2958984375	6.07890397077426E-05
1	323	98.5915517510803	-0.048980712890625	-0.0488739013671875	-2.67974853515625E-06	1.30969752376586E-07	18238.2421875	6.05152308708057E-05
1	324	98.692259750826	-0.059051513671875	-0.0589599609375	-2.59765625E-06	1.53157714066765E-07	22697.369140625	6.02494947088417E-05
1	325	98.7929677505717	-0.069122314453125	-0.06915283203125	-2.5177001953125E-06	1.74106091321846E-07	27466.66796875	5.99919148953632E-05
1	326	98.8936757503175	-0.079193115234375	-0.079132080078125	-2.4420166015625E-06	1.93241845636294E-07	32404.400390625	5.97421749262139E-05
1	327	98.9943837500632	-0.089263916015625	-0.089141845703125	-2.373046875E-06	2.11537766858783E-07	37564.30078125	5.94997145526577E-05
1	328	99.0950917498089	-0.099334716796875	-0.09930419921875	-2.31109619140625E-06	2.29501537774013E-07	42968.44140625	5.92638498346787E-05
1	329	99.1957997495547	-0.109405517578125	-0.10931396484375	-2.2552490234375E-06	2.46530220238128E-07	48470.90625	5.90339186601341E-05
1	330	99.2965077493004	-0.119476318359375	-0.119354248046875	-2.20703125E-06	2.63418542090221E-07	54079.09375	5.88092225370929E-05
1	331	99.3972157490462	-0.129547119140625	-0.12945556640625	-2.1636962890625E-06	2.80102540273219E-07	59830.74609375	5.8589139371179E-05
1	332	99.4979237487919	-0.139617919921875	-0.1395263671875	-2.125244140625E-06	2.96527588261597E-07	65651.9296875	5.83731743972749E-05
1	333	99.5986317485376	-0.149688720703125	-0.149627685546875	-2.09136962890625E-06	3.12926800916102E-07	71545.3046875	5.81608510401566E-05
1	334	99.6993397482834	-0.159759521484375	-0.159637451171875	-2.06146240234375E-06	3.29086589090366E-07	77438.9375	5.79517400183249E-05
1	335	99.8000477480291	-0.169830322265625	-0.169708251953125	-2.03582763671875E-06	3.45496715681293E-07	83360.8203125	5.77454229642171E-05
1	336	99.9007557477748	-0.179901123046875	-0.179779052734375	-2.012939453125E-06	3.6188433227835E-07	89311.7109375	5.75415542698465E-05
1	337	100.001463747521	-0.189971923828125	-0.189788818359375	-1.9927978515625E-06	3.78210728513295E-07	95237.375	5.73398465348873E-05
1	338	100.102171747266	-0.200042724609375	-0.199920654296875	-1.97601318359375E-06	3.95045844925335E-07	101173.7421875	5.71400014450774E-05
1	339	100.202879747012	-0.189971923828125	-0.1898193359375	-1.78955078125E-06	3.39691325734748E-07	106070.9453125	5.69503899896517E-05
2	340	100.303587746758	-0.179901123046875	-0.17974853515625	-1.6552734375E-06	2.97532977810988E-07	108591.4453125	5.67769311601296E-05
2	341	100.404295746504	-0.169830322265625	-0.169708251953125	-1.54541015625E-06	2.62268855522052E-07	109814.3828125	5.66157614230178E-05
2	342	100.505003746249	-0.159759521484375	-0.15960693359375	-1.4520263671875E-06	2.31753475077312E-07	109920.1328125	5.64648289582692E-05
2	343	100.605711745995	-0.149688720703125	-0.14959716796875	-1.3702392578125E-06	2.04983919616097E-07	109175.9453125	5.63227185921278E-05
2	344	100.706419745741	-0.139617919921875	-0.139495849609375	-1.29669189453125E-06	1.80883134248688E-07	107578.2578125	5.61884262424428E-05
2	345	100.807127745486	-0.129547119140625	-0.129425048828125	-1.22894287109375E-06	1.59056000370583E-07	105314.125	5.60612497793045E-05
2	346	100.907835745232	-0.119476318359375	-0.119354248046875	-1.1663818359375E-06	1.39212630756447E-07	102328.625	5.59406362299342E-05
2	347	101.008543744978	-0.109405517578125	-0.109344482421875	-1.10595703125E-06	1.20930295111066E-07	98868.65625	5.58262145204935E-05
2	348	101.109251744724	-0.099334716796875	-0.099212646484375	-1.04766845703125E-06	1.03941957263487E-07	94698.515625	5.57177736482117E-05
2	349	101.209959744469	-0.089263916015625	-0.08917236328125	-9.89685058593751E-07	8.82525554857239E-08	90101.7578125	5.56151826458517E-05
2	350	101.310667744215	-0.079193115234375	-0.07916259765625	-9.28955078125E-07	7.35384944050566E-08	85216.8203125	5.55185724806506E-05
2	351	101.411375743961	-0.069122314453125	-0.069122314453125	-8.636474609375E-07	5.96973066535611E-08	80035.34375	5.54283069504891E-05
2	352	101.512083743707	-0.059051513671875	-0.058990478515625	-7.89489746093749E-07	4.65723779541349E-08	74719.7578125	5.5345066357404E-05
2	353	101.612791743452	-0.048980712890625	-0.0488739013671875	-7.01293945312501E-07	3.42749686410571E-08	69691.0390625	5.52700003026985E-05
2	354	101.713499743198	-0.038909912109375	-0.03876953125	-5.94482421875001E-07	2.30478036655768E-08	65215.609375	5.52047495148145E-05
2	355	101.814207742944	-0.028839111328125	-0.0286956787109375	-4.62646484375E-07	1.3275954557912E-08	62025.06640625	5.51515186089091E-05
2	356	101.91491574269	-0.018768310546875	-0.0186431884765625	-2.972412109375E-07	5.54152412846065E-09	62720.7421875	5.51132579857949E-05
2	357	102.015623742435	-0.008697509765625	-0.008587646484375	-9.49096679687497E-08	8.15050638092174E-10	90482.3125	5.509351103683E-05
2	358	102.116331742181	0.001373291015625	0.00148620605468749	1.4495849609375E-07	2.15438195061424E-10	10252.6318359375	5.50960321561433E-05
2	359	102.217039741927	0.011444091796875	0.0115325927734375	4.14123535156249E-07	4.77591788339282E-09	27848.1953125	5.51241828361526E-05
2	360	102.317747741673	0.021514892578125	0.0215911865234375	6.98242187500001E-07	1.50758765471437E-08	30922.203125	5.51801931578666E-05
2	361	102.418455741418	0.031585693359375	0.031683349609375	9.6923828125E-07	3.0708712017713E-08	32688.916015625	5.52641577087343E-05
2	362	102.519163741164	0.041656494140625	0.0417449951171875	1.2042236328125E-06	5.02703088045564E-08	34665.484375	5.53736026631668E-05
2	363	102.61987174091	0.051727294921875	0.0517578125	1.3818359375E-06	7.15208017254554E-08	37455.83203125	5.55038204765879E-05
2	364	102.720579740655	0.061798095703125	0.0618896484375	1.492919921875E-06	9.23962844012749E-08	41455.4375	5.5648575653322E-05
2	365	102.821287740401	0.071868896484375	0.0718994140625	1.54296875E-06	1.10938543684824E-07	46598.10546875	5.5801443522796E-05
2	366	102.921995740147	0.081939697265625	0.082000732421875	1.54266357421875E-06	1.26499543284808E-07	53155.29296875	5.59568179596681E-05
2	367	103.022703739893	0.092010498046875	0.092041015625	1.5087890625E-06	1.38870476007469E-07	61003.234375	5.61104716325644E-05
2	368	103.123411739638	0.102081298828125	0.10211181640625	1.456298828125E-06	1.487053253868E-07	70117.3515625	5.62597742828075E-05
2	369	103.224119739384	0.112152099609375	0.11212158203125	1.3946533203125E-06	1.56370731474453E-07	80393.875	5.64033325645141E-05
2	370	103.32482773913	0.122222900390625	0.122222900390625	1.331787109375E-06	1.62774881573569E-07	91773.6015625	5.65406189707574E-05
2	371	103.425535738876	0.132293701171875	0.132354736328125	1.27166748046875E-06	1.68311203196936E-07	104079.6796875	5.66717135370709E-05
2	372	103.526243738621	0.142364501953125	0.142364501953125	1.2164306640625E-06	1.7317654510407E-07	117034.625	5.67969982512295E-05
2	373	103.626951738367	0.152435302734375	0.152435302734375	1.16729736328125E-06	1.7793732354221E-07	130588.234375	5.69170297239907E-05
2	374	103.727659738113	0.162506103515625	0.162567138671875	1.1236572265625E-06	1.82669737114338E-07	144676.8125	5.70323900319636E-05
2	375	103.828367737859	0.172576904296875	0.172576904296875	1.08489990234375E-06	1.87228664572103E-07	159071.734375	5.71435994061176E-05
2	376	103.929075737604	0.182647705078125	0.18267822265625	1.0516357421875E-06	1.92110945818058E-07	173708.640625	5.72511817154009E-05
2	377	104.02978373735	0.192718505859375	0.1927490234375	1.0223388671875E-06	1.97054816908349E-07	188537.3125	5.73556135350373E-05
2	378	104.130491737096	0.202789306640625	0.20281982421875	9.9700927734375E-07	2.02213243483129E-07	203428.234375	5.74572950426955E-05
2	379	104.231199736842	0.212860107421875	0.212890625	9.7564697265625E-07	2.07706079891068E-07	218204.578125	5.75566264160443E-05
2	380	104.331907736587	0.222930908203125	0.222991943359375	9.564208984375E-07	2.13274148563869E-07	233152.53125	5.76539132453036E-05
2	381	104.432615736333	0.233001708984375	0.233001708984375	9.3902587890625E-07	2.18794639295083E-07	248131.296875	5.77493592572864E-05
2	382	104.533323736079	0.243072509765625	0.24310302734375	9.246826171875E-07	2.24793140546353E-07	262904.3125	5.78432045585942E-05
2	383	104.634031735824	0.253143310546875	0.25311279296875	9.124755859375E-07	2.30959244618134E-07	277391.3125	5.79357110837009E-05
2	384	104.73473973557	0.263214111328125	0.263214111328125	9.01184082031251E-07	2.37204361042131E-07	292075.84375	5.80270352656953E-05
2	385	104.835447735316	0.273284912109375	0.273284912109375	8.9141845703125E-07	2.43611196992788E-07	306573.09375	5.81173007958569E-05
2	386	104.936155735062	0.283355712890625	0.2833251953125	8.831787109375E-07	2.50226776188356E-07	320801.65625	5.82066604692955E-05
2	387	105.036863734807	0.293426513671875	0.29345703125	8.7554931640625E-07	2.56936090181625E-07	335169.0625	5.82952197873965E-05
2	388	105.137571734553	0.303497314453125	0.303497314453125	8.6883544921875E-07	2.63689202029127E-07	349315.09375	5.83830551477149E-05
2	389	105.238279734299	0.313568115234375	0.313568115234375	8.6395263671875E-07	2.70908003585646E-07	362945.96875	5.84703084314242E-05
2	390	105.338987734045	0.323638916015625	0.323638916015625	8.5906982421875E-07	2.78028437605826E-07	376731.8125	5.85570705879945E-05
2	391	105.43969573379	0.333709716796875	0.333740234375	8.5479736328125E-07	2.85280265188703E-07	390432	5.86433707212564E-05
2	392	105.540403733536	0.343780517578125	0.343780517578125	8.5174560546875E-07	2.9281355296007E-07	403618.78125	5.87292997806799E-05
2	393	105.641111733282	0.353851318359375	0.35382080078125	8.489990234375E-07	3.00393509178321E-07	416750.5625	5.88149414397776E-05
2	394	105.741819733028	0.363922119140625	0.36395263671875	8.4686279296875E-07	3.08217920519382E-07	429765.78125	5.89003320783377E-05
2	395	105.842527732773	0.373992919921875	0.37396240234375	8.4564208984375E-07	3.16238356390386E-07	442223.03125	5.89855590078514E-05
2	396	105.943235732519	0.384063720703125	0.384124755859375	8.441162109375E-07	3.24245917227017E-07	455061.46875	5.90706440561917E-05
2	397	106.043943732265	0.394134521484375	0.3941650390625	8.441162109375E-07	3.32721100448907E-07	466955.90625	5.9155652706977E-05
2	398	106.144651732011	0.404205322265625	0.40423583984375	8.44726562500001E-07	3.41468734177397E-07	478540.5	5.92406940995716E-05
2	399	106.245359731756	0.414276123046875	0.41424560546875	8.453369140625E-07	3.50177089103454E-07	490036.125	5.9325793699827E-05
2	400	106.346067731502	0.424346923828125	0.42437744140625	8.465576171875E-07	3.59259956894675E-07	501297.78125	5.94109878875315E-05
2	401	106.446775731248	0.434417724609375	0.4344482421875	8.4808349609375E-07	3.68448354493012E-07	512270.625	5.94963203184307E-05
2	402	106.547483730993	0.444488525390625	0.44451904296875	8.49304199218751E-07	3.7753187598355E-07	523392.03125	5.95817909925245E-05
2	403	106.648191730739	0.454559326171875	0.45452880859375	8.514404296875E-07	3.87004206459096E-07	533835.125	5.96674290136434E-05
2	404	106.748899730485	0.464630126953125	0.464599609375	8.5418701171875E-07	3.96854943573999E-07	543908.5625	5.97533144173212E-05
2	405	106.849607730231	0.474700927734375	0.47467041015625	8.575439453125E-07	4.07050720241386E-07	553523.125	5.98395054112189E-05
2	406	106.950315729976	0.484771728515625	0.4847412109375	8.60595703125E-07	4.17166177157924E-07	563262.4375	5.99260238232091E-05
2	407	107.051023729722	0.494842529296875	0.494842529296875	8.6517333984375E-07	4.28124565132748E-07	571957.6875	6.00129205849953E-05
2	408	107.151731729468	0.504913330078125	0.5048828125	8.70666503906251E-07	4.395845394356E-07	579880.8125	6.01003266638145E-05
2	409	107.252439729214	0.514984130859375	0.51495361328125	8.7860107421875E-07	4.5243876911627E-07	586106.3125	6.01884094066918E-05
2	410	107.353147728959	0.525054931640625	0.52496337890625	8.87451171875001E-07	4.65879367084199E-07	591540.5625	6.02773397986311E-05
2	411	107.453855728705	0.535125732421875	0.53509521484375	8.99353027343749E-07	4.81239453620219E-07	594978	6.03673106525093E-05
2	412	107.554563728451	0.545196533203125	0.545196533203125	9.14916992187501E-07	4.98809583859838E-07	595897.25	6.0458667576313E-05
2	413	107.655271728197	0.555267333984375	0.55523681640625	9.36279296875001E-07	5.19856712344335E-07	593024.8125	6.05518835072871E-05
2	414	107.755979727942	0.565338134765625	0.565338134765625	9.64965820312499E-07	5.45531975149061E-07	585863.375	6.06476169195957E-05
2	415	107.856687727688	0.575408935546875	0.575347900390625	1.0076904296875E-06	5.79772574837989E-07	570957	6.07469482929446E-05
2	416	107.957395727434	0.585479736328125	0.585418701171875	1.06842041015625E-06	6.25473262516607E-07	547929.1875	6.08514892519452E-05
2	417	108.05810372718	0.595550537109375	0.59552001953125	1.15570068359375E-06	6.8824283516733E-07	515289.1875	6.09634807915427E-05
2	418	108.158811726925	0.605621337890625	0.6055908203125	1.279296875E-06	7.74730438024562E-07	473377.875	6.10860952292569E-05
2	419	108.259519726671	0.615692138671875	0.615631103515625	1.45172119140625E-06	8.93724688921793E-07	424069.8125	6.1223610828165E-05
2	420	108.360227726417	0.625762939453125	0.625701904296875	1.68731689453125E-06	1.0557573659753E-06	370826.5625	6.13816737313755E-05
2	421	108.460935726162	0.635833740234375	0.63580322265625	2.00042724609375E-06	1.27187809084717E-06	317833.71875	6.15673707216047E-05
2	422	108.561643725908	0.645904541015625	0.6458740234375	2.40234375E-06	1.55161137627147E-06	268851.625	6.17890618741512E-05
2	423	108.662351725654	0.655975341796875	0.65594482421875	2.8948974609375E-06	1.89889294688328E-06	226586.5625	6.20558057562448E-05
2	424	108.7630597254	0.666046142578125	0.66595458984375	3.4716796875E-06	2.31198100664187E-06	191824.90625	6.23763844487257E-05
2	425	108.863767725145	0.676116943359375	0.67608642578125	4.10064697265625E-06	2.77239178103628E-06	164873.109375	6.2757681007497E-05
2	426	108.964475724891	0.686187744140625	0.68603515625	4.74395751953125E-06	3.25452174365637E-06	144612.421875	6.32030423730612E-05
2	427	109.065183724637	0.696258544921875	0.696197509765625	5.352783203125E-06	3.72659405911691E-06	130062.71875	6.37114571873099E-05
2	428	109.165891724383	0.706329345703125	0.706207275390625	5.8685302734375E-06	4.14439864471206E-06	120338.015625	6.42764935037121E-05
2	429	109.266599724128	0.716400146484375	0.716217041015625	6.25E-06	4.47635648015421E-06	114594.7265625	6.48867062409408E-05
2	430	109.367307723874	0.726470947265625	0.726318359375	6.475830078125E-06	4.70351415060577E-06	112158.34375	6.55275071039796E-05
2	431	109.46801572362	0.736541748046875	0.73638916015625	6.5460205078125E-06	4.82041832583491E-06	112494.171875	6.61832091282122E-05
2	432	109.568723723366	0.746612548828125	0.746429443359375	6.494140625E-06	4.84741758555174E-06	114938.9140625	6.68398351990618E-05
2	433	109.669431723111	0.756683349609375	0.7568359375	6.35986328125E-06	4.81337292512762E-06	119001.921875	6.74870825605467E-05
2	434	109.770139722857	0.766754150390625	0.7672119140625	6.18896484375E-06	4.74824719276512E-06	123964.5	6.81189630995505E-05
2	435	109.870847722603	0.776824951171875	0.77728271484375	6.0150146484375E-06	4.6753671085753E-06	129223.7421875	6.87334832036868E-05
2	436	109.971555722349	0.786895751953125	0.7867431640625	5.859375E-06	4.60982346339733E-06	134270.828125	6.93314068485051E-05
2	437	110.072263722094	0.796966552734375	0.797119140625	5.743408203125E-06	4.57818032373325E-06	138788.53125	6.99156516930088E-05
2	438	110.17297172184	0.807037353515625	0.806884765625	5.6793212890625E-06	4.58255772173288E-06	142074.15625	7.04908379702829E-05
2	439	110.273679721586	0.817108154296875	0.8172607421875	5.670166015625E-06	4.63400419903337E-06	144133.46875	7.10623280610889E-05
2	440	110.374387721331	0.827178955078125	0.82672119140625	5.72509765625E-06	4.73305954074021E-06	144402.984375	7.16361246304587E-05
2	441	110.475095721077	0.837249755859375	0.83740234375	5.8319091796875E-06	4.88365458295448E-06	143589.75	7.22180629963987E-05
2	442	110.575803720823	0.847320556640625	0.84716796875	5.9722900390625E-06	5.05953266838333E-06	141849.78125	7.28124505258165E-05
2	443	110.676511720569	0.857391357421875	0.85784912109375	6.1279296875E-06	5.25683935848065E-06	139990.03125	7.34217464923859E-05
2	444	110.777219720314	0.867462158203125	0.86761474609375	6.268310546875E-06	5.43847818335053E-06	138412.859375	7.40459508961067E-05
2	445	110.87792772006	0.877532958984375	0.877685546875	6.3629150390625E-06	5.58463852939894E-06	137937.65625	7.46819787309505E-05
2	446	110.978635719806	0.887603759765625	0.887451171875	6.396484375E-06	5.67656752537005E-06	138740.453125	7.53244676161557E-05
2	447	111.079343719552	0.897674560546875	0.89813232421875	6.3720703125E-06	5.72296221434954E-06	140948.28125	7.59674148866907E-05
2	448	111.180051719297	0.907745361328125	0.90789794921875	6.298828125E-06	5.71869304621941E-06	144137.609375	7.66054436098784E-05
2	449	111.280759719043	0.917816162109375	0.91766357421875	6.18896484375E-06	5.67938741369289E-06	148274.171875	7.7234253694769E-05
2	450	111.381467718789	0.927886962890625	0.92803955078125	6.0577392578125E-06	5.62182140129153E-06	153199	7.78509274823591E-05
2	451	111.482175718535	0.937957763671875	0.9381103515625	5.9234619140625E-06	5.5568607422174E-06	158371.984375	7.84542280598544E-05
2	452	111.58288371828	0.948028564453125	0.948486328125	5.7861328125E-06	5.48806747246999E-06	163924.0625	7.90438498370349E-05
2	453	111.683591718026	0.958099365234375	0.95794677734375	5.6549072265625E-06	5.417100055638E-06	169400.984375	7.96199528849684E-05
2	454	111.784299717772	0.968170166015625	0.96832275390625	5.5328369140625E-06	5.35757180841756E-06	175013.796875	8.01833011792041E-05
2	455	111.885007717518	0.978240966796875	0.9783935546875	5.4229736328125E-06	5.30580246049794E-06	180416.4375	8.07349715614691E-05
2	456	111.985715717263	0.988311767578125	0.98846435546875	5.3192138671875E-06	5.25785344507312E-06	185829.03125	8.12758808024228E-05
2	457	112.086423717009	0.998382568359375	0.99884033203125	5.224609375E-06	5.21855054103071E-06	191179.921875	8.18068074295297E-05
2	458	112.187131716755	1.00845336914063	1.0089111328125	5.13916015625E-06	5.18495562573662E-06	196318.296875	8.23286682134494E-05
2	459	112.2878397165	1.01852416992188	1.01837158203125	5.059814453125E-06	5.15277088197763E-06	201266.59375	8.28422271297313E-05
2	460	112.388547716246	1.02859497070313	1.0284423828125	4.986572265625E-06	5.12840188093833E-06	206242.359375	8.33481026347727E-05
2	461	112.489255715992	1.03866577148438	1.03912353515625	4.9188232421875E-06	5.11126472702017E-06	211254.515625	8.38468768051825E-05
2	462	112.589963715738	1.04873657226563	1.04888916015625	4.85809326171875E-06	5.09560140926624E-06	215905.515625	8.43391826492734E-05
2	463	112.690671715483	1.05880737304688	1.05865478515625	4.8016357421875E-06	5.08327411807841E-06	220477.953125	8.48255876917392E-05
2	464	112.791379715229	1.06887817382813	1.06903076171875	4.74853515625E-06	5.07633012603037E-06	225128.546875	8.53064775583334E-05
2	465	112.892087714975	1.07894897460938	1.0791015625	4.6990966796875E-06	5.07080267198035E-06	229640.203125	8.57822014950216E-05
2	466	112.992795714721	1.08901977539063	1.08917236328125	4.6533203125E-06	5.06826745549915E-06	234063.5	8.62531378515996E-05
2	467	113.093503714466	1.09909057617188	1.0992431640625	4.610595703125E-06	5.06816559209256E-06	238416.734375	8.67196140461601E-05
2	468	113.194211714212	1.10916137695313	1.1090087890625	4.5703125E-06	5.06851665704744E-06	242654.921875	8.71819065650925E-05
2	469	113.294919713958	1.11923217773438	1.119384765625	4.53277587890625E-06	5.07391996507067E-06	246953.484375	8.76402846188284E-05
2	470	113.395627713704	1.12930297851563	1.12945556640625	4.49737548828125E-06	5.07958566231537E-06	251136.609375	8.80949883139692E-05
2	471	113.496335713449	1.13937377929688	1.13922119140625	4.464111328125E-06	5.08560970047256E-06	255195.53125	8.85462359292433E-05
2	472	113.597043713195	1.14944458007813	1.14990234375	4.43359375E-06	5.0981998356292E-06	259361.234375	8.89942675712518E-05
2	473	113.697751712941	1.15951538085938	1.15966796875	4.40460205078125E-06	5.10787594976136E-06	263285.53125	8.9439308794681E-05
2	474	113.798459712687	1.16958618164063	1.16943359375	4.37713623046875E-06	5.1187698772992E-06	267168.65625	8.9881505118683E-05
2	475	113.899167712432	1.17965698242188	1.1798095703125	4.35150146484375E-06	5.13394297740888E-06	271127	9.0321023890283E-05
2	476	113.999875712178	1.18972778320313	1.1895751953125	4.32830810546875E-06	5.14884777658153E-06	274836.0625	9.0758090664167E-05
2	477	114.100583711924	1.19979858398438	1.199951171875	4.30633544921875E-06	5.16739237355068E-06	278647.84375	9.11928800633177E-05
2	478	114.201291711669	1.20986938476563	1.209716796875	4.28619384765625E-06	5.18508068125811E-06	282235.65625	9.16255448828451E-05
2	479	114.301999711415	1.21994018554688	1.21978759765625	4.267578125E-06	5.20553840033244E-06	285826.6875	9.20562597457319E-05
2	480	114.402707711161	1.23001098632813	1.2298583984375	4.25018310546875E-06	5.22712298334227E-06	289366	9.24851628951728E-05
2	481	114.503415710907	1.24008178710938	1.24053955078125	4.23553466796875E-06	5.25434825249249E-06	292888.53125	9.2912458057981E-05
2	482	114.604123710652	1.25015258789063	1.25	4.22149658203125E-06	5.27687052453985E-06	296103.53125	9.33382980292663E-05
2	483	114.704831710398	1.26022338867188	1.26007080078125	4.20928955078125E-06	5.30400257048314E-06	299354.75	9.37628210522234E-05
2	484	114.805539710144	1.27029418945313	1.26983642578125	4.197998046875E-06	5.33077081854572E-06	302486.1875	9.41861653700471E-05
2	485	114.90624770989	1.28036499023438	1.28082275390625	4.1888427734375E-06	5.36516472493531E-06	305770.09375	9.46084765018895E-05
2	486	115.006955709635	1.29043579101563	1.29058837890625	4.18121337890625E-06	5.39622533324291E-06	308663.625	9.50299436226487E-05
2	487	115.107663709381	1.30050659179688	1.30035400390625	4.176025390625E-06	5.43031137567596E-06	311385.5625	9.54507631831802E-05
2	488	115.208371709127	1.31057739257813	1.31011962890625	4.1729736328125E-06	5.46709452464711E-06	313953.5	9.58711680141278E-05
2	489	115.309079708873	1.32064819335938	1.32049560546875	4.1717529296875E-06	5.50878075955552E-06	316532.5625	9.62913545663469E-05
2	490	115.409787708618	1.33071899414063	1.33087158203125	4.1741943359375E-06	5.55531642021379E-06	318833.1875	9.67116066021845E-05
2	491	115.510495708364	1.34078979492188	1.34063720703125	4.17877197265625E-06	5.60221724299481E-06	320820.84375	9.71322151599452E-05
2	492	115.61120370811	1.35086059570313	1.35101318359375	4.18548583984375E-06	5.65464597457321E-06	322785.28125	9.75533912423998E-05
2	493	115.711911707856	1.36093139648438	1.361083984375	4.19464111328125E-06	5.70925840293057E-06	324481.65625	9.79753604042344E-05
2	494	115.812619707601	1.37100219726563	1.370849609375	4.205322265625E-06	5.76486399950227E-06	325979.6875	9.83983336482197E-05
2	495	115.913327707347	1.38107299804688	1.38092041015625	4.21722412109375E-06	5.82365100854076E-06	327447.71875	9.88224419415928E-05
2	496	116.014035707093	1.39114379882813	1.3909912109375	4.23004150390625E-06	5.88395005252096E-06	328836.3125	9.9247794423718E-05
2	497	116.114743706838	1.40121459960938	1.40106201171875	4.24285888671875E-06	5.94450830249116E-06	330216.5	9.96744420262985E-05
2	498	116.215451706584	1.41128540039063	1.4111328125	4.25628662109375E-06	6.00618568569189E-06	331540.84375	0.000100102406577207
2	499	116.31615970633	1.42135620117188	1.4208984375	4.27001953125E-06	6.06726371188415E-06	332761.59375	0.000100531739008147
2	500	116.416867706076	1.43142700195313	1.4312744140625	4.28253173828125E-06	6.12947815170628E-06	334212.21875	0.000100962395663373
2	501	116.517575705821	1.44149780273438	1.44134521484375	4.2950439453125E-06	6.19064076090581E-06	335583.375	0.000101394311059266
2	502	116.618283705567	1.45156860351563	1.45172119140625	4.30633544921875E-06	6.25159873379744E-06	337112.875	0.000101827426988166
2	503	116.718991705313	1.46163940429688	1.461181640625	4.3170166015625E-06	6.30794556855108E-06	338470.25	0.000102261641586665
2	504	116.819699705059	1.47171020507813	1.47125244140625	4.3267822265625E-06	6.36578852208913E-06	340033.875	0.000102696896647103
2	505	116.920407704804	1.48178100585938	1.48193359375	4.33807373046875E-06	6.42873737888294E-06	341610.96875	0.000103133206721395
2	506	117.02111570455	1.49185180664063	1.49169921875	4.3505859375E-06	6.48976538286661E-06	342873.1875	0.000103570710052736
2	507	117.121823704296	1.50192260742188	1.50146484375	4.3658447265625E-06	6.55516214465024E-06	343911.65625	0.000104009617643896
2	508	117.222531704042	1.49185180664063	1.49139404296875	4.20440673828125E-06	6.27042709311354E-06	354721.65625	0.000104441169241909
2	509	117.323239703787	1.48178100585938	1.48162841796875	4.0887451171875E-06	6.05800050834659E-06	362367.53125	0.00010485875827726
2	510	117.423947703533	1.47171020507813	1.47125244140625	3.99627685546875E-06	5.8795321820071E-06	368155.78125	0.000105265869933646
2	511	117.524655703279	1.46163940429688	1.461181640625	3.91876220703125E-06	5.72602311876835E-06	372868.15625	0.000105664425063878
2	512	117.625363703025	1.45156860351563	1.451416015625	3.851318359375E-06	5.58986494070268E-06	376862.15625	0.000106055682408623
2	513	117.72607170277	1.44149780273438	1.44134521484375	3.79180908203125E-06	5.46530554856872E-06	380120.75	0.000106440544186626
2	514	117.826779702516	1.43142700195313	1.43157958984375	3.7384033203125E-06	5.3518215281656E-06	382938.78125	0.000106819723441731
2	515	117.927487702262	1.42135620117188	1.4215087890625	3.690185546875E-06	5.245630745776E-06	385213.375	0.000107193780422676
2	516	118.028195702007	1.41128540039063	1.41143798828125	3.646240234375E-06	5.14644216309534E-06	387094.0625	0.000107563195342664
2	517	118.128903701753	1.40121459960938	1.40167236328125	3.60504150390625E-06	5.05308707943186E-06	388808.9375	0.000107928331999574
2	518	118.229611701499	1.39114379882813	1.39129638671875	3.56781005859375E-06	4.96388111059787E-06	389958.09375	0.000108289510535542
2	519	118.330319701245	1.38107299804688	1.38092041015625	3.53271484375E-06	4.87839815832558E-06	390894.96875	0.000108647051092703
2	520	118.43102770099	1.37100219726563	1.37115478515625	3.49945068359375E-06	4.79828850075137E-06	391820.03125	0.000109001150121912
2	521	118.531735700736	1.36093139648438	1.361083984375	3.468017578125E-06	4.72026295028627E-06	392467.46875	0.000109351989522111
2	522	118.632443700482	1.35086059570313	1.35101318359375	3.43841552734375E-06	4.64534468846978E-06	392917.375	0.000109699751192238
2	523	118.733151700228	1.34078979492188	1.3409423828125	3.40972900390625E-06	4.57224996353034E-06	393269.5	0.000110044587927405
2	524	118.833859699973	1.33071899414063	1.33026123046875	3.38287353515625E-06	4.50010566055425E-06	393234.09375	0.00011038662341889
2	525	118.934567699719	1.32064819335938	1.32110595703125	3.35601806640625E-06	4.43365524915862E-06	393652.84375	0.000110725952254143
2	526	119.035275699465	1.31057739257813	1.31011962890625	3.3306884765625E-06	4.36360005551251E-06	393348.03125	0.000111062654468697
2	527	119.135983699211	1.30050659179688	1.30035400390625	3.30596923828125E-06	4.29892997999559E-06	393335.1875	0.000111396831925958
2	528	119.236691698956	1.29043579101563	1.29058837890625	3.28216552734375E-06	4.23592427978292E-06	393212.46875	0.000111728571937419
2	529	119.337399698702	1.28036499023438	1.280517578125	3.25927734375E-06	4.17356204707175E-06	392883.90625	0.000112057961814571
2	530	119.438107698448	1.27029418945313	1.270751953125	3.23699951171875E-06	4.11342352890642E-06	392570.96875	0.00011238507431699
2	531	119.538815698194	1.26022338867188	1.26007080078125	3.21502685546875E-06	4.05116134061245E-06	391931.6875	0.000112709960376378
2	532	119.639523697939	1.25015258789063	1.25	3.19427490234375E-06	3.99284363084007E-06	391325.125	0.000113032692752313
2	533	119.740231697685	1.24008178710938	1.2396240234375	3.17352294921875E-06	3.93397522202577E-06	390614.5	0.000113353336928412
2	534	119.840939697431	1.23001098632813	1.23016357421875	3.154296875E-06	3.88030093745328E-06	389996.125	0.00011367197294021
2	535	119.941647697176	1.21994018554688	1.2200927734375	3.13507080078125E-06	3.82507732865633E-06	389175.5	0.000113988666271325
2	536	120.042355696922	1.20986938476563	1.20941162109375	3.1158447265625E-06	3.76833872905991E-06	388148.875	0.000114303424197715
2	537	120.143063696668	1.19979858398438	1.19903564453125	3.09722900390625E-06	3.7136878745514E-06	387131.75	0.000114616275823209
2	538	120.243771696414	1.18972778320313	1.18927001953125	3.0792236328125E-06	3.66202812074334E-06	386224	0.000114927286631428
2	539	120.344479696159	1.17965698242188	1.1798095703125	3.0615234375E-06	3.6120145523455E-06	385366.84375	0.000115236500278115
2	540	120.445187695905	1.16958618164063	1.16973876953125	3.04412841796875E-06	3.56083501173998E-06	384260.65625	0.000115543938591145
2	541	120.545895695651	1.15951538085938	1.15936279296875	3.02764892578125E-06	3.51014341504197E-06	382925.125	0.000115849681606051
2	542	120.646603695397	1.14944458007813	1.14959716796875	3.0108642578125E-06	3.46128103956289E-06	381816.34375	0.000116153743874747
2	543	120.747311695142	1.13937377929688	1.13983154296875	2.9949951171875E-06	3.41378972734674E-06	380578.78125	0.000116456161777023
2	544	120.848019694888	1.12930297851563	1.12884521484375	2.9791259765625E-06	3.36297193825885E-06	378918.28125	0.000116756978968624
2	545	120.948727694634	1.11923217773438	1.11907958984375	2.9632568359375E-06	3.31612022819172E-06	377651.90625	0.000117056202725507
2	546	121.04943569438	1.10916137695313	1.1090087890625	2.947998046875E-06	3.26935560224229E-06	376190.5	0.000117353862151504
2	547	121.150143694125	1.09909057617188	1.09954833984375	2.9327392578125E-06	3.22468849844881E-06	374921.96875	0.000117649979074486
2	548	121.250851693871	1.08901977539063	1.08917236328125	2.91778564453125E-06	3.17797139359755E-06	373287.3125	0.000117944575322326
2	549	121.351559693617	1.07894897460938	1.0784912109375	2.90283203125E-06	3.13067880597373E-06	371530.71875	0.000118237665446941
2	550	121.452267693363	1.06887817382813	1.0693359375	2.88818359375E-06	3.08843823404459E-06	370245.15625	0.000118529271276202
2	551	121.552975693108	1.05880737304688	1.05926513671875	2.8741455078125E-06	3.04448190036055E-06	368549.59375	0.00011881942191394
2	552	121.653683692854	1.04873657226563	1.0491943359375	2.860107421875E-06	3.00080841952877E-06	366837.40625	0.000119108168291859
2	553	121.7543916926	1.03866577148438	1.0394287109375	2.84515380859375E-06	2.95733434541035E-06	365333.0625	0.000119395452202298
2	554	121.855099692345	1.02859497070313	1.0284423828125	2.82989501953125E-06	2.91038395516807E-06	363420.6875	0.000119681208161637
2	555	121.955807692091	1.01852416992188	1.01837158203125	2.8143310546875E-06	2.86603471977287E-06	361852.09375	0.000119965421617962
2	556	122.056515691837	1.00845336914063	1.00860595703125	2.7978515625E-06	2.82192968370509E-06	360493.03125	0.000120248019811697
2	557	122.157223691583	0.998382568359375	0.99822998046875	2.7801513671875E-06	2.77523054137419E-06	359055.96875	0.000120528893603478
2	558	122.257931691328	0.988311767578125	0.9881591796875	2.7593994140625E-06	2.72672582468658E-06	358106.625	0.000120807831990533
2	559	122.358639691074	0.978240966796875	0.97869873046875	2.7362060546875E-06	2.67792120212107E-06	357684.59375	0.000121084558486473
2	560	122.45934769082	0.968170166015625	0.9686279296875	2.70782470703125E-06	2.62287471741729E-06	357714.40625	0.000121358687465545
2	561	122.560055690566	0.958099365234375	0.958251953125	2.67242431640625E-06	2.56085581895604E-06	358570.3125	0.000121629600471351
2	562	122.660763690311	0.948028564453125	0.94818115234375	2.62725830078125E-06	2.4911166747188E-06	360901.375	0.000121896460768767
2	563	122.761471690057	0.937957763671875	0.93780517578125	2.56744384765625E-06	2.40776194004866E-06	365268.0625	0.000122158031444997
2	564	122.862179689803	0.927886962890625	0.92803955078125	2.489013671875E-06	2.309903038622E-06	372854.34375	0.000122412646305747
2	565	122.962887689549	0.917816162109375	0.91827392578125	2.3846435546875E-06	2.18975583266001E-06	385078.0625	0.000122658049804159
2	566	123.063595689294	0.907745361328125	0.9075927734375	2.24700927734375E-06	2.03936929210613E-06	403911.46875	0.000122891273349524
2	567	123.16430368904	0.897674560546875	0.89813232421875	2.07000732421875E-06	1.85914041139768E-06	433878.84375	0.00012310866441112
2	568	123.265011688786	0.887603759765625	0.887451171875	1.85211181640625E-06	1.64365872024064E-06	479156.40625	0.000123306148452684
2	569	123.365719688531	0.877532958984375	0.87738037109375	1.59698486328125E-06	1.4011631037647E-06	549398.0625	0.000123479825560935
2	570	123.466427688277	0.867462158203125	0.86761474609375	1.31591796875E-06	1.14170984488737E-06	659322.8125	0.000123626508866437
2	571	123.567135688023	0.857391357421875	0.8575439453125	1.0296630859375E-06	8.82981339600519E-07	832839.375	0.00012374461221043
2	572	123.667843687769	0.847320556640625	0.84747314453125	7.66906738281251E-07	6.49932871965575E-07	1105053.75	0.000123835081467405
2	573	123.768551687514	0.837249755859375	0.83709716796875	5.4656982421875E-07	4.57532053133036E-07	1531546.625	0.000123901219922118
2	574	123.86925968726	0.827178955078125	0.8270263671875	3.857421875E-07	3.19018937489091E-07	2143987.5	0.000123948164400645
2	575	123.969967687006	0.817108154296875	0.8172607421875	2.8564453125E-07	2.33446044717311E-07	2861111.25	0.00012398196849972
2	576	124.070675686752	0.807037353515625	0.806884765625	2.38647460937499E-07	1.92561003586889E-07	3381074.25	0.000124008365673944
2	577	124.171383686497	0.796966552734375	0.79742431640625	2.2613525390625E-07	1.80325741894194E-07	3526316	0.000124031779705547
2	578	124.272091686243	0.786895751953125	0.787353515625	2.26745605468751E-07	1.78528949845713E-07	3472409.25	0.00012405458255671
2	579	124.372799685989	0.776824951171875	0.7769775390625	2.17285156249999E-07	1.6882567877019E-07	3575842.75	0.0001240769342985
2	580	124.473507685735	0.766754150390625	0.76690673828125	1.76086425781249E-07	1.35041858584373E-07	4355286	0.000124096739455126
2	581	124.57421568548	0.756683349609375	0.75714111328125	8.42285156249997E-08	6.37728660990433E-08	8989131	0.000124109850730747
2	582	124.674923685226	0.746612548828125	0.74652099609375	-7.44628906250003E-08	-5.5588110114968E-08	-10025410	0.000124110345495865
2	583	124.775631684972	0.736541748046875	0.7364501953125	-3.155517578125E-07	-2.32388146059748E-07	-2333849.25	0.000124090700410306
2	584	124.876339684718	0.726470947265625	0.726470947265625	-6.4697265625E-07	-4.70006824571101E-07	-1122877.375	0.000124042242532596
2	585	124.977047684463	0.716400146484375	0.71630859375	-1.07086181640625E-06	-7.67067490414775E-07	-668908.5625	0.000123955731396563
2	586	125.077755684209	0.706329345703125	0.706207275390625	-1.57318115234375E-06	-1.11099188870867E-06	-448904	0.000123822595924139
2	587	125.178463683955	0.696258544921875	0.696197509765625	-2.12677001953125E-06	-1.48065191751812E-06	-327349.71875	0.00012363628775347
2	588	125.2791716837	0.686187744140625	0.6861572265625	-2.68218994140625E-06	-1.84040402473329E-06	-255819.78125	0.00012339414388407
2	589	125.379879683446	0.676116943359375	0.676055908203125	-3.193359375E-06	-2.15888940147124E-06	-211706.8125	0.000123098288895562
2	590	125.480587683192	0.666046142578125	0.666015625	-3.6083984375E-06	-2.40324970945949E-06	-184573.75	0.000122755795018747
2	591	125.581295682938	0.655975341796875	0.6558837890625	-3.89129638671875E-06	-2.55223812928307E-06	-168551.484375	0.000122378143714741
2	592	125.682003682683	0.645904541015625	0.645904541015625	-4.02587890625E-06	-2.6003333459812E-06	-160438.15625	0.000121979486721102
2	593	125.782711682429	0.635833740234375	0.63580322265625	-4.024658203125E-06	-2.55889062827919E-06	-157976.953125	0.000121574114018586
2	594	125.883419682175	0.625762939453125	0.625762939453125	-3.919677734375E-06	-2.45278897637036E-06	-159646.53125	0.000121174081868958
2	595	125.984127681921	0.615692138671875	0.61566162109375	-3.74603271484375E-06	-2.30628847930348E-06	-164350.3125	0.000120788085041568
2	596	126.084835681666	0.605621337890625	0.6055908203125	-3.5382080078125E-06	-2.14270630749525E-06	-171157.5	0.000120421289466321
2	597	126.185543681412	0.595550537109375	0.595489501953125	-3.321533203125E-06	-1.9779381545959E-06	-179281.515625	0.000120075877930503
2	598	126.286251681158	0.585479736328125	0.585479736328125	-3.10943603515625E-06	-1.82051178398979E-06	-188291.296875	0.000119752054160926
2	599	126.386959680904	0.575408935546875	0.575347900390625	-2.90985107421875E-06	-1.67417670127179E-06	-197724.1875	0.000119448959594592
2	600	126.487667680649	0.565338134765625	0.5653076171875	-2.72796630859375E-06	-1.54214001213404E-06	-207226.765625	0.00011916507355636
2	601	126.588375680395	0.555267333984375	0.555206298828125	-2.562255859375E-06	-1.42258056712308E-06	-216686.53125	0.000118898686196189
2	602	126.689083680141	0.545196533203125	0.545257568359375	-2.4139404296875E-06	-1.31621925447689E-06	-225878.640625	0.000118648116767872
2	603	126.789791679887	0.535125732421875	0.535125732421875	-2.28057861328125E-06	-1.22039637062699E-06	-234644.71875	0.000118411728180945
2	604	126.890499679632	0.525054931640625	0.5250244140625	-2.16094970703125E-06	-1.13455132577656E-06	-242960.046875	0.0001181880797958
2	605	126.991207679378	0.514984130859375	0.514984130859375	-2.05322265625E-06	-1.05737706235232E-06	-250817.46875	0.000117975876491982
2	606	127.091915679124	0.504913330078125	0.50494384765625	-1.956787109375E-06	-9.88067654361657E-07	-258047.40625	0.000117773961392231
2	607	127.192623678869	0.494842529296875	0.49481201171875	-1.868896484375E-06	-9.24752384889871E-07	-264761.59375	0.000117581323138438
2	608	127.293331678615	0.484771728515625	0.484771728515625	-1.78924560546875E-06	-8.67375661073311E-07	-270936.40625	0.00011739711771952
2	609	127.394039678361	0.474700927734375	0.47467041015625	-1.71722412109375E-06	-8.15115470231831E-07	-276417.28125	0.000117220552056096
2	610	127.494747678107	0.464630126953125	0.46466064453125	-1.65130615234375E-06	-7.67296967296716E-07	-281389.78125	0.000117050934932195
2	611	127.595455677852	0.454559326171875	0.454559326171875	-1.59027099609375E-06	-7.22872471214941E-07	-285837.65625	0.000116887706099078
2	612	127.696163677598	0.444488525390625	0.44451904296875	-1.53472900390625E-06	-6.82216239056288E-07	-289640.09375	0.000116730348963756
2	613	127.796871677344	0.434417724609375	0.434478759765625	-1.4837646484375E-06	-6.44664226001623E-07	-292821.875	0.000116578361485153
2	614	127.89757967709	0.424346923828125	0.42431640625	-1.43585205078125E-06	-6.09255550898524E-07	-295515.40625	0.000116431343485601
2	615	127.998287676835	0.414276123046875	0.414276123046875	-1.3922119140625E-06	-5.7676015785546E-07	-297566.875	0.000116288938443176
2	616	128.098995676581	0.404205322265625	0.40423583984375	-1.351318359375E-06	-5.46251328614744E-07	-299141.8125	0.000116150789835956
2	617	128.199703676327	0.394134521484375	0.394073486328125	-1.3140869140625E-06	-5.17846785896836E-07	-299883.90625	0.000116016577521805
2	618	128.300411676073	0.384063720703125	0.384124755859375	-1.27838134765625E-06	-4.91057903673209E-07	-300477.4375	0.000115886039566249
2	619	128.401119675818	0.373992919921875	0.373992919921875	-1.2451171875E-06	-4.65664982129965E-07	-300367.65625	0.000115758964966517
2	620	128.501827675564	0.363922119140625	0.36395263671875	-1.21368408203125E-06	-4.41723528865623E-07	-299874.28125	0.000115635157271754
2	621	128.60253567531	0.353851318359375	0.35382080078125	-1.185302734375E-06	-4.19384747374352E-07	-298506.6875	0.000115514361823443
2	622	128.703243675056	0.343780517578125	0.34375	-1.1578369140625E-06	-3.98006420709862E-07	-296889.84375	0.000115396374894772
2	623	128.803951674801	0.333709716796875	0.333709716796875	-1.13189697265625E-06	-3.77725029920839E-07	-294823.40625	0.00011528107279446
2	624	128.904659674547	0.323638916015625	0.323699951171875	-1.107177734375E-06	-3.58393378974142E-07	-292364.9375	0.000115168331831228
2	625	129.005367674293	0.313568115234375	0.313629150390625	-1.0845947265625E-06	-3.40160511314025E-07	-289167.125	0.000115057962830178
2	626	129.106075674038	0.303497314453125	0.303436279296875	-1.063232421875E-06	-3.22623293413926E-07	-285390.375	0.000114949812996201
2	627	129.206783673784	0.293426513671875	0.293426513671875	-1.04278564453125E-06	-3.05980933035244E-07	-281387.1875	0.000114843765913974
2	628	129.30749167353	0.283355712890625	0.28338623046875	-1.024169921875E-06	-2.90235647071313E-07	-276698.4375	0.000114739690616261
2	629	129.408199673276	0.273284912109375	0.2733154296875	-1.00677490234375E-06	-2.7516708200892E-07	-271476.21875	0.000114637419756036
2	630	129.508907673021	0.263214111328125	0.263214111328125	-9.89990234375E-07	-2.60579383848381E-07	-265875.46875	0.000114536873297766
2	631	129.609615672767	0.253143310546875	0.253173828125	-9.74426269531251E-07	-2.46699215722401E-07	-259818.359375	0.000114437956654001
2	632	129.710323672513	0.243072509765625	0.24310302734375	-9.5977783203125E-07	-2.33324897180864E-07	-253290.9375	0.000114340567961335
2	633	129.811031672259	0.233001708984375	0.232940673828125	-9.47265625E-07	-2.20656687588416E-07	-245908.5	0.000114244539872743
2	634	129.911739672004	0.222930908203125	0.22296142578125	-9.36279296875001E-07	-2.08754158848024E-07	-238135.609375	0.000114149690489285
2	635	130.01244767175	0.212860107421875	0.21295166015625	-9.25598144531251E-07	-1.9710765286618E-07	-230069.25	0.000114055939775426
2	636	130.113155671496	0.202789306640625	0.20281982421875	-9.16748046875E-07	-1.85934680985156E-07	-221238.359375	0.000113963171315845
2	637	130.213863671242	0.192718505859375	0.1927490234375	-9.1094970703125E-07	-1.75584659700689E-07	-211591.296875	0.000113871137727983
2	638	130.314571670987	0.182647705078125	0.182647705078125	-9.0606689453125E-07	-1.65491030656995E-07	-201583.03125	0.000113779642560985
2	639	130.415279670733	0.172576904296875	0.172576904296875	-9.051513671875E-07	-1.5620821613993E-07	-190660.828125	0.000113688445708249
2	640	130.515987670479	0.162506103515625	0.162506103515625	-9.075927734375E-07	-1.47489359392239E-07	-179051.78125	0.000113597161544021
2	641	130.616695670225	0.152435302734375	0.152496337890625	-9.14916992187501E-07	-1.39521489472827E-07	-166677.78125	0.000113505397166591
2	642	130.71740366997	0.142364501953125	0.14239501953125	-9.2803955078125E-07	-1.32148201714699E-07	-153436.375	0.000113412592327222
2	643	130.818111669716	0.132293701171875	0.132354736328125	-9.4970703125E-07	-1.25698221609127E-07	-139363.765625	0.000113318041258026
2	644	130.918819669462	0.122222900390625	0.122283935546875	-9.82055664062501E-07	-1.20089637789533E-07	-124518.3359375	0.000113220768980682
2	645	131.019527669207	0.112152099609375	0.1121826171875	-1.02874755859375E-06	-1.15407587486516E-07	-109047.765625	0.000113119516754523
2	646	131.120235668953	0.102081298828125	0.10211181640625	-1.0931396484375E-06	-1.1162247659513E-07	-93411.5	0.000113012669316959
2	647	131.220943668699	0.092010498046875	0.09210205078125	-1.180419921875E-06	-1.08719092395404E-07	-78024.8203125	0.000112898189399857
2	648	131.321651668445	0.081939697265625	0.08203125	-1.2945556640625E-06	-1.06194022464479E-07	-63366.3359375	0.000112773566797841
2	649	131.42235966819	0.071868896484375	0.071929931640625	-1.44317626953125E-06	-1.03807565210445E-07	-49841.40625	0.000112635709228925
2	650	131.523067667936	0.061798095703125	0.061798095703125	-1.6278076171875E-06	-1.00595407559467E-07	-37964.00390625	0.000112481073301751
2	651	131.623775667682	0.051727294921875	0.05181884765625	-1.846923828125E-06	-9.57054595573936E-08	-28056.841796875	0.000112306108349003
2	652	131.724483667428	0.041656494140625	0.041729736328125	-2.09228515625E-06	-8.73105037157984E-08	-19944.576171875	0.000112107751192525
2	653	131.825191667173	0.031585693359375	0.0316802978515625	-2.34649658203125E-06	-7.43377057688122E-08	-13501.10546875	0.000111884241050575
2	654	131.925899666919	0.021514892578125	0.02158203125	-2.58209228515625E-06	-5.57267973988473E-08	-8358.3505859375	0.000111636065412313
2	655	132.026607666665	0.011444091796875	0.011529541015625	-2.77679443359375E-06	-3.2015165629673E-08	-4152.1044921875	0.000111366221972276
2	656	132.127315666411	0.001373291015625	0.00145568847656249	-2.91259765625E-06	-4.2398347055439E-09	-499.790435791016	0.000111079738417175
2	657	132.228023666156	-0.008697509765625	-0.00859680175781249	-2.9833984375E-06	2.56476866411504E-08	2881.546875	0.000110782850242686
2	658	132.328731665902	-0.018768310546875	-0.0186431884765625	-2.99560546875E-06	5.58476394019181E-08	6223.51318359375	0.000110481785668526
2	659	132.429439665648	-0.028839111328125	-0.0287353515625	-2.962646484375E-06	8.51326831252663E-08	9699.216796875	0.000110181768832263
2	660	132.530147665394	-0.038909912109375	-0.0387939453125	-2.90069580078125E-06	1.12529427553909E-07	13374.013671875	0.000109886525024194
2	661	132.630855665139	-0.048980712890625	-0.0488372802734375	-2.8240966796875E-06	1.37921205123348E-07	17293.064453125	0.000109598258859478
2	662	132.731563664885	-0.059051513671875	-0.05902099609375	-2.7423095703125E-06	1.61853847657767E-07	21522.369140625	0.000109317967144307
2	663	132.832271664631	-0.069122314453125	-0.069061279296875	-2.6605224609375E-06	1.83739075509948E-07	25957.7890625	0.000109045911813155
2	664	132.932979664376	-0.079193115234375	-0.079193115234375	-2.5836181640625E-06	2.04604774012296E-07	30652.01953125	0.000108781845483463
2	665	133.033687664122	-0.089263916015625	-0.089141845703125	-2.513427734375E-06	2.24051589725605E-07	35466.24609375	0.000108525193354581
2	666	133.134395663868	-0.099334716796875	-0.09918212890625	-2.449951171875E-06	2.4299137635353E-07	40483.30859375	0.000108275264210533
2	667	133.235103663614	-0.109405517578125	-0.10931396484375	-2.393798828125E-06	2.61675637602821E-07	45665.48046875	0.000108031359559391
2	668	133.335811663359	-0.119476318359375	-0.119384765625	-2.34375E-06	2.79808034520102E-07	50937.50390625	0.000107792810013052
2	669	133.436519663105	-0.129547119140625	-0.12939453125	-2.2991943359375E-06	2.97503163437796E-07	56278.20703125	0.000107559018942993
2	670	133.537227662851	-0.139617919921875	-0.13946533203125	-2.2601318359375E-06	3.15210030521484E-07	61706.72265625	0.000107329440652393
2	671	133.637935662597	-0.149688720703125	-0.1495361328125	-2.2259521484375E-06	3.32860281559988E-07	67178.5	0.000107103543996345
2	672	133.738643662342	-0.159759521484375	-0.159637451171875	-2.19573974609375E-06	3.50522270764486E-07	72703.2734375	0.000106880892417394
2	673	133.839351662088	-0.169830322265625	-0.169708251953125	-2.16888427734375E-06	3.68077564871783E-07	78246.796875	0.000106661122117657
2	674	133.940059661834	-0.179901123046875	-0.1796875	-2.14599609375E-06	3.85608643682644E-07	83731.515625	0.000106443847471382
2	675	134.04076766158	-0.189971923828125	-0.1898193359375	-2.12615966796875E-06	4.03586199126948E-07	89278.0234375	0.000106228726508562
2	676	134.141475661325	-0.200042724609375	-0.19989013671875	-2.10968017578125E-06	4.21704243080967E-07	94749.03125	0.000106015439087059
2	677	134.242183661071	-0.189971923828125	-0.189788818359375	-1.91192626953125E-06	3.62862209613013E-07	99265.7734375	0.000105812934634741
