Potential - Start -0.2 V, Upper Vertex 1.5 V, Lower Vertex -0.2 V, Stop -0.19 V; Scan - # end cross 5, Rate 0.1 Vps, Step 0.01 V 
Scan	Index	Time (s)	Potential applied (V)	WE(1).Potential (V)	WE(1).Current (A)	WE(1).Power (W)	WE(1).Resistance (Ω)	WE(1).Charge (C)
1	1	42.3331268931191	-0.189971923828125	-0.1898193359375	-2.105712890625E-07	3.99705015752261E-08	901449.3125	0
1	2	42.4338348928649	-0.179901123046875	-0.179718017578125	-1.71813964843751E-07	3.08780663260677E-08	1046003.5625	-1.92546263377835E-08
1	3	42.5345428926106	-0.169830322265625	-0.169647216796875	-1.42517089843749E-07	2.41776252352111E-08	1190364.125	-3.50824542749706E-08
1	4	42.6352508923563	-0.159759521484375	-0.159637451171875	-1.18408203125001E-07	1.89023836583146E-08	1348195.875	-4.82210857910559E-08
1	5	42.7359588921021	-0.149688720703125	-0.14959716796875	-9.67407226562494E-08	1.4472138154531E-08	1546372.25	-5.90546918033397E-08
1	6	42.8366668918478	-0.139617919921875	-0.139495849609375	-7.69042968749994E-08	1.0727829291568E-08	1813889	-6.77984175467827E-08
1	7	42.9373748915935	-0.129547119140625	-0.12939453125	-5.73730468750006E-08	7.4237584968273E-09	2255319.25	-7.45598143225834E-08
1	8	43.0380828913393	-0.119476318359375	-0.119354248046875	-3.75366210937506E-08	4.48015491372189E-09	3179675	-7.93388963415964E-08
1	9	43.138790891085	-0.109405517578125	-0.10931396484375	-1.73950195312494E-08	1.90151849821518E-09	6284211	-8.21049255250728E-08
1	10	43.2394988908308	-0.099334716796875	-0.099212646484375	4.57763671875E-09	-4.54159432283774E-10	-21673334	-8.27503328082457E-08
1	11	43.3402068905765	-0.089263916015625	-0.089202880859375	2.86865234375003E-08	-2.5589206309462E-09	-3109574.5	-8.10753491009564E-08
1	12	43.4409148903222	-0.079193115234375	-0.0791015625	5.61523437500003E-08	-4.44173808844539E-09	-1408695.75	-7.6803374327028E-08
1	13	43.541622890068	-0.069122314453125	-0.06903076171875	9.03320312499997E-08	-6.23568885416148E-09	-764189.1875	-6.94272941359486E-08
1	14	43.6423308898137	-0.059051513671875	-0.058990478515625	1.33361816406249E-07	-7.86707676780907E-09	-442334.125	-5.81634189700253E-08
1	15	43.7430388895594	-0.048980712890625	-0.0488189697265625	1.904296875E-07	-9.2965812825696E-09	-256362.171875	-4.18592200901458E-08
1	16	43.8437468893052	-0.038909912109375	-0.038775634765625	2.6580810546875E-07	-1.03068771295511E-08	-145878.296875	-1.88858226835009E-08
1	17	43.9444548890509	-0.028839111328125	-0.0287384033203125	3.6468505859375E-07	-1.04804653844326E-08	-78803.3515625	1.28620278871949E-08
1	18	44.0451628887967	-0.018768310546875	-0.0186737060546875	4.91943359374999E-07	-9.18640630231948E-09	-37959.05859375	5.59966935043121E-08
1	19	44.1458708885424	-0.008697509765625	-0.00860595703125	6.512451171875E-07	-5.60458746079462E-09	-13214.62109375	1.13560808756574E-07
1	20	44.2465788882881	0.001373291015625	0.00144348144531251	8.3953857421875E-07	1.21185828039216E-09	1719.37487792969	1.88627723218815E-07
1	21	44.3472868880339	0.011444091796875	0.0115142822265625	1.05072021484375E-06	1.20982885931653E-08	10958.4658203125	2.83809811207902E-07
1	22	44.4479948877796	0.021514892578125	0.02158203125	1.27044677734375E-06	2.74188227677996E-08	16987.75	4.00689856405734E-07
1	23	44.5487028875253	0.031585693359375	0.03167724609375	1.47918701171875E-06	4.68565701794432E-08	21415.30859375	5.39144934919022E-07
1	24	44.6494108872711	0.041656494140625	0.0417816162109375	1.65771484375E-06	6.92620076847561E-08	25204.34375	6.97100460911315E-07
1	25	44.7501188870168	0.051727294921875	0.051788330078125	1.78863525390625E-06	9.26304295489899E-08	28954.103515625	8.70637961725151E-07
1	26	44.8508268867625	0.061798095703125	0.06182861328125	1.86492919921875E-06	1.15305979875302E-07	33153.33203125	1.05460958366166E-06
1	27	44.9515348865083	0.071868896484375	0.0718994140625	1.8890380859375E-06	1.35820727109603E-07	38061.390625	1.24363680242823E-06
1	28	45.052242886254	0.081939697265625	0.08197021484375	1.871337890625E-06	1.53393969526405E-07	43803	1.43298677812709E-06
1	29	45.1529508859998	0.092010498046875	0.092010498046875	1.824951171875E-06	1.67914663506963E-07	50418.0625	1.61910975293722E-06
1	30	45.2536588857455	0.102081298828125	0.102081298828125	1.7633056640625E-06	1.80000526484037E-07	57892.0078125	1.79979281256237E-06
1	31	45.3543668854912	0.112152099609375	0.112152099609375	1.69647216796875E-06	1.90262909427474E-07	66109.015625	1.97400640900014E-06
1	32	45.455074885237	0.122222900390625	0.122283935546875	1.629638671875E-06	1.99278630930166E-07	75037.453125	2.14148940358427E-06
1	33	45.5557828849827	0.132293701171875	0.13232421875	1.56707763671875E-06	2.07362319315507E-07	84440.1171875	2.30245677812491E-06
1	34	45.6564908847284	0.142364501953125	0.142425537109375	1.50909423828125E-06	2.14933550068963E-07	94378.1640625	2.45735441239958E-06
1	35	45.7571988844742	0.152435302734375	0.15252685546875	1.45721435546875E-06	2.22264318949783E-07	104670.15625	2.60672004515072E-06
1	36	45.8579068842199	0.162506103515625	0.1624755859375	1.409912109375E-06	2.29076292157515E-07	115238.09375	2.75109118774708E-06
1	37	45.9586148839657	0.172576904296875	0.172637939453125	1.3677978515625E-06	2.36133800513016E-07	126215.9765625	2.89096010419598E-06
1	38	46.0593228837114	0.182647705078125	0.182647705078125	1.33056640625E-06	2.43024913970658E-07	137270.640625	3.02683338304632E-06
1	39	46.1600308834571	0.192718505859375	0.192718505859375	1.29730224609375E-06	2.50014153380107E-07	148553.28125	3.15915713144932E-06
1	40	46.2607388832029	0.202789306640625	0.202880859375	1.2677001953125E-06	2.57192112940174E-07	160038.515625	3.28831538354279E-06
1	41	46.3614468829486	0.212860107421875	0.21282958984375	1.24114990234375E-06	2.64153413809254E-07	171477.75	3.41464601660846E-06
1	42	46.4621548826943	0.222930908203125	0.222900390625	1.2176513671875E-06	2.71414961616756E-07	183057.65625	3.53845643985551E-06
1	43	46.5628628824401	0.233001708984375	0.233062744140625	1.1956787109375E-06	2.78668153441686E-07	194920.875	3.65997721019085E-06
1	44	46.6635708821858	0.243072509765625	0.243133544921875	1.17584228515625E-06	2.8588669920282E-07	206773.9375	3.77939272766525E-06
1	45	46.7642788819315	0.253143310546875	0.25311279296875	1.1578369140625E-06	2.93063322942544E-07	218608.328125	3.89690285373945E-06
1	46	46.8649868816773	0.263214111328125	0.263214111328125	1.141357421875E-06	3.00421390875272E-07	230614.96875	4.01267652705428E-06
1	47	46.965694881423	0.273284912109375	0.273223876953125	1.12548828125E-06	3.07510248376275E-07	242760.3125	4.12682129535824E-06
1	48	47.0664028811688	0.283355712890625	0.2833251953125	1.112060546875E-06	3.15074771606305E-07	254774.96875	4.23949086325592E-06
1	49	47.1671108809145	0.293426513671875	0.29345703125	1.099853515625E-06	3.22759746040902E-07	266814.65625	4.35086940342444E-06
1	50	47.2678188806602	0.303497314453125	0.303436279296875	1.08917236328125E-06	3.30494401623582E-07	278593.46875	4.46109561380581E-06
1	51	47.368526880406	0.313568115234375	0.313568115234375	1.07879638671875E-06	3.3827612355708E-07	290664.78125	4.57026180811226E-06
1	52	47.4692348801517	0.323638916015625	0.323699951171875	1.0699462890625E-06	3.46341550994111E-07	302538.5	4.67845939056133E-06
1	53	47.5699428798974	0.333709716796875	0.333740234375	1.0614013671875E-06	3.54232327026693E-07	314433.59375	4.78578112961259E-06
1	54	47.6706508796432	0.343780517578125	0.343780517578125	1.0540771484375E-06	3.62371167739184E-07	326143.625	4.89230387756834E-06
1	55	47.7713588793889	0.353851318359375	0.3538818359375	1.04766845703125E-06	3.70750825595678E-07	337780.375	4.99813540955074E-06
1	56	47.8720668791346	0.363922119140625	0.363861083984375	1.0418701171875E-06	3.79095979496924E-07	349238.4375	5.10335212311475E-06
1	57	47.9727748788804	0.373992919921875	0.373992919921875	1.03759765625E-06	3.88054161248874E-07	360441.1875	5.20806133863516E-06
1	58	48.0734828786261	0.384063720703125	0.384063720703125	1.033935546875E-06	3.97097124960055E-07	371458.09375	5.3123712859815E-06
1	59	48.1741908783719	0.394134521484375	0.3941650390625	1.03118896484375E-06	4.06458639190532E-07	382243.28125	5.41635881745606E-06
1	60	48.2748988781176	0.404205322265625	0.40423583984375	1.029052734375E-06	4.15979968693136E-07	392823.28125	5.52010033061379E-06
1	61	48.3756068778633	0.414276123046875	0.414276123046875	1.02783203125E-06	4.25806263137929E-07	403058.1875	5.62367267775699E-06
1	62	48.4763148776091	0.424346923828125	0.42431640625	1.02630615234375E-06	4.35478511917609E-07	413440.40625	5.72710678170552E-06
1	63	48.5770228773548	0.434417724609375	0.434417724609375	1.02569580078125E-06	4.45580411678748E-07	423534.6875	5.83043311053189E-06
1	64	48.6777308771005	0.444488525390625	0.444488525390625	1.0247802734375E-06	4.55503055718509E-07	433740.34375	5.93368258705596E-06
1	65	48.7784388768463	0.454559326171875	0.45452880859375	1.024169921875E-06	4.65514744973916E-07	443802.15625	6.03685566602508E-06
1	66	48.879146876592	0.464630126953125	0.464569091796875	1.02447509765625E-06	4.75939458510766E-07	453470.375	6.14001328358427E-06
1	67	48.9798548763378	0.474700927734375	0.47467041015625	1.02569580078125E-06	4.8686740683479E-07	462778.96875	6.24324729869841E-06
1	68	49.0805628760835	0.484771728515625	0.484771728515625	1.02630615234375E-06	4.97524183629139E-07	472346.125	6.34657408227213E-06
1	69	49.1812708758292	0.494842529296875	0.49481201171875	1.02691650390625E-06	5.08130597154377E-07	481842.5	6.44996180199087E-06
1	70	49.281978875575	0.504913330078125	0.5048828125	1.02813720703125E-06	5.19088757755526E-07	491065.625	6.55344183542184E-06
1	71	49.3826868753207	0.514984130859375	0.51495361328125	1.0296630859375E-06	5.30228703610192E-07	500118.5625	6.65706056679483E-06
1	72	49.4833948750664	0.525054931640625	0.525054931640625	1.03118896484375E-06	5.41430836165091E-07	509174.3125	6.76083254802506E-06
1	73	49.5841028748122	0.535125732421875	0.535125732421875	1.0333251953125E-06	5.52958852040319E-07	517867.71875	6.86478915667976E-06
1	74	49.6848108745579	0.545196533203125	0.545166015625	1.03546142578125E-06	5.64498350286158E-07	526495.75	6.96896086083143E-06
1	75	49.7855188743036	0.555267333984375	0.55523681640625	1.0382080078125E-06	5.76451270717371E-07	534803.0625	7.07337858329993E-06
1	76	49.8862268740494	0.565338134765625	0.565338134765625	1.041259765625E-06	5.8866385188594E-07	542936.6875	7.17808779882034E-06
1	77	49.9869348737951	0.575408935546875	0.57537841796875	1.0443115234375E-06	6.00874273004592E-07	550964.375	7.28310487829731E-06
1	78	50.0876428735409	0.585479736328125	0.58551025390625	1.04705810546875E-06	6.13063207310915E-07	559195.625	7.38841345082619E-06
1	79	50.1883508732866	0.595550537109375	0.595550537109375	1.05010986328125E-06	6.25393511199945E-07	567131.625	7.4940144259017E-06
1	80	50.2890588730323	0.605621337890625	0.60552978515625	1.05316162109375E-06	6.37720688700938E-07	574963.8125	7.59992235543905E-06
1	81	50.3897668727781	0.615692138671875	0.61566162109375	1.05712890625E-06	6.50833669624262E-07	582390.3125	7.70618407841539E-06
1	82	50.4904748725238	0.625762939453125	0.625762939453125	1.0601806640625E-06	6.63421815261245E-07	590241.75	7.81279868533602E-06
1	83	50.5911828722695	0.635833740234375	0.6357421875	1.06475830078125E-06	6.76911781738454E-07	597076.5	7.9197980085155E-06
1	84	50.6918908720153	0.645904541015625	0.6458740234375	1.06903076171875E-06	6.90459216912132E-07	604167.875	8.02724298409885E-06
1	85	50.792598871761	0.655975341796875	0.655914306640625	1.07269287109375E-06	7.03594594142487E-07	611465.1875	8.13508722785627E-06
1	86	50.8933068715068	0.666046142578125	0.665985107421875	1.0760498046875E-06	7.16633110187104E-07	618916.625	8.24328526505269E-06
1	87	50.9940148712525	0.676116943359375	0.676116943359375	1.07940673828125E-06	7.29805151422624E-07	626378.3125	8.35182072478347E-06
1	88	51.0947228709982	0.686187744140625	0.686126708984375	1.08184814453125E-06	7.42284896659839E-07	634217.1875	8.46064904180821E-06
1	89	51.195430870744	0.696258544921875	0.69622802734375	1.083984375E-06	7.54700295146904E-07	642286.0625	8.5697074609925E-06
1	90	51.2961388704897	0.706329345703125	0.70623779296875	1.08642578125E-06	7.67274912050198E-07	650056.1875	8.67899598233635E-06
1	91	51.3968468702354	0.716400146484375	0.716339111328125	1.08917236328125E-06	7.80216737439332E-07	657691.25	8.7885464381543E-06
1	92	51.4975548699812	0.726470947265625	0.7264404296875	1.0919189453125E-06	7.93214042005275E-07	665287.9375	8.89837247086689E-06
1	93	51.5982628697269	0.736541748046875	0.7364501953125	1.09375E-06	8.05492447852885E-07	673325.875	9.00842951523373E-06
1	94	51.6989708694726	0.746612548828125	0.74658203125	1.09649658203125E-06	8.18624641851784E-07	680879.5	9.11871757125482E-06
1	95	51.7996788692184	0.756683349609375	0.75653076171875	1.09832763671875E-06	8.30918622796162E-07	688802.4375	9.22923572943546E-06
1	96	51.9003868689641	0.766754150390625	0.7672119140625	1.1004638671875E-06	8.44288933876669E-07	697171.4375	9.33995397645049E-06
1	97	52.0010948687099	0.776824951171875	0.77728271484375	1.103515625E-06	8.57743600590766E-07	704369.5	9.45093324844493E-06
1	98	52.1018028684556	0.786895751953125	0.78704833984375	1.1065673828125E-06	8.7092195144578E-07	711252.125	9.56221902015386E-06
1	99	52.2025108682013	0.796966552734375	0.7977294921875	1.10992431640625E-06	8.8541929699204E-07	718724.25	9.67382857197663E-06
1	100	52.3032188679471	0.807037353515625	0.80718994140625	1.11419677734375E-06	8.99368387763388E-07	724459.0625	9.78582193056354E-06
1	101	52.4039268676928	0.817108154296875	0.81756591796875	1.11907958984375E-06	9.14921315597894E-07	730569.9375	9.89827640296426E-06
1	102	52.5046348674385	0.827178955078125	0.82763671875	1.124267578125E-06	9.30485100525402E-07	736156.375	1.00112383734086E-05
1	103	52.6053428671843	0.837249755859375	0.8367919921875	1.12884521484375E-06	9.44608586905815E-07	741281.4375	1.01246914709918E-05
1	104	52.70605086693	0.847320556640625	0.84716796875	1.13433837890625E-06	9.60975171437894E-07	746838.8125	1.0238651157124E-05
1	105	52.8067588666758	0.857391357421875	0.8575439453125	1.1395263671875E-06	9.77193963080936E-07	752544.1875	1.03531501736143E-05
1	106	52.9074668664215	0.867462158203125	0.86761474609375	1.14501953125E-06	9.93435833152034E-07	757729.25	1.04681857919786E-05
1	107	53.0081748661672	0.877532958984375	0.87738037109375	1.1505126953125E-06	1.00943714187451E-06	762599.5	1.05837752926163E-05
1	108	53.108882865913	0.887603759765625	0.88836669921875	1.15692138671875E-06	1.02777039501234E-06	767871.3125	1.06999632407678E-05
1	109	53.2095908656587	0.897674560546875	0.89813232421875	1.1627197265625E-06	1.04427613223379E-06	772440.9375	1.08167669168324E-05
1	110	53.3102988654044	0.907745361328125	0.9075927734375	1.16912841796875E-06	1.0610924618959E-06	776298.625	1.09341845018207E-05
1	111	53.4110068651502	0.917816162109375	0.91766357421875	1.1749267578125E-06	1.07818743799726E-06	781038.9375	1.10522169052274E-05
1	112	53.5117148648959	0.927886962890625	0.92803955078125	1.18072509765625E-06	1.09575955775654E-06	785991.1875	1.11708332042326E-05
1	113	53.6124228646416	0.937957763671875	0.9381103515625	1.1859130859375E-06	1.11251733869722E-06	791044.75	1.12900033855112E-05
1	114	53.7131308643874	0.948028564453125	0.948486328125	1.19171142578125E-06	1.13032194803964E-06	795902.75	1.14097265395685E-05
1	115	53.8138388641331	0.958099365234375	0.958251953125	1.1968994140625E-06	1.14693114028341E-06	800612	1.15300026664045E-05
1	116	53.9145468638789	0.968170166015625	0.968017578125	1.2030029296875E-06	1.16452793008648E-06	804667.75	1.1650847227429E-05
1	117	54.0152548636246	0.978240966796875	0.9783935546875	1.20880126953125E-06	1.18268337701011E-06	809391.625	1.17722911454621E-05
1	118	54.1159628633703	0.988311767578125	0.9881591796875	1.2152099609375E-06	1.20082086141338E-06	813159.1875	1.18943498819135E-05
1	119	54.2166708631161	0.998382568359375	0.99853515625	1.220703125E-06	1.21891491744464E-06	818000	1.20170079753734E-05
1	120	54.3173788628618	1.00845336914063	1.00830078125	1.2261962890625E-06	1.23637460092141E-06	822299.6875	1.2140219041612E-05
1	121	54.4180868626075	1.01852416992188	1.0186767578125	1.2310791015625E-06	1.25407166251534E-06	827466.5625	1.22639521578094E-05
1	122	54.5187948623533	1.02859497070313	1.02813720703125	1.236572265625E-06	1.27136593164323E-06	831441.3125	1.23882082334603E-05
1	123	54.619502862099	1.03866577148438	1.03851318359375	1.24176025390625E-06	1.28958436107496E-06	836323.5	1.25130027299747E-05
1	124	54.7202108618447	1.04873657226563	1.048583984375	1.2481689453125E-06	1.30880994220206E-06	840097.8125	1.26383802125929E-05
1	125	54.8209188615905	1.05880737304688	1.0589599609375	1.25457763671875E-06	1.32854745515942E-06	844076.9375	1.27644034364494E-05
1	126	54.9216268613362	1.06887817382813	1.0687255859375	1.2615966796875E-06	1.34830054321355E-06	847121.5	1.28911033243639E-05
1	127	55.022334861082	1.07894897460938	1.07879638671875	1.26800537109375E-06	1.36791959448601E-06	850782.1875	1.30184789668419E-05
1	128	55.1230428608277	1.08901977539063	1.08856201171875	1.2750244140625E-06	1.38794314352708E-06	853757.8125	1.31465303638834E-05
1	129	55.2237508605734	1.09909057617188	1.0992431640625	1.28204345703125E-06	1.40927738812024E-06	857414.9375	1.32752893478028E-05
1	130	55.3244588603192	1.10916137695313	1.10931396484375	1.2896728515625E-06	1.43065210522764E-06	860151.5	1.34047850224306E-05
1	131	55.4251668600649	1.11923217773438	1.11907958984375	1.2982177734375E-06	1.45280898777855E-06	862012.25	1.35350956043112E-05
1	132	55.5258748598106	1.12930297851563	1.129150390625	1.307373046875E-06	1.47622074564424E-06	863678.8125	1.36662974909996E-05
1	133	55.6265828595564	1.13937377929688	1.13922119140625	1.31744384765625E-06	1.50085986660997E-06	864720.9375	1.37984679895453E-05
1	134	55.7272908593021	1.14944458007813	1.14959716796875	1.32781982421875E-06	1.52645782236505E-06	865778.0625	1.39316671265988E-05
1	135	55.8279988590479	1.15951538085938	1.15936279296875	1.3385009765625E-06	1.55180816818756E-06	866165.0625	1.40659276439692E-05
1	136	55.9287068587936	1.16958618164063	1.16973876953125	1.34857177734375E-06	1.57747672346886E-06	867390.8125	1.42012322612572E-05
1	137	56.0294148585393	1.17965698242188	1.17950439453125	1.35955810546875E-06	1.6036046872614E-06	867564.5625	1.43375973493676E-05
1	138	56.1301228582851	1.18972778320313	1.18988037109375	1.37054443359375E-06	1.63078391324234E-06	868180.8125	1.447506929253E-05
1	139	56.2308308580308	1.19979858398438	1.1993408203125	1.380615234375E-06	1.65582821409771E-06	868700.25	1.46136007970199E-05
1	140	56.3315388577765	1.20986938476563	1.209716796875	1.3922119140625E-06	1.68418205248599E-06	868917.1875	1.4753223695152E-05
1	141	56.4322468575223	1.21994018554688	1.2200927734375	1.40380859375E-06	1.71277667959657E-06	869130.4375	1.48940143844811E-05
1	142	56.532954857268	1.23001098632813	1.22955322265625	1.4154052734375E-06	1.74031606547942E-06	868693.4375	1.50359728650074E-05
1	143	56.6336628570137	1.24008178710938	1.23992919921875	1.42730712890625E-06	1.7697597058941E-06	868719.3125	1.51791155076353E-05
1	144	56.7343708567595	1.25015258789063	1.25	1.43829345703125E-06	1.79786684384453E-06	869085.5	1.53234104800504E-05
1	145	56.8350788565052	1.26022338867188	1.2603759765625	1.448974609375E-06	1.82625274192105E-06	869839.9375	1.54687950271182E-05
1	146	56.935786856251	1.27029418945313	1.2701416015625	1.45965576171875E-06	1.85396947927075E-06	870165.1875	1.56152564159129E-05
1	147	57.0364948559967	1.28036499023438	1.2799072265625	1.47064208984375E-06	1.88228534625523E-06	870305.0625	1.57628091983497E-05
1	148	57.1372028557424	1.29043579101563	1.290283203125	1.48284912109375E-06	1.91329513654637E-06	870137.9375	1.59115279529942E-05
1	149	57.2379108554882	1.30050659179688	1.30035400390625	1.495361328125E-06	1.94449899026949E-06	869591.875	1.60614927153802E-05
1	150	57.3386188552339	1.31057739257813	1.3104248046875	1.50909423828125E-06	1.97755457520543E-06	868351.875	1.62127798830625E-05
1	151	57.4393268549796	1.32064819335938	1.32049560546875	1.524658203125E-06	2.0133043108217E-06	866092.875	1.63655404321617E-05
1	152	57.5400348547254	1.33071899414063	1.33056640625	1.54144287109375E-06	2.05099217964744E-06	863195.375	1.65199326147558E-05
1	153	57.6407428544711	1.34078979492188	1.34063720703125	1.56005859375E-06	2.0914724245813E-06	859350.5625	1.66761055879761E-05
1	154	57.7414508542169	1.35086059570313	1.3507080078125	1.5802001953125E-06	2.13438897844753E-06	854770.1875	1.68342285178369E-05
1	155	57.8421588539626	1.36093139648438	1.361083984375	1.602783203125E-06	2.18152263187221E-06	849200.3125	1.69945051311515E-05
1	156	57.9428668537083	1.37100219726563	1.37176513671875	1.629638671875E-06	2.23548136091267E-06	841760.3125	1.71572701219702E-05
1	157	58.0435748534541	1.38107299804688	1.38092041015625	1.66046142578125E-06	2.29296506404353E-06	831648.625	1.73229400388664E-05
1	158	58.1442828531998	1.39114379882813	1.3909912109375	1.69708251953125E-06	2.36062669500825E-06	819636.8125	1.74920060089789E-05
1	159	58.2449908529455	1.40121459960938	1.40106201171875	1.7388916015625E-06	2.43629483520635E-06	805721.3125	1.76650210050866E-05
1	160	58.3456988526913	1.41128540039063	1.4111328125	1.78741455078125E-06	2.52227914643299E-06	789482.6875	1.78425852936925E-05
1	161	58.446406852437	1.42135620117188	1.42120361328125	1.84234619140625E-06	2.61834907178127E-06	771409.6875	1.80253573489608E-05
1	162	58.5471148521827	1.43142700195313	1.43157958984375	1.90643310546875E-06	2.7292107915855E-06	750920.4375	1.82141229743138E-05
1	163	58.6478228519285	1.44149780273438	1.44195556640625	1.97906494140625E-06	2.853723572116E-06	728604.5	1.84097734745592E-05
1	164	58.7485308516742	1.45156860351563	1.4520263671875	2.06329345703125E-06	2.99595626529481E-06	703742.125	1.86133238457842E-05
1	165	58.84923885142	1.46163940429688	1.4617919921875	2.1600341796875E-06	3.15752072310715E-06	676744.8125	1.88259837159421E-05
1	166	58.9499468511657	1.47171020507813	1.47125244140625	2.27264404296875E-06	3.34363312504138E-06	647374.8125	1.90491882676724E-05
1	167	59.0506548509114	1.48178100585938	1.48162841796875	2.401123046875E-06	3.55757219949737E-06	617056.4375	1.92845309356926E-05
1	168	59.1513628506572	1.49185180664063	1.49139404296875	2.54547119140625E-06	3.79630023417121E-06	585901	1.95336106116883E-05
1	169	59.2520708504029	1.50192260742188	1.50146484375	2.70050048828125E-06	4.05470609621261E-06	555995.0625	1.97977660718607E-05
1	170	59.3527788501486	1.49185180664063	1.49139404296875	2.30255126953125E-06	3.43401097779861E-06	647713.75	2.00496906472836E-05
1	171	59.4534868498944	1.48178100585938	1.48162841796875	2.0037841796875E-06	2.96886355499737E-06	739415.1875	2.02665323740803E-05
1	172	59.5541948496401	1.47171020507813	1.4715576171875	1.7657470703125E-06	2.59839839600318E-06	833391	2.04563420993509E-05
1	173	59.6549028493858	1.46163940429688	1.4617919921875	1.5716552734375E-06	2.29743318413966E-06	930097.0625	2.06243948923657E-05
1	174	59.7556108491316	1.45156860351563	1.451416015625	1.4129638671875E-06	2.05079822990228E-06	1027213.875	2.0774681615876E-05
1	175	59.8563188488773	1.44149780273438	1.44134521484375	1.28173828125E-06	1.84742737019405E-06	1124523.875	2.09103709494229E-05
1	176	59.9570268486231	1.43142700195313	1.43157958984375	1.17340087890625E-06	1.67981670529116E-06	1220026	2.10339967452455E-05
1	177	60.0577348483688	1.42135620117188	1.42181396484375	1.083984375E-06	1.54122403728252E-06	1311655.5	2.11476653930731E-05
1	178	60.1584428481145	1.41128540039063	1.4117431640625	1.00982666015625E-06	1.42561589200341E-06	1398005.5	2.12530976568814E-05
1	179	60.2591508478603	1.40121459960938	1.4013671875	9.48181152343749E-07	1.32874993141741E-06	1477953	2.13516905205324E-05
1	180	60.359858847606	1.39114379882813	1.3909912109375	8.9752197265625E-07	1.24844518722966E-06	1549813	2.14446299651172E-05
1	181	60.4605668473517	1.38107299804688	1.380615234375	8.55102539062499E-07	1.18056755127327E-06	1614561	2.15328800550196E-05
1	182	60.5612748470975	1.37100219726563	1.37115478515625	8.19091796875E-07	1.1231015832891E-06	1673994.125	2.16171829379164E-05
1	183	60.6619828468432	1.36093139648438	1.36138916015625	7.89489746093749E-07	1.07480275346461E-06	1724391.25	2.16981807170669E-05
1	184	60.762690846589	1.35086059570313	1.3507080078125	7.63549804687499E-07	1.03133277207235E-06	1768984.875	2.17763827095041E-05
1	185	60.8633988463347	1.34078979492188	1.34063720703125	7.42492675781251E-07	9.95413302007364E-07	1805589.875	2.18522181967273E-05
1	186	60.9641068460804	1.33071899414063	1.3299560546875	7.24182128906251E-07	9.63130332820583E-07	1836494	2.19260709855007E-05
1	187	61.0648148458262	1.32064819335938	1.32080078125	7.07397460937501E-07	9.34331069402106E-07	1867127	2.19981575355632E-05
1	188	61.1655228455719	1.31057739257813	1.3104248046875	6.92138671875001E-07	9.06995637706132E-07	1893298.125	2.20686288230354E-05
1	189	61.2662308453176	1.30050659179688	1.30035400390625	6.793212890625E-07	8.83358097780729E-07	1914196	2.21376885747304E-05
1	190	61.3669388450634	1.29043579101563	1.29058837890625	6.6802978515625E-07	8.62151466662908E-07	1931932.375	2.22055332415039E-05
1	191	61.4676468448091	1.28036499023438	1.28021240234375	6.57043457031251E-07	8.41155156194873E-07	1948444.125	2.22722555918153E-05
1	192	61.5683548445548	1.27029418945313	1.2701416015625	6.47888183593751E-07	8.22909726139187E-07	1960433.375	2.23379629460396E-05
1	193	61.6690628443006	1.26022338867188	1.26068115234375	6.390380859375E-07	8.05623301403102E-07	1972779.375	2.24027662625303E-05
1	194	61.7697708440463	1.25015258789063	1.25030517578125	6.30798339843749E-07	7.88690385888913E-07	1982099.75	2.24667073780438E-05
1	195	61.8704788437921	1.24008178710938	1.23992919921875	6.21643066406249E-07	7.70793349147425E-07	1994600	2.25297717406647E-05
1	196	61.9711868435378	1.23001098632813	1.23016357421875	6.12792968750001E-07	7.53835593059193E-07	2007470.125	2.25919320655521E-05
1	197	62.0718948432835	1.21994018554688	1.219482421875	6.05163574218751E-07	7.37986340482166E-07	2015128.625	2.26532611122821E-05
1	198	62.1726028430293	1.20986938476563	1.209716796875	5.9661865234375E-07	7.21739581877046E-07	2027621.5	2.27137752517592E-05
1	199	62.273310842775	1.19979858398438	1.19964599609375	5.88378906250001E-07	7.05846389337239E-07	2038900.5	2.27734435611637E-05
1	200	62.3740188425207	1.18972778320313	1.18988037109375	5.810546875E-07	6.91385537265887E-07	2047794.125	2.28323297051247E-05
1	201	62.4747268422665	1.17965698242188	1.1798095703125	5.74340820312499E-07	6.77612774779845E-07	2054197.75	2.28905082622077E-05
1	202	62.5754348420122	1.16958618164063	1.16973876953125	5.67626953125E-07	6.63975242787274E-07	2060752.625	2.2948011974222E-05
1	203	62.676142841758	1.15951538085938	1.15936279296875	5.60913085937501E-07	6.50301728910563E-07	2066920.625	2.30048372031888E-05
1	204	62.7768508415037	1.14944458007813	1.1492919921875	5.535888671875E-07	6.36235256479267E-07	2076075	2.3060956664267E-05
1	205	62.8775588412494	1.13937377929688	1.13983154296875	5.47180175781251E-07	6.23693210854981E-07	2083101	2.31163849093718E-05
1	206	62.9782668409952	1.12930297851563	1.12945556640625	5.401611328125E-07	6.10087965924322E-07	2090960.5	2.3171138309408E-05
1	207	63.0789748407409	1.11923217773438	1.119384765625	5.34667968749999E-07	5.98499127590912E-07	2093607.375	2.32252587011317E-05
1	208	63.1796828404866	1.10916137695313	1.10931396484375	5.2947998046875E-07	5.8735952279676E-07	2095100.875	2.32788443099707E-05
1	209	63.2803908402324	1.09909057617188	1.0986328125	5.24291992187501E-07	5.76004367758287E-07	2095459.875	2.33319060498616E-05
1	210	63.3810988399781	1.08901977539063	1.0888671875	5.19409179687499E-07	5.65567631838348E-07	2096357.25	2.33844602917088E-05
1	211	63.4818068397238	1.07894897460938	1.07940673828125	5.145263671875E-07	5.55383167011314E-07	2097865	2.34365215874277E-05
1	212	63.5825148394696	1.06887817382813	1.06903076171875	5.09033203125001E-07	5.44172166883072E-07	2100119.75	2.34880626521772E-05
1	213	63.6832228392153	1.05880737304688	1.05926513671875	5.0323486328125E-07	5.33059107965528E-07	2104912.25	2.35390343732433E-05
1	214	63.7839308389611	1.04873657226563	1.048583984375	4.974365234375E-07	5.21603965353279E-07	2107975.5	2.3589422198711E-05
1	215	63.8846388387068	1.03866577148438	1.03851318359375	4.9163818359375E-07	5.10572704115475E-07	2112352.75	2.363922612858E-05
1	216	63.9853468384525	1.02859497070313	1.02813720703125	4.8675537109375E-07	5.00451278639957E-07	2112225.75	2.36884916375857E-05
1	217	64.0860548381983	1.01852416992188	1.0186767578125	4.8095703125E-07	4.89939736780798E-07	2118020.5	2.37372205447173E-05
1	218	64.186762837944	1.00845336914063	1.00830078125	4.75158691406249E-07	4.79102880035498E-07	2122029.5	2.37853655562503E-05
1	219	64.2874708376897	0.998382568359375	0.99822998046875	4.69360351562501E-07	4.68529577801746E-07	2126788	2.38329248531954E-05
1	220	64.3881788374355	0.988311767578125	0.98876953125	4.6234130859375E-07	4.57148985333333E-07	2138614	2.38798402278917E-05
1	221	64.4888868371812	0.978240966796875	0.9783935546875	4.559326171875E-07	4.46081514837715E-07	2145917	2.39260789385298E-05
1	222	64.5895948369269	0.968170166015625	0.968017578125	4.47692871093749E-07	4.33374566455313E-07	2162236	2.39715791394701E-05
1	223	64.6903028366727	0.958099365234375	0.95855712890625	4.40673828125E-07	4.22411034151082E-07	2175207.75	2.40163117268821E-05
1	224	64.7910108364184	0.948028564453125	0.94818115234375	4.3365478515625E-07	4.11183293635986E-07	2186488.5	2.40603385464055E-05
1	225	64.8917188361642	0.937957763671875	0.93841552734375	4.2694091796875E-07	4.00647991227743E-07	2197998.5	2.41036723309662E-05
1	226	64.9924268359099	0.927886962890625	0.92803955078125	4.1961669921875E-07	3.89420904411963E-07	2211636.5	2.41463003476383E-05
1	227	65.0931348356556	0.917816162109375	0.91827392578125	4.12902832031251E-07	3.79157910401773E-07	2223946.75	2.41882207774324E-05
1	228	65.1938428354014	0.907745361328125	0.90789794921875	4.058837890625E-07	3.68501048342296E-07	2236842.25	2.42294499912532E-05
1	229	65.2945508351471	0.897674560546875	0.89752197265625	3.9825439453125E-07	3.57442047516088E-07	2253640	2.42699425143655E-05
1	230	65.3952588348928	0.887603759765625	0.8880615234375	3.90625E-07	3.46899014402879E-07	2273437.5	2.43096656049602E-05
1	231	65.4959668346386	0.877532958984375	0.877685546875	3.83911132812501E-07	3.36953235091642E-07	2286168.5	2.43486665567616E-05
1	232	65.5966748343843	0.867462158203125	0.8673095703125	3.7811279296875E-07	3.27940853139808E-07	2293785.25	2.438703631924E-05
1	233	65.6973828341301	0.857391357421875	0.8575439453125	3.7200927734375E-07	3.19014304750453E-07	2305168.25	2.4424809453194E-05
1	234	65.7980908338758	0.847320556640625	0.84747314453125	3.6651611328125E-07	3.10612563225732E-07	2312239.75	2.44619968725601E-05
1	235	65.8987988336215	0.837249755859375	0.83709716796875	3.61022949218751E-07	3.02211276448361E-07	2318681.5	2.44986313191475E-05
1	236	65.9995068333673	0.827178955078125	0.82763671875	3.558349609375E-07	2.9450205829562E-07	2325900.75	2.45347273448715E-05
1	237	66.100214833113	0.817108154296875	0.8172607421875	3.50341796875001E-07	2.86320585018984E-07	2332752.75	2.45702867687214E-05
1	238	66.2009228328587	0.807037353515625	0.80718994140625	3.4454345703125E-07	2.78111997431552E-07	2342781.25	2.4605276848888E-05
1	239	66.3016308326045	0.796966552734375	0.79681396484375	3.39355468749999E-07	2.70403177182743E-07	2348021.5	2.4639713956276E-05
1	240	66.4023388323502	0.786895751953125	0.78643798828125	3.35083007812501E-07	2.63521997112548E-07	2346994.5	2.46736744884402E-05
1	241	66.5030468320959	0.776824951171875	0.77728271484375	3.30200195312499E-07	2.56658893249551E-07	2353974.25	2.47071748162853E-05
1	242	66.6037548318417	0.766754150390625	0.7666015625	3.25927734375001E-07	2.49856697109863E-07	2352060	2.47402131208219E-05
1	243	66.7044628315874	0.756683349609375	0.75714111328125	3.2196044921875E-07	2.43769477492606E-07	2351658.75	2.47728366957745E-05
1	244	66.8051708313332	0.746612548828125	0.74652099609375	3.1707763671875E-07	2.36705105294277E-07	2354379.25	2.48050146183232E-05
1	245	66.9058788310789	0.736541748046875	0.736419677734375	3.1097412109375E-07	2.29007454777275E-07	2368106	2.48366395680932E-05
1	246	67.0065868308246	0.726470947265625	0.72637939453125	3.04565429687501E-07	2.21230038732756E-07	2384970	2.48676351475297E-05
1	247	67.1072948305704	0.716400146484375	0.71624755859375	2.9876708984375E-07	2.13991185660234E-07	2397344.25	2.48980140895583E-05
1	248	67.2080028303161	0.706329345703125	0.706298828125	2.92358398437501E-07	2.06492387633261E-07	2415866.5	2.49277800321579E-05
1	249	67.3087108300618	0.696258544921875	0.6961669921875	2.85949707031249E-07	1.99068750816878E-07	2434578.5	2.49569002335193E-05
1	250	67.4094188298076	0.686187744140625	0.686126708984375	2.80151367187501E-07	1.92219332006971E-07	2449128.5	2.49854056164622E-05
1	251	67.5101268295533	0.676116943359375	0.676025390625	2.73742675781249E-07	1.85056990176236E-07	2469565.25	2.50132961809868E-05
1	252	67.6108348292991	0.666046142578125	0.66595458984375	2.67639160156249E-07	1.78235524117554E-07	2488255.25	2.50405573751777E-05
1	253	67.7115428290448	0.655975341796875	0.6558837890625	2.6092529296875E-07	1.71136662174831E-07	2513684.25	2.50671728281304E-05
1	254	67.8122508287905	0.645904541015625	0.6458740234375	2.55126953125E-07	1.64779862643627E-07	2531579.25	2.50931570917601E-05
1	255	67.9129588285363	0.635833740234375	0.63580322265625	2.49328613281249E-07	1.58523917548337E-07	2550061.5	2.51185592787806E-05
1	256	68.013666828282	0.625762939453125	0.625701904296875	2.4383544921875E-07	1.52568304656597E-07	2566082.75	2.51433921221178E-05
1	257	68.1143748280277	0.615692138671875	0.61572265625	2.398681640625E-07	1.47692261975862E-07	2566921	2.51677483902313E-05
1	258	68.2150828277735	0.605621337890625	0.605560302734375	2.362060546875E-07	1.43036999133983E-07	2563695.25	2.51917208515806E-05
1	259	68.3157908275192	0.595550537109375	0.595550537109375	2.32849121093751E-07	1.38673414085133E-07	2557667.25	2.52153404289857E-05
1	260	68.4164988272649	0.585479736328125	0.58544921875	2.3040771484375E-07	1.34892005121401E-07	2540927.25	2.52386671490967E-05
1	261	68.5172068270107	0.575408935546875	0.575408935546875	2.2705078125E-07	1.30647052287713E-07	2534274.25	2.52617010119138E-05
1	262	68.6179148267564	0.565338134765625	0.5653076171875	2.2430419921875E-07	1.26800870248189E-07	2520272.25	2.52844292845111E-05
1	263	68.7186228265022	0.555267333984375	0.555267333984375	2.215576171875E-07	1.23023710330017E-07	2506198.5	2.53068792517297E-05
1	264	68.8193308262479	0.545196533203125	0.545257568359375	2.19116210937501E-07	1.19474762527716E-07	2488440.25	2.53290691034636E-05
1	265	68.9200388259936	0.535125732421875	0.535125732421875	2.1636962890625E-07	1.15784956733478E-07	2473201.75	2.53509970207233E-05
1	266	69.0207468257394	0.525054931640625	0.525054931640625	2.14538574218751E-07	1.12644535477102E-07	2447368.5	2.53726957453182E-05
1	267	69.1214548254851	0.514984130859375	0.514923095703125	2.117919921875E-07	1.09056585984035E-07	2431268	2.53941634582588E-05
1	268	69.2221628252308	0.504913330078125	0.50494384765625	2.09655761718749E-07	1.05864380373077E-07	2408442.5	2.541538560763E-05
1	269	69.3228708249766	0.494842529296875	0.494842529296875	2.06909179687501E-07	1.023874602879E-07	2391593	2.54363603744423E-05
1	270	69.4235788247223	0.484771728515625	0.484771728515625	2.0416259765625E-07	9.89722508393243E-08	2374439.5	2.54570604738547E-05
1	271	69.524286824468	0.474700927734375	0.474700927734375	2.00805664062501E-07	9.53226333422208E-08	2363981.75	2.54774513450684E-05
1	272	69.6249948242138	0.464630126953125	0.464599609375	1.97448730468749E-07	9.17345985840257E-08	2353014	2.54975057032425E-05
1	273	69.7257028239595	0.454559326171875	0.45452880859375	1.94396972656249E-07	8.83590161038228E-08	2338147.75	2.55172362813028E-05
1	274	69.8264108237053	0.444488525390625	0.444488525390625	1.91650390625001E-07	8.51864001560898E-08	2319267.5	2.55366758210585E-05
1	275	69.927118823451	0.434417724609375	0.4344482421875	1.88598632812501E-07	8.19363421555863E-08	2303559.75	2.55558225035202E-05
1	276	70.0278268231967	0.424346923828125	0.42431640625	1.85241699218749E-07	7.86010900810652E-08	2290609.75	2.55746472248575E-05
1	277	70.1285348229425	0.414276123046875	0.414276123046875	1.82495117187501E-07	7.56033671223122E-08	2270067	2.55931627179962E-05
1	278	70.2292428226882	0.404205322265625	0.404205322265625	1.79138183593749E-07	7.24086106629329E-08	2256388.5	2.56113726209151E-05
1	279	70.3299508224339	0.394134521484375	0.394134521484375	1.76086425781249E-07	6.94017359137433E-08	2238301.75	2.56292605627095E-05
1	280	70.4306588221797	0.384063720703125	0.38409423828125	1.7242431640625E-07	6.62271801843417E-08	2227610.75	2.56468083534855E-05
1	281	70.5313668219254	0.373992919921875	0.374053955078125	1.70288085937501E-07	6.36969303968726E-08	2196595	2.56640669249464E-05
1	282	70.6320748216712	0.363922119140625	0.363922119140625	1.68457031249999E-07	6.13052364428768E-08	2160326.25	2.56811235885834E-05
1	283	70.7327828214169	0.353851318359375	0.353790283203125	1.66931152343749E-07	5.90586175519547E-08	2119378.5	2.5698011086206E-05
1	284	70.8334908211626	0.343780517578125	0.343780517578125	1.6510009765625E-07	5.67581928123673E-08	2082255.125	2.57147312368033E-05
1	285	70.9341988209084	0.333709716796875	0.333770751953125	1.6326904296875E-07	5.44944285252313E-08	2044299.125	2.57312658504816E-05
1	286	71.0349068206541	0.323638916015625	0.32366943359375	1.6143798828125E-07	5.22525382962158E-08	2004915	2.57476149272406E-05
1	287	71.1356148203998	0.313568115234375	0.313568115234375	1.5899658203125E-07	4.98562577888606E-08	1972168.875	2.57637511822395E-05
1	288	71.2363228201456	0.303497314453125	0.303436279296875	1.56555175781251E-07	4.75045212056102E-08	1938206.625	2.57796400546795E-05
1	289	71.3370308198913	0.293426513671875	0.29339599609375	1.5380859375E-07	4.51268213907952E-08	1907539.75	2.57952688116347E-05
1	290	71.437738819637	0.283355712890625	0.283416748046875	1.51672363281249E-07	4.29864854822881E-08	1868611.75	2.58106501860311E-05
1	291	71.5384468193828	0.273284912109375	0.273345947265625	1.48925781250001E-07	4.07082580977658E-08	1835450.875	2.5825785996858E-05
1	292	71.6391548191285	0.263214111328125	0.263214111328125	1.45568847656249E-07	3.83157754413332E-08	1808176.125	2.58406162174651E-05
1	293	71.7398628188743	0.253143310546875	0.25311279296875	1.42822265625001E-07	3.61501406587195E-08	1772222.25	2.58551372098736E-05
1	294	71.84057081862	0.243072509765625	0.243072509765625	1.3885498046875E-07	3.375182799914E-08	1750549.5	2.58693198702531E-05
1	295	71.9412788183657	0.233001708984375	0.233062744140625	1.3427734375E-07	3.12950447778348E-08	1735681.875	2.58830732491333E-05
1	296	72.0419868181115	0.222930908203125	0.222930908203125	1.28784179687499E-07	2.8709974841945E-08	1731042.625	2.58963209489593E-05
1	297	72.1426948178572	0.212860107421875	0.21282958984375	1.2237548828125E-07	2.60451233913273E-08	1739152.25	2.59089665632928E-05
1	298	72.2434028176029	0.202789306640625	0.202880859375	1.15966796875E-07	2.35274431048538E-08	1749473.75	2.59209682553774E-05
1	299	72.3441108173487	0.192718505859375	0.192779541015625	1.08642578125E-07	2.09440660370319E-08	1774438.25	2.59322787314886E-05
1	300	72.4448188170944	0.182647705078125	0.18267822265625	1.01318359374999E-07	1.85086577175753E-08	1803012.125	2.5942850697902E-05
1	301	72.5455268168402	0.172576904296875	0.172607421875	9.27734375000003E-08	1.60133826199171E-08	1860526.375	2.59526241279673E-05
1	302	72.6462348165859	0.162506103515625	0.162567138671875	8.23974609375E-08	1.33951187919479E-08	1972963.125	2.59614444075851E-05
1	303	72.7469428163316	0.152435302734375	0.1524658203125	6.80541992187506E-08	1.03759392189318E-08	2240358.75	2.59690204984508E-05
1	304	72.8476508160774	0.142364501953125	0.142425537109375	5.06591796874997E-08	7.21516046908732E-09	2811445.75	2.59749976976309E-05
1	305	72.9483588158231	0.132293701171875	0.13232421875	2.80761718749994E-08	3.71515729291616E-09	4713043.5	2.59789630945306E-05
1	306	73.0490668155688	0.122222900390625	0.122283935546875	-6.10351562499445E-10	-7.46361861203582E-11	-200350000	2.59803455264773E-05
1	307	73.1497748153146	0.112152099609375	0.112152099609375	-3.96728515625E-08	-4.449393742334E-09	-2826923	2.59783173532924E-05
1	308	73.2504828150603	0.102081298828125	0.1021728515625	-9.1552734375E-08	-9.35420363390449E-09	-1116000	2.59717089647893E-05
1	309	73.351190814806	0.092010498046875	0.09210205078125	-1.617431640625E-07	-1.4896876621151E-08	-569434	2.5958956030081E-05
1	310	73.4518988145518	0.081939697265625	0.08197021484375	-2.55737304687501E-07	-2.09628403524675E-08	-320525.0625	2.59379339695442E-05
1	311	73.5526068142975	0.071868896484375	0.0718994140625	-3.7872314453125E-07	-2.72299729431325E-08	-189846.890625	2.59059852396604E-05
1	312	73.6533148140433	0.061798095703125	0.06182861328125	-5.3375244140625E-07	-3.30011715732326E-08	-115837.625	2.58600393863162E-05
1	313	73.754022813789	0.051727294921875	0.051788330078125	-7.21130371093751E-07	-3.73461368496919E-08	-71815.4921875	2.57968513324158E-05
1	314	73.8547308135347	0.041656494140625	0.041754150390625	-9.33837890625E-07	-3.89916046117378E-08	-44712.41796875	2.57135161518818E-05
1	315	73.9554388132805	0.031585693359375	0.0317138671875	-1.15966796875E-06	-3.67775534471093E-08	-27347.3671875	2.56081002589781E-05
1	316	74.0561468130262	0.021514892578125	0.0216400146484375	-1.37847900390625E-06	-2.98303035606295E-08	-15698.47265625	2.54802944255061E-05
1	317	74.1568548127719	0.011444091796875	0.0115966796875	-1.5704345703125E-06	-1.82118267133546E-08	-7384.37646484375	2.53318048635265E-05
1	318	74.2575628125177	0.001373291015625	0.00147399902343751	-1.71722412109375E-06	-2.53118659365725E-09	-858.361450195313	2.51662586379098E-05
1	319	74.3582708122634	-0.008697509765625	-0.0086212158203125	-1.807861328125E-06	1.5585962742648E-08	4768.7373046875	2.49887561949436E-05
1	320	74.4589788120091	-0.018768310546875	-0.018646240234375	-1.8438720703125E-06	3.43812800451815E-08	10112.5458984375	2.48048763751285E-05
1	321	74.5596868117549	-0.028839111328125	-0.028729248046875	-1.834716796875E-06	5.2710031894776E-08	15658.68359375	2.46196450461866E-05
1	322	74.6603948115006	-0.038909912109375	-0.0387420654296875	-1.79229736328125E-06	6.94372985776681E-08	21615.869140625	2.44370094151236E-05
1	323	74.7611028112464	-0.048980712890625	-0.0488311767578125	-1.73126220703125E-06	8.4539564682018E-08	28205.53515625	2.42595851887017E-05
1	324	74.8618108109921	-0.059051513671875	-0.05902099609375	-1.66290283203125E-06	9.81461809601569E-08	35492.75	2.4088674763334E-05
1	325	74.9625188107378	-0.069122314453125	-0.069061279296875	-1.59271240234375E-06	1.09994751085196E-07	43360.796875	2.39247419813182E-05
1	326	75.0632268104836	-0.079193115234375	-0.07916259765625	-1.5277099609375E-06	1.20937485803552E-07	51817.81640625	2.37676158576505E-05
1	327	75.1639348102293	-0.089263916015625	-0.08917236328125	-1.468505859375E-06	1.30950141397079E-07	60723.19140625	2.36167452385416E-05
1	328	75.264642809975	-0.099334716796875	-0.09930419921875	-1.41632080078125E-06	1.40646591262339E-07	70114.203125	2.34714825637639E-05
1	329	75.3653508097208	-0.109405517578125	-0.109344482421875	-1.3702392578125E-06	1.49828096596138E-07	79799.5546875	2.33311675401637E-05
1	330	75.4660588094665	-0.119476318359375	-0.119415283203125	-1.33056640625E-06	1.58889960744091E-07	89747.703125	2.31951707974076E-05
1	331	75.5667668092123	-0.129547119140625	-0.129425048828125	-1.29638671875E-06	1.67784918403413E-07	99835.21875	2.30628938879818E-05
1	332	75.667474808958	-0.139617919921875	-0.139495849609375	-1.265869140625E-06	1.76583483835202E-07	110197.6953125	2.29338729695883E-05
1	333	75.7681828087037	-0.149688720703125	-0.14959716796875	-1.2396240234375E-06	1.85444235967225E-07	120679.46875	2.28077115025371E-05
1	334	75.8688908084495	-0.159759521484375	-0.159637451171875	-1.2176513671875E-06	1.94382749896249E-07	131102.765625	2.26839783863397E-05
1	335	75.9695988081952	-0.169830322265625	-0.16973876953125	-1.19842529296875E-06	2.0341923345768E-07	141634.84375	2.25623189180624E-05
1	336	76.0703068079409	-0.179901123046875	-0.1796875	-1.18316650390625E-06	2.12600212989855E-07	151870.015625	2.24423965846654E-05
1	337	76.1710148076867	-0.189971923828125	-0.189849853515625	-1.17034912109375E-06	2.22190593035521E-07	162216.4375	2.2323887606035E-05
1	338	76.2717228074324	-0.200042724609375	-0.199951171875	-1.160888671875E-06	2.32121038834521E-07	172239.765625	2.22065009438666E-05
1	339	76.3724308071781	-0.189971923828125	-0.18975830078125	-9.9853515625E-07	1.89480331869163E-07	190036.671875	2.20977653953014E-05
2	340	76.4731388069239	-0.179901123046875	-0.17974853515625	-8.9019775390625E-07	1.60011737193599E-07	201919.78125	2.2002659534337E-05
2	341	76.5738468066696	-0.169830322265625	-0.169647216796875	-8.04443359375E-07	1.36471570044705E-07	210887.71875	2.19173271034379E-05
2	342	76.6745548064154	-0.159759521484375	-0.159637451171875	-7.3272705078125E-07	1.16970674923778E-07	217867.5625	2.18399254663382E-05
2	343	76.7752628061611	-0.149688720703125	-0.149566650390625	-6.70471191406249E-07	1.00280132642183E-07	223076.921875	2.17692686419468E-05
2	344	76.8759708059068	-0.139617919921875	-0.139495849609375	-6.15844726562501E-07	8.59077857739976E-08	226511.390625	2.17044980672654E-05
2	345	76.9766788056526	-0.129547119140625	-0.129425048828125	-5.6610107421875E-07	7.32676568304669E-08	228625.34375	2.16449825529708E-05
2	346	77.0773868053983	-0.119476318359375	-0.119415283203125	-5.2032470703125E-07	6.21347240326031E-08	229501.46875	2.15902764466591E-05
2	347	77.178094805144	-0.109405517578125	-0.109283447265625	-4.76684570312499E-07	5.20937319947734E-08	229257.359375	2.15400723391213E-05
2	348	77.2788028048898	-0.099334716796875	-0.0992431640625	-4.3304443359375E-07	4.2976697756103E-08	229175.484375	2.14942647289718E-05
2	349	77.3795108046355	-0.089263916015625	-0.08917236328125	-3.887939453125E-07	3.46696715780581E-08	229356.375	2.14528809010517E-05
2	350	77.4802188043813	-0.079193115234375	-0.07916259765625	-3.40881347656249E-07	2.69850524148296E-08	232229.1875	2.14161391340895E-05
2	351	77.580926804127	-0.069122314453125	-0.069091796875	-2.86254882812501E-07	1.97778629029699E-08	241364.609375	2.13845596590545E-05
2	352	77.6816348038727	-0.059051513671875	-0.05902099609375	-2.22167968750001E-07	1.31125750257866E-08	265659.34375	2.1358959202189E-05
2	353	77.7823428036185	-0.048980712890625	-0.0488677978515625	-1.44348144531251E-07	7.05397562583698E-09	338541.25	2.13405037357006E-05
2	354	77.8830508033642	-0.038909912109375	-0.038787841796875	-4.66918945312506E-08	1.81107784325008E-09	830718.9375	2.13308831007453E-05
2	355	77.9837588031099	-0.028839111328125	-0.0287017822265625	7.69042968749994E-08	-2.20729035049771E-09	-373214.3125	2.1332405594876E-05
2	356	78.0844668028557	-0.018768310546875	-0.0186431884765625	2.301025390625E-07	-4.28984492373274E-09	-81021.2265625	2.13478633668274E-05
2	357	78.1851748026014	-0.008697509765625	-0.00861206054687499	4.1534423828125E-07	-3.57696983144251E-09	-20734.755859375	2.13803650694899E-05
2	358	78.2858828023471	0.001373291015625	0.00144042968749999	6.29577636718751E-07	9.06862362981542E-10	2287.93017578125	2.14329811569769E-05
2	359	78.3865908020929	0.011444091796875	0.011529541015625	8.642578125E-07	9.96449500689778E-09	13340.3955078125	2.15082018257817E-05
2	360	78.4872988018386	0.021514892578125	0.0216278076171875	1.099853515625E-06	2.37874218100842E-08	19664.26171875	2.16071020986419E-05
2	361	78.5880068015844	0.031585693359375	0.031671142578125	1.3177490234375E-06	4.17346193160029E-08	24034.275390625	2.17288379644742E-05
2	362	78.6887148013301	0.041656494140625	0.04173583984375	1.4984130859375E-06	6.25375307095055E-08	27853.359375	2.18706427403959E-05
2	363	78.7894228010758	0.051727294921875	0.0517578125	1.6259765625E-06	8.41569871568026E-08	31831.83203125	2.20279689528979E-05
2	364	78.8901308008216	0.061798095703125	0.06182861328125	1.69586181640625E-06	1.04852780680176E-07	36458.5234375	2.21952359424904E-05
2	365	78.9908388005673	0.071868896484375	0.07183837890625	1.71417236328125E-06	1.23143365726719E-07	41908.4921875	2.23669449042063E-05
2	366	79.091546800313	0.081939697265625	0.08197021484375	1.69403076171875E-06	1.38860059450963E-07	48387.6796875	2.25385629164521E-05
2	367	79.1922548000588	0.092010498046875	0.09210205078125	1.646728515625E-06	1.51667066461414E-07	55930.3203125	2.2706783056492E-05
2	368	79.2929627998045	0.102081298828125	0.102081298828125	1.5869140625E-06	1.61994236691498E-07	64326.92578125	2.28696098929504E-05
2	369	79.3936707995503	0.112152099609375	0.1121826171875	1.5216064453125E-06	1.70697788348662E-07	73726.4375	2.30261357501149E-05
2	370	79.494378799296	0.122222900390625	0.12225341796875	1.45721435546875E-06	1.78149434759689E-07	83895.2890625	2.31761314353207E-05
2	371	79.5950867990417	0.132293701171875	0.132354736328125	1.3958740234375E-06	1.84750533094302E-07	94818.546875	2.33197970374022E-05
2	372	79.6957947987875	0.142364501953125	0.142425537109375	1.34063720703125E-06	1.90940966149356E-07	106237.203125	2.3457590941689E-05
2	373	79.7965027985332	0.152435302734375	0.152435302734375	1.2908935546875E-06	1.96777747873966E-07	118085.1015625	2.35900988627691E-05
2	374	79.8972107982789	0.162506103515625	0.162567138671875	1.24664306640625E-06	2.02663187565122E-07	130403.921875	2.37178737734212E-05
2	375	79.9979187980247	0.172576904296875	0.172607421875	1.207275390625E-06	2.08384676625428E-07	142972.703125	2.3841437723604E-05
2	376	80.0986267977704	0.182647705078125	0.182647705078125	1.173095703125E-06	2.14263238262902E-07	155697.1875	2.39613000303507E-05
2	377	80.1993347975161	0.192718505859375	0.192718505859375	1.14349365234375E-06	2.20372371018129E-07	168534.84375	2.40779481828213E-05
2	378	80.3000427972619	0.202789306640625	0.202880859375	1.1163330078125E-06	2.2648259800917E-07	181738.65625	2.41917405219283E-05
2	379	80.4007507970076	0.212860107421875	0.21282958984375	1.092529296875E-06	2.32522552323644E-07	194804.46875	2.43029644479975E-05
2	380	80.5014587967534	0.222930908203125	0.222991943359375	1.07147216796875E-06	2.3892965828054E-07	208117.34375	2.44119310082169E-05
2	381	80.6021667964991	0.233001708984375	0.233062744140625	1.05224609375E-06	2.45239334617509E-07	221490.734375	2.45188693952514E-05
2	382	80.7028747962448	0.243072509765625	0.243011474609375	1.03607177734375E-06	2.51777350968041E-07	234550.796875	2.46240251726704E-05
2	383	80.8035827959906	0.253143310546875	0.253143310546875	1.021728515625E-06	2.58643723327623E-07	247759.859375	2.4727642085054E-05
2	384	80.9042907957363	0.263214111328125	0.263214111328125	1.00830078125E-06	2.65398966803332E-07	261047.234375	2.48298620135756E-05
2	385	81.004998795482	0.273284912109375	0.2733154296875	9.9700927734375E-07	2.72497999276311E-07	274135.3125	2.49308377533453E-05
2	386	81.1057067952278	0.283355712890625	0.283416748046875	9.86328124999999E-07	2.79541922054705E-07	287345.28125	2.50307075475575E-05
2	387	81.2064147949735	0.293426513671875	0.29345703125	9.7686767578125E-07	2.86668694116088E-07	300406.125	2.51295623456826E-05
2	388	81.3071227947192	0.303497314453125	0.303497314453125	9.674072265625E-07	2.93605495471638E-07	313722.40625	2.52274639933603E-05
2	389	81.407830794465	0.313568115234375	0.313629150390625	9.6038818359375E-07	3.01205744790423E-07	326564.96875	2.53245361818699E-05
2	390	81.5085387942107	0.323638916015625	0.32366943359375	9.53063964843751E-07	3.08477666521867E-07	339609.375	2.54208862315863E-05
2	391	81.6092467939565	0.333709716796875	0.333740234375	9.46655273437499E-07	3.15936944161876E-07	352546.75	2.55165450653294E-05
2	392	81.7099547937022	0.343780517578125	0.343780517578125	9.41162109375E-07	3.2355319490307E-07	365272.375	2.56116036325693E-05
2	393	81.8106627934479	0.353851318359375	0.3538818359375	9.35974121093749E-07	3.31224214278336E-07	378089.34375	2.57061255979352E-05
2	394	81.9113707931937	0.363922119140625	0.36395263671875	9.3048095703125E-07	3.38651005904467E-07	391144.625	2.58001091424376E-05
2	395	82.0120787929394	0.373992919921875	0.374053955078125	9.26513671875E-07	3.46566082498612E-07	403722.03125	2.58936161117163E-05
2	396	82.1127867926851	0.384063720703125	0.38409423828125	9.22241210937499E-07	3.542275237578E-07	416479.15625	2.59867083514109E-05
2	397	82.2134947924309	0.394134521484375	0.394134521484375	9.185791015625E-07	3.62043721224836E-07	429069.78125	2.60794004134368E-05
2	398	82.3142027921766	0.404205322265625	0.40423583984375	9.1583251953125E-07	3.702123194671E-07	441386.21875	2.61717705143383E-05
2	399	82.4149107919224	0.414276123046875	0.41424560546875	9.1400146484375E-07	3.78621081154051E-07	453222.0625	2.62639096035855E-05
2	400	82.5156187916681	0.424346923828125	0.424346923828125	9.124755859375E-07	3.87206199548018E-07	465050.1875	2.63558795268182E-05
2	401	82.6163267914138	0.434417724609375	0.4344482421875	9.1094970703125E-07	3.95760480387253E-07	476917.9375	2.6447696654941E-05
2	402	82.7170347911596	0.444488525390625	0.4444580078125	9.10339355468751E-07	4.04607618520458E-07	488233.34375	2.65394064626889E-05
2	403	82.8177427909053	0.454559326171875	0.45452880859375	9.0911865234375E-07	4.13220618611376E-07	499966.4375	2.66310235019773E-05
2	404	82.918450790651	0.464630126953125	0.464691162109375	9.08203125E-07	4.22033963332069E-07	511659.96875	2.67225332208909E-05
2	405	83.0191587903968	0.474700927734375	0.4747314453125	9.08813476562501E-07	4.31442316539687E-07	522364.03125	2.68140265688999E-05
2	406	83.1198667901425	0.484771728515625	0.48480224609375	9.10034179687499E-07	4.41186585931064E-07	532729.75	2.69056126853684E-05
2	407	83.2205747898882	0.494842529296875	0.494873046875	9.11560058593749E-07	4.5110650148672E-07	542885.8125	2.69973370450316E-05
2	408	83.321282789634	0.504913330078125	0.50494384765625	9.1400146484375E-07	4.61519391592446E-07	552454.125	2.70892614935292E-05
2	409	83.4219907893797	0.514984130859375	0.5150146484375	9.16442871093751E-07	4.71981479677197E-07	561971.375	2.71814315055963E-05
2	410	83.5226987891255	0.525054931640625	0.5250244140625	9.197998046875E-07	4.82917357658152E-07	570802.9375	2.72738943749573E-05
2	411	83.6234067888712	0.535125732421875	0.535125732421875	9.228515625E-07	4.93841582738241E-07	579861.125	2.73666792054428E-05
2	412	83.7241147886169	0.545196533203125	0.54510498046875	9.26513671875E-07	5.05047182741691E-07	588339.9375	2.74598023679573E-05
2	413	83.8248227883627	0.555267333984375	0.55523681640625	9.3048095703125E-07	5.16637271630316E-07	596720.25	2.7553309337236E-05
2	414	83.9255307881084	0.565338134765625	0.565277099609375	9.3414306640625E-07	5.28049667991581E-07	605129.0625	2.76472001132788E-05
2	415	84.0262387878541	0.575408935546875	0.575439453125	9.39331054687501E-07	5.40528105830163E-07	612605.625	2.77415365417255E-05
2	416	84.1269467875999	0.585479736328125	0.58551025390625	9.442138671875E-07	5.52846927348583E-07	620103.4375	2.78363822872052E-05
2	417	84.2276547873456	0.595550537109375	0.595550537109375	9.503173828125E-07	5.65962011478405E-07	626685.9375	2.79317791864742E-05
2	418	84.3283627870914	0.605621337890625	0.6055908203125	9.56115722656251E-07	5.79014908907993E-07	633386.5	2.80277745332569E-05
2	419	84.4290707868371	0.615692138671875	0.615692138671875	9.619140625E-07	5.92242884067673E-07	640069.8125	2.81243555946276E-05
2	420	84.5297787865828	0.625762939453125	0.625701904296875	9.6710205078125E-07	6.05117577379133E-07	646986.5	2.82214896287769E-05
2	421	84.6304867863286	0.635833740234375	0.635772705078125	9.722900390625E-07	6.18155411302723E-07	653892.0625	2.83191457128851E-05
2	422	84.7311947860743	0.645904541015625	0.645904541015625	9.77783203125E-07	6.31554598840012E-07	660580.5	2.84173402178567E-05
2	423	84.83190278582	0.655975341796875	0.655914306640625	9.8419189453125E-07	6.45545526367641E-07	666449.625	2.85161331703421E-05
2	424	84.9326107855658	0.666046142578125	0.665985107421875	9.89685058593751E-07	6.59115528378607E-07	672926.3125	2.86155245703412E-05
2	425	85.0333187853115	0.676116943359375	0.676055908203125	9.95788574218751E-07	6.73208774060186E-07	678915.125	2.87155016849283E-05
2	426	85.1340267850572	0.686187744140625	0.686187744140625	1.00128173828125E-06	6.87067256421869E-07	685309.375	2.88160626951139E-05
2	427	85.234734784803	0.696258544921875	0.69622802734375	1.00616455078125E-06	7.00519933616306E-07	691962.375	2.89171457552584E-05
2	428	85.3354427845487	0.706329345703125	0.706329345703125	1.01104736328125E-06	7.1413239766116E-07	698611.5625	2.90187199425418E-05
2	429	85.4361507842945	0.716400146484375	0.71630859375	1.01531982421875E-06	7.27282269963325E-07	705500.5	2.91207561531337E-05
2	430	85.5368587840402	0.726470947265625	0.726409912109375	1.01959228515625E-06	7.40641894481087E-07	712451.4375	2.92232216452248E-05
2	431	85.6375667837859	0.736541748046875	0.7364501953125	1.024169921875E-06	7.54250152112945E-07	719070.3125	2.93261327897198E-05
2	432	85.7382747835317	0.746612548828125	0.746490478515625	1.0284423828125E-06	7.67722440286889E-07	725845.6875	2.94294895866187E-05
2	433	85.8389827832774	0.756683349609375	0.7568359375	1.03271484375E-06	7.81595701937476E-07	732860.5	2.95332774840062E-05
2	434	85.9396907830231	0.766754150390625	0.7666015625	1.0369873046875E-06	7.94956122263102E-07	739258.375	2.96374964818824E-05
2	435	86.0403987827689	0.776824951171875	0.77667236328125	1.04095458984375E-06	8.08480649538978E-07	746115.5625	2.97421283903532E-05
2	436	86.1411067825146	0.786895751953125	0.78704833984375	1.044921875E-06	8.22404047085001E-07	753212.625	2.98471604764927E-05
2	437	86.2418147822603	0.796966552734375	0.79742431640625	1.04827880859375E-06	8.3592300370583E-07	760698.6875	2.99525618174812E-05
2	438	86.3425227820061	0.807037353515625	0.80718994140625	1.05133056640625E-06	8.48623415095062E-07	767779.4375	3.00582851195941E-05
2	439	86.4432307817518	0.817108154296875	0.8172607421875	1.0540771484375E-06	8.6145581690289E-07	775333	3.01643012790009E-05
2	440	86.5439387814976	0.827178955078125	0.8270263671875	1.05712890625E-06	8.74273439421813E-07	782332.5625	3.02706084767124E-05
2	441	86.6446467812433	0.837249755859375	0.83740234375	1.05987548828125E-06	8.87542171312816E-07	790095.0625	3.03772085317178E-05
2	442	86.745354780989	0.847320556640625	0.8477783203125	1.06231689453125E-06	9.00609222753701E-07	798046.5625	3.04840687022079E-05
2	443	86.8460627807348	0.857391357421875	0.8575439453125	1.06536865234375E-06	9.13600445073826E-07	804926.9375	3.05912071780767E-05
2	444	86.9467707804805	0.867462158203125	0.8673095703125	1.06781005859375E-06	9.26121799693647E-07	812232.125	3.06986221403349E-05
2	445	87.0474787802262	0.877532958984375	0.877685546875	1.07025146484375E-06	9.39344204198278E-07	820074.1875	3.08062808471732E-05
2	446	87.148186779972	0.887603759765625	0.887451171875	1.07269287109375E-06	9.51962533690676E-07	827311.5625	3.09141869365703E-05
2	447	87.2488947797177	0.897674560546875	0.89691162109375	1.07513427734375E-06	9.64300397754414E-07	834232.1875	3.10223367705476E-05
2	448	87.3496027794635	0.907745361328125	0.9075927734375	1.0772705078125E-06	9.77722834250017E-07	842493	3.11307194351684E-05
2	449	87.4503107792092	0.917816162109375	0.91796875	1.08062744140625E-06	9.91982119558088E-07	849477.5625	3.12393785861786E-05
2	450	87.5510187789549	0.927886962890625	0.92864990234375	1.0833740234375E-06	1.00607508102257E-06	857183.1875	3.13483469653875E-05
2	451	87.6517267787007	0.937957763671875	0.93780517578125	1.08673095703125E-06	1.01914190508978E-06	862959.875	3.14576172968373E-05
2	452	87.7524347784464	0.948028564453125	0.94818115234375	1.090087890625E-06	1.03360071079805E-06	869820.875	3.15672295982949E-05
2	453	87.8531427781921	0.958099365234375	0.95794677734375	1.09344482421875E-06	1.04746186480043E-06	876081.5625	3.16771802317817E-05
2	454	87.9538507779379	0.968170166015625	0.968017578125	1.09649658203125E-06	1.06142795175401E-06	882827.6875	3.17874510074034E-05
2	455	88.0545587776836	0.978240966796875	0.9783935546875	1.09954833984375E-06	1.07579091945809E-06	889814.0625	3.18980310112238E-05
2	456	88.1552667774293	0.988311767578125	0.98846435546875	1.10382080078125E-06	1.09108748347353E-06	895493.5625	3.20089820888825E-05
2	457	88.2559747771751	0.998382568359375	0.99853515625	1.10809326171875E-06	1.10646999473829E-06	901129.1875	3.21203588100616E-05
2	458	88.3566827769208	1.00845336914063	1.00830078125	1.11297607421875E-06	1.12221459858119E-06	905950.125	3.22321975545492E-05
2	459	88.4573907766666	1.01852416992188	1.0186767578125	1.11785888671875E-06	1.13873693408095E-06	911274.875	3.23445310641546E-05
2	460	88.5580987764123	1.02859497070313	1.02874755859375	1.1224365234375E-06	1.1547037956916E-06	916530.75	3.24573375110049E-05
2	461	88.658806776158	1.03866577148438	1.038818359375	1.12762451171875E-06	1.17139700250846E-06	921244.9375	3.25706387229729E-05
2	462	88.7595147759038	1.04873657226563	1.048583984375	1.1322021484375E-06	1.18720902264613E-06	926145.5625	3.26844274241012E-05
2	463	88.8602227756495	1.05880737304688	1.058349609375	1.13739013671875E-06	1.20375636925019E-06	930507.125	3.27987108903471E-05
2	464	88.9609307753952	1.06887817382813	1.06903076171875	1.1407470703125E-06	1.21949369713548E-06	937132.1875	3.29134236380924E-05
2	465	89.061638775141	1.07894897460938	1.07940673828125	1.14654541015625E-06	1.23758877634828E-06	941442.625	3.30285984091461E-05
2	466	89.1623467748867	1.08901977539063	1.08917236328125	1.151123046875E-06	1.25377141557692E-06	946182.4375	3.3144297049148E-05
2	467	89.2630547746325	1.09909057617188	1.09954833984375	1.1566162109375E-06	1.27175542274927E-06	950659.625	3.32605013682041E-05
2	468	89.3637627743782	1.10916137695313	1.10931396484375	1.16180419921875E-06	1.28880560623656E-06	954820.0625	3.33772404701449E-05
2	469	89.4644707741239	1.11923217773438	1.1187744140625	1.16729736328125E-06	1.30594241909421E-06	958431.375	3.34945216309279E-05
2	470	89.5651787738697	1.12930297851563	1.1297607421875	1.17218017578125E-06	1.32428317556332E-06	963811.5	3.36123230226804E-05
2	471	89.6658867736154	1.13937377929688	1.138916015625	1.17767333984375E-06	1.34127094497671E-06	967089.9375	3.3730648283381E-05
2	472	89.7665947733611	1.14944458007813	1.14990234375	1.182861328125E-06	1.36017501972674E-06	972136.25	3.38495119649451E-05
2	473	89.8673027731069	1.15951538085938	1.15936279296875	1.18896484375E-06	1.37844153869082E-06	975102.6875	3.39689431712031E-05
2	474	89.9680107728526	1.16958618164063	1.16912841796875	1.1962890625E-06	1.39861560910504E-06	977295.9375	3.40890474035405E-05
2	475	90.0687187725983	1.17965698242188	1.18011474609375	1.20330810546875E-06	1.42004159897624E-06	980725.3125	3.42098792316392E-05
2	476	90.1694267723441	1.18972778320313	1.1895751953125	1.21124267578125E-06	1.44086425279966E-06	982111.375	3.43314604833722E-05
2	477	90.2701347720898	1.19979858398438	1.1993408203125	1.2200927734375E-06	1.46330694406061E-06	982991.5625	3.44538893841673E-05
2	478	90.3708427718356	1.20986938476563	1.209716796875	1.22894287109375E-06	1.48667288613069E-06	984355.5625	3.45772059517913E-05
2	479	90.4715507715813	1.21994018554688	1.21978759765625	1.23870849609375E-06	1.51096128320205E-06	984725.3125	3.47014611179475E-05
2	480	90.572258771327	1.23001098632813	1.2298583984375	1.24847412109375E-06	1.53544635850267E-06	985089.25	3.48267021763604E-05
2	481	90.6729667710728	1.24008178710938	1.240234375	1.26007080078125E-06	1.56278315444069E-06	984257.6875	3.49530164385214E-05
2	482	90.7736747708185	1.25015258789063	1.25	1.2725830078125E-06	1.59072874339472E-06	982254.25	3.5080545785604E-05
2	483	90.8743827705642	1.26022338867188	1.2603759765625	1.2872314453125E-06	1.62239552992105E-06	979137.0625	3.52094430127181E-05
2	484	90.97509077031	1.27029418945313	1.27044677734375	1.302490234375E-06	1.65474443747371E-06	975398.3125	3.53398463630583E-05
2	485	91.0757987700557	1.28036499023438	1.280517578125	1.31866455078125E-06	1.68857309290615E-06	971071.5	3.54718322341796E-05
2	486	91.1765067698014	1.29043579101563	1.28997802734375	1.33575439453125E-06	1.72309387380665E-06	965729.9375	3.56054915755522E-05
2	487	91.2772147695472	1.30050659179688	1.30035400390625	1.3543701171875E-06	1.76116054717568E-06	960117.1875	3.57409517164342E-05
2	488	91.3779227692929	1.31057739257813	1.31103515625	1.37359619140625E-06	1.80083293344069E-06	954454.5625	3.58783145202324E-05
2	489	91.4786307690387	1.32064819335938	1.32080078125	1.39404296875E-06	1.84125292435056E-06	947460.625	3.60176782123744E-05
2	490	91.5793387687844	1.33071899414063	1.33087158203125	1.4154052734375E-06	1.88372257525771E-06	940276	3.6159144656267E-05
2	491	91.6800467685301	1.34078979492188	1.34063720703125	1.43829345703125E-06	1.9282297216705E-06	932102.6875	3.63028375431895E-05
2	492	91.7807547682759	1.35086059570313	1.351318359375	1.46270751953125E-06	1.97658346223761E-06	923847.3125	3.64489169442095E-05
2	493	91.8814627680216	1.36093139648438	1.36077880859375	1.48956298828125E-06	2.02696560336335E-06	913542.375	3.65975756722037E-05
2	494	91.9821707677673	1.37100219726563	1.370849609375	1.51885986328125E-06	2.08212827601528E-06	902551.8125	3.6749061109731E-05
2	495	92.0828787675131	1.38107299804688	1.3812255859375	1.551513671875E-06	2.14299029721587E-06	890243.9375	3.69036679330748E-05
2	496	92.1835867672588	1.39114379882813	1.3909912109375	1.5887451171875E-06	2.20993047150841E-06	875528.3125	3.7061792681925E-05
2	497	92.2842947670046	1.40121459960938	1.4007568359375	1.63238525390625E-06	2.2865747268952E-06	858104.375	3.72239883290604E-05
2	498	92.3850027667503	1.41128540039063	1.4111328125	1.68426513671875E-06	2.37672156799817E-06	837833	3.73909933841787E-05
2	499	92.485710766496	1.42135620117188	1.4215087890625	1.7431640625E-06	2.47792308982753E-06	815476.1875	3.75635790987872E-05
2	500	92.5864187662418	1.43142700195313	1.4312744140625	1.81121826171875E-06	2.59235025623639E-06	790227.5	3.77425567421596E-05
2	501	92.6871267659875	1.44149780273438	1.44195556640625	1.88812255859375E-06	2.72258876066189E-06	763698.125	3.79288321710192E-05
2	502	92.7878347657332	1.45156860351563	1.451416015625	1.9757080078125E-06	2.86757403955562E-06	734630.875	3.81233912776224E-05
2	503	92.888542765479	1.46163940429688	1.46148681640625	2.07366943359375E-06	3.03064030049427E-06	704783	3.83272963517811E-05
2	504	92.9892507652247	1.47171020507813	1.47186279296875	2.18536376953125E-06	3.21655534207821E-06	673509.3125	3.85417552024592E-05
2	505	93.0899587649704	1.48178100585938	1.48162841796875	2.31170654296875E-06	3.42509019901627E-06	640924.0625	3.87682011933066E-05
2	506	93.1906667647162	1.49185180664063	1.49169921875	2.45269775390625E-06	3.65868731933006E-06	608187.125	3.90081077057403E-05
2	507	93.2913747644619	1.50192260742188	1.50177001953125	2.60467529296875E-06	3.91162302548764E-06	576567.0625	3.92627662222367E-05
2	508	93.3920827642077	1.49185180664063	1.49200439453125	2.21160888671875E-06	3.29973022417107E-06	674623.9375	3.95052848034538E-05
2	509	93.4927907639534	1.48178100585938	1.48193359375	1.917724609375E-06	2.84194061350718E-06	772756.1875	3.97132134821732E-05
2	510	93.5934987636991	1.47171020507813	1.47186279296875	1.6851806640625E-06	2.48035485128639E-06	873415.4375	3.98946322093252E-05
2	511	93.6942067634449	1.46163940429688	1.461181640625	1.49566650390625E-06	2.1854402803001E-06	976943.5625	4.0054801502265E-05
2	512	93.7949147631906	1.45156860351563	1.4520263671875	1.34063720703125E-06	1.94664039554482E-06	1083086.75	4.01976212742738E-05
2	513	93.8956227629363	1.44149780273438	1.441650390625	1.212158203125E-06	1.74750834958104E-06	1189325.25	4.03261656174436E-05
2	514	93.9963307626821	1.43142700195313	1.43157958984375	1.107177734375E-06	1.58501302394143E-06	1292999	4.04429520131089E-05
2	515	94.0970387624278	1.42135620117188	1.42181396484375	1.02081298828125E-06	1.45140620588791E-06	1392825.125	4.0550105040893E-05
2	516	94.1977467621736	1.41128540039063	1.4111328125	9.503173828125E-07	1.34102401716518E-06	1484906.875	4.06493600166868E-05
2	517	94.2984547619193	1.40121459960938	1.4013671875	8.92028808593751E-07	1.25005988138582E-06	1570988.75	4.07421284762677E-05
2	518	94.399162761665	1.39114379882813	1.3909912109375	8.43505859375E-07	1.17330921511893E-06	1649059.375	4.08295200031716E-05
2	519	94.4998707614108	1.38107299804688	1.38092041015625	8.0291748046875E-07	1.10876510461821E-06	1719878.5	4.09124259022065E-05
2	520	94.6005787611565	1.37100219726563	1.3714599609375	7.68432617187501E-07	1.05387448456895E-06	1784749.875	4.09915483032819E-05
2	521	94.7012867609022	1.36093139648438	1.3604736328125	7.37609863281249E-07	1.00349882359296E-06	1844435.25	4.10673819715157E-05
2	522	94.801994760648	1.35086059570313	1.35040283203125	7.11669921874999E-07	9.61040996116935E-07	1897513	4.1140359826386E-05
2	523	94.9027027603937	1.34078979492188	1.34063720703125	6.88781738281249E-07	9.23406389574666E-07	1946389.125	4.12108784075826E-05
2	524	95.0034107601394	1.33071899414063	1.33087158203125	6.69250488281251E-07	8.90686465027102E-07	1988600.125	4.12792614952195E-05
2	525	95.1041187598852	1.32064819335938	1.31988525390625	6.5185546875E-07	8.60374370859063E-07	2024812.875	4.1345785575686E-05
2	526	95.2048267596309	1.31057739257813	1.31072998046875	6.37207031250001E-07	8.35206321880833E-07	2056992.5	4.14106943935622E-05
2	527	95.3055347593767	1.30050659179688	1.30035400390625	6.23779296875E-07	8.11133872957726E-07	2084638	4.14741880376823E-05
2	528	95.4062427591224	1.29043579101563	1.29058837890625	6.1187744140625E-07	7.89681905644102E-07	2109227	4.153640838922E-05
2	529	95.5069507588681	1.28036499023438	1.280517578125	6.00280761718749E-07	7.68670076922717E-07	2133197.75	4.15974463976454E-05
2	530	95.6076587586139	1.27029418945313	1.270751953125	5.89599609374999E-07	7.49234857266856E-07	2155279.5	4.16573602706194E-05
2	531	95.7083667583596	1.26022338867188	1.26007080078125	5.79833984375E-07	7.30631825263117E-07	2173158	4.17162482335698E-05
2	532	95.8090747581053	1.25015258789063	1.25030517578125	5.718994140625E-07	7.15048827260034E-07	2186232.75	4.17742412537336E-05
2	533	95.9097827578511	1.24008178710938	1.23992919921875	5.65185546875E-07	7.00790053542732E-07	2193844.5	4.18314994021785E-05
2	534	96.0104907575968	1.23001098632813	1.23016357421875	5.5755615234375E-07	6.85885254370078E-07	2206349.25	4.18880335928407E-05
2	535	96.1111987573425	1.21994018554688	1.21978759765625	5.51452636718749E-07	6.72655062317062E-07	2211953.5	4.19438765675295E-05
2	536	96.2119067570883	1.20986938476563	1.209716796875	5.4443359375E-07	6.58610474602028E-07	2221973	4.19990574300755E-05
2	537	96.312614756834	1.19979858398438	1.19964599609375	5.38024902343751E-07	6.45439399704628E-07	2229722	4.20535652665421E-05
2	538	96.4133227565798	1.18972778320313	1.190185546875	5.316162109375E-07	6.32721935289737E-07	2238806	4.21074255427811E-05
2	539	96.5140307563255	1.17965698242188	1.17950439453125	5.2520751953125E-07	6.19484524122527E-07	2245787.5	4.21606418967713E-05
2	540	96.6147387560712	1.16958618164063	1.1700439453125	5.1849365234375E-07	6.06660364610434E-07	2256621.5	4.22131961386185E-05
2	541	96.715446755817	1.15951538085938	1.15936279296875	5.12084960937501E-07	5.93692277561786E-07	2264004.75	4.22650882683229E-05
2	542	96.8161547555627	1.14944458007813	1.14959716796875	5.05981445312501E-07	5.81674783006747E-07	2272014.75	4.23163510276936E-05
2	543	96.9168627553084	1.13937377929688	1.1395263671875	4.99267578125E-07	5.68928555821913E-07	2282396	4.23669698648155E-05
2	544	97.0175707550542	1.12930297851563	1.12945556640625	4.925537109375E-07	5.56317502287129E-07	2293060.75	4.24169120378792E-05
2	545	97.1182787547999	1.11923217773438	1.11968994140625	4.84313964843749E-07	5.42281441084924E-07	2311909.25	4.24661011493299E-05
2	546	97.2189867545457	1.10916137695313	1.1090087890625	4.7637939453125E-07	5.28308930825006E-07	2327995	4.25144753535278E-05
2	547	97.3196947542914	1.09909057617188	1.09893798828125	4.681396484375E-07	5.14456417022302E-07	2347457.75	4.25620382884517E-05
2	548	97.4204027540371	1.08901977539063	1.0888671875	4.595947265625E-07	5.00437579376012E-07	2369190	4.26087535743136E-05
2	549	97.5211107537829	1.07894897460938	1.0791015625	4.5135498046875E-07	4.87057832287974E-07	2390804.75	4.26546212111134E-05
2	550	97.6218187535286	1.06887817382813	1.0687255859375	4.43420410156251E-07	4.73894715469214E-07	2410186	4.26996775786392E-05
2	551	97.7225267532743	1.05880737304688	1.058349609375	4.35485839843749E-07	4.60896245613185E-07	2430273.5	4.27439335908275E-05
2	552	97.8232347530201	1.04873657226563	1.0491943359375	4.2724609375E-07	4.48264160013423E-07	2455714.25	4.2787374695763E-05
2	553	97.9239427527658	1.03866577148438	1.038818359375	4.193115234375E-07	4.35588475511395E-07	2477438.25	4.28300045314245E-05
2	554	98.0246507525115	1.02859497070313	1.0284423828125	4.11071777343749E-07	4.22763633878276E-07	2501856	4.28718158218544E-05
2	555	98.1253587522573	1.01852416992188	1.0186767578125	4.0283203125E-07	4.10355625035663E-07	2528788	4.29128012910951E-05
2	556	98.226066752003	1.00845336914063	1.00830078125	3.948974609375E-07	3.98175416194135E-07	2553323	4.29529682151042E-05
2	557	98.3267747517488	0.998382568359375	0.99853515625	3.8726806640625E-07	3.86700747867508E-07	2578408.25	4.29923529736698E-05
2	558	98.4274827514945	0.988311767578125	0.98876953125	3.80859375000001E-07	3.76582136141224E-07	2596153.75	4.30310319643468E-05
2	559	98.5281907512402	0.978240966796875	0.9783935546875	3.74755859375001E-07	3.66658696293598E-07	2610749.25	4.30690815846901E-05
2	560	98.628898750986	0.968170166015625	0.968017578125	3.68652343750001E-07	3.56861932004904E-07	2625827.75	4.31065127486363E-05
2	561	98.7296067507317	0.958099365234375	0.95855712890625	3.62548828125001E-07	3.47523780419579E-07	2643939.25	4.31433327321429E-05
2	562	98.8303147504774	0.948028564453125	0.94818115234375	3.56445312500001E-07	3.3797471132857E-07	2660102.75	4.31795378972311E-05
2	563	98.9310227502232	0.937957763671875	0.93780517578125	3.50036621093749E-07	3.28266139604239E-07	2679163.25	4.32151100540068E-05
2	564	99.0317307499689	0.927886962890625	0.92803955078125	3.436279296875E-07	3.18900305273928E-07	2700710.5	4.32500419265125E-05
2	565	99.1324387497147	0.917816162109375	0.91827392578125	3.37829589843749E-07	3.10220116261917E-07	2718157.25	4.3284355342621E-05
2	566	99.2331467494604	0.907745361328125	0.9075927734375	3.326416015625E-07	3.01903128274716E-07	2728440.25	4.33181157859508E-05
2	567	99.3338547492061	0.897674560546875	0.89813232421875	3.27453613281251E-07	2.94096651032305E-07	2742777.5	4.33513523603324E-05
2	568	99.4345627489519	0.887603759765625	0.88775634765625	3.21350097656251E-07	2.85280577827507E-07	2762583.25	4.33840250479989E-05
2	569	99.5352707486976	0.877532958984375	0.87799072265625	3.1585693359375E-07	2.77319458064085E-07	2779710	4.34161083830986E-05
2	570	99.6359787484433	0.867462158203125	0.86761474609375	3.08837890624999E-07	2.67952287913431E-07	2809288.5	4.34475659858435E-05
2	571	99.7366867481891	0.857391357421875	0.8575439453125	3.009033203125E-07	2.58037800904276E-07	2849898.75	4.34782668889966E-05
2	572	99.8373947479348	0.847320556640625	0.8477783203125	2.93579101562499E-07	2.48889989507006E-07	2887734	4.35082038166001E-05
2	573	99.9381027476805	0.837249755859375	0.8380126953125	2.85949707031249E-07	2.39629486031845E-07	2930629.75	4.35373840446118E-05
2	574	100.038810747426	0.827178955078125	0.82733154296875	2.78320312499999E-07	2.30263168532474E-07	2972587.75	4.35657966590952E-05
2	575	100.139518747172	0.817108154296875	0.81695556640625	2.703857421875E-07	2.20893127789168E-07	3021444.75	4.35934271081351E-05
2	576	100.240226746918	0.807037353515625	0.8074951171875	2.61840820312501E-07	2.11435192909448E-07	3083916	4.36202280980069E-05
2	577	100.340934746663	0.796966552734375	0.797119140625	2.532958984375E-07	2.01906999564017E-07	3146988	4.36461668869015E-05
2	578	100.441642746409	0.786895751953125	0.787353515625	2.45056152343751E-07	1.92945833532576E-07	3212951.5	4.36712616647128E-05
2	579	100.542350746155	0.776824951171875	0.7763671875	2.35900878906251E-07	1.83145701271314E-07	3291073.75	4.36954796896316E-05
2	580	100.643058745901	0.766754150390625	0.76690673828125	2.26440429687499E-07	1.73658690982847E-07	3386792.5	4.37187591160182E-05
2	581	100.743766745646	0.756683349609375	0.7568359375	2.18505859375E-07	1.65373094773713E-07	3463687.25	4.37411654274911E-05
2	582	100.844474745392	0.746612548828125	0.74652099609375	2.09960937500001E-07	1.56740242118758E-07	3555523.5	4.37627386418171E-05
2	583	100.945182745138	0.736541748046875	0.736480712890625	2.03552246093749E-07	1.49912310121181E-07	3618141	4.37835624325089E-05
2	584	101.045890744884	0.726470947265625	0.72637939453125	1.96228027343751E-07	1.42535995450999E-07	3701710.75	4.38036913692486E-05
2	585	101.146598744629	0.716400146484375	0.716339111328125	1.8951416015625E-07	1.35756394570308E-07	3779871.25	4.38231145380996E-05
2	586	101.247306744375	0.706329345703125	0.706268310546875	1.83715820312499E-07	1.29752649513648E-07	3844352.25	4.38419083366171E-05
2	587	101.348014744121	0.696258544921875	0.696197509765625	1.77001953125E-07	1.23228318216206E-07	3933276	4.38600727648009E-05
2	588	101.448722743867	0.686187744140625	0.68609619140625	1.71508789062499E-07	1.17671525856622E-07	4000356	4.38776223745663E-05
2	589	101.549430743612	0.676116943359375	0.676055908203125	1.66015625E-07	1.12235845506348E-07	4072242.75	4.38946153735742E-05
2	590	101.650138743358	0.666046142578125	0.666046142578125	1.60827636718749E-07	1.07118630410241E-07	4141366.25	4.39110735896975E-05
2	591	101.750846743104	0.655975341796875	0.655914306640625	1.5594482421875E-07	1.0228643532173E-07	4206066.5	4.39270261267666E-05
2	592	101.85155474285	0.645904541015625	0.6458740234375	1.513671875E-07	9.77641363419934E-08	4266935.5	4.39424984506331E-05
2	593	101.952262742595	0.635833740234375	0.635833740234375	1.47399902343751E-07	9.37218302965448E-08	4313664.5	4.39575451309793E-05
2	594	102.052970742341	0.625762939453125	0.625732421875	1.4373779296875E-07	8.99413947763605E-08	4353291	4.3972202547593E-05
2	595	102.153678742087	0.615692138671875	0.615631103515625	1.39465332031249E-07	8.5859191756299E-08	4414223.5	4.39864634245168E-05
2	596	102.254386741832	0.605621337890625	0.605621337890625	1.3580322265625E-07	8.2245328769659E-08	4459550.5	4.40003241237719E-05
2	597	102.355094741578	0.595550537109375	0.5955810546875	1.3275146484375E-07	7.90642573633704E-08	4486436.5	4.40138464909978E-05
2	598	102.455802741324	0.585479736328125	0.58544921875	1.29089355468751E-07	7.55752651571129E-08	4535224.5	4.40270341641735E-05
2	599	102.55651074107	0.575408935546875	0.57537841796875	1.26953125E-07	7.30460882891748E-08	4532211.5	4.40399271610659E-05
2	600	102.657218740815	0.565338134765625	0.5653076171875	1.2542724609375E-07	7.09049814417995E-08	4507056	4.4052634621039E-05
2	601	102.757926740561	0.555267333984375	0.55523681640625	1.239013671875E-07	6.87945984623184E-08	4481281	4.40651892859023E-05
2	602	102.858634740307	0.545196533203125	0.545166015625	1.220703125E-07	6.65485799800081E-08	4466000.5	4.40775729657616E-05
2	603	102.959342740053	0.535125732421875	0.53515625	1.19934082031251E-07	6.41834745351844E-08	4462086.5	4.40897601947654E-05
2	604	103.060050739798	0.525054931640625	0.52508544921875	1.190185546875E-07	6.24949123562146E-08	4411795	4.41017909906805E-05
2	605	103.160758739544	0.514984130859375	0.5150146484375	1.1749267578125E-07	6.0510451760365E-08	4383376.5	4.41137017332949E-05
2	606	103.26146673929	0.504913330078125	0.50494384765625	1.1627197265625E-07	5.87108175409412E-08	4342782.5	4.41254742327146E-05
2	607	103.362174739036	0.494842529296875	0.49481201171875	1.1627197265625E-07	5.75327661067604E-08	4255643	4.41371812485158E-05
2	608	103.462882738781	0.484771728515625	0.484771728515625	1.1566162109375E-07	5.60694850548771E-08	4191293	4.41488627984654E-05
2	609	103.563590738527	0.474700927734375	0.4747314453125	1.15051269531249E-07	5.46184537597583E-08	4126260.25	4.41604788647965E-05
2	610	103.664298738273	0.464630126953125	0.46466064453125	1.15051269531249E-07	5.34597930368363E-08	4038727	4.4172065827297E-05
2	611	103.765006738019	0.454559326171875	0.45458984375	1.141357421875E-07	5.18849461172977E-08	3982887.75	4.41836054960731E-05
2	612	103.865714737764	0.444488525390625	0.44451904296875	1.13525390624999E-07	5.04641981535769E-08	3915591.5	4.41950687672943E-05
2	613	103.96642273751	0.434417724609375	0.43438720703125	1.11999511718749E-07	4.86511559927294E-08	3878474	4.420642653713E-05
2	614	104.067130737256	0.424346923828125	0.42437744140625	1.10778808593751E-07	4.70120262718865E-08	3830854	4.42176424257923E-05
2	615	104.167838737001	0.414276123046875	0.41424560546875	1.0986328125E-07	4.55103794649858E-08	3770555.5	4.42287528130691E-05
2	616	104.268546736747	0.404205322265625	0.404205322265625	1.08642578125E-07	4.39139071772843E-08	3720505.75	4.42397540609818E-05
2	617	104.369254736493	0.394134521484375	0.3941650390625	1.068115234375E-07	4.21013659490654E-08	3690285.75	4.42506061517633E-05
2	618	104.469962736239	0.384063720703125	0.384063720703125	1.0528564453125E-07	4.04363973416366E-08	3647826.25	4.42612836195622E-05
2	619	104.570670735984	0.373992919921875	0.373931884765625	1.0345458984375E-07	3.86849698941205E-08	3614454.25	4.42717973783147E-05
2	620	104.67137873573	0.363922119140625	0.3638916015625	1.01623535156251E-07	3.69799515453906E-08	3580780.75	4.42821219621692E-05
2	621	104.772086735476	0.353851318359375	0.3538818359375	9.918212890625E-08	3.50987505726152E-08	3568000.25	4.42922319052741E-05
2	622	104.872794735222	0.343780517578125	0.34381103515625	9.67407226562494E-08	3.32605267772124E-08	3553943.25	4.43020981037989E-05
2	623	104.973502734967	0.333709716796875	0.333740234375	9.49096679687497E-08	3.16751744833255E-08	3516398.75	4.43117496615741E-05
2	624	105.074210734713	0.323638916015625	0.32366943359375	9.24682617187506E-08	2.99291507133148E-08	3500330	4.43211829406209E-05
2	625	105.174918734459	0.313568115234375	0.313629150390625	9.03320312499997E-08	2.83307581838699E-08	3471959.5	4.43303906649817E-05
2	626	105.275626734205	0.303497314453125	0.30340576171875	8.78906250000006E-08	2.66665232118157E-08	3452083.25	4.433936192072E-05
2	627	105.37633473395	0.293426513671875	0.293365478515625	8.544921875E-08	2.50678500179902E-08	3433214.5	4.4348093069857E-05
2	628	105.477042733696	0.283355712890625	0.2833251953125	8.23974609375E-08	2.33452759346164E-08	3438518.75	4.43565440946259E-05
2	629	105.577750733442	0.273284912109375	0.273284912109375	7.90405273437503E-08	2.16005826558785E-08	3457529	4.43646713392809E-05
2	630	105.678458733188	0.263214111328125	0.26324462890625	7.56835937500006E-08	1.9923300342839E-08	3478225.75	4.43724638898857E-05
2	631	105.779166732933	0.253143310546875	0.253173828125	7.32421875E-08	1.85430035770651E-08	3456666.75	4.43799617642071E-05
2	632	105.879874732679	0.243072509765625	0.243072509765625	7.11059570312506E-08	1.72839040857298E-08	3418454.75	4.43872304458637E-05
2	633	105.980582732425	0.233001708984375	0.233062744140625	6.866455078125E-08	1.60031472518085E-08	3394222.25	4.43942699348554E-05
2	634	106.08129073217	0.222930908203125	0.222991943359375	6.53076171875003E-08	1.45630725256751E-08	3414486	4.44010147475637E-05
2	635	106.181998731916	0.212860107421875	0.212890625	6.16455078124994E-08	1.31237509748416E-08	3453465.25	4.44074066763278E-05
2	636	106.282706731662	0.202789306640625	0.20281982421875	5.76782226562503E-08	1.16982867837123E-08	3516402.25	4.44134166173171E-05
2	637	106.383414731408	0.192718505859375	0.1927490234375	5.27954101562506E-08	1.01762633875069E-08	3650867.25	4.44189790869132E-05
2	638	106.484122731153	0.182647705078125	0.182647705078125	4.66918945312506E-08	8.5281675055171E-09	3911764.75	4.44239885837305E-05
2	639	106.584830730899	0.172576904296875	0.172607421875	3.93676757812503E-08	6.79515244073059E-09	4384496.5	4.44283214164898E-05
2	640	106.685538730645	0.162506103515625	0.16259765625	3.0517578125E-08	4.96208629741091E-09	5328000.5	4.44318393419962E-05
2	641	106.786246730391	0.152435302734375	0.1524658203125	1.92260742187506E-08	2.93131896533794E-09	7930159	4.44343459093943E-05
2	642	106.886954730136	0.142364501953125	0.142364501953125	4.57763671875E-09	6.5169292184919E-10	31100002	4.44355428044219E-05
2	643	106.987662729882	0.132293701171875	0.13232421875	-1.52587890625E-08	-2.01910710373454E-09	-8672001	4.44350080215372E-05
2	644	107.088370729628	0.122222900390625	0.12225341796875	-4.24194335937503E-08	-5.18592058185163E-09	-2882014.5	4.44321012764703E-05
2	645	107.189078729374	0.112152099609375	0.112213134765625	-7.99560546874995E-08	-8.97211904771211E-09	-1403435.125	4.44259385403711E-05
2	646	107.289786729119	0.102081298828125	0.102081298828125	-1.30310058593749E-07	-1.33022197701393E-08	-783372.375	4.44153520220425E-05
2	647	107.390494728865	0.092010498046875	0.092071533203125	-1.98974609374999E-07	-1.83198967107501E-08	-462730.0625	4.43987701146398E-05
2	648	107.491202728611	0.081939697265625	0.08203125	-2.899169921875E-07	-2.37822526116815E-08	-282947.375	4.4374155550031E-05
2	649	107.591910728357	0.071868896484375	0.07183837890625	-4.0863037109375E-07	-2.93553430452675E-08	-175802.84375	4.43389799329452E-05
2	650	107.692618728102	0.061798095703125	0.061859130859375	-5.59387207031251E-07	-3.46032074105551E-08	-110583.7421875	4.4290234654909E-05
2	651	107.793326727848	0.051727294921875	0.051788330078125	-7.43713378906249E-07	-3.85156724291846E-08	-69634.796875	4.42246200691443E-05
2	652	107.894034727594	0.041656494140625	0.0417327880859375	-9.5489501953125E-07	-3.98504305110237E-08	-43704.0625	4.41390875494108E-05
2	653	107.994742727339	0.031585693359375	0.0316650390625	-1.18316650390625E-06	-3.74650106493846E-08	-26762.962890625	4.40314288425725E-05
2	654	108.095450727085	0.021514892578125	0.021624755859375	-1.4068603515625E-06	-3.04230098890912E-08	-15370.9326171875	4.39010109403171E-05
2	655	108.196158726831	0.011444091796875	0.011517333984375	-1.6070556640625E-06	-1.85089970017316E-08	-7166.72998046875	4.37492453784216E-05
2	656	108.296866726577	0.001373291015625	0.0014373779296875	-1.76422119140625E-06	-2.53585241694054E-09	-814.737976074219	4.35794900113251E-05
2	657	108.397574726322	-0.008697509765625	-0.0085723876953125	-1.864013671875E-06	1.59790474185684E-08	4598.88671875	4.33967943536118E-05
2	658	108.498282726068	-0.018768310546875	-0.0186859130859375	-1.90765380859375E-06	3.56462521722278E-08	9795.232421875	4.32068736699875E-05
2	659	108.598990725814	-0.028839111328125	-0.0287017822265625	-1.90216064453125E-06	5.45954002006965E-08	15089.0419921875	4.3015035771532E-05
2	660	108.69969872556	-0.038909912109375	-0.03876953125	-1.86126708984375E-06	7.21604536124687E-08	20829.64453125	4.28255334554706E-05
2	661	108.800406725305	-0.048980712890625	-0.04884033203125	-1.80084228515625E-06	8.79537367382E-08	27120.828125	4.26411315856967E-05
2	662	108.901114725051	-0.059051513671875	-0.058990478515625	-1.73065185546875E-06	1.02091973985807E-07	34085.69921875	4.24633035436273E-05
2	663	109.001822724797	-0.069122314453125	-0.069061279296875	-1.658935546875E-06	1.14568209141908E-07	41629.875	4.22926277678926E-05
2	664	109.102530724543	-0.079193115234375	-0.079132080078125	-1.5911865234375E-06	1.2591389975114E-07	49731.49609375	4.21289696532767E-05
2	665	109.203238724288	-0.089263916015625	-0.08917236328125	-1.52862548828125E-06	1.36311143705825E-07	58334.99609375	4.19718744524289E-05
2	666	109.303946724034	-0.099334716796875	-0.099334716796875	-1.473388671875E-06	1.46358644315114E-07	67419.2265625	4.18207091570366E-05
2	667	109.40465472378	-0.109405517578125	-0.109283447265625	-1.42578125E-06	1.5581427703637E-07	76648.1171875	4.16747243434656E-05
2	668	109.505362723526	-0.119476318359375	-0.119476318359375	-1.38458251953125E-06	1.65424808074022E-07	86290.5078125	4.15332142438274E-05
2	669	109.606070723271	-0.129547119140625	-0.129425048828125	-1.35040283203125E-06	1.74775948380557E-07	95841.8046875	4.13954949181061E-05
2	670	109.706778723017	-0.139617919921875	-0.1395263671875	-1.32232666015625E-06	1.84499427291485E-07	105515.8125	4.12609115301166E-05
2	671	109.807486722763	-0.149688720703125	-0.149627685546875	-1.2982177734375E-06	1.94249309970473E-07	115256.234375	4.11289584008045E-05
2	672	109.908194722508	-0.159759521484375	-0.15966796875	-1.27838134765625E-06	2.041165458877E-07	124898.546875	4.09992171626072E-05
2	673	110.008902722254	-0.169830322265625	-0.169677734375	-1.26220703125E-06	2.14168423440242E-07	134429.40625	4.08712876378559E-05
2	674	110.109610722	-0.179901123046875	-0.179718017578125	-1.24908447265625E-06	2.24482974431339E-07	143879.796875	4.07448351325002E-05
2	675	110.210318721746	-0.189971923828125	-0.189788818359375	-1.23931884765625E-06	2.35208858612168E-07	153139.625	4.06195322284475E-05
2	676	110.311026721491	-0.200042724609375	-0.19989013671875	-1.23291015625E-06	2.46446575147274E-07	162128.71875	4.04950442316476E-05
2	677	110.411734721237	-0.189971923828125	-0.189788818359375	-1.0675048828125E-06	2.02600489274118E-07	177787.3125	4.03792109864298E-05
