Potential - Start -0.2 V, Upper Vertex 1.5 V, Lower Vertex -0.2 V, Stop -0.19 V; Scan - # end cross 5, Rate 0.1 Vps, Step 0.01 V 
Scan	Index	Time (s)	Potential applied (V)	WE(1).Potential (V)	WE(1).Current (A)	WE(1).Power (W)	WE(1).Resistance (Ω)	WE(1).Charge (C)
1	1	67.2305838302591	-0.189971923828125	-0.189910888671875	-1.65710449218751E-07	3.14702184311955E-08	1146040.5	0
1	2	67.3312918300048	-0.179901123046875	-0.17974853515625	-1.35192871093751E-07	2.43007196587541E-08	1329571.125	-1.51516861279788E-08
1	3	67.4319998297506	-0.169830322265625	-0.169708251953125	-1.12304687500001E-07	1.90590316861972E-08	1511141.375	-2.76141758348558E-08
1	4	67.5327078294963	-0.159759521484375	-0.159637451171875	-9.39941406250006E-08	1.50049839220401E-08	1698376.625	-3.80021489831961E-08
1	5	67.633415829242	-0.149688720703125	-0.149627685546875	-7.69042968749994E-08	1.1507011343781E-08	1945635	-4.66075675831235E-08
1	6	67.7341238289878	-0.139617919921875	-0.1395263671875	-6.16455078124994E-08	8.60117399525961E-09	2263366.25	-5.35841024884576E-08
1	7	67.8348318287335	-0.129547119140625	-0.12945556640625	-4.730224609375E-08	6.12353856510595E-09	2736774.25	-5.90700572900005E-08
1	8	67.9355398284792	-0.119476318359375	-0.119384765625	-3.47900390625003E-08	4.15340029036315E-09	3431579	-6.32037355785542E-08
1	9	68.036247828225	-0.109405517578125	-0.109405517578125	-2.16674804687497E-08	2.3705419849307E-09	5049296	-6.60465957480483E-08
1	10	68.1369558279707	-0.099334716796875	-0.099212646484375	-8.54492187500056E-09	8.47764358713476E-10	11610714	-6.75679103778748E-08
1	11	68.2376638277165	-0.089263916015625	-0.089263916015625	5.18798828124945E-09	-4.63100141567807E-10	-17205882	-6.77369484947121E-08
1	12	68.3383718274622	-0.079193115234375	-0.07916259765625	1.89208984374994E-08	-1.49782752867367E-09	-4183871	-6.65229649143839E-08
1	13	68.4390798272079	-0.069122314453125	-0.069061279296875	3.44848632812506E-08	-2.38156872001127E-09	-2002654.875	-6.38337738223527E-08
1	14	68.5397878269537	-0.059051513671875	-0.058990478515625	5.21850585937497E-08	-3.07842151769933E-09	-1130409.375	-5.94695954703184E-08
1	15	68.6404958266994	-0.048980712890625	-0.048858642578125	7.44628906250003E-08	-3.63815577664184E-09	-656147.5625	-5.30923642827474E-08
1	16	68.7412038264451	-0.038909912109375	-0.038787841796875	1.01318359374999E-07	-3.92992038911189E-09	-382831.34375	-4.4241076579965E-08
1	17	68.8419118261909	-0.028839111328125	-0.0287109375	1.3763427734375E-07	-3.95160881794254E-09	-208603.109375	-3.22088560267275E-08
1	18	68.9426198259366	-0.018768310546875	-0.01865234375	1.861572265625E-07	-3.4722684727484E-09	-100196.7265625	-1.59046589232048E-08
1	19	69.0433278256824	-0.008697509765625	-0.008563232421875	2.520751953125E-07	-2.15857842711387E-09	-33970.9453125	6.16209572257276E-09
1	20	69.1440358254281	0.001373291015625	0.001507568359375	3.40881347656249E-07	5.13901921017634E-10	4422.560546875	3.60198271209811E-08
1	21	69.2447438251738	0.011444091796875	0.0115509033203125	4.595947265625E-07	5.30873389692488E-09	25132.802734375	7.6326998055265E-08
1	22	69.3454518249196	0.021514892578125	0.021624755859375	6.1248779296875E-07	1.32448985112887E-08	35306.42578125	1.3031063872404E-07
1	23	69.4461598246653	0.031585693359375	0.031695556640625	8.0078125E-07	2.53812046935309E-08	39580.79296875	2.01474392724776E-07
1	24	69.546867824411	0.041656494140625	0.0417388916015625	1.021728515625E-06	4.26458122149143E-08	40851.25390625	2.93245051352642E-07
1	25	69.6475758241568	0.051727294921875	0.051788330078125	1.260986328125E-06	6.5304377017128E-08	41069.69921875	4.08188867595527E-07
1	26	69.7482838239025	0.061798095703125	0.061767578125	1.497802734375E-06	9.25156484754552E-08	41238.79296875	5.47104946235777E-07
1	27	69.8489918236482	0.071868896484375	0.071929931640625	1.707763671875E-06	1.22839324490087E-07	42119.37109375	7.08518030023697E-07
1	28	69.949699823394	0.081939697265625	0.08197021484375	1.87103271484375E-06	1.53368944211252E-07	43810.1484375	8.88724741798796E-07
1	29	70.0504078231397	0.092010498046875	0.092071533203125	1.9744873046875E-06	1.81794078457642E-07	46630.6015625	1.0823620186784E-06
1	30	70.1511158228855	0.102081298828125	0.102081298828125	2.01873779296875E-06	2.06075355890789E-07	50566.8984375	1.283436859012E-06
1	31	70.2518238226312	0.112152099609375	0.11212158203125	2.012939453125E-06	2.25693952415895E-07	55700.42578125	1.48644789987884E-06
1	32	70.3525318223769	0.122222900390625	0.122283935546875	1.97296142578125E-06	2.41261489009048E-07	61979.890625	1.68715394011087E-06
1	33	70.4532398221227	0.132293701171875	0.132354736328125	1.91162109375E-06	2.53012103712535E-07	69236.9140625	1.88275828350015E-06
1	34	70.5539478218684	0.142364501953125	0.1424560546875	1.84112548828125E-06	2.62279485241379E-07	77374.4375	2.07172411137435E-06
1	35	70.6546558216141	0.152435302734375	0.15252685546875	1.7681884765625E-06	2.69696215582371E-07	86261.6484375	2.25346752813493E-06
1	36	70.7553638213599	0.162506103515625	0.162567138671875	1.69769287109375E-06	2.75989066267357E-07	95757.6875	2.42798842009506E-06
1	37	70.8560718211056	0.172576904296875	0.172607421875	1.6326904296875E-06	2.8181449351905E-07	105719.625	2.59568651017617E-06
1	38	70.9567798208514	0.182647705078125	0.182647705078125	1.5728759765625E-06	2.87282176714143E-07	116123.40625	2.75709953712067E-06
1	39	71.0574878205971	0.192718505859375	0.192718505859375	1.51885986328125E-06	2.92712400096207E-07	126883.671875	2.91278092845459E-06
1	40	71.1581958203428	0.202789306640625	0.202789306640625	1.470947265625E-06	2.98292377465259E-07	137863.078125	3.06332958643907E-06
1	41	71.2589038200886	0.212860107421875	0.212799072265625	1.42791748046875E-06	3.03859508221649E-07	149027.5625	3.20929916597379E-06
1	42	71.3596118198343	0.222930908203125	0.222900390625	1.38916015625E-06	3.09644349272276E-07	160456.9375	3.35115009875153E-06
1	43	71.46031981958	0.233001708984375	0.233001708984375	1.35498046875E-06	3.15712753717889E-07	171959.46875	3.48932871929719E-06
1	44	71.5610278193258	0.243072509765625	0.2430419921875	1.32415771484375E-06	3.21825922355856E-07	183544.609375	3.62423406841117E-06
1	45	71.6617358190715	0.253143310546875	0.253143310546875	1.29608154296875E-06	3.28094387214151E-07	195314.34375	3.75617355530267E-06
1	46	71.7624438188172	0.263214111328125	0.26324462890625	1.2713623046875E-06	3.34679299385243E-07	207057.125	3.88545458918088E-06
1	47	71.863151818563	0.273284912109375	0.27325439453125	1.2481689453125E-06	3.41067647013915E-07	218924.203125	4.01232318836264E-06
1	48	71.9638598183087	0.283355712890625	0.283294677734375	1.226806640625E-06	3.47547768342338E-07	230920.40625	4.13694806411513E-06
1	49	72.0645678180545	0.293426513671875	0.293487548828125	1.2078857421875E-06	3.54499405830211E-07	242976.265625	4.25954431193531E-06
1	50	72.1652758178002	0.303497314453125	0.303436279296875	1.190185546875E-06	3.61145481519998E-07	254948.71875	4.380297013995E-06
1	51	72.2659838175459	0.313568115234375	0.3135986328125	1.17401123046875E-06	3.68168315389994E-07	267117.21875	4.49934350399417E-06
1	52	72.3666918172917	0.323638916015625	0.323638916015625	1.1590576171875E-06	3.75116115947094E-07	279225.9375	4.61682293462218E-06
1	53	72.4673998170374	0.333709716796875	0.333709716796875	1.14471435546875E-06	3.82002298238149E-07	291522.25	4.73282716484391E-06
1	54	72.5681078167831	0.343780517578125	0.34375	1.131591796875E-06	3.88984659593916E-07	303775.65625	4.8474485083716E-06
1	55	72.6688158165289	0.353851318359375	0.3538818359375	1.11968994140625E-06	3.96237936683974E-07	316053.40625	4.96080929224263E-06
1	56	72.7695238162746	0.363922119140625	0.3638916015625	1.10870361328125E-06	4.0344792751057E-07	328213.59375	5.07301774632651E-06
1	57	72.8702318160204	0.373992919921875	0.373992919921875	1.0986328125E-06	4.10880886647647E-07	340416.6875	5.18416618433548E-06
1	58	72.9709398157661	0.384063720703125	0.384033203125	1.0888671875E-06	4.18161164361663E-07	352690.59375	5.29431554241455E-06
1	59	73.0716478155118	0.394134521484375	0.39410400390625	1.08062744140625E-06	4.25879591148259E-07	364699.25	5.40355813427595E-06
1	60	73.1723558152576	0.404205322265625	0.40423583984375	1.07208251953125E-06	4.33374140129672E-07	377056.65625	5.51195580555941E-06
1	61	73.2730638150033	0.414276123046875	0.414306640625	1.0650634765625E-06	4.41262841377466E-07	388997.15625	5.61956949240994E-06
1	62	73.373771814749	0.424346923828125	0.42431640625	1.0577392578125E-06	4.48816138032271E-07	401154.0625	5.72646104046726E-06
1	63	73.4744798144948	0.434417724609375	0.434417724609375	1.0516357421875E-06	4.56849221563971E-07	413087.625	5.83267683396116E-06
1	64	73.5751878142405	0.444488525390625	0.44451904296875	1.046142578125E-06	4.65030268514965E-07	424912.5	5.93830827710917E-06
1	65	73.6758958139862	0.454559326171875	0.454620361328125	1.041259765625E-06	4.73377895104932E-07	436606.09375	6.04341721555102E-06
1	66	73.776603813732	0.464630126953125	0.464630126953125	1.036376953125E-06	4.81531969853677E-07	448321.5625	6.14803457210655E-06
1	67	73.8773118134777	0.474700927734375	0.474639892578125	1.03179931640625E-06	4.89733110953239E-07	460011.8125	6.25217535343836E-06
1	68	73.9780198132235	0.484771728515625	0.48480224609375	1.02783203125E-06	4.98295264605986E-07	471674.59375	6.35588639852358E-06
1	69	74.0787278129692	0.494842529296875	0.494781494140625	1.02447509765625E-06	5.06891296936374E-07	482961	6.45922818875988E-06
1	70	74.1794358127149	0.504913330078125	0.5048828125	1.02081298828125E-06	5.15390922828374E-07	494588.9375	6.56221664030454E-06
1	71	74.2801438124607	0.514984130859375	0.514923095703125	1.01776123046875E-06	5.24068752838502E-07	505937.0625	6.66486675982014E-06
1	72	74.3808518122064	0.525054931640625	0.525054931640625	1.0150146484375E-06	5.32938429387286E-07	517288.0625	6.76722538628383E-06
1	73	74.4815598119521	0.535125732421875	0.53509521484375	1.0125732421875E-06	5.41823055755231E-07	528450.875	6.86932253302075E-06
1	74	74.5822678116979	0.545196533203125	0.545135498046875	1.0101318359375E-06	5.50658683096117E-07	539667.6875	6.97117366144084E-06
1	75	74.6829758114436	0.555267333984375	0.555206298828125	1.00860595703125E-06	5.59984414394421E-07	550469	7.0728251557739E-06
1	76	74.7836838111893	0.565338134765625	0.565338134765625	1.0076904296875E-06	5.69685823847976E-07	561023.625	7.17435386832221E-06
1	77	74.8843918109351	0.575408935546875	0.575347900390625	1.00677490234375E-06	5.79245806875406E-07	571476.25	7.2757902671583E-06
1	78	74.9850998106808	0.585479736328125	0.585418701171875	1.00555419921875E-06	5.88670218348852E-07	582185.125	7.37711889087223E-06
1	79	75.0858078104266	0.595550537109375	0.595458984375	1.0052490234375E-06	5.9858456324946E-07	592349.75	7.4783711170312E-06
1	80	75.1865158101723	0.605621337890625	0.6055908203125	1.0052490234375E-06	6.08769596510683E-07	602428.625	7.5796074270329E-06
1	81	75.287223809918	0.615692138671875	0.6156005859375	1.00555419921875E-06	6.19019715486502E-07	612200.3125	7.68085919844452E-06
1	82	75.3879318096638	0.625762939453125	0.62567138671875	1.00555419921875E-06	6.29146484243392E-07	622215.5	7.78212688601343E-06
1	83	75.4886398094095	0.635833740234375	0.63580322265625	1.0064697265625E-06	6.39916663658369E-07	631716.1875	7.88344004831742E-06
1	84	75.5893478091552	0.645904541015625	0.64581298828125	1.0076904296875E-06	6.50779611532926E-07	640884.3125	7.98486144049093E-06
1	85	75.690055808901	0.655975341796875	0.655975341796875	1.0089111328125E-06	6.6182082036903E-07	650181.5	8.08640561444918E-06
1	86	75.7907638086467	0.666046142578125	0.666015625	1.0101318359375E-06	6.72763519560249E-07	659335.375	8.18807257019216E-06
1	87	75.8914718083925	0.676116943359375	0.67608642578125	1.0113525390625E-06	6.83761697928276E-07	668497.3125	8.28986230771989E-06
1	88	75.9921798081382	0.686187744140625	0.686065673828125	1.01348876953125E-06	6.953198408155E-07	676934.6875	8.39182121126214E-06
1	89	76.0928878078839	0.696258544921875	0.696136474609375	1.01470947265625E-06	7.0637628368786E-07	686045.125	8.49394837132422E-06
1	90	76.1935958076297	0.706329345703125	0.70623779296875	1.016845703125E-06	7.18134856469987E-07	694537.875	8.59624560689554E-06
1	91	76.2943038073754	0.716400146484375	0.71630859375	1.019287109375E-06	7.30124099845852E-07	702754.5	8.6987729446264E-06
1	92	76.3950118071211	0.726470947265625	0.726348876953125	1.021728515625E-06	7.42131362585496E-07	710902.0625	8.80154675542144E-06
1	93	76.4957198068669	0.736541748046875	0.7364501953125	1.02447509765625E-06	7.54474854147702E-07	718856.125	8.90458068170119E-06
1	94	76.5964278066126	0.746612548828125	0.7464599609375	1.0272216796875E-06	7.6677980587192E-07	726678.5625	9.00789200386498E-06
1	95	76.6971358063583	0.756683349609375	0.75653076171875	1.02996826171875E-06	7.79202594003436E-07	734518.5625	9.11147981241811E-06
1	96	76.7978438061041	0.766754150390625	0.76690673828125	1.03302001953125E-06	7.92230025581375E-07	742392.9375	9.21535956877051E-06
1	97	76.8985518058498	0.776824951171875	0.7769775390625	1.03607177734375E-06	8.05004503945383E-07	749926.3125	9.31954673433211E-06
1	98	76.9992598055956	0.786895751953125	0.787353515625	1.03851318359375E-06	8.17676948372537E-07	758154.625	9.42401038628304E-06
1	99	77.0999678053413	0.796966552734375	0.79742431640625	1.04156494140625E-06	8.30569206300424E-07	765602.125	9.52875052462332E-06
1	100	77.200675805087	0.807037353515625	0.806884765625	1.04522705078125E-06	8.4337773387233E-07	771970.8125	9.63382899499265E-06
1	101	77.3013838048328	0.817108154296875	0.816650390625	1.0479736328125E-06	8.55828034218575E-07	779266.1875	9.73923033598112E-06
1	102	77.4020918045785	0.827178955078125	0.82763671875	1.05133056640625E-06	8.70119720275397E-07	787227.875	9.84493817668408E-06
1	103	77.5027998043242	0.837249755859375	0.83770751953125	1.0540771484375E-06	8.83008283381059E-07	794730.8125	9.95095433609094E-06
1	104	77.60350780407	0.847320556640625	0.8477783203125	1.05621337890625E-06	8.95434766334802E-07	802658.1875	1.00572151495726E-05
1	105	77.7042158038157	0.857391357421875	0.85723876953125	1.05926513671875E-06	9.0804309138548E-07	809276.9375	1.01637378975283E-05
1	106	77.8049238035615	0.867462158203125	0.86761474609375	1.06170654296875E-06	9.21152206956322E-07	817188.875	1.02705380413681E-05
1	107	77.9056318033072	0.877532958984375	0.877685546875	1.06414794921875E-06	9.33987223561417E-07	824777.75	1.03775828392827E-05
1	108	78.0063398030529	0.887603759765625	0.887451171875	1.06658935546875E-06	9.46545981150848E-07	832045.8125	1.04848741102614E-05
1	109	78.1070478027987	0.897674560546875	0.897216796875	1.0687255859375E-06	9.58878445089795E-07	839520.3125	1.05923954833997E-05
1	110	78.2077558025444	0.907745361328125	0.90789794921875	1.070556640625E-06	9.71956183093425E-07	848061.5625	1.07001169453724E-05
1	111	78.3084638022901	0.917816162109375	0.91796875	1.0723876953125E-06	9.84418420557631E-07	856004.5625	1.08080230347696E-05
1	112	78.4091718020359	0.927886962890625	0.92742919921875	1.07452392578125E-06	9.96544827103207E-07	863107.125	1.09161283035064E-05
1	113	78.5098798017816	0.937957763671875	0.93780517578125	1.07666015625E-06	1.0096974847329E-06	871031.75	1.10244491224876E-05
1	114	78.6105878015273	0.948028564453125	0.94818115234375	1.07818603515625E-06	1.02231558685162E-06	879422.625	1.11329545688932E-05
1	115	78.7112958012731	0.958099365234375	0.95794677734375	1.08001708984375E-06	1.03459888123325E-06	886973.6875	1.12416282718186E-05
1	116	78.8120038010188	0.968170166015625	0.968017578125	1.08245849609375E-06	1.04783873666747E-06	894276.9375	1.13505175249884E-05
1	117	78.9127118007646	0.978240966796875	0.97869873046875	1.08489990234375E-06	1.06179015801899E-06	902109.75	1.14596532512223E-05
1	118	79.0134198005103	0.988311767578125	0.9881591796875	1.08734130859375E-06	1.07446624042495E-06	908784.75	1.15690336315311E-05
1	119	79.114127800256	0.998382568359375	0.99822998046875	1.09039306640625E-06	1.08846302282473E-06	915477.1875	1.16786914077238E-05
1	120	79.2148358000018	1.00845336914063	1.00830078125	1.09283447265625E-06	1.10190580926428E-06	922647.375	1.17886256703059E-05
1	121	79.3155437997475	1.01852416992188	1.01837158203125	1.0968017578125E-06	1.11695169380255E-06	928491.9375	1.18988828035071E-05
1	122	79.4162517994932	1.02859497070313	1.0284423828125	1.1004638671875E-06	1.13176361082878E-06	934553.5625	1.20095237434725E-05
1	123	79.516959799239	1.03866577148438	1.0382080078125	1.1041259765625E-06	1.14631245651253E-06	940298.5	1.21205339382868E-05
1	124	79.6176677989847	1.04873657226563	1.048583984375	1.10809326171875E-06	1.16192882160249E-06	946295.8125	1.22319279398653E-05
1	125	79.7183757987304	1.05880737304688	1.0589599609375	1.11236572265625E-06	1.17795070764259E-06	951989.0625	1.23437366710277E-05
1	126	79.8190837984762	1.06887817382813	1.0687255859375	1.1163330078125E-06	1.1930536629734E-06	957353.75	1.24559610412689E-05
1	127	79.9197917982219	1.07894897460938	1.0791015625	1.12152099609375E-06	1.21023504107143E-06	962176.875	1.25686456158292E-05
1	128	80.0204997979677	1.08901977539063	1.0888671875	1.12579345703125E-06	1.22583958273026E-06	967199.75	1.26818067656131E-05
1	129	80.1212077977134	1.09909057617188	1.0992431640625	1.13128662109375E-06	1.24355904063123E-06	971675.25	1.27954599520308E-05
1	130	80.2219157974591	1.10916137695313	1.10931396484375	1.13616943359375E-06	1.26036866276991E-06	976363.125	1.29096351884073E-05
1	131	80.3226237972049	1.11923217773438	1.11907958984375	1.14105224609375E-06	1.2769281738656E-06	980743.5625	1.30243024614174E-05
1	132	80.4233317969506	1.12930297851563	1.1297607421875	1.1456298828125E-06	1.29428769923834E-06	986148.125	1.31394463096512E-05
1	133	80.5240397966963	1.13937377929688	1.138916015625	1.15020751953125E-06	1.3099896705171E-06	990183.125	1.32550512716989E-05
1	134	80.6247477964421	1.14944458007813	1.1492919921875	1.15509033203125E-06	1.32753609705105E-06	994980.1875	1.33711318994756E-05
1	135	80.7254557961878	1.15951538085938	1.15966796875	1.15966796875E-06	1.34482979774475E-06	1000000.0625	1.3487689102476E-05
1	136	80.8261637959336	1.16958618164063	1.16973876953125	1.16455078125E-06	1.36222024593735E-06	1004454.9375	1.36047228807001E-05
1	137	80.9268717956793	1.17965698242188	1.1798095703125	1.1688232421875E-06	1.37898882712761E-06	1009399.5	1.37222177727381E-05
1	138	81.027579795425	1.18972778320313	1.1895751953125	1.17218017578125E-06	1.39439646318351E-06	1014839.875	1.38400964715402E-05
1	139	81.1282877951708	1.19979858398438	1.19964599609375	1.1761474609375E-06	1.41096052175271E-06	1019979.3125	1.39583444251912E-05
1	140	81.2289957949165	1.20986938476563	1.209716796875	1.18011474609375E-06	1.42760461585567E-06	1025084.0625	1.40769916470163E-05
1	141	81.3297037946622	1.21994018554688	1.21978759765625	1.18377685546875E-06	1.44395630741201E-06	1030420.25	1.41960226756055E-05
1	142	81.430411794408	1.23001098632813	1.2298583984375	1.18743896484375E-06	1.46038166803919E-06	1035723.5	1.43154229590436E-05
1	143	81.5311197941537	1.24008178710938	1.23992919921875	1.1907958984375E-06	1.47650257531495E-06	1041260.9375	1.44351770359208E-05
1	144	81.6318277938994	1.25015258789063	1.24969482421875	1.1944580078125E-06	1.49270783822431E-06	1046244.3125	1.45552839967422E-05
1	145	81.7325357936452	1.26022338867188	1.26007080078125	1.19720458984375E-06	1.50856260461296E-06	1052510.875	1.46757138281828E-05
1	146	81.8332437933909	1.27029418945313	1.26953125	1.2005615234375E-06	1.52415043430665E-06	1057447.875	1.47964510688325E-05
1	147	81.9339517931367	1.28036499023438	1.280517578125	1.20361328125E-06	1.54124791151844E-06	1063894.5	1.49175102706067E-05
1	148	82.0346597928824	1.29043579101563	1.29058837890625	1.207275390625E-06	1.55809550506092E-06	1069009.125	1.50389087139047E-05
1	149	82.1353677926281	1.30050659179688	1.3006591796875	1.20941162109375E-06	1.57303236392181E-06	1075447.875	1.51605981955072E-05
1	150	82.2360757923739	1.31057739257813	1.31072998046875	1.21246337890625E-06	1.58921204729268E-06	1081047.125	1.52825487020891E-05
1	151	82.3367837921196	1.32064819335938	1.32080078125	1.21490478515625E-06	1.60464708187646E-06	1087164.125	1.54047775140498E-05
1	152	82.4374917918653	1.33071899414063	1.33026123046875	1.2176513671875E-06	1.61979426138714E-06	1092481.25	1.55272664414952E-05
1	153	82.5381997916111	1.34078979492188	1.34063720703125	1.22100830078125E-06	1.63692902788171E-06	1097975.625	1.56500627781497E-05
1	154	82.6389077913568	1.35086059570313	1.35101318359375	1.224365234375E-06	1.65413348440779E-06	1103439.75	1.5773195627844E-05
1	155	82.7396157911026	1.36093139648438	1.36077880859375	1.22772216796875E-06	1.67065820733114E-06	1108376.875	1.58966686285567E-05
1	156	82.8403237908483	1.37100219726563	1.37115478515625	1.2310791015625E-06	1.6879999975572E-06	1113782.875	1.60204799612984E-05
1	157	82.941031790594	1.38107299804688	1.38092041015625	1.23565673828125E-06	1.70634348251042E-06	1117560	1.61446896527195E-05
1	158	83.0417397903398	1.39114379882813	1.3909912109375	1.2396240234375E-06	1.72430611655727E-06	1122107.375	1.62693304446293E-05
1	159	83.1424477900855	1.40121459960938	1.40106201171875	1.243896484375E-06	1.74277613496088E-06	1126349.375	1.63943841471337E-05
1	160	83.2431557898312	1.41128540039063	1.4111328125	1.248779296875E-06	1.76219350578322E-06	1130009.75	1.6519901691936E-05
1	161	83.343863789577	1.42135620117188	1.4215087890625	1.25335693359375E-06	1.78165782926953E-06	1134161.25	1.66458939929726E-05
1	162	83.4445717893227	1.43142700195313	1.43157958984375	1.25823974609375E-06	1.80127040039224E-06	1137763.75	1.67723628692329E-05
1	163	83.5452797890684	1.44149780273438	1.44134521484375	1.263427734375E-06	1.82103553925117E-06	1140821.25	1.68993392435368E-05
1	164	83.6459877888142	1.45156860351563	1.45172119140625	1.26861572265625E-06	1.84167629413423E-06	1144334.875	1.70268376677996E-05
1	165	83.7466957885599	1.46163940429688	1.46148681640625	1.27349853515625E-06	1.86120121270505E-06	1147615.625	1.71548435901059E-05
1	166	83.8474037883057	1.47171020507813	1.47125244140625	1.2786865234375E-06	1.88127057754173E-06	1150596.75	1.72833551914664E-05
1	167	83.9481117880514	1.48178100585938	1.48193359375	1.282958984375E-06	1.90125990684464E-06	1155090.5	1.741234518704E-05
1	168	84.0488197877971	1.49185180664063	1.49200439453125	1.28814697265625E-06	1.92192078429798E-06	1158256.375	1.7541809938848E-05
1	169	84.1495277875429	1.50192260742188	1.5020751953125	1.29150390625E-06	1.93993582797702E-06	1163043.5	1.76717057911446E-05
1	170	84.2502357872886	1.49185180664063	1.49169921875	1.20147705078125E-06	1.79224241492193E-06	1241554.5	1.77972378878621E-05
1	171	84.3509437870343	1.48178100585938	1.48193359375	1.1407470703125E-06	1.69051133980247E-06	1299090.5	1.79151775228092E-05
1	172	84.4516517867801	1.47171020507813	1.47216796875	1.092529296875E-06	1.60838658302964E-06	1347486.125	1.80276329047047E-05
1	173	84.5523597865258	1.46163940429688	1.461181640625	1.0528564453125E-06	1.5384144944619E-06	1387826.125	1.81356608663918E-05
1	174	84.6530677862715	1.45156860351563	1.451416015625	1.0186767578125E-06	1.47852369991597E-06	1424805.375	1.82399708137382E-05
1	175	84.7537757860173	1.44149780273438	1.4410400390625	9.8846435546875E-07	1.42441660955228E-06	1457857.375	1.8341037502978E-05
1	176	84.854483785763	1.43142700195313	1.4312744140625	9.613037109375E-07	1.37588938287081E-06	1488888.875	1.84392174560344E-05
1	177	84.9551917855088	1.42135620117188	1.4215087890625	9.368896484375E-07	1.33179685235518E-06	1517263.875	1.85347980732331E-05
1	178	85.0558997852545	1.41128540039063	1.4111328125	9.14611816406249E-07	1.29063869280799E-06	1542876.25	1.86280285561224E-05
1	179	85.1566077850002	1.40121459960938	1.40106201171875	8.941650390625E-07	1.25278063478618E-06	1566894.25	1.87191089935368E-05
1	180	85.257315784746	1.39114379882813	1.39068603515625	8.7493896484375E-07	1.21676544040383E-06	1589466.375	1.88081903615966E-05
1	181	85.3580237844917	1.38107299804688	1.38092041015625	8.56933593750001E-07	1.18335708521045E-06	1611467.25	1.88953963515814E-05
1	182	85.4587317842374	1.37100219726563	1.370849609375	8.404541015625E-07	1.15213617846166E-06	1631082	1.89808670256753E-05
1	183	85.5594397839832	1.36093139648438	1.361083984375	8.2427978515625E-07	1.12191401058226E-06	1651240.375	1.90646933333483E-05
1	184	85.6601477837289	1.35086059570313	1.3507080078125	8.09326171875E-07	1.09316329144349E-06	1668929.125	1.91469516721554E-05
1	185	85.7608557834747	1.34078979492188	1.3409423828125	7.94372558593751E-07	1.06520781173458E-06	1688052.375	1.92277038877364E-05
1	186	85.8615637832204	1.33071899414063	1.33056640625	7.8094482421875E-07	1.03909894733079E-06	1703790.625	1.93070281966357E-05
1	187	85.9622717829661	1.32064819335938	1.3201904296875	7.6812744140625E-07	1.01407454167202E-06	1718712.75	1.93850301002385E-05
1	188	86.0629797827119	1.31057739257813	1.31103515625	7.55920410156249E-07	9.91038177744485E-07	1734356.125	1.94617714441847E-05
1	189	86.1636877824576	1.30050659179688	1.3006591796875	7.4310302734375E-07	9.66523771239736E-07	1750308.125	1.95372540474636E-05
1	190	86.2643957822033	1.29043579101563	1.290283203125	7.3150634765625E-07	9.43850295698212E-07	1763871.625	1.96115051949164E-05
1	191	86.3651037819491	1.28036499023438	1.280517578125	7.2021484375E-07	9.22247750168026E-07	1777966.125	1.96846049220767E-05
1	192	86.4658117816948	1.27029418945313	1.27044677734375	7.098388671875E-07	9.01812484244147E-07	1789767.875	1.97566150745843E-05
1	193	86.5665197814405	1.26022338867188	1.25946044921875	6.99768066406251E-07	8.81330208812869E-07	1799825.5	1.98275938601E-05
1	194	86.6672277811863	1.25015258789063	1.24969482421875	6.89086914062501E-07	8.61148350850272E-07	1813551.875	1.98975285456982E-05
1	195	86.767935780932	1.24008178710938	1.23992919921875	6.78100585937499E-07	8.40796644752118E-07	1828533	1.99663718376542E-05
1	196	86.8686437806778	1.23001098632813	1.2298583984375	6.6802978515625E-07	8.21582034404855E-07	1841023.375	2.00341546587879E-05
1	197	86.9693517804235	1.21994018554688	1.21978759765625	6.57958984375E-07	8.02570241376088E-07	1853896.125	2.01009243028238E-05
1	198	87.0700597801692	1.20986938476563	1.209716796875	6.47583007812499E-07	7.83392010816897E-07	1868049.125	2.0166662579868E-05
1	199	87.170767779915	1.19979858398438	1.19903564453125	6.378173828125E-07	7.64765786698263E-07	1879904.375	2.02313876798144E-05
1	200	87.2714757796607	1.18972778320313	1.1895751953125	6.2774658203125E-07	7.46751709357341E-07	1894992.875	2.02951141545782E-05
1	201	87.3721837794064	1.17965698242188	1.1798095703125	6.1767578125E-07	7.28739792066335E-07	1910079.125	2.03578256332548E-05
1	202	87.4728917791522	1.16958618164063	1.16973876953125	6.07910156249999E-07	7.11096049599291E-07	1924196.875	2.04195384867489E-05
1	203	87.5735997788979	1.15951538085938	1.15997314453125	5.9814453125E-07	6.93831623266306E-07	1939285.75	2.04802690859651E-05
1	204	87.6743077786437	1.14944458007813	1.1492919921875	5.8929443359375E-07	6.77271373206167E-07	1950284.875	2.05400610866491E-05
1	205	87.7750157783894	1.13937377929688	1.13922119140625	5.79833984375E-07	6.60559123843996E-07	1964736.875	2.05989308597054E-05
1	206	87.8757237781351	1.12930297851563	1.129150390625	5.7098388671875E-07	6.44726696918951E-07	1977552.125	2.06568802241236E-05
1	207	87.9764317778809	1.11923217773438	1.11907958984375	5.6182861328125E-07	6.28730902008101E-07	1991852.375	2.07139219128294E-05
1	208	88.0771397776266	1.10916137695313	1.1090087890625	5.53283691406251E-07	6.13596455423249E-07	2004412.75	2.07700722967274E-05
1	209	88.1778477773723	1.09909057617188	1.09893798828125	5.45349121093749E-07	5.99304826209845E-07	2015109.125	2.08253914024681E-05
1	210	88.2785557771181	1.08901977539063	1.0888671875	5.37109375E-07	5.84840790907037E-07	2027272.75	2.08798992389347E-05
1	211	88.3792637768638	1.07894897460938	1.07879638671875	5.30090332031249E-07	5.71859573028632E-07	2035118	2.09336358238943E-05
1	212	88.4799717766095	1.06887817382813	1.06903076171875	5.230712890625E-07	5.59179284209677E-07	2043757.375	2.09866666409653E-05
1	213	88.5806797763553	1.05880737304688	1.05804443359375	5.16662597656251E-07	5.46651961030875E-07	2047844.125	2.10390226129675E-05
1	214	88.681387776101	1.04873657226563	1.048583984375	5.10253906249999E-07	5.35044023308728E-07	2055024.125	2.10907310247421E-05
1	215	88.7820957758468	1.03866577148438	1.0382080078125	5.035400390625E-07	5.22779316725064E-07	2061818.25	2.11417791433632E-05
1	216	88.8828037755925	1.02859497070313	1.02874755859375	4.9713134765625E-07	5.11422626914282E-07	2069367.75	2.11921669688309E-05
1	217	88.9835117753382	1.01852416992188	1.01837158203125	4.901123046875E-07	4.99116424634849E-07	2077833.125	2.12418799492298E-05
1	218	89.084219775084	1.00845336914063	1.0089111328125	4.83093261718751E-07	4.87398153836693E-07	2088439.75	2.12908835237613E-05
1	219	89.1849277748297	0.998382568359375	0.9979248046875	4.7576904296875E-07	4.74781728598828E-07	2097498.5	2.1339166778489E-05
1	220	89.2856357745754	0.988311767578125	0.98876953125	4.6844482421875E-07	4.63183965848657E-07	2110749.25	2.13867115235189E-05
1	221	89.3863437743212	0.978240966796875	0.97869873046875	4.595947265625E-07	4.49804758773098E-07	2129482.25	2.1433441361296E-05
1	222	89.4870517740669	0.968170166015625	0.96832275390625	4.5135498046875E-07	4.37057281033049E-07	2145368.5	2.14793126360746E-05
1	223	89.5877597738126	0.958099365234375	0.958251953125	4.4281005859375E-07	4.24323587822073E-07	2164025	2.15243362617912E-05
1	224	89.6884677735584	0.948028564453125	0.94818115234375	4.345703125E-07	4.12051377907119E-07	2181882	2.15685158764245E-05
1	225	89.7891757733041	0.937957763671875	0.9381103515625	4.2572021484375E-07	3.99372538595344E-07	2203584.25	2.16118351090699E-05
1	226	89.8898837730499	0.927886962890625	0.92803955078125	4.17175292968749E-07	3.87155154157881E-07	2224579.5	2.16542794078123E-05
1	227	89.9905917727956	0.917816162109375	0.91827392578125	4.0863037109375E-07	3.75234606053709E-07	2247199.5	2.16958615055773E-05
1	228	90.0912997725413	0.907745361328125	0.90728759765625	4.00695800781251E-07	3.63546320159003E-07	2264280.25	2.17366141441744E-05
1	229	90.1920077722871	0.897674560546875	0.8978271484375	3.93066406250001E-07	3.5290568689561E-07	2284161.5	2.17765827983385E-05
1	230	90.2927157720328	0.887603759765625	0.88775634765625	3.8604736328125E-07	3.42715992474041E-07	2299604.75	2.18158147617942E-05
1	231	90.3934237717785	0.877532958984375	0.8770751953125	3.79333496093751E-07	3.3270399057983E-07	2312148	2.18543555092765E-05
1	232	90.4941317715243	0.867462158203125	0.86700439453125	3.7261962890625E-07	3.23062835150267E-07	2326781.5	2.18922177737113E-05
1	233	90.59483977127	0.857391357421875	0.8575439453125	3.662109375E-07	3.14041983529023E-07	2341666.75	2.1929421563982E-05
1	234	90.6955477710158	0.847320556640625	0.84747314453125	3.60717773437499E-07	3.05698620195471E-07	2349407.75	2.19660250877496E-05
1	235	90.7962557707615	0.837249755859375	0.83740234375	3.55224609375E-07	2.97465930998442E-07	2357388.25	2.20020756387385E-05
1	236	90.8969637705072	0.827178955078125	0.82733154296875	3.497314453125E-07	2.89343859094515E-07	2365619.5	2.20375732169487E-05
1	237	90.997671770253	0.817108154296875	0.81756591796875	3.4515380859375E-07	2.82185993683015E-07	2368700.25	2.20725632971153E-05
1	238	91.0983797699987	0.807037353515625	0.80780029296875	3.39355468749999E-07	2.74131451760695E-07	2380395.75	2.21070313273231E-05
1	239	91.1990877697444	0.796966552734375	0.7965087890625	3.3538818359375E-07	2.67139625975688E-07	2374886.5	2.21410064114025E-05
1	240	91.2997957694902	0.786895751953125	0.78704833984375	3.31726074218749E-07	2.61084437624959E-07	2372585.25	2.21745995077072E-05
1	241	91.4005037692359	0.776824951171875	0.7769775390625	3.27453613281251E-07	2.54424094237038E-07	2372786.75	2.22077906073537E-05
1	242	91.5012117689816	0.766754150390625	0.76751708984375	3.24401855468751E-07	2.48983951678383E-07	2365945.5	2.22406142711407E-05
1	243	91.6019197687274	0.756683349609375	0.75714111328125	3.2073974609375E-07	2.42845231923638E-07	2360609	2.22730996028986E-05
1	244	91.7026277684731	0.746612548828125	0.746490478515625	3.1707763671875E-07	2.36695427702216E-07	2354283	2.2305217498797E-05
1	245	91.8033357682189	0.736541748046875	0.736419677734375	3.14941406249999E-07	2.31929035976464E-07	2338275.25	2.23370425374014E-05
1	246	91.9040437679646	0.726470947265625	0.726409912109375	3.11279296875E-07	2.2611635586145E-07	2333627.5	2.23685747187119E-05
1	247	92.0047517677103	0.716400146484375	0.716339111328125	3.0853271484375E-07	2.2101404795194E-07	2321760.5	2.23997849388979E-05
1	248	92.1054597674561	0.706329345703125	0.706298828125	3.06396484375E-07	2.16407485709169E-07	2305179.25	2.24307495955145E-05
1	249	92.2061677672018	0.696258544921875	0.696197509765625	3.03955078125E-07	2.11612757539115E-07	2290462	2.24614832404768E-05
1	250	92.3068757669475	0.686187744140625	0.68609619140625	3.01513671875001E-07	2.06867383667486E-07	2275506	2.24919695028802E-05
1	251	92.4075837666933	0.676116943359375	0.67608642578125	2.99682617187499E-07	2.02611332156266E-07	2256008.25	2.25222429435235E-05
1	252	92.508291766439	0.666046142578125	0.665985107421875	2.978515625E-07	1.98364702441722E-07	2235963.25	2.25523308472475E-05
1	253	92.6089997661848	0.655975341796875	0.655914306640625	2.960205078125E-07	1.94164073263892E-07	2215773.25	2.25822350330418E-05
1	254	92.7097077659305	0.645904541015625	0.6458740234375	2.94189453125E-07	1.90009316725082E-07	2195435.75	2.26119536819169E-05
1	255	92.8104157656762	0.635833740234375	0.63580322265625	2.9296875E-07	1.86270469271221E-07	2170208.5	2.26415195356822E-05
1	256	92.911123765422	0.625762939453125	0.625732421875	2.9144287109375E-07	1.82365241130356E-07	2147015.75	2.26709471462527E-05
1	257	93.0118317651677	0.615692138671875	0.61566162109375	2.899169921875E-07	1.78490765279093E-07	2123579	2.27002219617134E-05
1	258	93.1125397649134	0.605621337890625	0.605621337890625	2.89001464843749E-07	1.75025448356791E-07	2095565	2.27293712669052E-05
1	259	93.2132477646592	0.595550537109375	0.595458984375	2.880859375E-07	1.71543362625926E-07	2066949.125	2.27584314416163E-05
1	260	93.3139557644049	0.585479736328125	0.58544921875	2.8656005859375E-07	1.677663448163E-07	2043024.625	2.27873661060585E-05
1	261	93.4146637641506	0.575408935546875	0.57537841796875	2.8564453125E-07	1.64353693321573E-07	2014316.375	2.28161788982106E-05
1	262	93.5153717638964	0.565338134765625	0.5653076171875	2.84729003906251E-07	1.60959473305411E-07	1985423.375	2.28449007408926E-05
1	263	93.6160797636421	0.555267333984375	0.555206298828125	2.8411865234375E-07	1.57744466378062E-07	1954135.375	2.28735443670303E-05
1	264	93.7167877633879	0.545196533203125	0.545166015625	2.8350830078125E-07	1.54559089082795E-07	1922928	2.29021261475282E-05
1	265	93.8174957631336	0.535125732421875	0.53509521484375	2.83203125000001E-07	1.51540632487013E-07	1889439.625	2.2930662453291E-05
1	266	93.9182037628793	0.525054931640625	0.5250244140625	2.825927734375E-07	1.48368101804408E-07	1857883.375	2.29591514653293E-05
1	267	94.0189117626251	0.514984130859375	0.5150146484375	2.81677246093751E-07	1.45067900803042E-07	1828385.75	2.29875658988021E-05
1	268	94.1196197623708	0.504913330078125	0.504852294921875	2.8106689453125E-07	1.41897260164114E-07	1796199.875	2.30159021157306E-05
1	269	94.2203277621165	0.494842529296875	0.4947509765625	2.8076171875E-07	1.38907140012634E-07	1762173.875	2.30441928579239E-05
1	270	94.3210357618623	0.484771728515625	0.484771728515625	2.8045654296875E-07	1.359573928994E-07	1728509.375	2.30724526772974E-05
1	271	94.421743761608	0.474700927734375	0.47467041015625	2.80151367187501E-07	1.32979565137248E-07	1694335.5	2.31006797548616E-05
1	272	94.5224517613538	0.464630126953125	0.464569091796875	2.7923583984375E-07	1.29724327280201E-07	1663716	2.31288486247649E-05
1	273	94.6231597610995	0.454559326171875	0.45458984375	2.78625488281251E-07	1.26660324895056E-07	1631544.375	2.31569392781239E-05
1	274	94.7238677608452	0.444488525390625	0.4444580078125	2.7740478515625E-07	1.23294782383709E-07	1602200.25	2.31849371630233E-05
1	275	94.824575760591	0.434417724609375	0.434417724609375	2.77099609375001E-07	1.20376981271875E-07	1567731.25	2.32128586503677E-05
1	276	94.9252837603367	0.424346923828125	0.42431640625	2.75573730468751E-07	1.16930443994079E-07	1539756.5	2.32406873692526E-05
1	277	95.0259917600824	0.414276123046875	0.414306640625	2.7496337890625E-07	1.139191567745E-07	1506770.25	2.32684087677626E-05
1	278	95.1266997598282	0.404205322265625	0.4041748046875	2.74658203125E-07	1.11009917702631E-07	1471555.625	2.32960846915375E-05
1	279	95.2274077595739	0.394134521484375	0.3941650390625	2.73742675781249E-07	1.07899793988508E-07	1439910.875	2.33236987696728E-05
1	280	95.3281157593196	0.384063720703125	0.38409423828125	2.7313232421875E-07	1.04908551179506E-07	1406257	2.33512364502531E-05
1	281	95.4288237590654	0.373992919921875	0.373992919921875	2.7191162109375E-07	1.01693011345105E-07	1375421	2.33786813623738E-05
1	282	95.5295317588111	0.363922119140625	0.363983154296875	2.70690917968749E-07	9.85269323905413E-08	1344644.875	2.34060044022044E-05
1	283	95.6302397585569	0.353851318359375	0.353851318359375	2.69775390625E-07	9.54603720515479E-08	1311651.625	2.34332183026709E-05
1	284	95.7309477583026	0.343780517578125	0.343719482421875	2.67944335937501E-07	9.20976859219991E-08	1282801.875	2.3460295778932E-05
1	285	95.8316557580483	0.333709716796875	0.333770751953125	2.66113281249999E-07	8.88208262495027E-08	1254243.25	2.34871877182741E-05
1	286	95.9323637577941	0.323638916015625	0.323638916015625	2.64587402343749E-07	8.56307735830342E-08	1223183.5	2.35139104916016E-05
1	287	96.0330717575398	0.313568115234375	0.3135986328125	2.62451171875E-07	8.23043251330091E-08	1194883.75	2.35404477280099E-05
1	288	96.1337797572855	0.303497314453125	0.303436279296875	2.60314941406251E-07	7.89889966767987E-08	1165650.625	2.3566772142658E-05
1	289	96.2344877570313	0.293426513671875	0.293365478515625	2.58483886718749E-07	7.58302505232678E-08	1134946.875	2.35928946494823E-05
1	290	96.335195756777	0.283355712890625	0.283355712890625	2.55737304687501E-07	7.24646227467929E-08	1107995.25	2.36187879636418E-05
1	291	96.4359037565227	0.273284912109375	0.27325439453125	2.52685546875001E-07	6.90474308839839E-08	1081401	2.36443902394967E-05
1	292	96.5366117562685	0.263214111328125	0.26318359375	2.490234375E-07	6.55388845416383E-08	1056862.75	2.36696523643332E-05
1	293	96.6373197560142	0.253143310546875	0.25311279296875	2.4566650390625E-07	6.21813285306416E-08	1030310.625	2.36945616052253E-05
1	294	96.73802775576	0.243072509765625	0.243072509765625	2.4139404296875E-07	5.86762567422738E-08	1006953.1875	2.37190870393533E-05
1	295	96.8387357555057	0.233001708984375	0.23297119140625	2.3651123046875E-07	5.51003012105866E-08	985032.25	2.37431522691622E-05
1	296	96.9394437552514	0.222930908203125	0.22296142578125	2.30712890625E-07	5.14400753104383E-08	966402.125	2.37666790781077E-05
1	297	97.0401517549972	0.212860107421875	0.212890625	2.23388671874999E-07	4.75573536107277E-08	953005.5	2.37895437749103E-05
1	298	97.1408597547429	0.202789306640625	0.202789306640625	2.154541015625E-07	4.3691787965372E-08	941218.1875	2.38116426771739E-05
1	299	97.2415677544886	0.192718505859375	0.192779541015625	2.0416259765625E-07	3.93583690083688E-08	944245.1875	2.38327720580855E-05
1	300	97.3422757542344	0.182647705078125	0.182708740234375	1.904296875E-07	3.47931674582469E-08	959455.125	2.38526408793405E-05
1	301	97.4429837539801	0.172576904296875	0.17254638671875	1.7120361328125E-07	2.95405637729118E-08	1007843.1875	2.38708507822594E-05
1	302	97.5436917537259	0.162506103515625	0.1624755859375	1.4617919921875E-07	2.37505499711688E-08	1111482.375	2.38868324231589E-05
1	303	97.6443997534716	0.152435302734375	0.15240478515625	1.1138916015625E-07	1.69762408575025E-08	1368219.25	2.38998018176062E-05
1	304	97.7451077532173	0.142364501953125	0.142364501953125	6.46972656249994E-08	9.21059317704476E-09	2200471.75	2.39086675719591E-05
1	305	97.8458157529631	0.132293701171875	0.132293701171875	0	0	∞	2.39119253819808E-05
1	306	97.9465237527088	0.122222900390625	0.122283935546875	-8.81958007812503E-08	-1.07849293939921E-08	-1386505.25	2.39074852288468E-05
1	307	98.0472317524545	0.112152099609375	0.1121826171875	-2.056884765625E-07	-2.30746710627727E-08	-545400.625	2.38926859310595E-05
1	308	98.1479397522003	0.102081298828125	0.102081298828125	-3.5675048828125E-07	-3.64175534173228E-08	-286142	2.38643660850357E-05
1	309	98.248647751946	0.092010498046875	0.09210205078125	-5.45349121093749E-07	-5.02277721636801E-08	-168886.40625	2.3818940462661E-05
1	310	98.3493557516917	0.081939697265625	0.082000732421875	-7.672119140625E-07	-6.29119369932596E-08	-106881.46875	2.37528493016725E-05
1	311	98.4500637514375	0.071868896484375	0.07196044921875	-1.0101318359375E-06	-7.26895379443704E-08	-71238.671875	2.36633513850393E-05
1	312	98.5507717511832	0.061798095703125	0.061798095703125	-1.25274658203125E-06	-7.74173471995709E-08	-49330.0859375	2.35494062508224E-05
1	313	98.651479750929	0.051727294921875	0.051727294921875	-1.47186279296875E-06	-7.61354783662682E-08	-35144.1015625	2.34122126130387E-05
1	314	98.7521877506747	0.041656494140625	0.0417816162109375	-1.64337158203125E-06	-6.8662714625134E-08	-25424.326171875	2.32553484238451E-05
1	315	98.8528957504204	0.031585693359375	0.0316925048828125	-1.7547607421875E-06	-5.56127623951852E-08	-18060.87109375	2.3084237909643E-05
1	316	98.9536037501662	0.021514892578125	0.02161865234375	-1.80328369140625E-06	-3.89845631332264E-08	-11988.4921875	2.29050765483407E-05
1	317	99.0543117499119	0.011444091796875	0.0115234375	-1.79901123046875E-06	-2.07307930821798E-08	-6405.4287109375	2.27236869250191E-05
1	318	99.1550197496576	0.001373291015625	0.00147094726562499	-1.7572021484375E-06	-2.58475174597095E-09	-837.096252441406	2.25446165131871E-05
1	319	99.2557277494034	-0.008697509765625	-0.00861511230468751	-1.69219970703125E-06	1.45784895266843E-08	5091.07275390625	2.23709248530213E-05
1	320	99.3564357491491	-0.018768310546875	-0.0186553955078125	-1.617431640625E-06	3.01738261043738E-08	11533.9619140625	2.22042726818472E-05
1	321	99.4571437488949	-0.028839111328125	-0.0287261962890625	-1.5399169921875E-06	4.42359571195539E-08	18654.37890625	2.20452875510091E-05
1	322	99.5578517486406	-0.038909912109375	-0.038763427734375	-1.466064453125E-06	5.68296805170121E-08	26440.466796875	2.18939239857718E-05
1	323	99.6585597483863	-0.048980712890625	-0.0488433837890625	-1.3970947265625E-06	6.82388332506889E-08	34960.68359375	2.17497527046362E-05
1	324	99.7592677481321	-0.059051513671875	-0.058990478515625	-1.3348388671875E-06	7.87427865134305E-08	44192.95703125	2.16121879930142E-05
1	325	99.8599757478778	-0.069122314453125	-0.069061279296875	-1.2799072265625E-06	8.83920279193262E-08	53958.03515625	2.14805259020068E-05
1	326	99.9606837476235	-0.079193115234375	-0.079132080078125	-1.22955322265625E-06	9.72970966017783E-08	64358.40625	2.13541643461213E-05
1	327	100.061391747369	-0.089263916015625	-0.089202880859375	-1.18560791015625E-06	1.05759639268399E-07	75238.1015625	2.12325521715684E-05
1	328	100.162099747115	-0.099334716796875	-0.0992431640625	-1.1474609375E-06	1.13877653973304E-07	86489.359375	2.11150727409404E-05
1	329	100.262807746861	-0.109405517578125	-0.109344482421875	-1.11297607421875E-06	1.21697794952524E-07	98245.1328125	2.10012494790135E-05
1	330	100.363515746606	-0.119476318359375	-0.119354248046875	-1.0833740234375E-06	1.29305277596359E-07	110169.0234375	2.08906549232779E-05
1	331	100.464223746352	-0.129547119140625	-0.129486083984375	-1.0565185546875E-06	1.36804445105554E-07	122559.21875	2.07829034479801E-05
1	332	100.564931746098	-0.139617919921875	-0.139556884765625	-1.0333251953125E-06	1.44207632502003E-07	135056.125	2.06776712730061E-05
1	333	100.665639745844	-0.149688720703125	-0.14959716796875	-1.011962890625E-06	1.51386771563011E-07	147828.71875	2.05746819119668E-05
1	334	100.766347745589	-0.159759521484375	-0.15960693359375	-9.930419921875E-07	1.58496391122753E-07	160725.25	2.04737225431018E-05
1	335	100.867055745335	-0.169830322265625	-0.16973876953125	-9.7686767578125E-07	1.65812323871251E-07	173758.203125	2.03745294129476E-05
1	336	100.967763745081	-0.179901123046875	-0.1798095703125	-9.6221923828125E-07	1.73016232452028E-07	186869.640625	2.02768896997441E-05
1	337	101.068471744827	-0.189971923828125	-0.189849853515625	-9.50012207031251E-07	1.80359677415254E-07	199839.390625	2.0180599676678E-05
1	338	101.169179744572	-0.200042724609375	-0.199920654296875	-9.3841552734375E-07	1.87608634405478E-07	213040.65625	2.00855101866182E-05
1	339	101.269887744318	-0.189971923828125	-0.189849853515625	-8.21533203124999E-07	1.5596795321926E-07	231092.125	1.99968908418668E-05
2	340	101.370595744064	-0.179901123046875	-0.17974853515625	-7.427978515625E-07	1.33516820710611E-07	241988.5	1.99181195057463E-05
2	341	101.47130374381	-0.169830322265625	-0.169708251953125	-6.81457519531251E-07	1.15648958853853E-07	249037.171875	1.98464022105327E-05
2	342	101.572011743555	-0.159759521484375	-0.159637451171875	-6.28662109375E-07	1.0035801523145E-07	253932.03125	1.97804329218343E-05
2	343	101.672719743301	-0.149688720703125	-0.149627685546875	-5.8349609375E-07	8.73071712703677E-08	256433.046875	1.97193967323983E-05
2	344	101.773427743047	-0.139617919921875	-0.13958740234375	-5.43212890625E-07	7.58256746280495E-08	256966.296875	1.96626624529017E-05
2	345	101.874135742793	-0.129547119140625	-0.129486083984375	-5.06591796875E-07	6.55965877172093E-08	255602.40625	1.96098008018453E-05
2	346	101.974843742538	-0.119476318359375	-0.119354248046875	-4.7332763671875E-07	5.64936613045575E-08	252159.90625	1.95604570762953E-05
2	347	102.075551742284	-0.109405517578125	-0.109283447265625	-4.412841796875E-07	4.82250541722351E-08	247648.703125	1.95144020835869E-05
2	348	102.17625974203	-0.099334716796875	-0.099273681640625	-4.1168212890625E-07	4.08691995801291E-08	241141.59375	1.94714521057904E-05
2	349	102.276967741775	-0.089263916015625	-0.08917236328125	-3.82385253906251E-07	3.4098196266541E-08	233200.3125	1.94314670807216E-05
2	350	102.377675741521	-0.079193115234375	-0.0791015625	-3.54614257812499E-07	2.80505414451682E-08	223063.6875	1.93943578778999E-05
2	351	102.478383741267	-0.069122314453125	-0.069122314453125	-3.24096679687499E-07	2.24023128936324E-08	213276.84375	1.93601808859967E-05
2	352	102.579091741013	-0.059051513671875	-0.058990478515625	-2.9296875E-07	1.72823657607069E-08	201354.171875	1.93291089090053E-05
2	353	102.679799740758	-0.048980712890625	-0.0488372802734375	-2.5787353515625E-07	1.25938415251881E-08	189384.625	1.930137295858E-05
2	354	102.780507740504	-0.038909912109375	-0.0388031005859375	-2.17590332031251E-07	8.44317948889284E-09	178331	1.92774314200506E-05
2	355	102.88121574025	-0.028839111328125	-0.0287139892578125	-1.678466796875E-07	4.81954787190375E-09	171072.734375	1.92580228031147E-05
2	356	102.981923739996	-0.018768310546875	-0.01864013671875	-1.04675292968751E-07	1.95116167667209E-09	178075.8125	1.92443003470544E-05
2	357	103.082631739741	-0.008697509765625	-0.00859375	-2.50244140624994E-08	2.15053558294542E-10	343414.65625	1.92377683561062E-05
2	358	103.183339739487	0.001373291015625	0.00146484375	7.99560546874995E-08	1.17123116760709E-10	18320.611328125	1.9240535038989E-05
2	359	103.284047739233	0.011444091796875	0.0115386962890625	2.154541015625E-07	2.48605935837531E-09	53555.2421875	1.92554107343312E-05
2	360	103.384755738979	0.021514892578125	0.0216278076171875	3.863525390625E-07	8.35595859172145E-09	55979.46484375	1.92857132788049E-05
2	361	103.485463738724	0.031585693359375	0.031689453125	5.938720703125E-07	1.88194810846198E-08	53360.7421875	1.93350715562701E-05
2	362	103.58617173847	0.041656494140625	0.0417694091796875	8.319091796875E-07	3.47483535279025E-08	50209.09765625	1.94068652490387E-05
2	363	103.686879738216	0.051727294921875	0.051788330078125	1.08489990234375E-06	5.61851507541178E-08	47735.5859375	1.95033844647696E-05
2	364	103.787587737962	0.061798095703125	0.06182861328125	1.3311767578125E-06	8.23048083020694E-08	46446.5859375	1.9625043933047E-05
2	365	103.888295737707	0.071868896484375	0.07196044921875	1.5460205078125E-06	1.11252326462363E-07	46545.59765625	1.97699228010606E-05
2	366	103.989003737453	0.081939697265625	0.08203125	1.708984375E-06	1.40190124398032E-07	48000	1.99338246602565E-05
2	367	104.089711737199	0.092010498046875	0.092071533203125	1.80938720703125E-06	1.66593054018449E-07	50885.48046875	2.01109887711937E-05
2	368	104.190419736944	0.102081298828125	0.10211181640625	1.8499755859375E-06	1.88904365927556E-07	55196.3046875	2.02952523977729E-05
2	369	104.29112773669	0.112152099609375	0.1121826171875	1.84112548828125E-06	2.06542281944166E-07	60931.54296875	2.04811149160378E-05
2	370	104.391835736436	0.122222900390625	0.122222900390625	1.79931640625E-06	2.19917666299807E-07	67927.4140625	2.06644253921695E-05
2	371	104.492543736182	0.132293701171875	0.132354736328125	1.73858642578125E-06	2.30110146048901E-07	76127.7890625	2.08425717573846E-05
2	372	104.593251735927	0.142364501953125	0.142425537109375	1.668701171875E-06	2.37665645386187E-07	85351.140625	2.10141424759058E-05
2	373	104.693959735673	0.152435302734375	0.152496337890625	1.5985107421875E-06	2.43767033225595E-07	95399.0078125	2.11786609725095E-05
2	374	104.794667735419	0.162506103515625	0.162506103515625	1.53167724609375E-06	2.48906900424117E-07	106096.8359375	2.13362782233162E-05
2	375	104.895375735165	0.172576904296875	0.172576904296875	1.46942138671875E-06	2.5358818334098E-07	117445.484375	2.14873944059946E-05
2	376	104.99608373491	0.182647705078125	0.182647705078125	1.4129638671875E-06	2.58074607017988E-07	129265.6640625	2.16325352084823E-05
2	377	105.096791734656	0.192718505859375	0.1927490234375	1.36260986328125E-06	2.6264171992807E-07	141455.765625	2.17722954403143E-05
2	378	105.197499734402	0.202789306640625	0.20281982421875	1.31744384765625E-06	2.67203716930453E-07	153949.515625	2.19072480831528E-05
2	379	105.298207734148	0.212860107421875	0.21282958984375	1.278076171875E-06	2.72012442792402E-07	166523.40625	2.20379424717976E-05
2	380	105.398915733893	0.222930908203125	0.222991943359375	1.24237060546875E-06	2.77038623153203E-07	179489.078125	2.21648570004618E-05
2	381	105.499623733639	0.233001708984375	0.23297119140625	1.2109375E-06	2.82113546745677E-07	192389.109375	2.22883900278248E-05
2	382	105.600331733385	0.243072509765625	0.2430419921875	1.1834716796875E-06	2.87633326934156E-07	205363.59375	2.240895810246E-05
2	383	105.701039733131	0.253143310546875	0.253143310546875	1.158447265625E-06	2.93253179961539E-07	218519.5	2.25268831854919E-05
2	384	105.801747732876	0.263214111328125	0.263153076171875	1.13555908203125E-06	2.98825852951268E-07	231738.78125	2.26423962885747E-05
2	385	105.902455732622	0.273284912109375	0.273284912109375	1.1151123046875E-06	3.04743338119806E-07	245073.90625	2.27557266043732E-05
2	386	106.003163732368	0.283355712890625	0.283355712890625	1.09710693359375E-06	3.10871484998643E-07	258275.40625	2.28671196964569E-05
2	387	106.103871732113	0.293426513671875	0.2933349609375	1.08062744140625E-06	3.16985790504987E-07	271448.75	2.29767774726497E-05
2	388	106.204579731859	0.303497314453125	0.303466796875	1.06475830078125E-06	3.23118797496136E-07	285010.03125	2.30848072533263E-05
2	389	106.305287731605	0.313568115234375	0.3135986328125	1.05133056640625E-06	3.29695808432007E-07	298287.375	2.31913600146072E-05
2	390	106.405995731351	0.323638916015625	0.323638916015625	1.0382080078125E-06	3.36004518430855E-07	311728.40625	2.32965776376659E-05
2	391	106.506703731096	0.333709716796875	0.333709716796875	1.026611328125E-06	3.42590197988102E-07	325059.4375	2.34005492529832E-05
2	392	106.607411730842	0.343780517578125	0.34375	1.01531982421875E-06	3.4901617596006E-07	338563.28125	2.35033676290186E-05
2	393	106.708119730588	0.353851318359375	0.35382080078125	1.005859375E-06	3.55893945425123E-07	351759.71875	2.36051419051364E-05
2	394	106.808827730334	0.363922119140625	0.363922119140625	9.9639892578125E-07	3.62611586979256E-07	365237.40625	2.37059648497961E-05
2	395	106.909535730079	0.373992919921875	0.373931884765625	9.88159179687501E-07	3.69504220998351E-07	378412.59375	2.38058946706587E-05
2	396	107.010243729825	0.384063720703125	0.384033203125	9.80529785156251E-07	3.76555988168548E-07	391658.90625	2.39050259551732E-05
2	397	107.110951729571	0.394134521484375	0.394134521484375	9.7381591796875E-07	3.83814466431431E-07	404732.0625	2.40034351008944E-05
2	398	107.211659729317	0.404205322265625	0.404205322265625	9.6771240234375E-07	3.91154486578671E-07	417691.59375	2.41011985053774E-05
2	399	107.312367729062	0.414276123046875	0.414337158203125	9.6221923828125E-07	3.98683198454819E-07	430605.78125	2.41983780142618E-05
2	400	107.413075728808	0.424346923828125	0.42425537109375	9.57336425781249E-07	4.06155095333816E-07	443162.28125	2.42950354731875E-05
2	401	107.513783728554	0.434417724609375	0.434417724609375	9.527587890625E-07	4.13895293149835E-07	455957.75	2.43912163568893E-05
2	402	107.6144917283	0.444488525390625	0.44451904296875	9.48486328125001E-07	4.21620228507891E-07	468661.53125	2.44869515881874E-05
2	403	107.715199728045	0.454559326171875	0.454498291015625	9.4482421875E-07	4.29420992986707E-07	481040.0625	2.4582288460806E-05
2	404	107.815907727791	0.464630126953125	0.464630126953125	9.417724609375E-07	4.37575835121606E-07	493357.09375	2.46772851824062E-05
2	405	107.916615727537	0.474700927734375	0.474639892578125	9.38720703125E-07	4.45554292127781E-07	505624.1875	2.47719763137866E-05
2	406	108.017323727282	0.484771728515625	0.484710693359375	9.36279296875001E-07	4.53824583246387E-07	517698.84375	2.48663891397882E-05
2	407	108.118031727028	0.494842529296875	0.49481201171875	9.3414306640625E-07	4.62225187902732E-07	529696.1875	2.4960572773125E-05
2	408	108.218739726774	0.504913330078125	0.5048828125	9.3231201171875E-07	4.70708300781553E-07	541538.5	2.50545563176274E-05
2	409	108.31944772652	0.514984130859375	0.514923095703125	9.3048095703125E-07	4.79126128993812E-07	553394.5625	2.51483561442001E-05
2	410	108.420155726265	0.525054931640625	0.52508544921875	9.28344726562499E-07	4.87460283693508E-07	565614.75	2.52419540629489E-05
2	411	108.520863726011	0.535125732421875	0.5350341796875	9.2803955078125E-07	4.96532891247625E-07	576520.875	2.53354319283972E-05
2	412	108.621571725757	0.545196533203125	0.54510498046875	9.2681884765625E-07	5.05213563428697E-07	588146.1875	2.5428831577301E-05
2	413	108.722279725503	0.555267333984375	0.55517578125	9.259033203125E-07	5.14039072641026E-07	599604.5	2.55221220868407E-05
2	414	108.822987725248	0.565338134765625	0.565277099609375	9.259033203125E-07	5.23391918250127E-07	610514.1875	2.56153689406347E-05
2	415	108.923695724994	0.575408935546875	0.57537841796875	9.25598144531251E-07	5.32569174538366E-07	621628.75	2.5708599423524E-05
2	416	109.02440372474	0.585479736328125	0.585418701171875	9.259033203125E-07	5.42041107109981E-07	632267.625	2.58018299064133E-05
2	417	109.125111724486	0.595550537109375	0.59552001953125	9.26513671875E-07	5.51757409539277E-07	642753.6875	2.58951058640378E-05
2	418	109.225819724231	0.605621337890625	0.605560302734375	9.27124023437501E-07	5.614294877887E-07	653160	2.59884436673019E-05
2	419	109.326527723977	0.615692138671875	0.615631103515625	9.2803955078125E-07	5.71330019738525E-07	663367.3125	2.60818596871104E-05
2	420	109.427235723723	0.625762939453125	0.62567138671875	9.2926025390625E-07	5.81411541134003E-07	673300.5	2.61753812083043E-05
2	421	109.527943723469	0.635833740234375	0.635772705078125	9.30175781250001E-07	5.91380342029879E-07	683497.375	2.62690118688624E-05
2	422	109.628651723214	0.645904541015625	0.64581298828125	9.320068359375E-07	6.01902115704434E-07	692927.3125	2.63627807726152E-05
2	423	109.72935972296	0.655975341796875	0.6558837890625	9.3353271484375E-07	6.12288943102612E-07	702582.5625	2.64567170233931E-05
2	424	109.830067722706	0.666046142578125	0.665985107421875	9.3536376953125E-07	6.22938330252509E-07	712006.5625	2.6550824259175E-05
2	425	109.930775722451	0.676116943359375	0.675994873046875	9.37499999999999E-07	6.33745173672651E-07	721061.1875	2.66451297648018E-05
2	426	110.031483722197	0.686187744140625	0.68609619140625	9.3963623046875E-07	6.44680824279931E-07	730172.125	2.67396517301677E-05
2	427	110.132191721943	0.696258544921875	0.6961669921875	9.417724609375E-07	6.55630913115601E-07	739209.375	2.68343883362832E-05
2	428	110.232899721689	0.706329345703125	0.706268310546875	9.4482421875E-07	6.67299389078835E-07	747512.9375	2.69293850578833E-05
2	429	110.333607721434	0.716400146484375	0.716339111328125	9.4757080078125E-07	6.78781987062393E-07	755974.25	2.70246746367775E-05
2	430	110.43431572118	0.726470947265625	0.726318359375	9.5062255859375E-07	6.90454555751785E-07	764045	2.71202570729656E-05
2	431	110.535023720926	0.736541748046875	0.73638916015625	9.5367431640625E-07	7.02275428920984E-07	772160	2.72161450993735E-05
2	432	110.635731720672	0.746612548828125	0.746551513671875	9.5703125E-07	7.14473117113812E-07	780070.125	2.73123569058953E-05
2	433	110.736439720417	0.756683349609375	0.75653076171875	9.6038818359375E-07	7.26563200714736E-07	787734.3125	2.74089070444461E-05
2	434	110.837147720163	0.766754150390625	0.76690673828125	9.63439941406249E-07	7.38868550342886E-07	796008.875	2.75057791441213E-05
2	435	110.937855719909	0.776824951171875	0.7769775390625	9.66491699218749E-07	7.50942376726016E-07	803915.375	2.76029586530058E-05
2	436	111.038563719655	0.786895751953125	0.7867431640625	9.7076416015625E-07	7.63742093567998E-07	810436.9375	2.77005074167391E-05
2	437	111.1392717194	0.796966552734375	0.797119140625	9.7381591796875E-07	7.76247247813444E-07	818552.1875	2.77984254353214E-05
2	438	111.239979719146	0.807037353515625	0.8074951171875	9.77783203125E-07	7.89555144820042E-07	825842.6875	2.7896696337848E-05
2	439	111.340687718892	0.817108154296875	0.8172607421875	9.80529785156251E-07	8.01348505774513E-07	833489	2.79953055724036E-05
2	440	111.441395718638	0.827178955078125	0.82763671875	9.844970703125E-07	8.14805957816134E-07	840669.5625	2.80942513199989E-05
2	441	111.542103718383	0.837249755859375	0.83709716796875	9.88159179687501E-07	8.27185260732222E-07	847127.875	2.81935826933477E-05
2	442	111.642811718129	0.847320556640625	0.84747314453125	9.91210937500001E-07	8.4002459743715E-07	854987.75	2.82932523987256E-05
2	443	111.743519717875	0.857391357421875	0.85723876953125	9.9517822265625E-07	8.5310534814198E-07	861392.25	2.83932749880478E-05
2	444	111.84422771762	0.867462158203125	0.867919921875	9.9822998046875E-07	8.66383686570771E-07	869458.875	2.84936504613142E-05
2	445	111.944935717366	0.877532958984375	0.8770751953125	1.00128173828125E-06	8.78199330145435E-07	875952.5	2.85943351627793E-05
2	446	112.045643717112	0.887603759765625	0.887451171875	1.00433349609375E-06	8.91296963345667E-07	883622	2.86953254544642E-05
2	447	112.146351716858	0.897674560546875	0.8984375	1.00799560546875E-06	9.0562105015124E-07	891310.9375	2.87966540781781E-05
2	448	112.247059716603	0.907745361328125	0.9075927734375	1.01043701171875E-06	9.17065335670486E-07	898218.0625	2.88982901111012E-05
2	449	112.347767716349	0.917816162109375	0.91796875	1.01287841796875E-06	9.29790758164017E-07	906297.0625	2.90001717075938E-05
2	450	112.448475716095	0.927886962890625	0.92742919921875	1.01531982421875E-06	9.41637210871704E-07	913435.5625	2.91023006866453E-05
2	451	112.549183715841	0.937957763671875	0.93780517578125	1.01715087890625E-06	9.53889411903219E-07	921992.1875	2.9204642487457E-05
2	452	112.649891715586	0.948028564453125	0.94879150390625	1.019287109375E-06	9.67090954873129E-07	930838.375	2.93071861960925E-05
2	453	112.750599715332	0.958099365234375	0.95794677734375	1.02142333984375E-06	9.78469074652821E-07	937854.875	2.94099445454776E-05
2	454	112.851307715078	0.968170166015625	0.968017578125	1.02264404296875E-06	9.89937348094827E-07	946583.125	2.95128702418879E-05
2	455	112.952015714824	0.978240966796875	0.9783935546875	1.0247802734375E-06	1.00263832791825E-06	954735	2.9615966923302E-05
2	456	113.052723714569	0.988311767578125	0.98785400390625	1.02569580078125E-06	1.01323757917271E-06	963106.3125	2.97192163998261E-05
2	457	113.153431714315	0.998382568359375	0.99853515625	1.02783203125E-06	1.0263263447996E-06	971496.4375	2.98226204904495E-05
2	458	113.254139714061	1.00845336914063	1.00799560546875	1.0296630859375E-06	1.03789579952718E-06	978956.75	2.99262228509178E-05
2	459	113.354847713807	1.01852416992188	1.01837158203125	1.031494140625E-06	1.05044432530121E-06	987278.125	3.00300107483054E-05
2	460	113.455555713552	1.02859497070313	1.02813720703125	1.0333251953125E-06	1.06239997421653E-06	994979.375	3.01339823636226E-05
2	461	113.556263713298	1.03866577148438	1.038818359375	1.0357666015625E-06	1.07597327314579E-06	1002946.4375	3.02381686196895E-05
2	462	113.656971713044	1.04873657226563	1.04827880859375	1.03851318359375E-06	1.08865128822799E-06	1009403.5	3.03426168102305E-05
2	463	113.757679712789	1.05880737304688	1.058349609375	1.04217529296875E-06	1.10298583422264E-06	1015519.75	3.04473887808854E-05
2	464	113.858387712535	1.06887817382813	1.06903076171875	1.04461669921875E-06	1.11672727598489E-06	1023371.375	3.055246634176E-05
2	465	113.959095712281	1.07894897460938	1.0791015625	1.04888916015625E-06	1.13185785721726E-06	1028804.25	3.06578840536531E-05
2	466	114.059803712027	1.08901977539063	1.08856201171875	1.0528564453125E-06	1.14609952106548E-06	1033913.0625	3.07637128571514E-05
2	467	114.160511711772	1.09909057617188	1.09893798828125	1.05682373046875E-06	1.16138380690245E-06	1039849.8125	3.08699454762973E-05
2	468	114.261219711518	1.10916137695313	1.10931396484375	1.060791015625E-06	1.17675017463625E-06	1045742.3125	3.09765746351331E-05
2	469	114.361927711264	1.11923217773438	1.11968994140625	1.06597900390625E-06	1.19356593586417E-06	1050386.5	3.10836658172775E-05
2	470	114.46263571101	1.12930297851563	1.129150390625	1.070556640625E-06	1.20881952625496E-06	1054732	3.11912517645396E-05
2	471	114.563343710755	1.13937377929688	1.138916015625	1.07574462890625E-06	1.22518281386874E-06	1058723.375	3.12993252009619E-05
2	472	114.664051710501	1.14944458007813	1.14959716796875	1.080322265625E-06	1.24193536521489E-06	1064124.25	3.14078934025019E-05
2	473	114.764759710247	1.15951538085938	1.15936279296875	1.08489990234375E-06	1.25779251902713E-06	1068635.75	3.15169199893717E-05
2	474	114.865467709993	1.16958618164063	1.16973876953125	1.0894775390625E-06	1.2744040986945E-06	1073669.5	3.16264085995499E-05
2	475	114.966175709738	1.17965698242188	1.1798095703125	1.09375E-06	1.29041677610076E-06	1078683	3.17363410431426E-05
2	476	115.066883709484	1.18972778320313	1.1895751953125	1.09832763671875E-06	1.30654325403157E-06	1083078.625	3.18467209581286E-05
2	477	115.16759170923	1.19979858398438	1.19903564453125	1.102294921875E-06	1.32169077460276E-06	1087763.125	3.19575337925926E-05
2	478	115.268299708976	1.20986938476563	1.209716796875	1.10626220703125E-06	1.33826392811898E-06	1093517.25	3.20687431667466E-05
2	479	115.369007708721	1.21994018554688	1.21978759765625	1.1102294921875E-06	1.35424420477648E-06	1098680.625	3.21803527185693E-05
2	480	115.469715708467	1.23001098632813	1.2298583984375	1.11358642578125E-06	1.36955361540458E-06	1104412.125	3.22923297062516E-05
2	481	115.570423708213	1.24008178710938	1.2396240234375	1.11724853515625E-06	1.38496807267074E-06	1109532.875	3.24046595778782E-05
2	482	115.671131707958	1.25015258789063	1.24969482421875	1.1212158203125E-06	1.40117754199309E-06	1114589.125	3.25173750752583E-05
2	483	115.771839707704	1.26022338867188	1.26007080078125	1.12396240234375E-06	1.41627219818474E-06	1121096.875	3.26304289046675E-05
2	484	115.87254770745	1.27029418945313	1.26983642578125	1.12701416015625E-06	1.43112356454367E-06	1126726.25	3.27437774103601E-05
2	485	115.973255707196	1.28036499023438	1.28021240234375	1.13037109375E-06	1.4471150961981E-06	1132559.375	3.28574424202088E-05
2	486	116.073963706941	1.29043579101563	1.290283203125	1.1334228515625E-06	1.46243644394417E-06	1138395.25	3.29714348481502E-05
2	487	116.174671706687	1.30050659179688	1.30096435546875	1.13616943359375E-06	1.47811590522906E-06	1145044.375	3.30857183143962E-05
2	488	116.275379706433	1.31057739257813	1.3104248046875	1.13983154296875E-06	1.49366348978219E-06	1149665.375	3.3200325560756E-05
2	489	116.376087706179	1.32064819335938	1.32080078125	1.14288330078125E-06	1.50952121202863E-06	1155674.25	3.33152675011661E-05
2	490	116.476795705924	1.33071899414063	1.33087158203125	1.14593505859375E-06	1.52509232975717E-06	1161384.875	3.34305186697748E-05
2	491	116.57750370567	1.34078979492188	1.3409423828125	1.1492919921875E-06	1.54113433836756E-06	1166755.25	3.35460936184973E-05
2	492	116.678211705416	1.35086059570313	1.35040283203125	1.1529541015625E-06	1.55695238390763E-06	1171254.75	3.3662021451164E-05
2	493	116.778919705162	1.36093139648438	1.36077880859375	1.156005859375E-06	1.57306828896253E-06	1177138.375	3.37782839778811E-05
2	494	116.879627704907	1.37100219726563	1.37054443359375	1.15966796875E-06	1.58937643846002E-06	1181842.125	3.3894888474606E-05
2	495	116.980335704653	1.38107299804688	1.3812255859375	1.1639404296875E-06	1.60766421686276E-06	1186680.625	3.40118931489997E-05
2	496	117.081043704399	1.39114379882813	1.39129638671875	1.16851806640625E-06	1.62575486228889E-06	1190650.375	3.41293416568078E-05
2	497	117.181751704145	1.40121459960938	1.4007568359375	1.17279052734375E-06	1.6427942455266E-06	1194379.5	3.42472339980304E-05
2	498	117.28245970389	1.41128540039063	1.4111328125	1.177978515625E-06	1.66228403486457E-06	1197927.5	3.43656065524556E-05
2	499	117.383167703636	1.42135620117188	1.42120361328125	1.18377685546875E-06	1.68238784681307E-06	1200567.25	3.44845284416806E-05
2	500	117.483875703382	1.43142700195313	1.4312744140625	1.18927001953125E-06	1.70217163031339E-06	1203490	3.46040214935783E-05
2	501	117.584583703127	1.44149780273438	1.44134521484375	1.1956787109375E-06	1.72338570791908E-06	1205462	3.47241148119792E-05
2	502	117.685291702873	1.45156860351563	1.451416015625	1.20208740234375E-06	1.74472882008558E-06	1207413.125	3.4844852052629E-05
2	503	117.785999702619	1.46163940429688	1.46148681640625	1.20819091796875E-06	1.76575497334852E-06	1209649	3.49662186636124E-05
2	504	117.886707702365	1.47171020507813	1.47186279296875	1.21429443359375E-06	1.78727486854768E-06	1212113.625	3.50882000930142E-05
2	505	117.98741570211	1.48178100585938	1.4813232421875	1.2200927734375E-06	1.80735173671565E-06	1214107.125	3.52107817889191E-05
2	506	118.088123701856	1.49185180664063	1.49139404296875	1.22650146484375E-06	1.82919700364437E-06	1215974.125	3.53339746652637E-05
2	507	118.188831701602	1.50192260742188	1.5020751953125	1.23291015625E-06	1.85192368462594E-06	1218316.875	3.54578187398147E-05
2	508	118.289539701348	1.49185180664063	1.49169921875	1.14471435546875E-06	1.70756948136841E-06	1303119.125	3.55775409843773E-05
2	509	118.390247701093	1.48178100585938	1.48193359375	1.08642578125E-06	1.61001082688017E-06	1364045	3.56898854079191E-05
2	510	118.490955700839	1.47171020507813	1.47125244140625	1.0406494140625E-06	1.53105793287978E-06	1413783	3.57969947799575E-05
2	511	118.591663700585	1.46163940429688	1.4617919921875	1.0028076171875E-06	1.46589616178971E-06	1457699.375	3.58998913725372E-05
2	512	118.692371700331	1.45156860351563	1.451416015625	9.7015380859375E-07	1.40809675031051E-06	1496068	3.59992372978013E-05
2	513	118.793079700076	1.44149780273438	1.44134521484375	9.4146728515625E-07	1.35697928271838E-06	1530956.25	3.60954945790581E-05
2	514	118.893787699822	1.43142700195313	1.43157958984375	9.161376953125E-07	1.31152398807899E-06	1562625	3.61890306521673E-05
2	515	118.994495699568	1.42135620117188	1.42120361328125	8.92333984375E-07	1.26818827084207E-06	1592681.25	3.62800965376664E-05
2	516	119.095203699314	1.41128540039063	1.4111328125	8.70666503906251E-07	1.22862604712282E-06	1620750.125	3.6368870496517E-05
2	517	119.195911699059	1.40121459960938	1.4007568359375	8.50830078125001E-07	1.19180606361624E-06	1646341.5	3.64555526175536E-05
2	518	119.296619698805	1.39114379882813	1.3909912109375	8.3282470703125E-07	1.15845182335761E-06	1670208.875	3.65403320756741E-05
2	519	119.397327698551	1.38107299804688	1.3812255859375	8.15429687499999E-07	1.12629231807659E-06	1693862.375	3.66233289241791E-05
2	520	119.498035698296	1.37100219726563	1.3714599609375	7.98950195312501E-07	1.09572818018933E-06	1716577.625	3.67046195606235E-05
2	521	119.598743698042	1.36093139648438	1.36077880859375	7.83691406250001E-07	1.06643062736111E-06	1736370.75	3.67843131243717E-05
2	522	119.699451697788	1.35086059570313	1.3507080078125	7.6934814453125E-07	1.03916465832299E-06	1755652.625	3.68625151168089E-05
2	523	119.800159697534	1.34078979492188	1.3409423828125	7.54699707031251E-07	1.01200873814378E-06	1776789.375	3.69392546417657E-05
2	524	119.900867697279	1.33071899414063	1.33056640625	7.4127197265625E-07	9.86311533779372E-07	1794977.375	3.70145826309454E-05
2	525	120.001575697025	1.32064819335938	1.3201904296875	7.281494140625E-07	9.61295882007107E-07	1813076.25	3.70885754819028E-05
2	526	120.102283696771	1.31057739257813	1.31011962890625	7.1533203125E-07	9.37170511861041E-07	1831484.625	3.71612586604897E-05
2	527	120.202991696517	1.30050659179688	1.30035400390625	7.0343017578125E-07	9.14708209620585E-07	1848590.125	3.72327012883034E-05
2	528	120.303699696262	1.29043579101563	1.29058837890625	6.915283203125E-07	8.9247839696327E-07	1866284.125	3.73029433831107E-05
2	529	120.404407696008	1.28036499023438	1.280517578125	6.79931640625001E-07	8.70664450758341E-07	1883303.375	3.73719994968269E-05
2	530	120.505115695754	1.27029418945313	1.26983642578125	6.68945312499999E-07	8.49451112117094E-07	1898266.5	3.74399205611553E-05
2	531	120.6058236955	1.26022338867188	1.259765625	6.573486328125E-07	8.28105157779646E-07	1916434.625	3.75067065760959E-05
2	532	120.706531695245	1.25015258789063	1.25	6.4697265625E-07	8.08715810762806E-07	1932075.5	3.75723830075003E-05
2	533	120.807239694991	1.24008178710938	1.240234375	6.353759765625E-07	7.88015086072846E-07	1951969.375	3.76369571313262E-05
2	534	120.907947694737	1.23001098632813	1.23016357421875	6.24694824218749E-07	7.68476752455172E-07	1969223.375	3.77004034817219E-05
2	535	121.008655694483	1.21994018554688	1.21978759765625	6.1370849609375E-07	7.48594004562619E-07	1987568.375	3.77627620764542E-05
2	536	121.109363694228	1.20986938476563	1.21002197265625	6.0302734375E-07	7.29676344235486E-07	2006579	3.78240329155233E-05
2	537	121.210071693974	1.19979858398438	1.19964599609375	5.9173583984375E-07	7.09873518189852E-07	2027333.625	3.78841941710562E-05
2	538	121.31077969372	1.18972778320313	1.1895751953125	5.81970214843749E-07	6.92297305704415E-07	2044048.25	3.79432931367774E-05
2	539	121.411487693465	1.17965698242188	1.17919921875	5.718994140625E-07	6.74383329624106E-07	2061899.625	3.80013952963054E-05
2	540	121.512195693211	1.16958618164063	1.16912841796875	5.62133789062499E-07	6.57206555843004E-07	2079804.625	3.80584970116615E-05
2	541	121.612903692957	1.15951538085938	1.15966796875	5.523681640625E-07	6.40563655451842E-07	2099447.5	3.81146164727397E-05
2	542	121.713611692703	1.14944458007813	1.14959716796875	5.4351806640625E-07	6.24826839157322E-07	2115103.75	3.81698009732645E-05
2	543	121.814319692448	1.13937377929688	1.13922119140625	5.34667968749999E-07	6.09105029525381E-07	2130707.75	3.82240905310027E-05
2	544	121.915027692194	1.12930297851563	1.129150390625	5.26123046875E-07	5.94071991599776E-07	2146171.75	3.82775069738273E-05
2	545	122.01573569194	1.11923217773438	1.119384765625	5.18188476562501E-07	5.80052301302203E-07	2160188.5	3.8330090319505E-05
2	546	122.116443691686	1.10916137695313	1.10870361328125	5.1116943359375E-07	5.66735423035425E-07	2168955.25	3.83819242415484E-05
2	547	122.217151691431	1.09909057617188	1.0986328125	5.0323486328125E-07	5.52870289993734E-07	2183141.5	3.8433001464E-05
2	548	122.317859691177	1.08901977539063	1.0888671875	4.96520996093749E-07	5.40645430646691E-07	2192993.25	3.84833438147325E-05
2	549	122.418567690923	1.07894897460938	1.07879638671875	4.901123046875E-07	5.28731391113979E-07	2201120.75	3.85330240533222E-05
2	550	122.519275690669	1.06887817382813	1.0687255859375	4.83093261718751E-07	5.16294107910653E-07	2212255.25	3.85820312658325E-05
2	551	122.619983690414	1.05880737304688	1.0589599609375	4.75463867187501E-07	5.03497176396195E-07	2227214.5	3.86302963306662E-05
2	552	122.72069169016	1.04873657226563	1.04827880859375	4.6844482421875E-07	4.91060802687571E-07	2237785	3.86778265237808E-05
2	553	122.821399689906	1.03866577148438	1.03851318359375	4.6051025390625E-07	4.78245965496171E-07	2255135.75	3.87246036552824E-05
2	554	122.922107689652	1.02859497070313	1.0284423828125	4.52880859375E-07	4.65761843315704E-07	2270889.5	3.87705949833617E-05
2	555	123.022815689397	1.01852416992188	1.01806640625	4.443359375E-07	4.52363480007989E-07	2291208.75	3.88157750421669E-05
2	556	123.123523689143	1.00845336914063	1.00830078125	4.35485839843749E-07	4.39100688254257E-07	2315347	3.88600783480797E-05
2	557	123.224231688889	0.998382568359375	0.99822998046875	4.26330566406249E-07	4.25575933604705E-07	2341446	3.89034721592907E-05
2	558	123.324939688634	0.988311767578125	0.98846435546875	4.17480468750001E-07	4.1266454786637E-07	2367690	3.89459637517575E-05
2	559	123.42564768838	0.978240966796875	0.9783935546875	4.08325195312501E-07	3.99502710024535E-07	2396113.75	3.89875458495226E-05
2	560	123.526355688126	0.968170166015625	0.968017578125	3.9947509765625E-07	3.86698900456395E-07	2423224	3.90282220905647E-05
2	561	123.627063687872	0.958099365234375	0.958251953125	3.9031982421875E-07	3.74024722304966E-07	2455043	3.90679924748838E-05
2	562	123.727771687617	0.948028564453125	0.9478759765625	3.82385253906251E-07	3.62453789648498E-07	2478850.75	3.91069006582256E-05
2	563	123.828479687363	0.937957763671875	0.93780517578125	3.7506103515625E-07	3.51734172454599E-07	2500406.75	3.91450412280392E-05
2	564	123.929187687109	0.927886962890625	0.92742919921875	3.66821289062499E-07	3.40200756454578E-07	2528286.25	3.91823959944304E-05
2	565	124.029895686855	0.917816162109375	0.91796875	3.60107421875E-07	3.3056736015169E-07	2549152.75	3.92190013371874E-05
2	566	124.1306036866	0.907745361328125	0.90728759765625	3.52783203125E-07	3.2007579875426E-07	2571799.5	3.92548972740769E-05
2	567	124.231311686346	0.897674560546875	0.89752197265625	3.4637451171875E-07	3.10878704112838E-07	2591189.5	3.92901019949932E-05
2	568	124.332019686092	0.887603759765625	0.88775634765625	3.40576171875E-07	3.02348638570038E-07	2606631	3.9324691897491E-05
2	569	124.432727685838	0.877532958984375	0.877685546875	3.35083007812501E-07	2.94097503683588E-07	2619308	3.93587142752949E-05
2	570	124.533435685583	0.867462158203125	0.86761474609375	3.2989501953125E-07	2.86221791157004E-07	2629972.25	3.93921982322354E-05
2	571	124.634143685329	0.857391357421875	0.8575439453125	3.2501220703125E-07	2.78712235513012E-07	2638497.75	3.94251765101217E-05
2	572	124.734851685075	0.847320556640625	0.84716796875	3.2012939453125E-07	2.71203361990047E-07	2646330	3.9457663660869E-05
2	573	124.835559684821	0.837249755859375	0.83740234375	3.155517578125E-07	2.64243766423533E-07	2653771.75	3.94896705984138E-05
2	574	124.936267684566	0.827178955078125	0.82733154296875	3.10363769531249E-07	2.56773716955649E-07	2665683.5	3.95211900467984E-05
2	575	125.036975684312	0.817108154296875	0.8172607421875	3.0670166015625E-07	2.5065520503631E-07	2664676.75	3.95522620237898E-05
2	576	125.137683684058	0.807037353515625	0.806884765625	3.02734374999999E-07	2.4427174594166E-07	2665322.5	3.95829483750276E-05
2	577	125.238391683803	0.796966552734375	0.79681396484375	2.9876708984375E-07	2.38061772961373E-07	2667007.25	3.96132345485967E-05
2	578	125.339099683549	0.786895751953125	0.7867431640625	2.95410156250001E-07	2.32411920819686E-07	2663223	3.9643156924285E-05
2	579	125.439807683295	0.776824951171875	0.7769775390625	2.92358398437501E-07	2.27155894094722E-07	2657620.25	3.96727518818807E-05
2	580	125.540515683041	0.766754150390625	0.7672119140625	2.89306640625001E-07	2.21959496116142E-07	2651898.75	3.97020412492566E-05
2	581	125.641223682786	0.756683349609375	0.7568359375	2.86254882812501E-07	2.16647976003514E-07	2643923.25	3.97310213884339E-05
2	582	125.741931682532	0.746612548828125	0.7464599609375	2.8350830078125E-07	2.11627579460583E-07	2632938.75	3.97597141272854E-05
2	583	125.842639682278	0.736541748046875	0.736480712890625	2.8045654296875E-07	2.0655082266785E-07	2626006.75	3.97881121898536E-05
2	584	125.943347682024	0.726470947265625	0.72637939453125	2.7740478515625E-07	2.01501109131641E-07	2618482	3.98162010242231E-05
2	585	126.044055681769	0.716400146484375	0.716278076171875	2.74658203125E-07	1.9673164786127E-07	2607889	3.98439988202881E-05
2	586	126.144763681515	0.706329345703125	0.70623779296875	2.7191162109375E-07	1.9203424983516E-07	2597306.5	3.98715201299638E-05
2	587	126.245471681261	0.696258544921875	0.696197509765625	2.69775390625E-07	1.87816937113894E-07	2580656.25	3.98987976950593E-05
2	588	126.346179681007	0.686187744140625	0.6861572265625	2.67333984375E-07	1.83433144229639E-07	2566666.75	3.99258424295112E-05
2	589	126.446887680752	0.676116943359375	0.676055908203125	2.64587402343749E-07	1.78875865231021E-07	2555132.75	3.99526288674679E-05
2	590	126.547595680498	0.666046142578125	0.666015625	2.6214599609375E-07	1.74593324686612E-07	2540628.75	3.99791497329716E-05
2	591	126.648303680244	0.655975341796875	0.655914306640625	2.593994140625E-07	1.70143778177589E-07	2528588.25	4.000541230198E-05
2	592	126.74901167999	0.645904541015625	0.645843505859375	2.57568359375E-07	1.66348854691023E-07	2507464.5	4.00314456783235E-05
2	593	126.849719679735	0.635833740234375	0.635772705078125	2.55432128906249E-07	1.62396773362161E-07	2489008.5	4.00572753278539E-05
2	594	126.950427679481	0.625762939453125	0.625701904296875	2.532958984375E-07	1.58487722501377E-07	2470241	4.00828939746134E-05
2	595	127.051135679227	0.615692138671875	0.615631103515625	2.5146484375E-07	1.54809569608005E-07	2448179.75	4.01083088945597E-05
2	596	127.151843678972	0.605621337890625	0.60552978515625	2.49633789062501E-07	1.51160691075347E-07	2425672.5	4.01335419155657E-05
2	597	127.252551678718	0.595550537109375	0.595489501953125	2.471923828125E-07	1.47200466926733E-07	2409012.25	4.01585602958221E-05
2	598	127.353259678464	0.585479736328125	0.58544921875	2.459716796875E-07	1.4400391989966E-07	2380149	4.01833931391593E-05
2	599	127.45396767821	0.575408935546875	0.575347900390625	2.4444580078125E-07	1.40641375878658E-07	2353683	4.02080877393018E-05
2	600	127.554675677955	0.565338134765625	0.565277099609375	2.42004394531251E-07	1.36799528149822E-07	2335813.5	4.023258225061E-05
2	601	127.655383677701	0.555267333984375	0.55523681640625	2.4078369140625E-07	1.33691969494976E-07	2305957	4.0256891224999E-05
2	602	127.756091677447	0.545196533203125	0.545135498046875	2.38952636718751E-07	1.30261554431854E-07	2281354	4.02810474042781E-05
2	603	127.856799677193	0.535125732421875	0.53515625	2.37121582031249E-07	1.26897091945466E-07	2256885.5	4.0305018046638E-05
2	604	127.957507676938	0.525054931640625	0.524993896484375	2.362060546875E-07	1.24006731994086E-07	2222610	4.03288540837821E-05
2	605	128.058215676684	0.514984130859375	0.514984130859375	2.3468017578125E-07	1.20856569196803E-07	2194408.25	4.03525664296467E-05
2	606	128.15892367643	0.504913330078125	0.504852294921875	2.33154296875E-07	1.17708481184309E-07	2165314.25	4.03761223424226E-05
2	607	128.259631676176	0.494842529296875	0.49481201171875	2.3162841796875E-07	1.1461251858691E-07	2136232	4.03995254600886E-05
2	608	128.360339675921	0.484771728515625	0.484649658203125	2.31018066406249E-07	1.11962826565559E-07	2097886.5	4.04228230763692E-05
2	609	128.461047675667	0.474700927734375	0.474639892578125	2.288818359375E-07	1.08636449169808E-07	2073733.375	4.04459788114764E-05
2	610	128.561755675413	0.464630126953125	0.464630126953125	2.2705078125E-07	1.05494628144243E-07	2046371	4.04689380957279E-05
2	611	128.662463675159	0.454559326171875	0.45458984375	2.2552490234375E-07	1.02521326539318E-07	2015696.875	4.04917263949756E-05
2	612	128.763171674904	0.444488525390625	0.444488525390625	2.239990234375E-07	9.95649926949227E-08	1984332.375	4.05143618991133E-05
2	613	128.86387967465	0.434417724609375	0.43438720703125	2.227783203125E-07	9.67720481526158E-08	1949863.125	4.05368591600563E-05
2	614	128.964587674396	0.424346923828125	0.42431640625	2.2125244140625E-07	9.38810416073466E-08	1917793.125	4.05592181778047E-05
2	615	129.065295674141	0.414276123046875	0.414276123046875	2.197265625E-07	9.10274664533972E-08	1885416.75	4.05814244004432E-05
2	616	129.166003673887	0.404205322265625	0.404205322265625	2.1820068359375E-07	8.81978792222071E-08	1852447.5	4.0603474189993E-05
2	617	129.266711673633	0.394134521484375	0.3941650390625	2.166748046875E-07	8.54056310117812E-08	1819154.875	4.06253711844329E-05
2	618	129.367419673379	0.384063720703125	0.384063720703125	2.154541015625E-07	8.27481017040554E-08	1782578	4.06471299356781E-05
2	619	129.468127673124	0.373992919921875	0.37396240234375	2.13623046875E-07	7.98869876916797E-08	1750571.5	4.06687358918134E-05
2	620	129.56883567287	0.363922119140625	0.3638916015625	2.13012695312501E-07	7.75135262642834E-08	1708309.5	4.06902181566693E-05
2	621	129.669543672616	0.353851318359375	0.353790283203125	2.11486816406251E-07	7.48219761703695E-08	1672871.625	4.07115949201398E-05
2	622	129.770251672362	0.343780517578125	0.34375	2.09960937500001E-07	7.21740676112859E-08	1637209.375	4.07328152505215E-05
2	623	129.870959672107	0.333709716796875	0.333740234375	2.0782470703125E-07	6.9359465726393E-08	1605873.75	4.07538536819629E-05
2	624	129.971667671853	0.323638916015625	0.323638916015625	2.06298828125E-07	6.67663258013818E-08	1568787	4.07747065764852E-05
2	625	130.072375671599	0.313568115234375	0.3135986328125	2.0416259765625E-07	6.40251087702381E-08	1536024	4.07953739340883E-05
2	626	130.173083671345	0.303497314453125	0.303497314453125	2.0263671875E-07	6.14996977787996E-08	1497741	4.0815859392751E-05
2	627	130.27379167109	0.293426513671875	0.29339599609375	2.00805664062501E-07	5.89155746411052E-08	1461094.25	4.08361738664098E-05
2	628	130.374499670836	0.283355712890625	0.283294677734375	1.97753906250001E-07	5.60226283141674E-08	1432561.75	4.08562445954885E-05
2	629	130.475207670582	0.273284912109375	0.2733154296875	1.953125E-07	5.3381917552997E-08	1399375	4.08760352001991E-05
2	630	130.575915670328	0.263214111328125	0.26318359375	1.92871093749999E-07	5.07605051325299E-08	1364557	4.08955820603296E-05
2	631	130.676623670073	0.253143310546875	0.253173828125	1.89819335937499E-07	4.80572879268948E-08	1333762.125	4.09148524340708E-05
2	632	130.777331669819	0.243072509765625	0.24310302734375	1.8646240234375E-07	4.53295747604443E-08	1303764.375	4.09337990276981E-05
2	633	130.878039669565	0.233001708984375	0.2330322265625	1.8157958984375E-07	4.2313892834045E-08	1283361.375	4.09523308917414E-05
2	634	130.97874766931	0.222930908203125	0.22296142578125	1.76086425781249E-07	3.92604775356631E-08	1266204.625	4.09703425248154E-05
2	635	131.079455669056	0.212860107421875	0.212860107421875	1.70288085937501E-07	3.62475383042238E-08	1250000.125	4.09877829952165E-05
2	636	131.180163668802	0.202789306640625	0.2027587890625	1.6326904296875E-07	3.31042322443409E-08	1241869.25	4.10045795433689E-05
2	637	131.280871668548	0.192718505859375	0.192718505859375	1.53503417968751E-07	2.95829476470999E-08	1255467.25	4.10205284424592E-05
2	638	131.381579668293	0.182647705078125	0.1826171875	1.4007568359375E-07	2.55802277138173E-08	1303703.75	4.10353131883312E-05
2	639	131.482287668039	0.172576904296875	0.172607421875	1.22680664062499E-07	2.11755928347657E-08	1406965.25	4.10485445172526E-05
2	640	131.582995667785	0.162506103515625	0.162506103515625	9.85717773437506E-08	1.60185145148262E-08	1648606.875	4.10596840083599E-05
2	641	131.683703667531	0.152435302734375	0.1524658203125	6.59179687499997E-08	1.00502370870004E-08	2312963	4.10679676861037E-05
2	642	131.784411667276	0.142364501953125	0.14239501953125	1.983642578125E-08	2.82460832501386E-09	7178461.5	4.10722859669477E-05
2	643	131.885119667022	0.132293701171875	0.13232421875	-4.39453125000003E-08	-5.8150293469339E-09	-3011111	4.10710708820261E-05
2	644	131.985827666768	0.122222900390625	0.12225341796875	-1.300048828125E-07	-1.5893540705747E-08	-940375.625	4.10623106290586E-05
2	645	132.086535666514	0.112152099609375	0.1121826171875	-2.46276855468749E-07	-2.76279799038548E-08	-455514.28125	4.10433640354313E-05
2	646	132.187243666259	0.102081298828125	0.10211181640625	-3.97338867187499E-07	-4.05729920771591E-08	-256989.25	4.10109569202177E-05
2	647	132.287951666005	0.092010498046875	0.092041015625	-5.8563232421875E-07	-5.3902194707689E-08	-157165.1875	4.09614585805684E-05
2	648	132.388659665751	0.081939697265625	0.08197021484375	-8.07800292968749E-07	-6.6215562810612E-08	-101473.3671875	4.08912965212949E-05
2	649	132.489367665497	0.071868896484375	0.07196044921875	-1.05255126953125E-06	-7.57420650643326E-08	-68367.640625	4.07976185670123E-05
2	650	132.590075665242	0.061798095703125	0.061859130859375	-1.29913330078125E-06	-8.03632573820323E-08	-47615.69140625	4.06792023568414E-05
2	651	132.690783664988	0.051727294921875	0.0517578125	-1.522216796875E-06	-7.87866056839448E-08	-34001.60546875	4.05371356464457E-05
2	652	132.791491664734	0.041656494140625	0.04176025390625	-1.69708251953125E-06	-7.0870598278816E-08	-24607.0859375	4.03750309487805E-05
2	653	132.892199664479	0.031585693359375	0.031689453125	-1.812744140625E-06	-5.74448719703469E-08	-17481.482421875	4.0198297938332E-05
2	654	132.992907664225	0.021514892578125	0.021588134765625	-1.86279296875E-06	-4.02142248390192E-08	-11589.1220703125	4.00132194045E-05
2	655	133.093615663971	0.011444091796875	0.01153564453125	-1.85943603515625E-06	-2.14497930528523E-08	-6203.8408203125	3.98257907363586E-05
2	656	133.194323663717	0.001373291015625	0.0014617919921875	-1.817626953125E-06	-2.65699240387107E-09	-804.231079101563	3.96406358049717E-05
2	657	133.295031663462	-0.008697509765625	-0.0085906982421875	-1.751708984375E-06	1.50484034122655E-08	4904.18115234375	3.94609050999861E-05
2	658	133.395739663208	-0.018768310546875	-0.0186492919921875	-1.6754150390625E-06	3.1245303233618E-08	11131.1474609375	3.92883339372929E-05
2	659	133.496447662954	-0.028839111328125	-0.028704833984375	-1.5966796875E-06	4.5832422301828E-08	17977.828125	3.91235735150985E-05
2	660	133.5971556627	-0.038909912109375	-0.0387939453125	-1.52069091796875E-06	5.89935957862053E-08	25510.736328125	3.89666020055301E-05
2	661	133.697863662445	-0.048980712890625	-0.0488372802734375	-1.451416015625E-06	7.08832104123758E-08	33648.0234375	3.8816942833364E-05
2	662	133.798571662191	-0.059051513671875	-0.05902099609375	-1.38824462890625E-06	8.19355818748591E-08	42514.83984375	3.86739557143301E-05
2	663	133.899279661937	-0.069122314453125	-0.06903076171875	-1.33087158203125E-06	9.18710796327105E-08	51868.83984375	3.85370367439464E-05
2	664	133.999987661683	-0.079193115234375	-0.079193115234375	-1.28082275390625E-06	1.01432341637064E-07	61829.87890625	3.84055274480488E-05
2	665	134.100695661428	-0.089263916015625	-0.0892333984375	-1.23626708984375E-06	1.10316307200264E-07	72179.7109375	3.82787802664097E-05
2	666	134.201403661174	-0.099334716796875	-0.099212646484375	-1.19781494140625E-06	1.18838386242714E-07	82828.03125	3.81562167603988E-05
2	667	134.30211166092	-0.109405517578125	-0.10931396484375	-1.16302490234375E-06	1.27134853755706E-07	93991.078125	3.80373385269195E-05
2	668	134.402819660666	-0.119476318359375	-0.11944580078125	-1.1328125E-06	1.3530969056319E-07	105441.8125	3.79217344743665E-05
2	669	134.503527660411	-0.129547119140625	-0.12945556640625	-1.10595703125E-06	1.43172300681726E-07	117052.9765625	3.78090007870924E-05
2	670	134.604235660157	-0.139617919921875	-0.13958740234375	-1.08245849609375E-06	1.51097566458702E-07	128954.0546875	3.76988064090256E-05
2	671	134.704943659903	-0.149688720703125	-0.149658203125	-1.06201171875E-06	1.58938760819183E-07	140919.53125	3.75908239220735E-05
2	672	134.805651659648	-0.159759521484375	-0.159637451171875	-1.043701171875E-06	1.66613787655479E-07	152953.21875	3.74847950297408E-05
2	673	134.906359659394	-0.169830322265625	-0.169708251953125	-1.02752685546875E-06	1.74379792383661E-07	165161.859375	3.73804978153203E-05
2	674	135.00706765914	-0.179901123046875	-0.179779052734375	-1.01348876953125E-06	1.82204047405321E-07	177386.34375	3.72777249140199E-05
2	675	135.107775658886	-0.189971923828125	-0.1898193359375	-1.00128173828125E-06	1.90062621641118E-07	189576.359375	3.71762725990266E-05
2	676	135.208483658631	-0.200042724609375	-0.199920654296875	-9.9090576171875E-07	1.98102526383082E-07	201755.46875	3.70759589713998E-05
2	677	135.309191658377	-0.189971923828125	-0.189788818359375	-8.7005615234375E-07	1.65126920137482E-07	218134	3.69822519132867E-05
