Potential - Start -0.2 V, Upper Vertex 1.5 V, Lower Vertex -0.2 V, Stop -0.19 V; Scan - # end cross 5, Rate 0.1 Vps, Step 0.01 V 
Scan	Index	Time (s)	Potential applied (V)	WE(1).Potential (V)	WE(1).Current (A)	WE(1).Power (W)	WE(1).Resistance (Ω)	WE(1).Charge (C)
1	1	66.0885678331424	-0.189971923828125	-0.18988037109375	-2.3681640625E-07	4.49667858504199E-08	801804.125	0
1	2	66.1892758328881	-0.179901123046875	-0.17974853515625	-2.01416015625E-07	3.62042342771929E-08	892424.25	-2.2066755533956E-08
1	3	66.2899838326339	-0.169830322265625	-0.169708251953125	-1.73339843750001E-07	2.9417201119486E-08	979049.3125	-4.09372127307961E-08
1	4	66.3906918323796	-0.159759521484375	-0.15966796875	-1.4984130859375E-07	2.39248549860349E-08	1065580.5	-5.72106735319267E-08
1	5	66.4913998321254	-0.149688720703125	-0.14959716796875	-1.2786865234375E-07	1.91287874429236E-08	1169928.5	-7.11944778686302E-08
1	6	66.5921078318711	-0.139617919921875	-0.139495849609375	-1.080322265625E-07	1.50700465439968E-08	1291243	-8.30730328971185E-08
1	7	66.6928158316168	-0.129547119140625	-0.129486083984375	-8.94165039062506E-08	1.1578192626871E-08	1448122.875	-9.3015366076088E-08
1	8	66.7935238313626	-0.119476318359375	-0.11932373046875	-6.866455078125E-08	8.19331003043544E-09	1737777.875	-1.00975377392842E-07
1	9	66.8942318311083	-0.109405517578125	-0.109283447265625	-4.57763671875E-08	5.0025992237579E-09	2387333.25	-1.06737935823276E-07
1	10	66.994939830854	-0.099334716796875	-0.0992431640625	-1.92260742187506E-08	1.90805637956259E-09	5161905	-1.10011072251837E-07
1	11	67.0956478305998	-0.089263916015625	-0.089111328125	1.31225585937506E-08	-1.16936860194983E-09	-6790698	-1.10318410406762E-07
1	12	67.1963558303455	-0.079193115234375	-0.079132080078125	5.340576171875E-08	-4.22610879624585E-09	-1481714.375	-1.06968442992184E-07
1	13	67.2970638300912	-0.069122314453125	-0.069061279296875	1.0406494140625E-07	-7.18685777556516E-09	-663636.375	-9.90391626487508E-08
1	14	67.397771829837	-0.059051513671875	-0.05902099609375	1.6937255859375E-07	-9.99653693156688E-09	-348468.46875	-8.5270492888867E-08
1	15	67.4984798295827	-0.048980712890625	-0.048828125	2.5634765625E-07	-1.25169750120335E-08	-190476.203125	-6.38337738223527E-08
1	16	67.5991878293285	-0.038909912109375	-0.0387786865234375	3.704833984375E-07	-1.43668579255518E-08	-104670.515625	-3.22703250787981E-08
1	17	67.6998958290742	-0.028839111328125	-0.0287078857421875	5.1605224609375E-07	-1.48147689671418E-08	-55629.8046875	1.23702896814848E-08
1	18	67.8006038288199	-0.018768310546875	-0.0186370849609375	6.94885253906249E-07	-1.29506352308795E-08	-26820.37890625	7.33458307422552E-08
1	19	67.9013118285657	-0.008697509765625	-0.00856933593750001	9.02709960937501E-07	-7.73562458533661E-09	-9492.900390625	1.53791134493986E-07
1	20	68.0020198283114	0.001373291015625	0.0014617919921875	1.126708984375E-06	1.64701419169688E-09	1297.39978027344	2.55980495467156E-07
1	21	68.1027278280571	0.011444091796875	0.011492919921875	1.35009765625E-06	1.55165640336463E-08	8512.6591796875	3.80697628088456E-07
1	22	68.2034358278029	0.021514892578125	0.0216156005859375	1.5472412109375E-06	3.34445466876332E-08	13970.4150390625	5.2659021321233E-07
1	23	68.3041438275486	0.031585693359375	0.03167724609375	1.702880859375E-06	5.39425748513622E-08	18602.150390625	6.90246849899268E-07
1	24	68.4048518272944	0.041656494140625	0.0417724609375	1.8048095703125E-06	7.5391334064534E-08	23145.08203125	8.66873108407162E-07
1	25	68.5055598270401	0.051727294921875	0.0517578125	1.8511962890625E-06	9.58138670625885E-08	27959.1171875	1.05096762581525E-06
1	26	68.6062678267858	0.061798095703125	0.061798095703125	1.8511962890625E-06	1.14400400264003E-07	33382.7890625	1.23739789614774E-06
1	27	68.7069758265316	0.071868896484375	0.071929931640625	1.8170166015625E-06	1.3069788451503E-07	39586.83203125	1.42210706144397E-06
1	28	68.8076838262773	0.081939697265625	0.082061767578125	1.7626953125E-06	1.44649888511594E-07	46554.70703125	1.60235981638834E-06
1	29	68.908391826023	0.092010498046875	0.092071533203125	1.69769287109375E-06	1.56309184262682E-07	54233.328125	1.77660422195913E-06
1	30	69.0090998257688	0.102081298828125	0.1021728515625	1.63116455078125E-06	1.66660726108603E-07	62637.98046875	1.94422545973794E-06
1	31	69.1098078255145	0.112152099609375	0.112213134765625	1.5667724609375E-06	1.75812445490919E-07	71620.5703125	2.10525445254461E-06
1	32	69.2105158252602	0.122222900390625	0.122283935546875	1.50787353515625E-06	1.84388710522398E-07	81096.9453125	2.26007523451699E-06
1	33	69.311223825006	0.132293701171875	0.132354736328125	1.4544677734375E-06	1.92505694940337E-07	90998.7421875	2.40924100580742E-06
1	34	69.4119318247517	0.142364501953125	0.142486572265625	1.4068603515625E-06	2.00458700305717E-07	101279.828125	2.5533202006045E-06
1	35	69.5126398244975	0.152435302734375	0.1524658203125	1.36444091796875E-06	2.08030598969344E-07	111742.34375	2.69286624643428E-06
1	36	69.6133478242432	0.162506103515625	0.162567138671875	1.3262939453125E-06	2.15611819953665E-07	122572.4765625	2.82835549114679E-06
1	37	69.7140558239889	0.172576904296875	0.172607421875	1.29180908203125E-06	2.22975842234518E-07	133616.8125	2.96018765766348E-06
1	38	69.8147638237347	0.182647705078125	0.18267822265625	1.260986328125E-06	2.30354743280259E-07	144869.3125	3.08873109133856E-06
1	39	69.9154718234804	0.192718505859375	0.192779541015625	1.2335205078125E-06	2.37797507907089E-07	156284.015625	3.21433935823734E-06
1	40	70.0161798232261	0.202789306640625	0.202789306640625	1.209716796875E-06	2.4531760800528E-07	167633.703125	3.33736625179881E-06
1	41	70.1168878229719	0.212860107421875	0.212890625	1.1883544921875E-06	2.52989508453538E-07	179147.421875	3.45811872648483E-06
1	42	70.2175958227176	0.222930908203125	0.222930908203125	1.16790771484375E-06	2.60362725157393E-07	190880.578125	3.57676594830991E-06
1	43	70.3183038224633	0.233001708984375	0.233062744140625	1.14990234375E-06	2.67999382685957E-07	202680.46875	3.69347685591492E-06
1	44	70.4190118222091	0.243072509765625	0.2430419921875	1.13250732421875E-06	2.75246833325582E-07	214605.21875	3.80840538127813E-06
1	45	70.5197198219548	0.253143310546875	0.253143310546875	1.1163330078125E-06	2.82592225175904E-07	226763.265625	3.92164338336443E-06
1	46	70.6204278217006	0.263214111328125	0.263214111328125	1.10198974609375E-06	2.90059233520878E-07	238853.515625	4.03334479415207E-06
1	47	70.7211358214463	0.273284912109375	0.273223876953125	1.08917236328125E-06	2.97587888553608E-07	250854.59375	4.1436787796556E-06
1	48	70.821843821192	0.283355712890625	0.28326416015625	1.077880859375E-06	3.05325016825009E-07	262797.28125	4.25279858973227E-06
1	49	70.9225518209378	0.293426513671875	0.29339599609375	1.0675048828125E-06	3.13201638846294E-07	274842.78125	4.3608270061668E-06
1	50	71.0232598206835	0.303497314453125	0.30340576171875	1.05865478515625E-06	3.21201952147021E-07	286595.5625	4.46788772023865E-06
1	51	71.1239678204292	0.313568115234375	0.313568115234375	1.0504150390625E-06	3.29376661056813E-07	298518.3125	4.57408805232262E-06
1	52	71.224675820175	0.323638916015625	0.32366943359375	1.04248046875E-06	3.37419066909206E-07	310480.09375	4.67947347715381E-06
1	53	71.3253838199207	0.333709716796875	0.333740234375	1.03515625E-06	3.45473267771013E-07	322405.6875	4.78409083370934E-06
1	54	71.4260918196665	0.343780517578125	0.34375	1.029052734375E-06	3.53736851366193E-07	334045.09375	4.88803198095411E-06
1	55	71.5267998194122	0.353851318359375	0.35382080078125	1.02508544921875E-06	3.62696567890453E-07	345162.25	4.99146608490264E-06
1	56	71.6275078191579	0.363922119140625	0.3638916015625	1.02203369140625E-06	3.71909465002318E-07	356046.59375	5.09454685015953E-06
1	57	71.7282158189037	0.373992919921875	0.373992919921875	1.019287109375E-06	3.81206149313584E-07	366916.1875	5.19733566761715E-06
1	58	71.8289238186494	0.384063720703125	0.38409423828125	1.01776123046875E-06	3.90916198966806E-07	377391.3125	5.29990893483046E-06
1	59	71.9296318183951	0.394134521484375	0.39410400390625	1.01593017578125E-06	4.00382134557731E-07	387924.3125	5.40231349077658E-06
1	60	72.0303398181409	0.404205322265625	0.404144287109375	1.014404296875E-06	4.09965679182278E-07	398405.5625	5.50454888070817E-06
1	61	72.1310478178866	0.414276123046875	0.414337158203125	1.01318359375E-06	4.19799590645198E-07	408945.78125	5.60664602744509E-06
1	62	72.2317558176323	0.424346923828125	0.424346923828125	1.0125732421875E-06	4.29682330604919E-07	419077.78125	5.70865086046979E-06
1	63	72.3324638173781	0.434417724609375	0.434356689453125	1.01318359375E-06	4.40083056219009E-07	428704.8125	5.81065614824183E-06
1	64	72.4331718171238	0.444488525390625	0.444488525390625	1.01409912109375E-06	4.50755408110126E-07	438308.78125	5.91273783356883E-06
1	65	72.5338798168696	0.454559326171875	0.45452880859375	1.0150146484375E-06	4.61353380387663E-07	447805.1875	6.01491183260805E-06
1	66	72.6345878166153	0.464630126953125	0.464569091796875	1.016845703125E-06	4.72395072392828E-07	456872.78125	6.11722407484194E-06
1	67	72.735295816361	0.474700927734375	0.474700927734375	1.0186767578125E-06	4.83566793718637E-07	465997.625	6.2197209445003E-06
1	68	72.8360038161068	0.484771728515625	0.4847412109375	1.0211181640625E-06	4.94978053211526E-07	474716.09375	6.32243245490827E-06
1	69	72.9367118158525	0.494842529296875	0.49481201171875	1.025390625E-06	5.07375602865068E-07	482559.53125	6.4254822973453E-06
1	70	73.0374198155982	0.504913330078125	0.504913330078125	1.031494140625E-06	5.20815092386329E-07	489497.0625	6.5290546444885E-06
1	71	73.138127815344	0.514984130859375	0.51495361328125	1.0400390625E-06	5.3557187129627E-07	495129.125	6.63336504658218E-06
1	72	73.2388358150897	0.525054931640625	0.524993896484375	1.05194091796875E-06	5.52262577002693E-07	499071.65625	6.73870454193093E-06
1	73	73.3395438148355	0.535125732421875	0.535125732421875	1.06719970703125E-06	5.71086047784775E-07	501429.78125	6.84541146256379E-06
1	74	73.4402518145812	0.545196533203125	0.545135498046875	1.087646484375E-06	5.9291465959177E-07	501206.53125	6.9539169089694E-06
1	75	73.5409598143269	0.555267333984375	0.555328369140625	1.1163330078125E-06	6.19931370238191E-07	497457.625	7.06489572621649E-06
1	76	73.6416678140727	0.565338134765625	0.56536865234375	1.1566162109375E-06	6.53914582926518E-07	488812.65625	7.17934790372965E-06
1	77	73.7423758138184	0.575408935546875	0.575439453125	1.21490478515625E-06	6.9910413458274E-07	473649.84375	7.29876364857773E-06
1	78	73.8430838135641	0.585479736328125	0.58551025390625	1.29913330078125E-06	7.6065583698437E-07	450693	7.42535530662281E-06
1	79	73.9437918133099	0.595550537109375	0.595550537109375	1.41937255859375E-06	8.45308079533424E-07	419587.1875	7.5622428994393E-06
1	80	74.0444998130556	0.605621337890625	0.60552978515625	1.58599853515625E-06	9.60369334279676E-07	381797.21875	7.7135755418567E-06
1	81	74.1452078128013	0.615692138671875	0.615692138671875	1.80908203125E-06	1.11383747025684E-06	340334.03125	7.88453144195955E-06
1	82	74.2459158125471	0.625762939453125	0.625732421875	2.09625244140625E-06	1.31169315409352E-06	298500.5	8.08118056738749E-06
1	83	74.3466238122928	0.635833740234375	0.635894775390625	2.45269775390625E-06	1.55965767589805E-06	259263.40625	8.31023862701841E-06
1	84	74.4473318120386	0.645904541015625	0.64581298828125	2.87200927734375E-06	1.85478086223156E-06	224864.53125	8.57835857459577E-06
1	85	74.5480398117843	0.655975341796875	0.655914306640625	3.34075927734375E-06	2.19125172407075E-06	196336.90625	8.8911965576699E-06
1	86	74.64874781153	0.666046142578125	0.665924072265625	3.8348388671875E-06	2.55371151069994E-06	173651.125	9.25251697481144E-06
1	87	74.7494558112758	0.676116943359375	0.676055908203125	4.317626953125E-06	2.91895707960066E-06	156580.4375	9.66302559390897E-06
1	88	74.8501638110215	0.686187744140625	0.686065673828125	4.75311279296875E-06	3.26094732372439E-06	144340.296875	1.01197738331393E-05
1	89	74.9508718107672	0.696258544921875	0.69610595703125	5.108642578125E-06	3.55615657099406E-06	136260.453125	1.06163524833391E-05
1	90	75.051579810513	0.706329345703125	0.70611572265625	5.352783203125E-06	3.77968422071717E-06	131915.625	1.11431272671325E-05
1	91	75.1522878102587	0.716400146484375	0.716217041015625	5.4779052734375E-06	3.92336914956104E-06	130746.515625	1.16884957606089E-05
1	92	75.2529958100044	0.726470947265625	0.726318359375	5.499267578125E-06	3.99421878682915E-06	132075.46875	1.22412402561167E-05
1	93	75.3537038097502	0.736541748046875	0.736358642578125	5.4443359375E-06	4.00898352381773E-06	135252.25	1.27922949104686E-05
1	94	75.4544118094959	0.746612548828125	0.746429443359375	5.3558349609375E-06	3.99775262849289E-06	139367.53125	1.3336126357899E-05
1	95	75.5551198092417	0.756683349609375	0.75653076171875	5.2642822265625E-06	3.98259135181434E-06	143710.140625	1.38708919621422E-05
1	96	75.6558278089874	0.766754150390625	0.76690673828125	5.1971435546875E-06	3.98572410631459E-06	147563.125	1.43976658364409E-05
1	97	75.7565358087331	0.776824951171875	0.77728271484375	5.1788330078125E-06	4.02541718358407E-06	150088.390625	1.49201378008001E-05
1	98	75.8572438084789	0.786895751953125	0.787353515625	5.2276611328125E-06	4.11601740779588E-06	150612.96875	1.54441459017107E-05
1	99	75.9579518082246	0.796966552734375	0.79742431640625	5.3558349609375E-06	4.2708729779406E-06	148888.890625	1.59770679601934E-05
1	100	76.0586598079703	0.807037353515625	0.806884765625	5.56640625E-06	4.49144818048808E-06	144956.15625	1.65270466823131E-05
1	101	76.1593678077161	0.817108154296875	0.81695556640625	5.8563232421875E-06	4.78435595141491E-06	139499.734375	1.71022275026189E-05
1	102	76.2600758074618	0.827178955078125	0.82733154296875	6.2103271484375E-06	5.13799932377879E-06	133218.6875	1.77098299900535E-05
1	103	76.3607838072076	0.837249755859375	0.83770751953125	6.5948486328125E-06	5.52455412616837E-06	127024.53125	1.83546217158437E-05
1	104	76.4614918069533	0.847320556640625	0.84747314453125	6.976318359375E-06	5.91224215895636E-06	121478.5703125	1.9037985111936E-05
1	105	76.562199806699	0.857391357421875	0.85723876953125	7.3150634765625E-06	6.27075587544823E-06	117188.15625	1.97576136997668E-05
1	106	76.6629078064448	0.867462158203125	0.8673095703125	7.58056640625E-06	6.57469763609697E-06	114412.2421875	2.05076685233507E-05
1	107	76.7636158061905	0.877532958984375	0.877685546875	7.7362060546875E-06	6.78995593261789E-06	113451.6796875	2.12789291254012E-05
1	108	76.8643238059362	0.887603759765625	0.88775634765625	7.7789306640625E-06	6.90579508955125E-06	114123.1796875	2.20601777982665E-05
1	109	76.965031805682	0.897674560546875	0.89752197265625	7.7178955078125E-06	6.92698085913435E-06	116291.0234375	2.28405042435043E-05
1	110	77.0657398054277	0.907745361328125	0.908203125	7.5775146484375E-06	6.88192267261911E-06	119855.015625	2.36106898228172E-05
1	111	77.1664478051734	0.917816162109375	0.91766357421875	7.3883056640625E-06	6.77997877573944E-06	124204.875	2.43642789428122E-05
1	112	77.2671558049192	0.927886962890625	0.92803955078125	7.177734375E-06	6.66122105030809E-06	129294.2265625	2.50977373070782E-05
1	113	77.3678638046649	0.937957763671875	0.93780517578125	6.9671630859375E-06	6.53384131510393E-06	134603.59375	2.58099898928776E-05
1	114	77.4685718044107	0.948028564453125	0.9478759765625	6.7657470703125E-06	6.41308906779159E-06	140099.234375	2.65014969045296E-05
1	115	77.5692798041564	0.958099365234375	0.95794677734375	6.5765380859375E-06	6.29997339274269E-06	145661.25	2.71733333647717E-05
1	116	77.6699878039021	0.968170166015625	0.96832275390625	6.4056396484375E-06	6.20272658125032E-06	151167.234375	2.78270381386392E-05
1	117	77.7706958036479	0.978240966796875	0.97869873046875	6.2530517578125E-06	6.11985387877212E-06	156515.375	2.84644538623979E-05
1	118	77.8714038033936	0.988311767578125	0.98785400390625	6.11572265625E-06	6.04144088356406E-06	161526.953125	2.90872721961932E-05
1	119	77.9721118031393	0.998382568359375	0.99853515625	5.9906005859375E-06	5.98182532485225E-06	166683.640625	2.96968737529824E-05
1	120	78.0728198028851	1.00845336914063	1.0089111328125	5.877685546875E-06	5.93006234339555E-06	171651.09375	3.02944881696021E-05
1	121	78.1735278026308	1.01852416992188	1.01837158203125	5.77392578125E-06	5.88000193602056E-06	176374.203125	3.08811941067688E-05
1	122	78.2742358023766	1.02859497070313	1.029052734375	5.682373046875E-06	5.84746112508583E-06	181095.609375	3.14580647682305E-05
1	123	78.3749438021223	1.03866577148438	1.038818359375	5.5999755859375E-06	5.8173573052045E-06	185504.09375	3.20261751767248E-05
1	124	78.475651801868	1.04873657226563	1.048583984375	5.523681640625E-06	5.7920437939174E-06	189834.265625	3.25862965837587E-05
1	125	78.5763598016138	1.05880737304688	1.05865478515625	5.45654296875E-06	5.77659557166044E-06	194015.65625	3.31391929648817E-05
1	126	78.6770678013595	1.06887817382813	1.06903076171875	5.3924560546875E-06	5.76470119995065E-06	198245.625	3.36854864144698E-05
1	127	78.7777758011052	1.07894897460938	1.07940673828125	5.33447265625E-06	5.75806552660652E-06	202345.546875	3.42256280418951E-05
1	128	78.878483800851	1.08901977539063	1.08917236328125	5.2825927734375E-06	5.75365402255557E-06	206181.40625	3.47602399415337E-05
1	129	78.9791918005967	1.09909057617188	1.09893798828125	5.230712890625E-06	5.74822888665949E-06	210093.359375	3.52896277036052E-05
1	130	79.0798998003424	1.10916137695313	1.1090087890625	5.1849365234375E-06	5.75014018977527E-06	213890.53125	3.58140969183296E-05
1	131	79.1806078000882	1.11923217773438	1.119384765625	5.1422119140625E-06	5.75611329622916E-06	217685.46875	3.63341096090153E-05
1	132	79.2813157998339	1.12930297851563	1.12945556640625	5.1025390625E-06	5.76309093958116E-06	221351.671875	3.68499750038609E-05
1	133	79.3820237995797	1.13937377929688	1.13983154296875	5.0628662109375E-06	5.77081436858862E-06	225135.640625	3.73618422599975E-05
1	134	79.4827317993254	1.14944458007813	1.1492919921875	5.029296875E-06	5.78013077756623E-06	228519.40625	3.78700242436025E-05
1	135	79.5834397990711	1.15951538085938	1.15997314453125	4.998779296875E-06	5.79844981984934E-06	232051.28125	3.83749793400057E-05
1	136	79.6841477988169	1.16958618164063	1.16943359375	4.9652099609375E-06	5.8064833865501E-06	235525.515625	3.88767039112281E-05
1	137	79.7848557985626	1.17965698242188	1.17919921875	4.93499755859375E-06	5.81934500587522E-06	238946.265625	3.93752197851427E-05
1	138	79.8855637983083	1.18972778320313	1.18927001953125	4.90753173828125E-06	5.83638029638678E-06	242335.6875	3.98708289139904E-05
1	139	79.9862717980541	1.19979858398438	1.19903564453125	4.8834228515625E-06	5.85539783060085E-06	245531.8125	4.03638441639487E-05
1	140	80.0869797977998	1.20986938476563	1.2103271484375	4.86114501953125E-06	5.88357579545118E-06	248979.84375	4.08545238315128E-05
1	141	80.1876877975455	1.21994018554688	1.21978759765625	4.84100341796875E-06	5.90499575991998E-06	251970	4.13430643675383E-05
1	142	80.2883957972913	1.23001098632813	1.23046875	4.82269287109375E-06	5.93417280470021E-06	255141.421875	4.18296694988385E-05
1	143	80.389103797037	1.24008178710938	1.23992919921875	4.8052978515625E-06	5.95822848481475E-06	258033.796875	4.23144774686079E-05
1	144	80.4898117967828	1.25015258789063	1.25030517578125	4.7900390625E-06	5.98901033299626E-06	261021.921875	4.27976410719566E-05
1	145	80.5905197965285	1.26022338867188	1.26007080078125	4.77691650390625E-06	6.01925285081961E-06	263783.3125	4.32793749496341E-05
1	146	80.6912277962742	1.27029418945313	1.2701416015625	4.765625E-06	6.05301829637028E-06	266521.53125	4.37598791904747E-05
1	147	80.79193579602	1.28036499023438	1.280517578125	4.75799560546875E-06	6.09269682172453E-06	269129.625	4.42394339188468E-05
1	148	80.8926437957657	1.29043579101563	1.2908935546875	4.75311279296875E-06	6.13576230534818E-06	271589.09375	4.47183556389064E-05
1	149	80.9933517955114	1.30050659179688	1.300048828125	4.7491455078125E-06	6.1741206991428E-06	273743.75	4.51968335255515E-05
1	150	81.0940597952572	1.31057739257813	1.31103515625	4.74700927734375E-06	6.22349625700735E-06	276181.28125	4.5675002183998E-05
1	151	81.1947677950029	1.32064819335938	1.32080078125	4.7467041015625E-06	6.26944984105648E-06	278256.40625	4.61530471511651E-05
1	152	81.2954757947487	1.33071899414063	1.3299560546875	4.7467041015625E-06	6.3129073168966E-06	280185.1875	4.66310775664169E-05
1	153	81.3961837944944	1.34078979492188	1.34063720703125	4.74945068359375E-06	6.36729009784176E-06	282272.0625	4.71092498628423E-05
1	154	81.4968917942401	1.35086059570313	1.3507080078125	4.75433349609375E-06	6.42171653453261E-06	284100.375	4.75878005090635E-05
1	155	81.5975997939859	1.36093139648438	1.36016845703125	4.76043701171875E-06	6.47499564365717E-06	285723.46875	4.80669077660423E-05
1	156	81.6983077937316	1.37100219726563	1.3714599609375	4.76837158203125E-06	6.53963070362806E-06	287616	4.85467207909096E-05
1	157	81.7990157934773	1.38107299804688	1.38092041015625	4.7772216796875E-06	6.59696252114372E-06	289063.5	4.9027381464839E-05
1	158	81.8997237932231	1.39114379882813	1.39129638671875	4.78759765625E-06	6.66096684653894E-06	290604.3125	4.95090062031522E-05
1	159	82.0004317929688	1.40121459960938	1.40106201171875	4.79766845703125E-06	6.72183068672894E-06	292029.78125	4.99916641274467E-05
1	160	82.1011397927145	1.41128540039063	1.4111328125	4.81109619140625E-06	6.78909555063001E-06	293307.96875	5.04755043948535E-05
1	161	82.2018477924603	1.42135620117188	1.42120361328125	4.8291015625E-06	6.86313615005929E-06	294299.8125	5.09609271830413E-05
1	162	82.302555792206	1.43142700195313	1.4312744140625	4.852294921875E-06	6.9449652073672E-06	294968.5625	5.14484236191493E-05
1	163	82.4032637919518	1.44149780273438	1.441650390625	4.88189697265625E-06	7.03798878021189E-06	295305.375	5.19385794177651E-05
1	164	82.5039717916975	1.45156860351563	1.451416015625	4.91973876953125E-06	7.14058751327684E-06	295018.90625	5.2432129450608E-05
1	165	82.6046797914432	1.46163940429688	1.4617919921875	4.9652099609375E-06	7.25810423318762E-06	294406.875	5.29298777109943E-05
1	166	82.705387791189	1.47171020507813	1.47186279296875	5.023193359375E-06	7.39345159672666E-06	293013.375	5.34328319190536E-05
1	167	82.8060957909347	1.48178100585938	1.48162841796875	5.0872802734375E-06	7.53745871406863E-06	291241.78125	5.39419379492756E-05
1	168	82.9068037906804	1.49185180664063	1.49169921875	5.169677734375E-06	7.71160375734325E-06	288547.84375	5.44584145245608E-05
1	169	83.0075117904262	1.50192260742188	1.50177001953125	5.26123046875E-06	7.90115791460266E-06	285440.84375	5.49836513528135E-05
1	170	83.1082197901719	1.49185180664063	1.49169921875	4.99267578125E-06	7.44757062420831E-06	298777.5	5.54999787709676E-05
1	171	83.2089277899177	1.48178100585938	1.48193359375	4.80621337890625E-06	7.12248902345891E-06	308337.03125	5.59933905606158E-05
1	172	83.3096357896634	1.47171020507813	1.4715576171875	4.6661376953125E-06	6.86649036651943E-06	315369.53125	5.64703623240348E-05
1	173	83.4103437894091	1.46163940429688	1.4617919921875	4.55474853515625E-06	6.65809511701809E-06	320938.03125	5.69346702832263E-05
1	174	83.5110517891549	1.45156860351563	1.45111083984375	4.464111328125E-06	6.47792012387072E-06	325061.53125	5.73888064536732E-05
1	175	83.6117597889006	1.44149780273438	1.4410400390625	4.38751220703125E-06	6.32258070254466E-06	328441.28125	5.78345207031816E-05
1	176	83.7124677886463	1.43142700195313	1.43157958984375	4.32373046875E-06	6.18976446276065E-06	331098.25	5.82731663598679E-05
1	177	83.8131757883921	1.42135620117188	1.4208984375	4.2694091796875E-06	6.06639696343336E-06	332809.15625	5.87058675591834E-05
1	178	83.9138837881378	1.41128540039063	1.41143798828125	4.22210693359375E-06	5.95924211665988E-06	334297.09375	5.91334464843385E-05
1	179	84.0145917878835	1.40121459960938	1.4013671875	4.17999267578125E-06	5.85770430916455E-06	335255.90625	5.95565252297092E-05
1	180	84.1152997876293	1.39114379882813	1.39129638671875	4.141845703125E-06	5.76253478357103E-06	335912.1875	5.99755658186041E-05
1	181	84.216007787375	1.38107299804688	1.3812255859375	4.10552978515625E-06	5.67066263101879E-06	336430.5625	6.039085201337E-05
1	182	84.3167157871208	1.37100219726563	1.37115478515625	4.07135009765625E-06	5.58245073989383E-06	336781.375	6.0802591178799E-05
1	183	84.4174237868665	1.36093139648438	1.36077880859375	4.039306640625E-06	5.49660262549878E-06	336884.25	6.1210994317662E-05
1	184	84.5181317866122	1.35086059570313	1.3507080078125	4.00848388671875E-06	5.41429108125158E-06	336962.3125	6.16162360529415E-05
1	185	84.618839786358	1.34078979492188	1.34063720703125	3.98040771484375E-06	5.33628281118581E-06	336809.03125	6.20185091975145E-05
1	186	84.7195477861037	1.33071899414063	1.33087158203125	3.95355224609375E-06	5.26167013958911E-06	336626.8125	6.24180102022365E-05
1	187	84.8202557858494	1.32064819335938	1.32080078125	3.9276123046875E-06	5.18759361511911E-06	336285.9375	6.28148627583869E-05
1	188	84.9209637855952	1.31057739257813	1.3104248046875	3.90106201171875E-06	5.11204825670575E-06	335914.875	6.32090668659657E-05
1	189	85.0216717853409	1.30050659179688	1.3006591796875	3.87481689453125E-06	5.03981573274359E-06	335669.875	6.36006152490154E-05
1	190	85.1223797850867	1.29043579101563	1.29058837890625	3.8494873046875E-06	4.96810343975085E-06	335262.40625	6.39895661151968E-05
1	191	85.2230877848324	1.28036499023438	1.280517578125	3.8250732421875E-06	4.89807371195639E-06	334769.4375	6.43760067760013E-05
1	192	85.3237957845781	1.27029418945313	1.27044677734375	3.80157470703125E-06	4.82969835502445E-06	334189.625	6.47600390948355E-05
1	193	85.4245037843239	1.26022338867188	1.26007080078125	3.7799072265625E-06	4.76295053886133E-06	333360.25	6.51418013148941E-05
1	194	85.5252117840696	1.25015258789063	1.25030517578125	3.75823974609375E-06	4.69894666821347E-06	332683.71875	6.55213734717108E-05
1	195	85.6259197838153	1.24008178710938	1.2396240234375	3.736572265625E-06	4.63194464828121E-06	331754.34375	6.58987701172009E-05
1	196	85.7266277835611	1.23001098632813	1.2298583984375	3.714599609375E-06	4.56843145002495E-06	331087.75	6.62739621475339E-05
1	197	85.8273357833068	1.21994018554688	1.21978759765625	3.69293212890625E-06	4.50459265266545E-06	330303.28125	6.6646964114625E-05
1	198	85.9280437830525	1.20986938476563	1.209716796875	3.67095947265625E-06	4.44082115791389E-06	329536.96875	6.7017761466559E-05
1	199	86.0287517827983	1.19979858398438	1.1993408203125	3.64959716796875E-06	4.37711105405469E-06	328622.78125	6.73863833071664E-05
1	200	86.129459782544	1.18972778320313	1.18927001953125	3.629150390625E-06	4.31603984907269E-06	327699.3125	6.77528951200657E-05
1	201	86.2301677822898	1.17965698242188	1.17950439453125	3.60931396484375E-06	4.25720145358355E-06	326794.625	6.81173842167482E-05
1	202	86.3308757820355	1.16958618164063	1.16943359375	3.58856201171875E-06	4.19658499595243E-06	325878.0625	6.84798214933835E-05
1	203	86.4315837817812	1.15951538085938	1.15936279296875	3.56842041015625E-06	4.13709403801477E-06	324895.25	6.88402069499716E-05
1	204	86.532291781527	1.14944458007813	1.14959716796875	3.54705810546875E-06	4.07768766308436E-06	324098.78125	6.91984969307669E-05
1	205	86.6329997812727	1.13937377929688	1.1395263671875	3.52508544921875E-06	4.01692750529037E-06	323262.0625	6.95546114002354E-05
1	206	86.7337077810184	1.12930297851563	1.12945556640625	3.50433349609375E-06	3.95798861063668E-06	322302.5625	6.99085721862502E-05
1	207	86.8344157807642	1.11923217773438	1.11907958984375	3.4844970703125E-06	3.89942943002097E-06	321159.5625	7.02604884281754E-05
1	208	86.9351237805099	1.10916137695313	1.10931396484375	3.46527099609375E-06	3.84407348974491E-06	320123.28125	7.06104328855872E-05
1	209	87.0358317802556	1.09909057617188	1.09893798828125	3.44696044921875E-06	3.78799563804932E-06	318813.65625	7.09584928699769E-05
1	210	87.1365397800014	1.08901977539063	1.0882568359375	3.42926025390625E-06	3.73191596736433E-06	317344.5	7.13047411409207E-05
1	211	87.2372477797471	1.07894897460938	1.07879638671875	3.41033935546875E-06	3.67906181963917E-06	316331.09375	7.16491413186304E-05
1	212	87.3379557794929	1.06887817382813	1.06964111328125	3.39263916015625E-06	3.62890614269418E-06	315282.90625	7.19916934031062E-05
1	213	87.4386637792386	1.05880737304688	1.0589599609375	3.37554931640625E-06	3.57457156496821E-06	313714.84375	7.23324992577545E-05
1	214	87.5393717789843	1.04873657226563	1.04827880859375	3.35845947265625E-06	3.52060192199133E-06	312130.84375	7.26715879864059E-05
1	215	87.6400797787301	1.03866577148438	1.0382080078125	3.34259033203125E-06	3.47030390912551E-06	310599.84375	7.30090105207637E-05
1	216	87.7407877784758	1.02859497070313	1.0284423828125	3.32733154296875E-06	3.42196881319978E-06	309089.25	7.33448687242344E-05
1	217	87.8414957782215	1.01852416992188	1.01776123046875	3.311767578125E-06	3.37058850163885E-06	307316.65625	7.36791698727757E-05
1	218	87.9422037779673	1.00845336914063	1.0089111328125	3.294677734375E-06	3.32403715219698E-06	306224.53125	7.40118339308538E-05
1	219	88.042911777713	0.998382568359375	0.99884033203125	3.27545166015625E-06	3.27165298585896E-06	304947.375	7.43426644476131E-05
1	220	88.1436197774588	0.988311767578125	0.9881591796875	3.25347900390625E-06	3.21495508615044E-06	303723.84375	7.46714213164523E-05
1	221	88.2443277772045	0.978240966796875	0.9783935546875	3.22784423828125E-06	3.15810189022159E-06	303110.53125	7.49977843952365E-05
1	222	88.3450357769502	0.968170166015625	0.96832275390625	3.1976318359375E-06	3.09633946926624E-06	302824.96875	7.5321331678424E-05
1	223	88.445743776696	0.958099365234375	0.95733642578125	3.16009521484375E-06	3.02527405438013E-06	302945.4375	7.56414738134481E-05
1	224	88.5464517764417	0.948028564453125	0.948486328125	3.1109619140625E-06	2.95070481115545E-06	304885.21875	7.5957243097946E-05
1	225	88.6471597761874	0.937957763671875	0.9381103515625	3.0450439453125E-06	2.8565873435582E-06	308077.78125	7.62672207201831E-05
1	226	88.7478677759332	0.927886962890625	0.92803955078125	2.9571533203125E-06	2.74435524261207E-06	313828.6875	7.65694567235187E-05
1	227	88.8485757756789	0.917816162109375	0.91827392578125	2.8375244140625E-06	2.60562455878244E-06	323618	7.68612444517203E-05
1	228	88.9492837754246	0.907745361328125	0.9075927734375	2.6763916015625E-06	2.42907344727428E-06	339110.625	7.71388877183199E-05
1	229	89.0499917751704	0.897674560546875	0.89813232421875	2.46429443359375E-06	2.21326240534836E-06	364458.21875	7.73977444623597E-05
1	230	89.1506997749161	0.887603759765625	0.887451171875	2.1929931640625E-06	1.94617427951016E-06	404675.75	7.76322558522224E-05
1	231	89.2514077746619	0.877532958984375	0.877685546875	1.856689453125E-06	1.62958951932524E-06	472715.3125	7.78361718403175E-05
1	232	89.3521157744076	0.867462158203125	0.8673095703125	1.46087646484375E-06	1.26703207570245E-06	593691.25	7.80032278271392E-05
1	233	89.4528237741533	0.857391357421875	0.85784912109375	1.01531982421875E-06	8.70991129886534E-07	844905.375	7.81279159127735E-05
1	234	89.5535317738991	0.847320556640625	0.84716796875	5.4656982421875E-07	4.63036457176713E-07	1549972.125	7.82065617386252E-05
1	235	89.6542397736448	0.837249755859375	0.83770751953125	8.33129882812506E-08	6.97919091408039E-08	10054946	7.82382776378654E-05
1	236	89.7549477733905	0.827178955078125	0.82733154296875	-3.3905029296875E-07	-2.80506981198414E-07	-2440144.25	7.82253991928883E-05
1	237	89.8556557731363	0.817108154296875	0.8172607421875	-6.8939208984375E-07	-5.63413095733267E-07	-1185480.25	7.81736162025481E-05
1	238	89.956363772882	0.807037353515625	0.80718994140625	-9.40856933593751E-07	-7.59450244913751E-07	-857930.625	7.80915288487449E-05
1	239	90.0570717726278	0.796966552734375	0.797119140625	-1.08978271484375E-06	-8.68686640842498E-07	-731447.8125	7.79892725404352E-05
1	240	90.1577797723735	0.786895751953125	0.787353515625	-1.143798828125E-06	-9.00574036677426E-07	-688367.125	7.78768080635928E-05
1	241	90.2584877721192	0.776824951171875	0.77667236328125	-1.12884521484375E-06	-8.76742831223964E-07	-688023.8125	7.77623645262793E-05
1	242	90.359195771865	0.766754150390625	0.7666015625	-1.07574462890625E-06	-8.24667552024039E-07	-712624.125	7.76513552409597E-05
1	243	90.4599037716107	0.756683349609375	0.7568359375	-1.01531982421875E-06	-7.68430481912219E-07	-745416.3125	7.75460648583248E-05
1	244	90.5606117713564	0.746612548828125	0.746490478515625	-9.716796875E-07	-7.25349650565477E-07	-768247.5	7.74460131651722E-05
1	245	90.6613197711022	0.736541748046875	0.736419677734375	-9.6466064453125E-07	-7.10395113401319E-07	-763397.625	7.73485080571845E-05
1	246	90.7620277708479	0.726470947265625	0.726348876953125	-1.01165771484375E-06	-7.34816410385974E-07	-717978.9375	7.72489947848953E-05
1	247	90.8627357705936	0.716400146484375	0.716339111328125	-1.12823486328125E-06	-8.08198763024848E-07	-634920.1875	7.71412378526293E-05
1	248	90.9634437703394	0.706329345703125	0.706298828125	-1.322021484375E-06	-9.33742228426127E-07	-534256.6875	7.70178594393656E-05
1	249	91.0641517700851	0.696258544921875	0.6961669921875	-1.5936279296875E-06	-1.10943108211359E-06	-436844.125	7.68710451666266E-05
1	250	91.1648597698309	0.686187744140625	0.68609619140625	-1.92901611328125E-06	-1.32349055093073E-06	-355671.59375	7.66936645959504E-05
1	251	91.2655677695766	0.676116943359375	0.676025390625	-2.30499267578125E-06	-1.55823352088191E-06	-293287.4375	7.64804644859396E-05
1	252	91.3662757693223	0.666046142578125	0.666046142578125	-2.68707275390625E-06	-1.78971447439835E-06	-247870.53125	7.62290947022848E-05
1	253	91.4669837690681	0.655975341796875	0.656005859375	-3.035888671875E-06	-1.99156056623906E-06	-216083.640625	7.59409231250174E-05
1	254	91.5676917688138	0.645904541015625	0.645904541015625	-3.31451416015625E-06	-2.1408595785033E-06	-194871.5625	7.56211520638317E-05
1	255	91.6683997685595	0.635833740234375	0.63580322265625	-3.494873046875E-06	-2.22205153477262E-06	-181924.5625	7.52782725612633E-05
1	256	91.7691077683053	0.625762939453125	0.62579345703125	-3.5650634765625E-06	-2.23099345930677E-06	-175535.015625	7.49227765481919E-05
1	257	91.869815768051	0.615692138671875	0.615692138671875	-3.53363037109375E-06	-2.1756284240837E-06	-174237.859375	7.45653305784799E-05
1	258	91.9705237677967	0.605621337890625	0.6055908203125	-3.42132568359375E-06	-2.07192329071404E-06	-177004.734375	7.4215124186594E-05
1	259	92.0712317675425	0.595550537109375	0.59552001953125	-3.25897216796875E-06	-1.9407832496654E-06	-182732.46875	7.38787421141751E-05
1	260	92.1719397672882	0.585479736328125	0.58544921875	-3.0731201171875E-06	-1.79915571152378E-06	-190506.453125	7.35598950996064E-05
1	261	92.272647767034	0.575408935546875	0.57537841796875	-2.879638671875E-06	-1.65688186370971E-06	-199809.25	7.32601474737749E-05
1	262	92.3733557667797	0.565338134765625	0.565338134765625	-2.6934814453125E-06	-1.52272764353256E-06	-209891.25	7.29795210645534E-05
1	263	92.4740637665254	0.555267333984375	0.55523681640625	-2.51953125E-06	-1.39893643336109E-06	-220373.078125	7.27170263417065E-05
1	264	92.5747717662712	0.545196533203125	0.545196533203125	-2.36053466796875E-06	-1.28695523926581E-06	-230963.15625	7.24712954252027E-05
1	265	92.6754797660169	0.535125732421875	0.535125732421875	-2.2174072265625E-06	-1.1865917031173E-06	-241329.484375	7.22407785360701E-05
1	266	92.7761877657626	0.525054931640625	0.525054931640625	-2.0892333984375E-06	-1.09696225081279E-06	-251314.65625	7.20239186193794E-05
1	267	92.8768957655084	0.514984130859375	0.514984130859375	-1.97418212890625E-06	-1.01667251328763E-06	-260859.484375	7.18193114153109E-05
1	268	92.9776037652541	0.504913330078125	0.5048828125	-1.87103271484375E-06	-9.44652185808081E-07	-269841.8125	7.16256909072399E-05
1	269	93.0783117649999	0.494842529296875	0.494903564453125	-1.77734375E-06	-8.79613764936948E-07	-278451.25	7.14419802534394E-05
1	270	93.1790197647456	0.484771728515625	0.48468017578125	-1.69281005859375E-06	-8.20471427687153E-07	-286316.9375	7.12672408553772E-05
1	271	93.2797277644913	0.474700927734375	0.474761962890625	-1.61651611328125E-06	-7.67460335282522E-07	-293694.53125	7.11006068740971E-05
1	272	93.3804357642371	0.464630126953125	0.464630126953125	-1.549072265625E-06	-7.19745628430246E-07	-299940.90625	7.09412051946856E-05
1	273	93.4811437639828	0.454559326171875	0.45452880859375	-1.48681640625E-06	-6.75800890803657E-07	-305706.09375	7.07883373252116E-05
1	274	93.5818517637285	0.444488525390625	0.444427490234375	-1.42974853515625E-06	-6.35419553418615E-07	-310843.125	7.06414721207693E-05
1	275	93.6825597634743	0.434417724609375	0.4344482421875	-1.376953125E-06	-5.98214853653189E-07	-315514.21875	7.05001439200714E-05
1	276	93.78326776322	0.424346923828125	0.424346923828125	-1.32781982421875E-06	-5.63456239888183E-07	-319581.71875	7.03639525454491E-05
1	277	93.8839757629657	0.414276123046875	0.414215087890625	-1.28204345703125E-06	-5.31041735030158E-07	-323089.75	7.02325341990218E-05
1	278	93.9846837627115	0.404205322265625	0.404266357421875	-1.2396240234375E-06	-5.01138288200309E-07	-326120.15625	7.0105554186739E-05
1	279	94.0853917624572	0.394134521484375	0.39410400390625	-1.199951171875E-06	-4.72905554715908E-07	-328433.375	6.99827141943388E-05
1	280	94.186099762203	0.384063720703125	0.384063720703125	-1.16363525390625E-06	-4.4691009293274E-07	-330055.0625	6.98637013556436E-05
1	281	94.2868077619487	0.373992919921875	0.373992919921875	-1.12884521484375E-06	-4.2218010776196E-07	-331305.78125	6.97482610121369E-05
1	282	94.3875157616944	0.363922119140625	0.36395263671875	-1.09649658203125E-06	-3.990728316694E-07	-331923.1875	6.96362112648785E-05
1	283	94.4882237614402	0.353851318359375	0.353912353515625	-1.0650634765625E-06	-3.76939112811669E-07	-332292.28125	6.95273629389703E-05
1	284	94.5889317611859	0.343780517578125	0.34381103515625	-1.03515625E-06	-3.55898123416409E-07	-332134.46875	6.94216141710058E-05
1	285	94.6896397609316	0.333709716796875	0.333709716796875	-1.005859375E-06	-3.35665021111708E-07	-331765.8125	6.93188412697054E-05
1	286	94.7903477606774	0.323638916015625	0.323638916015625	-9.796142578125E-07	-3.17041298103504E-07	-330373.84375	6.9218862336129E-05
1	287	94.8910557604231	0.313568115234375	0.3135986328125	-9.5428466796875E-07	-2.992623535647E-07	-328621.71875	6.91214809194207E-05
1	288	94.9917637601689	0.303497314453125	0.30352783203125	-9.3109130859375E-07	-2.82612120372505E-07	-325991.5	6.90265442244709E-05
1	289	95.0924717599146	0.293426513671875	0.293426513671875	-9.09423828125E-07	-2.66849070840181E-07	-322651	6.8933870352339E-05
1	290	95.1931797596603	0.283355712890625	0.2833251953125	-8.8958740234375E-07	-2.52042525517027E-07	-318490.5625	6.88432774040848E-05
1	291	95.2938877594061	0.273284912109375	0.2733154296875	-8.7005615234375E-07	-2.37799753222134E-07	-314135.40625	6.87546780682169E-05
1	292	95.3945957591518	0.263214111328125	0.263275146484375	-8.52050781249999E-07	-2.2432378443682E-07	-308990	6.86679632053711E-05
1	293	95.4953037588975	0.253143310546875	0.25311279296875	-8.349609375E-07	-2.1133929806183E-07	-303143.28125	6.85830164002255E-05
1	294	95.5960117586433	0.243072509765625	0.2431640625	-8.2000732421875E-07	-1.99396311018063E-07	-296538.90625	6.84996775817126E-05
1	295	95.696719758389	0.233001708984375	0.2330322265625	-8.074951171875E-07	-1.8817237901203E-07	-288586.5625	6.84177284711041E-05
1	296	95.7974277581347	0.222930908203125	0.222900390625	-7.9620361328125E-07	-1.77474092311058E-07	-279954	6.83369726175442E-05
1	297	95.8981357578805	0.212860107421875	0.212890625	-7.8643798828125E-07	-1.67425270092281E-07	-270702.375	6.82572790537961E-05
1	298	95.9988437576262	0.202789306640625	0.202850341796875	-7.781982421875E-07	-1.57857769522707E-07	-260666.671875	6.81784949847497E-05
1	299	96.099551757372	0.192718505859375	0.192718505859375	-7.7056884765625E-07	-1.48502877550527E-07	-250099.015625	6.81005112710409E-05
1	300	96.2002597571177	0.182647705078125	0.1826171875	-7.647705078125E-07	-1.39660244258266E-07	-238786.90625	6.80231969454326E-05
1	301	96.3009677568634	0.172576904296875	0.172576904296875	-7.60803222656251E-07	-1.31297056782387E-07	-226835.15625	6.7946377384942E-05
1	302	96.4016757566092	0.162506103515625	0.162567138671875	-7.60498046875E-07	-1.23631991755246E-07	-213764.046875	6.78697761031799E-05
1	303	96.5023837563549	0.152435302734375	0.15252685546875	-7.62939453125E-07	-1.16368745750606E-07	-199920.015625	6.77930656820536E-05
1	304	96.6030917561006	0.142364501953125	0.142425537109375	-7.69653320312499E-07	-1.09618284227508E-07	-185051.546875	6.77158968755975E-05
1	305	96.7037997558464	0.132293701171875	0.132354736328125	-7.80029296875E-07	-1.03240566318163E-07	-169679.1875	6.76378622301854E-05
1	306	96.8045077555921	0.122222900390625	0.12225341796875	-7.95898437500001E-07	-9.7301303014774E-08	-153604.296875	6.75585106364451E-05
1	307	96.9052157553378	0.112152099609375	0.1121826171875	-8.1939697265625E-07	-9.1922096601138E-08	-136908.75	6.74771727062762E-05
1	308	97.0059237550836	0.102081298828125	0.102142333984375	-8.50524902343749E-07	-8.68745999582643E-08	-120093.2890625	6.73930844641291E-05
1	309	97.1066317548293	0.092010498046875	0.092041015625	-8.941650390625E-07	-8.22998558192012E-08	-102935.15625	6.73052345518954E-05
1	310	97.2073397545751	0.081939697265625	0.082000732421875	-9.5245361328125E-07	-7.81018911766296E-08	-86094.203125	6.72122478135861E-05
1	311	97.3080477543208	0.071868896484375	0.071868896484375	-1.02935791015625E-06	-7.39788177384071E-08	-69819.1484375	6.711245077895E-05
1	312	97.4087557540665	0.061798095703125	0.06182861328125	-1.1297607421875E-06	-6.98515378871889E-08	-54727.17578125	6.70037334202789E-05
1	313	97.5094637538123	0.051727294921875	0.051788330078125	-1.258544921875E-06	-6.51779359372995E-08	-41149.37109375	6.68834763928317E-05
1	314	97.610171753558	0.041656494140625	0.041778564453125	-1.41571044921875E-06	-5.91463447108254E-08	-29510.671875	6.67488129693083E-05
1	315	97.7108797533037	0.031585693359375	0.031689453125	-1.6015625E-06	-5.07526394244451E-08	-19786.5859375	6.65968836983666E-05
1	316	97.8115877530495	0.021514892578125	0.021612548828125	-1.8048095703125E-06	-3.90065331146161E-08	-11974.9755859375	6.64253602735698E-05
1	317	97.9122957527952	0.011444091796875	0.0115386962890625	-2.01263427734375E-06	-2.32231762709034E-08	-5733.13134765625	6.62331367493607E-05
1	318	98.013003752541	0.001373291015625	0.00145263671875	-2.2039794921875E-06	-3.20158122235625E-09	-659.097229003906	6.60208097542636E-05
1	319	98.1137117522867	-0.008697509765625	-0.008587646484375	-2.3590087890625E-06	2.02583319008909E-08	3640.3623046875	6.57910495647229E-05
1	320	98.2144197520324	-0.018768310546875	-0.0186431884765625	-2.4639892578125E-06	4.59366162885999E-08	7566.2626953125	6.55481853755191E-05
1	321	98.3151277517782	-0.028839111328125	-0.0287506103515625	-2.515869140625E-06	7.23327673313179E-08	11427.705078125	6.52974340482615E-05
1	322	98.4158357515239	-0.038909912109375	-0.03878173828125	-2.5201416015625E-06	9.77354730480329E-08	15388.71484375	6.5043852373492E-05
1	323	98.5165437512696	-0.048980712890625	-0.048822021484375	-2.48870849609375E-06	1.21503774153098E-07	19617.4140625	6.47916313027963E-05
1	324	98.6172517510154	-0.059051513671875	-0.05902099609375	-2.43560791015625E-06	1.43752004078124E-07	24232.552734375	6.45436739432625E-05
1	325	98.7179597507611	-0.069122314453125	-0.069061279296875	-2.37060546875E-06	1.63717047030332E-07	29132.337890625	6.43016610410996E-05
1	326	98.8186677505068	-0.079193115234375	-0.07916259765625	-2.3040771484375E-06	1.8239671817355E-07	34357.6171875	6.40662765363231E-05
1	327	98.9193757502526	-0.089263916015625	-0.089111328125	-2.2381591796875E-06	1.9944533846683E-07	39814.5625	6.38375568087213E-05
1	328	99.0200837499983	-0.099334716796875	-0.0992431640625	-2.1771240234375E-06	2.1606466305002E-07	45584.52734375	6.36152253719047E-05
1	329	99.1207917497441	-0.109405517578125	-0.109344482421875	-2.12005615234375E-06	2.318164291637E-07	51576.22265625	6.33988456684165E-05
1	330	99.2214997494898	-0.119476318359375	-0.11932373046875	-2.06939697265625E-06	2.46928152591863E-07	57661.11328125	6.31878938293085E-05
1	331	99.3222077492355	-0.129547119140625	-0.129486083984375	-2.02423095703125E-06	2.62109750792661E-07	63968.0390625	6.2981758674141E-05
1	332	99.4229157489813	-0.139617919921875	-0.13946533203125	-1.98577880859375E-06	2.76947275779094E-07	70232.0625	6.27798435743898E-05
1	333	99.523623748727	-0.149688720703125	-0.14959716796875	-1.9537353515625E-06	2.92273284685507E-07	76569.8203125	6.25814718659967E-05
1	334	99.6243317484727	-0.159759521484375	-0.159576416015625	-1.92596435546875E-06	3.07338495986187E-07	82855.328125	6.23861124040559E-05
1	335	99.7250397482185	-0.169830322265625	-0.169769287109375	-1.90399169921875E-06	3.23239305544121E-07	89164.9296875	6.21932558715343E-05
1	336	99.8257477479642	-0.179901123046875	-0.179779052734375	-1.88629150390625E-06	3.39115700853654E-07	95308.203125	6.20024002273567E-05
1	337	99.92645574771	-0.189971923828125	-0.189910888671875	-1.87225341796875E-06	3.5556129773795E-07	101434.390625	6.18131452938542E-05
1	338	100.027163747456	-0.200042724609375	-0.19989013671875	-1.86309814453125E-06	3.72414916682828E-07	107289.109375	6.16250545135699E-05
1	339	100.127871747201	-0.189971923828125	-0.1898193359375	-1.6534423828125E-06	3.13855338163194E-07	114802.5078125	6.14479795331135E-05
2	340	100.228579746947	-0.179901123046875	-0.1798095703125	-1.50421142578125E-06	2.70471588237342E-07	119537.4375	6.12889853073284E-05
2	341	100.329287746693	-0.169830322265625	-0.169708251953125	-1.383056640625E-06	2.34716125646628E-07	122705.203125	6.11435971222818E-05
2	342	100.429995746439	-0.159759521484375	-0.159637451171875	-1.280517578125E-06	2.04418554972108E-07	124666.359375	6.10094757576007E-05
2	343	100.530703746184	-0.149688720703125	-0.1495361328125	-1.1895751953125E-06	1.77884473373524E-07	125705.4921875	6.08850969001651E-05
2	344	100.63141174593	-0.139617919921875	-0.1395263671875	-1.107177734375E-06	1.54480474634511E-07	126019.8515625	6.07694455538876E-05
2	345	100.732119745676	-0.129547119140625	-0.12945556640625	-1.0308837890625E-06	1.33453639250547E-07	125577.2734375	6.06617868470494E-05
2	346	100.832827745422	-0.119476318359375	-0.119384765625	-9.5947265625E-07	1.14546423901629E-07	124427.4765625	6.05615641688928E-05
2	347	100.933535745167	-0.109405517578125	-0.10931396484375	-8.9019775390625E-07	9.73110445556813E-08	122797.3984375	6.04684246354736E-05
2	348	101.034243744913	-0.099334716796875	-0.099273681640625	-8.23059082031249E-07	8.17081016180055E-08	120615.5	6.03821572440211E-05
2	349	101.134951744659	-0.089263916015625	-0.08917236328125	-7.5347900390625E-07	6.7189496633091E-08	118347.515625	6.03027692704927E-05
2	350	101.235659744405	-0.079193115234375	-0.0791015625	-6.787109375E-07	5.3687095658006E-08	116546.765625	6.02306536165997E-05
2	351	101.33636774415	-0.069122314453125	-0.069000244140625	-5.9417724609375E-07	4.09983726967766E-08	116127.3828125	6.01665597059764E-05
2	352	101.437075743896	-0.059051513671875	-0.058990478515625	-4.94995117187499E-07	2.91999988633052E-08	119173.859375	6.01117135374807E-05
2	353	101.537783743642	-0.048980712890625	-0.048809814453125	-3.7567138671875E-07	1.83364505801364E-08	129926.890625	6.00678722548764E-05
2	354	101.638491743387	-0.038909912109375	-0.0388031005859375	-2.3162841796875E-07	8.98790020187334E-09	167523.0625	6.00372950430028E-05
2	355	101.739199743133	-0.028839111328125	-0.0286834716796875	-5.79833984375E-08	1.66316516114762E-09	494684.25	6.00227103859652E-05
2	356	101.839907742879	-0.018768310546875	-0.0186614990234375	1.4678955078125E-07	-2.73931299865637E-09	-127130.984375	6.00271814619191E-05
2	357	101.940615742625	-0.008697509765625	-0.0085784912109375	3.753662109375E-07	-3.22007576158967E-09	-22853.66015625	6.0053473134758E-05
2	358	102.04132374237	0.001373291015625	0.00146484375	6.17370605468751E-07	9.04351427077899E-10	2372.7138671875	6.01034626015462E-05
2	359	102.142031742116	0.011444091796875	0.0115386962890625	8.55102539062499E-07	9.86676873537817E-09	13493.9326171875	6.01776082476135E-05
2	360	102.242739741862	0.021514892578125	0.0216400146484375	1.06597900390625E-06	2.30678001145179E-08	20300.6015625	6.02743421040941E-05
2	361	102.343447741608	0.031585693359375	0.0316650390625	1.23260498046875E-06	3.90304819575249E-08	25689.52734375	6.03900843998417E-05
2	362	102.444155741353	0.041656494140625	0.0417572021484375	1.3446044921875E-06	5.61469235549339E-08	31055.380859375	6.05198583798483E-05
2	363	102.544863741099	0.051727294921875	0.05181884765625	1.39984130859375E-06	7.25381639199441E-08	37017.66015625	6.06580506428145E-05
2	364	102.645571740845	0.061798095703125	0.061798095703125	1.40899658203125E-06	8.70733032343196E-08	43859.6484375	6.07994879828766E-05
2	365	102.746279740591	0.071868896484375	0.071929931640625	1.38458251953125E-06	9.95929241298654E-08	51950.6328125	6.09401540714316E-05
2	366	102.846987740336	0.081939697265625	0.08197021484375	1.341552734375E-06	1.09967359662733E-07	61101.00390625	6.10774295637384E-05
2	367	102.947695740082	0.092010498046875	0.092041015625	1.2884521484375E-06	1.18590442355071E-07	71435.3359375	6.12098592682742E-05
2	368	103.048403739828	0.102081298828125	0.102081298828125	1.23443603515625E-06	1.26012835721667E-07	82694.6875	6.13368974882178E-05
2	369	103.149111739574	0.112152099609375	0.112152099609375	1.1822509765625E-06	1.32591921442327E-07	94863.1953125	6.1458587879315E-05
2	370	103.249819739319	0.122222900390625	0.12225341796875	1.134033203125E-06	1.38639421720654E-07	107804.09375	6.15752214798704E-05
2	371	103.350527739065	0.132293701171875	0.132293701171875	1.09039306640625E-06	1.44252140898971E-07	121326.6171875	6.16872275713831E-05
2	372	103.451235738811	0.142364501953125	0.142425537109375	1.0516357421875E-06	1.49779793900962E-07	135432.375	6.17950863670558E-05
2	373	103.551943738556	0.152435302734375	0.152496337890625	1.01776123046875E-06	1.55204858742763E-07	149835.09375	6.18992926320061E-05
2	374	103.652651738302	0.162506103515625	0.162567138671875	9.8876953125E-07	1.60741436161516E-07	164413.578125	6.20003265794367E-05
2	375	103.753359738048	0.172576904296875	0.172607421875	9.6466064453125E-07	1.66507589938192E-07	178930.71875	6.20986902504228E-05
2	376	103.854067737794	0.182647705078125	0.182647705078125	9.43908691406251E-07	1.72402749853973E-07	193501.453125	6.21947983745486E-05
2	377	103.954775737539	0.192718505859375	0.192779541015625	9.2620849609375E-07	1.7855404621514E-07	208138.390625	6.22889638179913E-05
2	378	104.055483737285	0.202789306640625	0.20281982421875	9.10339355468751E-07	1.84634870947775E-07	222795.84375	6.23814412392676E-05
2	379	104.156191737031	0.212860107421875	0.21282958984375	8.96301269531249E-07	1.90759422480369E-07	237453.1875	6.24724125373177E-05
2	380	104.256899736777	0.222930908203125	0.222930908203125	8.84094238281249E-07	1.9709192145001E-07	252157.40625	6.25620596110821E-05
2	381	104.357607736522	0.233001708984375	0.233001708984375	8.72802734375E-07	2.03364521667027E-07	266958.03125	6.26505279797129E-05
2	382	104.458315736268	0.243072509765625	0.243072509765625	8.642578125E-07	2.10077317319701E-07	281250	6.27379995421506E-05
2	383	104.559023736014	0.253143310546875	0.253143310546875	8.563232421875E-07	2.16772491512529E-07	295616.5625	6.28246343694627E-05
2	384	104.65973173576	0.263214111328125	0.263153076171875	8.49304199218751E-07	2.23497011120344E-07	309845.5	6.29105197731405E-05
2	385	104.760439735505	0.273284912109375	0.273284912109375	8.428955078125E-07	2.30350622132391E-07	324221.59375	6.29957285127603E-05
2	386	104.861147735251	0.283355712890625	0.2833251953125	8.3740234375E-07	2.37257168578253E-07	338338.21875	6.30803406238556E-05
2	387	104.961855734997	0.293426513671875	0.29345703125	8.319091796875E-07	2.44129608972798E-07	352751.28125	6.31643924862146E-05
2	388	105.062563734743	0.303497314453125	0.303466796875	8.270263671875E-07	2.5097503453253E-07	366937.28125	6.32479277555831E-05
2	389	105.163271734488	0.313568115234375	0.313568115234375	8.2275390625E-07	2.57989370311407E-07	381120.1875	6.33310046396218E-05
2	390	105.263979734234	0.323638916015625	0.32366943359375	8.2000732421875E-07	2.65411301825225E-07	394715.3125	6.34137250017375E-05
2	391	105.36468773398	0.333709716796875	0.333740234375	8.1817626953125E-07	2.73058333277731E-07	407907.5	6.34962125332095E-05
2	392	105.465395733725	0.343780517578125	0.343780517578125	8.1695556640625E-07	2.80853413414661E-07	420806.875	6.35785472695716E-05
2	393	105.566103733471	0.353851318359375	0.353912353515625	8.15734863281251E-07	2.88698629447026E-07	433857.09375	6.36607583146542E-05
2	394	105.666811733217	0.363922119140625	0.364013671875	8.148193359375E-07	2.96605378480308E-07	446741.59375	6.37428674963303E-05
2	395	105.767519732963	0.373992919921875	0.3740234375	8.1451416015625E-07	3.04647386428769E-07	459198.21875	6.38249039184302E-05
2	396	105.868227732708	0.384063720703125	0.384033203125	8.15734863281251E-07	3.13269254093029E-07	470781.90625	6.3906998548191E-05
2	397	105.968935732454	0.394134521484375	0.394195556640625	8.1695556640625E-07	3.22040250466671E-07	482517.75	6.39892095932737E-05
2	398	106.0696437322	0.404205322265625	0.4041748046875	8.1939697265625E-07	3.3117962061624E-07	493258.84375	6.40716098132543E-05
2	399	106.170351731946	0.414276123046875	0.414337158203125	8.2275390625E-07	3.40897486239555E-07	503597.9375	6.41542937955819E-05
2	400	106.271059731691	0.424346923828125	0.42437744140625	8.26416015625001E-07	3.50712298313738E-07	513515.53125	6.42373342998326E-05
2	401	106.371767731437	0.434417724609375	0.4344482421875	8.28857421875E-07	3.60095640417057E-07	524153.15625	6.43206876702607E-05
2	402	106.472475731183	0.444488525390625	0.444488525390625	8.3160400390625E-07	3.69638428310282E-07	534495.4375	6.44042956992052E-05
2	403	106.573183730929	0.454559326171875	0.45458984375	8.349609375E-07	3.79564767172269E-07	544444.4375	6.44882165943272E-05
2	404	106.673891730674	0.464630126953125	0.464691162109375	8.38623046875001E-07	3.89700687719596E-07	554112.125	6.45724867354147E-05
2	405	106.77459973042	0.474700927734375	0.47467041015625	8.4381103515625E-07	4.00532115918395E-07	562531.6875	6.46572079858743E-05
2	406	106.875307730166	0.484771728515625	0.484710693359375	8.489990234375E-07	4.1151889718094E-07	570920.25	6.47424458293244E-05
2	407	106.976015729912	0.494842529296875	0.494781494140625	8.5601806640625E-07	4.23541905547609E-07	578003.5625	6.48283021291718E-05
2	408	107.076723729657	0.504913330078125	0.504913330078125	8.6334228515625E-07	4.35913023011381E-07	584835.625	6.4914878748823E-05
2	409	107.177431729403	0.514984130859375	0.51495361328125	8.72192382812501E-07	4.49138610747468E-07	590412.875	6.50022702757269E-05
2	410	107.278139729149	0.525054931640625	0.524993896484375	8.82568359375E-07	4.6334298531292E-07	594847.875	6.50906295049936E-05
2	411	107.378847728894	0.535125732421875	0.53509521484375	8.9752197265625E-07	4.80259700452734E-07	596191.8125	6.51802620268427E-05
2	412	107.47955572864	0.545196533203125	0.545135498046875	9.17663574218749E-07	5.00250962431892E-07	594047.25	6.52716626063921E-05
2	413	107.580263728386	0.555267333984375	0.55523681640625	9.4635009765625E-07	5.25448399457673E-07	586713.9375	6.5365522459615E-05
2	414	107.680971728132	0.565338134765625	0.565338134765625	9.86328124999999E-07	5.57608927920228E-07	573174.5	6.54628383927047E-05
2	415	107.781679727877	0.575408935546875	0.575408935546875	1.043701171875E-06	6.00554926677432E-07	551315.8125	6.55650583212264E-05
2	416	107.882387727623	0.585479736328125	0.585479736328125	1.12518310546875E-06	6.58771909911593E-07	520341.75	6.56742704450153E-05
2	417	107.983095727369	0.595550537109375	0.595611572265625	1.24114990234375E-06	7.39243262160016E-07	479886.90625	6.57934288028628E-05
2	418	108.083803727115	0.605621337890625	0.605560302734375	1.400146484375E-06	8.478730819661E-07	432497.84375	6.59264260320924E-05
2	419	108.18451172686	0.615692138671875	0.61566162109375	1.61468505859375E-06	9.94099650597491E-07	381288.96875	6.60782388877124E-05
2	420	108.285219726606	0.625762939453125	0.625762939453125	1.89422607421875E-06	1.18533637305518E-06	330352.84375	6.62549209664576E-05
2	421	108.385927726352	0.635833740234375	0.63580322265625	2.2442626953125E-06	1.42690930715617E-06	283301.625	6.64633116684854E-05
2	422	108.486635726098	0.645904541015625	0.645843505859375	2.65869140625E-06	1.71709848473256E-06	242917.828125	6.67101994622499E-05
2	423	108.587343725843	0.655975341796875	0.65594482421875	3.12408447265625E-06	2.0492268504313E-06	209963.875	6.70013832859695E-05
2	424	108.688051725589	0.666046142578125	0.665985107421875	3.61602783203125E-06	2.40822055275203E-06	184175.890625	6.73407776048407E-05
2	425	108.788759725335	0.676116943359375	0.676025390625	4.100341796875E-06	2.77193521469599E-06	164870.5	6.77293282933533E-05
2	426	108.889467725081	0.686187744140625	0.686126708984375	4.54071044921875E-06	3.11550275000627E-06	151105.578125	6.81644378346391E-05
2	427	108.990175724826	0.696258544921875	0.6961669921875	4.9041748046875E-06	3.41412442139699E-06	141953.953125	6.86400235281326E-05
2	428	109.090883724572	0.706329345703125	0.70623779296875	5.16357421875E-06	3.64671132047079E-06	136773.046875	6.91469758749008E-05
2	429	109.191591724318	0.716400146484375	0.7161865234375	5.303955078125E-06	3.79862103727646E-06	135028.78125	6.96740607963875E-05
2	430	109.292299724063	0.726470947265625	0.726318359375	5.3375244140625E-06	3.87674208468525E-06	136077.765625	7.0209898694884E-05
2	431	109.393007723809	0.736541748046875	0.736358642578125	5.2947998046875E-06	3.89887145502144E-06	139072.046875	7.07452782080509E-05
2	432	109.493715723555	0.746612548828125	0.746429443359375	5.21240234375E-06	3.89069055017899E-06	143202.578125	7.12743567419238E-05
2	433	109.594423723301	0.756683349609375	0.75714111328125	5.1239013671875E-06	3.87951649827301E-06	147766.53125	7.17948350938968E-05
2	434	109.695131723046	0.766754150390625	0.7672119140625	5.0567626953125E-06	3.87960835723788E-06	151719.984375	7.23074699635617E-05
2	435	109.795839722792	0.776824951171875	0.77728271484375	5.0384521484375E-06	3.91630146623356E-06	154270.140625	7.28158047422767E-05
2	436	109.896547722538	0.786895751953125	0.787353515625	5.0872802734375E-06	4.00548788093147E-06	154769.0625	7.33256747480482E-05
2	437	109.997255722284	0.796966552734375	0.79681396484375	5.21240234375E-06	4.15331487602089E-06	152868.859375	7.38443050067872E-05
2	438	110.097963722029	0.807037353515625	0.806884765625	5.419921875E-06	4.37325252278242E-06	148873.875	7.4379684519954E-05
2	439	110.198671721775	0.817108154296875	0.81756591796875	5.70068359375E-06	4.66068422610988E-06	143415.421875	7.49396494938992E-05
2	440	110.299379721521	0.827178955078125	0.82733154296875	6.0455322265625E-06	5.00165970152011E-06	136850.078125	7.55311193643138E-05
2	441	110.400087721267	0.837249755859375	0.83709716796875	6.4239501953125E-06	5.37747064299765E-06	130308.7890625	7.6159012678545E-05
2	442	110.500795721012	0.847320556640625	0.84747314453125	6.79931640625E-06	5.76223828829825E-06	124640.9296875	7.68248573876917E-05
2	443	110.601503720758	0.857391357421875	0.8575439453125	7.1319580078125E-06	6.11596715316409E-06	120239.625	7.75263470131904E-05
2	444	110.702211720504	0.867462158203125	0.86761474609375	7.3944091796875E-06	6.41549831925659E-06	117333.890625	7.82578063081019E-05
2	445	110.80291972025	0.877532958984375	0.87799072265625	7.55615234375E-06	6.63423134028562E-06	116195.484375	7.90106278145686E-05
2	446	110.903627719995	0.887603759765625	0.88836669921875	7.6019287109375E-06	6.75330011290498E-06	116860.6953125	7.97738975961693E-05
2	447	111.004335719741	0.897674560546875	0.8978271484375	7.5439453125E-06	6.77315892971819E-06	119012.9453125	8.05365561973304E-05
2	448	111.105043719487	0.907745361328125	0.90789794921875	7.4066162109375E-06	6.72445139571209E-06	122579.3203125	8.12893777037971E-05
2	449	111.205751719232	0.917816162109375	0.91796875	7.2235107421875E-06	6.63095715935924E-06	127080.6953125	8.20260611362755E-05
2	450	111.306459718978	0.927886962890625	0.927734375	7.01904296875E-06	6.51180698696407E-06	132173.921875	8.27432304504327E-05
2	451	111.407167718724	0.937957763671875	0.9381103515625	6.8145751953125E-06	6.39282325209933E-06	137662.34375	8.34398088045418E-05
2	452	111.50787571847	0.948028564453125	0.9478759765625	6.6192626953125E-06	6.27423969490337E-06	143199.640625	8.41162545839325E-05
2	453	111.608583718215	0.958099365234375	0.958251953125	6.4361572265625E-06	6.16746001469437E-06	148885.734375	8.47736519062892E-05
2	454	111.709291717961	0.968170166015625	0.96832275390625	6.268310546875E-06	6.06974754191469E-06	154479.078125	8.54133686516434E-05
2	455	111.809999717707	0.978240966796875	0.97808837890625	6.11572265625E-06	5.98171709498274E-06	159930.140625	8.6036954598967E-05
2	456	111.910707717453	0.988311767578125	0.98846435546875	5.9783935546875E-06	5.90942863709643E-06	165339.46875	8.66459449753165E-05
2	457	112.011415717198	0.998382568359375	0.9979248046875	5.8563232421875E-06	5.84417011850746E-06	170401.25	8.7241867731791E-05
2	458	112.112123716944	1.00845336914063	1.00830078125	5.7464599609375E-06	5.79416018808843E-06	175464.6875	8.78261125762947E-05
2	459	112.21283171669	1.01852416992188	1.01837158203125	5.6488037109375E-06	5.75258081880747E-06	180280.9375	8.83999091456644E-05
2	460	112.313539716436	1.02859497070313	1.0284423828125	5.560302734375E-06	5.71845112062874E-06	184961.578125	8.89643342816271E-05
2	461	112.414247716181	1.03866577148438	1.03851318359375	5.48095703125E-06	5.69204621569952E-06	189476.609375	8.95203047548421E-05
2	462	112.514955715927	1.04873657226563	1.048583984375	5.4107666015625E-06	5.6736430451565E-06	193795.828125	9.0068751887884E-05
2	463	112.615663715673	1.05880737304688	1.0589599609375	5.3466796875E-06	5.66191965845064E-06	198059.359375	9.06104323803447E-05
2	464	112.716371715419	1.06887817382813	1.06903076171875	5.2886962890625E-06	5.65377877137507E-06	202135.03125	9.11459646886215E-05
2	465	112.817079715164	1.07894897460938	1.07879638671875	5.23681640625E-06	5.64945867154165E-06	206002.328125	9.16759672691114E-05
2	466	112.91778771491	1.08901977539063	1.08917236328125	5.1910400390625E-06	5.65393702345318E-06	209817.765625	9.22010513022542E-05
2	467	113.018495714656	1.09909057617188	1.09893798828125	5.1513671875E-06	5.66103290111641E-06	213329.390625	9.27218279684894E-05
2	468	113.119203714401	1.10916137695313	1.1090087890625	5.1116943359375E-06	5.66891367270728E-06	216955.234375	9.3238617409952E-05
2	469	113.219911714147	1.11923217773438	1.119384765625	5.078125E-06	5.68437599213212E-06	220432.6875	9.37517179409042E-05
2	470	113.320619713893	1.12930297851563	1.129150390625	5.0445556640625E-06	5.6960620895552E-06	223835.453125	9.42614351515658E-05
2	471	113.421327713639	1.13937377929688	1.1395263671875	5.0140380859375E-06	5.71362852497259E-06	227267.203125	9.47679218370467E-05
2	472	113.522035713384	1.14944458007813	1.14898681640625	4.986572265625E-06	5.72950557398144E-06	230416.171875	9.52714908635244E-05
2	473	113.62274371313	1.15951538085938	1.15966796875	4.9591064453125E-06	5.75091689825058E-06	233846.15625	9.57722950261086E-05
2	474	113.723451712876	1.16958618164063	1.1700439453125	4.932861328125E-06	5.77166474613477E-06	237193.765625	9.6270399808418E-05
2	475	113.824159712622	1.17965698242188	1.1798095703125	4.910888671875E-06	5.7939132602769E-06	240243.609375	9.67660671449266E-05
2	476	113.924867712367	1.18972778320313	1.1895751953125	4.88922119140625E-06	5.81609629080049E-06	243305.65625	9.72595444181934E-05
2	477	114.025575712113	1.19979858398438	1.19964599609375	4.86785888671875E-06	5.83970768275321E-06	246442.234375	9.77508534560911E-05
2	478	114.126283711859	1.20986938476563	1.209716796875	4.84771728515625E-06	5.86436499361298E-06	249543.59375	9.82400742941536E-05
2	479	114.226991711605	1.21994018554688	1.22039794921875	4.827880859375E-06	5.89193587074988E-06	252781.296875	9.87272724159993E-05
2	480	114.32769971135	1.23001098632813	1.2298583984375	4.8095703125E-06	5.91509024161496E-06	255710.65625	9.92125569609925E-05
2	481	114.428407711096	1.24008178710938	1.23992919921875	4.79400634765625E-06	5.94422817812301E-06	258641.546875	9.9696138931904E-05
2	482	114.529115710842	1.25015258789063	1.24969482421875	4.77996826171875E-06	5.97350117459428E-06	261444.171875	0.000100178229331505
2	483	114.629823710588	1.26022338867188	1.26007080078125	4.76715087890625E-06	6.00694738750462E-06	264323.6875	0.000100658959127031
2	484	114.730531710333	1.27029418945313	1.26983642578125	4.7552490234375E-06	6.03838816459756E-06	267038.90625	0.000101138452009764
2	485	114.831239710079	1.28036499023438	1.28021240234375	4.74456787109375E-06	6.07405445407494E-06	269826.96875	0.000101616809843108
2	486	114.931947709825	1.29043579101563	1.28997802734375	4.735107421875E-06	6.10818415225367E-06	272428.46875	0.000102094149042387
2	487	115.03265570957	1.30050659179688	1.3006591796875	4.72686767578125E-06	6.14804366705357E-06	275163.03125	0.000102570593298879
2	488	115.133363709316	1.31057739257813	1.31103515625	4.72076416015625E-06	6.18908779870253E-06	277716.71875	0.000103046317235567
2	489	115.234071709062	1.32064819335938	1.32080078125	4.716796875E-06	6.22994912191643E-06	280020.71875	0.000103521539131179
2	490	115.334779708808	1.33071899414063	1.33087158203125	4.71466064453125E-06	6.27460758551024E-06	282283.65625	0.000103996448160615
2	491	115.435487708553	1.34078979492188	1.34033203125	4.71343994140625E-06	6.31757438895875E-06	284363.875	0.000104471197118983
2	492	115.536195708299	1.35086059570313	1.351318359375	4.71343994140625E-06	6.36935783404624E-06	286694.71875	0.000104945873317774
2	493	115.636903708045	1.36093139648438	1.3604736328125	4.71343994140625E-06	6.41251062916126E-06	288637.09375	0.000105420556792524
2	494	115.737611707791	1.37100219726563	1.370849609375	4.7149658203125E-06	6.46350872557377E-06	290744.34375	0.000105895313026849
2	495	115.838319707536	1.38107299804688	1.3812255859375	4.7174072265625E-06	6.51580330668367E-06	292793.375	0.000106370272987988
2	496	115.939027707282	1.39114379882813	1.3909912109375	4.722900390625E-06	6.56951306154951E-06	294520.53125	0.000106845625850838
2	497	116.039735707028	1.40121459960938	1.4013671875	4.730224609375E-06	6.6287816480326E-06	296258.0625	0.000107321633549873
2	498	116.140443706774	1.41128540039063	1.4111328125	4.74029541015625E-06	6.68918664814555E-06	297688.78125	0.000107798507087864
2	499	116.241151706519	1.42135620117188	1.42059326171875	4.7515869140625E-06	6.75007231620839E-06	298972.375	0.00010827646474354
2	500	116.341859706265	1.43142700195313	1.4312744140625	4.76531982421875E-06	6.82048039379879E-06	300352.21875	0.000108755681139883
2	501	116.442567706011	1.44149780273438	1.44134521484375	4.78240966796875E-06	6.89310309098801E-06	301384.71875	0.000109236447315197
2	502	116.543275705757	1.45156860351563	1.45111083984375	4.8040771484375E-06	6.97124824000639E-06	302058.1875	0.000109719163447153
2	503	116.643983705502	1.46163940429688	1.46209716796875	4.830322265625E-06	7.06240052750218E-06	302691.4375	0.000110204295197036
2	504	116.744691705248	1.47171020507813	1.47186279296875	4.86419677734375E-06	7.15943042450817E-06	302591.125	0.000110692453745287
2	505	116.845399704994	1.48178100585938	1.4813232421875	4.90447998046875E-06	7.26511962056975E-06	302034.75	0.000111184344859794
2	506	116.946107704739	1.49185180664063	1.49139404296875	4.9530029296875E-06	7.38687867851695E-06	301109.0625	0.000111680703412276
2	507	117.046815704485	1.50192260742188	1.5020751953125	5.01708984375E-06	7.53604626879678E-06	299391.71875	0.000112182744487654
2	508	117.147523704231	1.49185180664063	1.49169921875	4.8138427734375E-06	7.18080536898924E-06	309877.03125	0.000112677764263935
2	509	117.248231703977	1.48178100585938	1.48162841796875	4.67010498046875E-06	6.91935974828084E-06	317258.0625	0.000113155321741942
2	510	117.348939703722	1.47171020507813	1.4715576171875	4.5556640625E-06	6.70392182655632E-06	323017.15625	0.000113619877083693
2	511	117.449647703468	1.46163940429688	1.4617919921875	4.461669921875E-06	6.52203334539081E-06	327633.375	0.000114073933218606
2	512	117.550355703214	1.45156860351563	1.451416015625	4.38446044921875E-06	6.36367576589691E-06	331036.40625	0.000114519374619704
2	513	117.65106370296	1.44149780273438	1.44195556640625	4.31884765625E-06	6.22758625468123E-06	333875.09375	0.000114957620098721
2	514	117.751771702705	1.43142700195313	1.4312744140625	4.26177978515625E-06	6.09977632848313E-06	335839.59375	0.000115389688289724
2	515	117.852479702451	1.42135620117188	1.42120361328125	4.21112060546875E-06	5.98485985392472E-06	337488.21875	0.000115816335892305
2	516	117.953187702197	1.41128540039063	1.41143798828125	4.16534423828125E-06	5.87912518312805E-06	338852.65625	0.000116238123155199
2	517	118.053895701943	1.40121459960938	1.4013671875	4.1241455078125E-06	5.77944229007699E-06	339795.75	0.000116655530291609
2	518	118.154603701688	1.39114379882813	1.3909912109375	4.0863037109375E-06	5.68401264899876E-06	340403.28125	0.000117068957479205
2	519	118.255311701434	1.38107299804688	1.38092041015625	4.0521240234375E-06	5.59566069568973E-06	340789.28125	0.000117478761239909
2	520	118.35601970118	1.37100219726563	1.3714599609375	4.02099609375E-06	5.51463517695083E-06	341074.6875	0.000117885276267771
2	521	118.456727700926	1.36093139648438	1.361083984375	3.99169921875E-06	5.43303758604452E-06	340978.59375	0.00011828874994535
2	522	118.557435700671	1.35086059570313	1.35040283203125	3.96270751953125E-06	5.35125127498759E-06	340777.8125	0.000118689284136053
2	523	118.658143700417	1.34078979492188	1.34033203125	3.93463134765625E-06	5.27371230418794E-06	340649.96875	0.000119086944323499
2	524	118.758851700163	1.33071899414063	1.33056640625	3.90655517578125E-06	5.19793047715211E-06	340598.40625	0.00011948178143939
2	525	118.859559699908	1.32064819335938	1.32110595703125	3.87939453125E-06	5.12509132022387E-06	340544.34375	0.000119873831863515
2	526	118.960267699654	1.31057739257813	1.31072998046875	3.85406494140625E-06	5.05163825437194E-06	340090.28125	0.000120263248390984
2	527	119.0609756994	1.30050659179688	1.3006591796875	3.82965087890625E-06	4.98107056046138E-06	339628.65625	0.000120650154713076
2	528	119.161683699146	1.29043579101563	1.290283203125	3.80645751953125E-06	4.91140826852643E-06	338972.1875	0.000121034659969155
2	529	119.262391698891	1.28036499023438	1.28021240234375	3.78448486328125E-06	4.84494421471027E-06	338279.1875	0.000121416895126458
2	530	119.363099698637	1.27029418945313	1.26953125	3.76220703125E-06	4.77623916594894E-06	337443.21875	0.000121796903840732
2	531	119.463807698383	1.26022338867188	1.26007080078125	3.74053955078125E-06	4.71334487883723E-06	336868.71875	0.000122174693387933
2	532	119.564515698129	1.25015258789063	1.24969482421875	3.71978759765625E-06	4.64859886051272E-06	335958.65625	0.000122550351079553
2	533	119.665223697874	1.24008178710938	1.23992919921875	3.6993408203125E-06	4.58692056781729E-06	335175.71875	0.000122923927847296
2	534	119.76593169762	1.23001098632813	1.2298583984375	3.68072509765625E-06	4.52677068096818E-06	334134.8125	0.000123295554658398
2	535	119.866639697366	1.21994018554688	1.22039794921875	3.66302490234375E-06	4.47034790340695E-06	333166.71875	0.000123665333376266
2	536	119.967347697112	1.20986938476563	1.21002197265625	3.6468505859375E-06	4.41276915807975E-06	331799.1875	0.000124033424071968
2	537	120.068055696857	1.19979858398438	1.199951171875	3.63037109375E-06	4.35626816397416E-06	330531.28125	0.000124399855849333
2	538	120.168763696603	1.18972778320313	1.1895751953125	3.61328125E-06	4.2982696868421E-06	329222.96875	0.000124764599604532
2	539	120.269471696349	1.17965698242188	1.1798095703125	3.5968017578125E-06	4.24354084316292E-06	328016.3125	0.000125127655337565
2	540	120.370179696095	1.16958618164063	1.16973876953125	3.5797119140625E-06	4.18732770413044E-06	326768.96875	0.000125489023048431
2	541	120.47088769584	1.15951538085938	1.15966796875	3.56414794921875E-06	4.13322823078488E-06	325370.34375	0.000125848746392876
2	542	120.571595695586	1.14944458007813	1.14959716796875	3.548583984375E-06	4.07944207836408E-06	323959.40625	0.000126206898130476
2	543	120.672303695332	1.13937377929688	1.14013671875	3.53363037109375E-06	4.0288214222528E-06	322653.09375	0.000126563521916978
2	544	120.773011695077	1.12930297851563	1.12945556640625	3.51837158203125E-06	3.97384428652003E-06	321016.59375	0.000126918617752381
2	545	120.873719694823	1.11923217773438	1.11907958984375	3.5028076171875E-06	3.91992034565192E-06	319480.75	0.000127272156532854
2	546	120.974427694569	1.10916137695313	1.10931396484375	3.48663330078125E-06	3.86777082894696E-06	318161.9375	0.000127624109154567
2	547	121.075135694315	1.09909057617188	1.09893798828125	3.47015380859375E-06	3.81348354494548E-06	316682.8125	0.000127974402857944
2	548	121.17584369406	1.08901977539063	1.08917236328125	3.453369140625E-06	3.76131424673076E-06	315394.125	0.000128323037642986
2	549	121.276551693806	1.07894897460938	1.07879638671875	3.4381103515625E-06	3.70902102986292E-06	313775.96875	0.000128670042613521
2	550	121.377259693552	1.06887817382813	1.0687255859375	3.42315673828125E-06	3.65841515304055E-06	312204.6875	0.000129015534184873
2	551	121.477967693298	1.05880737304688	1.05865478515625	3.40789794921875E-06	3.60778722097166E-06	310647.46875	0.000129359512357041
2	552	121.578675693043	1.04873657226563	1.04888916015625	3.39324951171875E-06	3.55914266947366E-06	309110.53125	0.000129701977130026
2	553	121.679383692789	1.03866577148438	1.03851318359375	3.37799072265625E-06	3.50808772964228E-06	307435.1875	0.000130042943055741
2	554	121.780091692535	1.02859497070313	1.0284423828125	3.36181640625E-06	3.45743455909542E-06	305918.65625	0.000130382308270782
2	555	121.880799692281	1.01852416992188	1.01776123046875	3.34442138671875E-06	3.40382234753633E-06	304316.09375	0.000130720000015572
2	556	121.981507692026	1.00845336914063	1.0089111328125	3.32763671875E-06	3.35728964273585E-06	303191.5	0.000131055960082449
2	557	122.082215691772	0.998382568359375	0.99853515625	3.309326171875E-06	3.30447846863535E-06	301733.6875	0.000131390159367584
2	558	122.182923691518	0.988311767578125	0.98846435546875	3.28887939453125E-06	3.25093992614711E-06	300547.46875	0.000131722408696078
2	559	122.283631691264	0.978240966796875	0.97808837890625	3.26446533203125E-06	3.19293553729949E-06	299616.71875	0.000132052387925796
2	560	122.384339691009	0.968170166015625	0.96832275390625	3.2330322265625E-06	3.13061855194974E-06	299509.15625	0.000132379573187791
2	561	122.485047690755	0.958099365234375	0.95794677734375	3.19305419921875E-06	3.05877597384097E-06	300009.5625	0.000132703149574809
2	562	122.585755690501	0.948028564453125	0.9478759765625	3.1390380859375E-06	2.9754187380604E-06	301963.84375	0.000133021996589378
2	563	122.686463690246	0.937957763671875	0.9381103515625	3.06732177734375E-06	2.87748639493657E-06	305840.21875	0.000133334513520822
2	564	122.787171689992	0.927886962890625	0.9283447265625	2.969970703125E-06	2.7571566079132E-06	312577.0625	0.000133638517581858
2	565	122.887879689738	0.917816162109375	0.91796875	2.840576171875E-06	2.60756019088149E-06	323162.875	0.000133931098389439
2	566	122.988587689484	0.907745361328125	0.908203125	2.66845703125E-06	2.42350097323651E-06	340347.65625	0.000134208501549438
2	567	123.089295689229	0.897674560546875	0.8978271484375	2.44110107421875E-06	2.19168691728555E-06	367795.96875	0.000134465779410675
2	568	123.190003688975	0.887603759765625	0.887451171875	2.15301513671875E-06	1.91069557331502E-06	412189.96875	0.000134697111207061
2	569	123.290711688721	0.877532958984375	0.877685546875	1.7999267578125E-06	1.57976967329887E-06	487622.9375	0.000134896166855469
2	570	123.391419688467	0.867462158203125	0.86761474609375	1.3897705078125E-06	1.205785338243E-06	624286.375	0.000135056776343845
2	571	123.492127688212	0.857391357421875	0.8575439453125	9.37805175781251E-07	8.04209150828683E-07	914415.875	0.000135173977469094
2	572	123.592835687958	0.847320556640625	0.8477783203125	4.730224609375E-07	4.01018183993074E-07	1792258.125	0.000135245019919239
2	573	123.693543687704	0.837249755859375	0.83709716796875	2.50244140624994E-08	2.09478656643114E-08	33451222	0.000135270092869177
2	574	123.79425168745	0.827178955078125	0.82763671875	-3.7200927734375E-07	-3.07888541328794E-07	-2224774.5	0.000135252630570903
2	575	123.894959687195	0.817108154296875	0.8172607421875	-6.903076171875E-07	-5.64161325655732E-07	-1183908	0.000135199137730524
2	576	123.995667686941	0.807037353515625	0.8074951171875	-9.11865234375001E-07	-7.36326683181687E-07	-885542.1875	0.000135118461912498
2	577	124.096375686687	0.796966552734375	0.79681396484375	-1.03424072265625E-06	-8.24097412532865E-07	-770433.8125	0.00013502046931535
2	578	124.197083686433	0.786895751953125	0.78704833984375	-1.07086181640625E-06	-8.42819986246468E-07	-734967.25	0.000134914458612911
2	579	124.297791686178	0.776824951171875	0.77728271484375	-1.04736328125E-06	-8.14097404600034E-07	-742132.875	0.000134807807626203
2	580	124.398499685924	0.766754150390625	0.7672119140625	-9.92736816406251E-07	-7.61639455504337E-07	-772825.125	0.00013470507110469
2	581	124.49920768567	0.756683349609375	0.7568359375	-9.35974121093749E-07	-7.08378820490907E-07	-808607.8125	0.000134607951622456
2	582	124.599915685415	0.746612548828125	0.74652099609375	-9.0087890625E-07	-6.72525004574709E-07	-828658.5625	0.000134515459649265
2	583	124.700623685161	0.736541748046875	0.736419677734375	-9.0606689453125E-07	-6.67245501517755E-07	-812765.25	0.000134424481075257
2	584	124.801331684907	0.726470947265625	0.7264404296875	-9.6954345703125E-07	-7.04315539223899E-07	-749260.375	0.000134330039145425
2	585	124.902039684653	0.716400146484375	0.71636962890625	-1.10565185546875E-06	-7.92055345755216E-07	-647916.125	0.00013422554184217
2	586	125.002747684398	0.706329345703125	0.706298828125	-1.3177490234375E-06	-9.30724581849063E-07	-535988.875	0.000134103509481065
2	587	125.103455684144	0.696258544921875	0.696197509765625	-1.60369873046875E-06	-1.1164910347361E-06	-434119.90625	0.000133956404170021
2	588	125.20416368389	0.686187744140625	0.686126708984375	-1.944580078125E-06	-1.33422827275353E-06	-352840.59375	0.000133777735754848
2	589	125.304871683636	0.676116943359375	0.67608642578125	-2.3187255859375E-06	-1.56765884185006E-06	-291576.71875	0.000133563065901399
2	590	125.405579683381	0.666046142578125	0.665985107421875	-2.6885986328125E-06	-1.79056667093391E-06	-247707.140625	0.000133310924866237
2	591	125.506287683127	0.655975341796875	0.655853271484375	-3.0194091796875E-06	-1.98028942577366E-06	-217212.453125	0.000133023495436646
2	592	125.606995682873	0.645904541015625	0.645843505859375	-3.275146484375E-06	-2.11523206417041E-06	-197195.3125	0.000132706540171057
2	593	125.707703682619	0.635833740234375	0.63580322265625	-3.4326171875E-06	-2.18246896110941E-06	-185224.046875	0.000132368775666691
2	594	125.808411682364	0.625762939453125	0.62579345703125	-3.48297119140625E-06	-2.17962065107713E-06	-179672.3125	0.000132020548335277
2	595	125.90911968211	0.615692138671875	0.615692138671875	-3.436279296875E-06	-2.11569022212643E-06	-179174.0625	0.000131672146380879
2	596	126.009827681856	0.605621337890625	0.605682373046875	-3.31695556640625E-06	-2.00902150027105E-06	-182601.90625	0.000131332082673907
2	597	126.110535681602	0.595550537109375	0.595550537109375	-3.15399169921875E-06	-1.87836144505127E-06	-188824.390625	0.000131006250740029
2	598	126.211243681347	0.585479736328125	0.58544921875	-2.9718017578125E-06	-1.7398389218215E-06	-197001.4375	0.000130697793792933
2	599	126.311951681093	0.575408935546875	0.575347900390625	-2.786865234375E-06	-1.60341710397915E-06	-206449.84375	0.000130407817778178
2	600	126.412659680839	0.565338134765625	0.565277099609375	-2.60955810546875E-06	-1.47512344028655E-06	-216617.9375	0.000130136089865118
2	601	126.513367680584	0.555267333984375	0.5552978515625	-2.44384765625E-06	-1.35706329729146E-06	-227222.796875	0.000129881635075435
2	602	126.61407568033	0.545196533203125	0.545166015625	-2.29278564453125E-06	-1.24994880934537E-06	-237774.515625	0.000129643129184842
2	603	126.714783680076	0.535125732421875	0.53509521484375	-2.154541015625E-06	-1.15288446522754E-06	-248356.953125	0.000129419175209478
2	604	126.815491679822	0.525054931640625	0.52508544921875	-2.0294189453125E-06	-1.06561833490559E-06	-258736.84375	0.000129208507132716
2	605	126.916199679567	0.514984130859375	0.51495361328125	-1.91741943359375E-06	-9.87382122730196E-07	-268565.96875	0.000129009757074527
2	606	127.016907679313	0.504913330078125	0.504791259765625	-1.81732177734375E-06	-9.17368140562758E-07	-277766.59375	0.000128821702674031
2	607	127.117615679059	0.494842529296875	0.494842529296875	-1.72698974609375E-06	-8.54587938192708E-07	-286534.71875	0.000128643237985671
2	608	127.218323678805	0.484771728515625	0.4847412109375	-1.64581298828125E-06	-7.97793347828701E-07	-294529.9375	0.00012847340258304
2	609	127.31903167855	0.474700927734375	0.474700927734375	-1.57318115234375E-06	-7.46790533412423E-07	-301745.90625	0.000128311308799312
2	610	127.419739678296	0.464630126953125	0.464599609375	-1.50634765625E-06	-6.99848499152722E-07	-308427.875	0.000128156243590638
2	611	127.520447678042	0.454559326171875	0.454620361328125	-1.4447021484375E-06	-6.56790973607713E-07	-314681.03125	0.000128007653984241
2	612	127.621155677788	0.444488525390625	0.44451904296875	-1.38824462890625E-06	-6.17101193256531E-07	-320202.25	0.000127865001559258
2	613	127.721863677533	0.434417724609375	0.4344482421875	-1.33697509765625E-06	-5.80846460707107E-07	-324948.65625	0.000127727776998654
2	614	127.822571677279	0.424346923828125	0.424346923828125	-1.29058837890625E-06	-5.4765718005001E-07	-328801.15625	0.000127595456433482
2	615	127.923279677025	0.414276123046875	0.414276123046875	-1.24847412109375E-06	-5.17212981776538E-07	-331825.96875	0.000127467617858201
2	616	128.023987676771	0.404205322265625	0.40423583984375	-1.2091064453125E-06	-4.88764101191919E-07	-334326.125	0.000127343868371099
2	617	128.124695676516	0.394134521484375	0.3941650390625	-1.173095703125E-06	-4.62393330735722E-07	-336004.15625	0.000127223902381957
2	618	128.225403676262	0.384063720703125	0.384063720703125	-1.13922119140625E-06	-4.37533515196264E-07	-337128.34375	0.000127107472508214
2	619	128.326111676008	0.373992919921875	0.373992919921875	-1.10626220703125E-06	-4.13734227322493E-07	-338068.96875	0.00012699440412689
2	620	128.426819675753	0.363922119140625	0.363922119140625	-1.07574462890625E-06	-3.91487276374392E-07	-338297.875	0.000126884537166916
2	621	128.527527675499	0.353851318359375	0.3538818359375	-1.04766845703125E-06	-3.70750825595678E-07	-337780.375	0.000126777609693818
2	622	128.628235675245	0.343780517578125	0.343719482421875	-1.0211181640625E-06	-3.50978183405459E-07	-336610.90625	0.000126673432532698
2	623	128.728943674991	0.333709716796875	0.333770751953125	-9.967041015625E-07	-3.32670680336378E-07	-334874.46875	0.000126571831060573
2	624	128.829651674736	0.323638916015625	0.3236083984375	-9.72900390625001E-07	-3.14838729309486E-07	-332622.34375	0.000126472659758292
2	625	128.930359674482	0.313568115234375	0.3135986328125	-9.503173828125E-07	-2.98018221656093E-07	-329993.59375	0.000126375816762447
2	626	129.031067674228	0.303497314453125	0.303497314453125	-9.28344726562499E-07	-2.8175011834719E-07	-326923.09375	0.000126281214761548
2	627	129.131775673974	0.293426513671875	0.293365478515625	-9.075927734375E-07	-2.66256392933428E-07	-323234.6875	0.000126188766444102
2	628	129.232483673719	0.283355712890625	0.2833251953125	-8.880615234375E-07	-2.51610202894881E-07	-319037.8125	0.000126098355394788
2	629	129.333191673465	0.273284912109375	0.273284912109375	-8.70361328124999E-07	-2.3785661085185E-07	-313990.1875	0.000126009806990623
2	630	129.433899673211	0.263214111328125	0.263275146484375	-8.544921875E-07	-2.24966541395588E-07	-308107.15625	0.000125922946608625
2	631	129.534607672957	0.253143310546875	0.25311279296875	-8.404541015625E-07	-2.12729688087165E-07	-301161.9375	0.000125837599625811
2	632	129.635315672702	0.243072509765625	0.24310302734375	-8.2733154296875E-07	-2.01126795218443E-07	-293839.90625	0.000125753620523028
2	633	129.736023672448	0.233001708984375	0.23297119140625	-8.15429687499999E-07	-1.89971615327522E-07	-285703.59375	0.00012567090743687
2	634	129.836731672194	0.222930908203125	0.222930908203125	-8.05053710937501E-07	-1.79471342676152E-07	-276914.34375	0.000125589314848185
2	635	129.93743967194	0.212860107421875	0.212890625	-7.9620361328125E-07	-1.69504289715405E-07	-267382.125	0.000125508682685904
2	636	130.038147671685	0.202789306640625	0.20281982421875	-7.89489746093749E-07	-1.60124159265251E-07	-256899.890625	0.000125428836327046
2	637	130.138855671431	0.192718505859375	0.1927490234375	-7.861328125E-07	-1.51526322156315E-07	-245186.34375	0.000125349499285221
2	638	130.239563671177	0.182647705078125	0.18267822265625	-7.8460693359375E-07	-1.43330595392399E-07	-232827.703125	0.00012527039507404
2	639	130.340271670922	0.172576904296875	0.172607421875	-7.86743164062501E-07	-1.35797705524965E-07	-219394.875	0.000125191276310943
2	640	130.440979670668	0.162506103515625	0.162506103515625	-7.9071044921875E-07	-1.28495273088447E-07	-205519.109375	0.000125111851957627
2	641	130.541687670414	0.152435302734375	0.1524658203125	-7.9833984375E-07	-1.21719537560239E-07	-190978.59375	0.000125031830975786
2	642	130.64239567016	0.142364501953125	0.14239501953125	-8.1024169921875E-07	-1.15374376719046E-07	-175743.890625	0.000124950835015625
2	643	130.743103669905	0.132293701171875	0.132354736328125	-8.2763671875E-07	-1.09541637982602E-07	-159918.875	0.00012486835476011
2	644	130.843811669651	0.122222900390625	0.122314453125	-8.52050781249999E-07	-1.04218116803168E-07	-143553.015625	0.000124783779028803
2	645	130.944519669397	0.112152099609375	0.11224365234375	-8.85009765625E-07	-9.93367237356324E-08	-126827.59375	0.000124696307466365
2	646	131.045227669143	0.102081298828125	0.102142333984375	-9.27124023437501E-07	-9.46986133953942E-08	-110171.1640625	0.000124605066957884
2	647	131.145935668888	0.092010498046875	0.092071533203125	-9.80224609374999E-07	-9.02507863997926E-08	-93929.015625	0.000124509024317376
2	648	131.246643668634	0.081939697265625	0.082000732421875	-1.046142578125E-06	-8.57844568713517E-08	-78383.8984375	0.000124406986287795
2	649	131.34735166838	0.071868896484375	0.0718994140625	-1.1285400390625E-06	-8.11413656265358E-08	-63710.11328125	0.000124297483125702
2	650	131.448059668126	0.061798095703125	0.0618896484375	-1.2322998046875E-06	-7.6266594817298E-08	-50222.88671875	0.000124178608530201
2	651	131.548767667871	0.051727294921875	0.051788330078125	-1.36199951171875E-06	-7.05356768548882E-08	-38023.75390625	0.000124047975987196
2	652	131.649475667617	0.041656494140625	0.0417572021484375	-1.5203857421875E-06	-6.34870573890112E-08	-27464.875	0.000123902835184708
2	653	131.750183667363	0.031585693359375	0.0316802978515625	-1.7071533203125E-06	-5.40831237572093E-08	-18557.3828125	0.000123740304843523
2	654	131.850891667108	0.021514892578125	0.021636962890625	-1.912841796875E-06	-4.13880876237727E-08	-11311.423828125	0.000123558027553372
2	655	131.951599666854	0.011444091796875	0.01156005859375	-2.12158203125E-06	-2.45256099873359E-08	-5448.7919921875	0.000123354882816784
2	656	132.0523076666	0.001373291015625	0.00147705078125	-2.31353759765625E-06	-3.41721273500184E-09	-638.438232421875	0.000123131554573774
2	657	132.153015666346	-0.008697509765625	-0.008587646484375	-2.46917724609375E-06	2.12044195535555E-08	3477.9384765625	0.000122890720376745
2	658	132.253723666091	-0.018768310546875	-0.0186065673828125	-2.5750732421875E-06	4.79132751252109E-08	7225.64599609375	0.000122636731248349
2	659	132.354431665837	-0.028839111328125	-0.02872314453125	-2.62908935546875E-06	7.55157145704288E-08	10925.130859375	0.000122374680358917
2	660	132.455139665583	-0.038909912109375	-0.038739013671875	-2.6361083984375E-06	1.02120239375836E-07	14695.5322265625	0.000122109559015371
2	661	132.555847665329	-0.048980712890625	-0.048858642578125	-2.60711669921875E-06	1.27380175740655E-07	18740.490234375	0.000121845536341425
2	662	132.656555665074	-0.059051513671875	-0.058990478515625	-2.55584716796875E-06	1.50770631535124E-07	23080.59765625	0.000121585559099913
2	663	132.75726366482	-0.069122314453125	-0.06903076171875	-2.49176025390625E-06	1.72008100207677E-07	27703.61328125	0.000121331395348534
2	664	132.857971664566	-0.079193115234375	-0.079132080078125	-2.423095703125E-06	1.917445899835E-07	32657.431640625	0.000121083910926245
2	665	132.958679664312	-0.089263916015625	-0.08917236328125	-2.35565185546875E-06	2.10059027949683E-07	37854.64453125	0.000120843280456029
2	666	133.059387664057	-0.099334716796875	-0.099212646484375	-2.29217529296875E-06	2.27412769504554E-07	43283.1875	0.000120609242003411
2	667	133.160095663803	-0.109405517578125	-0.1092529296875	-2.23388671875E-06	2.44058639964351E-07	48907.10546875	0.000120381337183062
2	668	133.260803663549	-0.119476318359375	-0.11932373046875	-2.1832275390625E-06	2.60510859106944E-07	54654.73828125	0.000120158918434754
2	669	133.361511663295	-0.129547119140625	-0.12945556640625	-2.1380615234375E-06	2.76783964636707E-07	60548.1015625	0.000119941323646344
2	670	133.46221966304	-0.139617919921875	-0.1395263671875	-2.09869384765625E-06	2.92823131076148E-07	66482.4765625	0.000119727985293139
2	671	133.562927662786	-0.149688720703125	-0.149566650390625	-2.06451416015625E-06	3.08782460933799E-07	72446.4140625	0.000119518357678317
2	672	133.663635662532	-0.159759521484375	-0.15966796875	-2.0343017578125E-06	3.24812845065026E-07	78487.84375	0.000119311960588675
2	673	133.764343662277	-0.169830322265625	-0.16961669921875	-2.00836181640625E-06	3.40651666874692E-07	84455.2578125	0.000119108401122503
2	674	133.865051662023	-0.179901123046875	-0.179718017578125	-1.9873046875E-06	3.57154448238362E-07	90433.0546875	0.000118907199066598
2	675	133.965759661769	-0.189971923828125	-0.189788818359375	-1.9708251953125E-06	3.74040581618829E-07	96299.1640625	0.00011870789603563
2	676	134.066467661515	-0.200042724609375	-0.1998291015625	-1.95953369140625E-06	3.91571830959947E-07	101977.890625	0.000118509982712567
2	677	134.16717566126	-0.189971923828125	-0.189849853515625	-1.73065185546875E-06	3.28563999119069E-07	109698.46875	0.000118324169307016
