Potential - Start -0.2 V, Upper Vertex 1.5 V, Lower Vertex -0.2 V, Stop -0.19 V; Scan - # end cross 5, Rate 0.1 Vps, Step 0.01 V 
Scan	Index	Time (s)	Potential applied (V)	WE(1).Potential (V)	WE(1).Current (A)	WE(1).Power (W)	WE(1).Resistance (Ω)	WE(1).Charge (C)
1	1	48.7592548768947	-0.189971923828125	-0.18975830078125	-2.67333984375E-07	5.07288397955108E-08	709817.375	0
1	2	48.8599628766405	-0.179901123046875	-0.17974853515625	-2.32849121093751E-07	4.18542889235596E-08	771952.8125	-2.51862193323404E-08
1	3	48.9606708763862	-0.169830322265625	-0.169708251953125	-2.0599365234375E-07	3.49588198389483E-08	823851.875	-4.72837093923317E-08
1	4	49.0613788761319	-0.159759521484375	-0.15960693359375	-1.8280029296875E-07	2.91761939053004E-08	873121.875	-6.68610411480586E-08
1	5	49.1620868758777	-0.149688720703125	-0.149505615234375	-1.62353515624999E-07	2.42727615784588E-08	920864.6875	-8.42409093593233E-08
1	6	49.2627948756234	-0.139617919921875	-0.139495849609375	-1.422119140625E-07	1.98379730420584E-08	980901.25	-9.9577000867157E-08
1	7	49.3635028753691	-0.129547119140625	-0.129486083984375	-1.23291015625E-07	1.59644706343443E-08	1050247.5	-1.12946132446723E-07
1	8	49.4642108751149	-0.119476318359375	-0.119354248046875	-1.04370117187499E-07	1.24570167514548E-08	1143567.25	-1.24409780255519E-07
1	9	49.5649188748606	-0.109405517578125	-0.109222412109375	-8.42285156249997E-08	9.19964104895143E-09	1296739.25	-1.33906482346902E-07
1	10	49.6656268746063	-0.099334716796875	-0.099273681640625	-6.103515625E-08	6.05918426543894E-09	1626500.125	-1.41221079275056E-07
1	11	49.7663348743521	-0.089263916015625	-0.089141845703125	-3.509521484375E-08	3.12845238603643E-09	2540000	-1.46061637451567E-07
1	12	49.8670428740978	-0.079193115234375	-0.07916259765625	-2.74658203125028E-09	2.17426576742952E-10	28822222	-1.47967114116909E-07
1	13	49.9677508738436	-0.069122314453125	-0.069061279296875	3.87573242187494E-08	-2.67663047281985E-09	-1781889.75	-1.46153837476959E-07
1	14	50.0684588735893	-0.059051513671875	-0.058929443359375	9.24682617187506E-08	-5.44910339073112E-09	-637293.75	-1.39546102673194E-07
1	15	50.169166873335	-0.048980712890625	-0.04884033203125	1.64184570312501E-07	-8.01882915624219E-09	-297472.125	-1.26622609286642E-07
1	16	50.2698748730808	-0.038909912109375	-0.0387603759765625	2.60314941406251E-07	-1.0089904911581E-08	-148898	-1.05247359272198E-07
1	17	50.3705828728265	-0.028839111328125	-0.0287078857421875	3.8726806640625E-07	-1.11176472472607E-08	-74129.2421875	-7.2638961512439E-08
1	18	50.4712908725722	-0.018768310546875	-0.018658447265625	5.511474609375E-07	-1.02835553406067E-08	-33853.82421875	-2.53859901988562E-08
1	19	50.571998872318	-0.008697509765625	-0.00861511230468751	7.5531005859375E-07	-6.50708065208505E-09	-11406.060546875	4.03993709596762E-08
1	20	50.6727068720637	0.001373291015625	0.0014373779296875	9.94873046875E-07	1.43000855601372E-09	1444.78515625	1.28528085951984E-07
1	21	50.7734148718095	0.011444091796875	0.011578369140625	1.2579345703125E-06	1.45648302307677E-08	9204.2705078125	2.4196594949899E-07
1	22	50.8741228715552	0.021514892578125	0.021600341796875	1.5228271484375E-06	3.28935847448975E-08	14184.369140625	3.81988428443947E-07
1	23	50.9748308713009	0.031585693359375	0.0316497802734375	1.76239013671875E-06	5.57792567690285E-08	17958.44140625	5.47412241758138E-07
1	24	51.0755388710467	0.041656494140625	0.041754150390625	1.954345703125E-06	8.16020389038385E-08	21364.771484375	7.34564764570678E-07
1	25	51.1762468707924	0.051727294921875	0.05181884765625	2.08160400390625E-06	1.07866320320227E-07	24893.7109375	9.37790957777906E-07
1	26	51.2769548705381	0.061798095703125	0.06182861328125	2.142333984375E-06	1.32457529389285E-07	28860.400390625	1.15048317184119E-06
1	27	51.3776628702839	0.071868896484375	0.0718994140625	2.14569091796875E-06	1.54273905650371E-07	33508.75	1.36640232994978E-06
1	28	51.4783708700296	0.081939697265625	0.08197021484375	2.1075439453125E-06	1.72755818539372E-07	38893.71875	1.58056968757592E-06
1	29	51.5790788697753	0.092010498046875	0.092071533203125	2.0440673828125E-06	1.88200402817529E-07	45043.296875	1.78962000063621E-06
1	30	51.6797868695211	0.102081298828125	0.102081298828125	1.9671630859375E-06	2.0081057527932E-07	51892.64453125	1.99160149350064E-06
1	31	51.7804948692668	0.112152099609375	0.112213134765625	1.88629150390625E-06	2.11666673521904E-07	59488.7578125	2.18563832277141E-06
1	32	51.8812028690126	0.122222900390625	0.12225341796875	1.80816650390625E-06	2.21054520466168E-07	67611.8203125	2.37166909755615E-06
1	33	51.9819108687583	0.132293701171875	0.132354736328125	1.734619140625E-06	2.29585054967174E-07	76301.8984375	2.55006239058275E-06
1	34	52.082618868504	0.142364501953125	0.14239501953125	1.66656494140625E-06	2.37310544548563E-07	85442.2265625	2.72132569989481E-06
1	35	52.1833268682498	0.152435302734375	0.15252685546875	1.60552978515625E-06	2.44886393829802E-07	95000.953125	2.88608862319961E-06
1	36	52.2840348679955	0.162506103515625	0.162506103515625	1.551513671875E-06	2.52130433864295E-07	104740.3671875	3.04505852000148E-06
1	37	52.3847428677412	0.172576904296875	0.172607421875	1.5020751953125E-06	2.59269313573895E-07	114912.640625	3.19881883115158E-06
1	38	52.485450867487	0.182647705078125	0.182647705078125	1.45843505859375E-06	2.66379799995775E-07	125235.40625	3.34789251610346E-06
1	39	52.5861588672327	0.192718505859375	0.1927490234375	1.41998291015625E-06	2.73700294428636E-07	135740.390625	3.4928323202621E-06
1	40	52.6868668669784	0.202789306640625	0.20281982421875	1.38519287109375E-06	2.80944561836804E-07	146419.921875	3.63408412340505E-06
1	41	52.7875748667242	0.212860107421875	0.212890625	1.3531494140625E-06	2.88072811827078E-07	157329.71875	3.77197056877776E-06
1	42	52.8882828664699	0.222930908203125	0.222930908203125	1.3250732421875E-06	2.9539975798798E-07	168240.453125	3.9068299884093E-06
1	43	52.9889908662157	0.233001708984375	0.23297119140625	1.29913330078125E-06	3.02660623674456E-07	179328.171875	4.03896910938784E-06
1	44	53.0896988659614	0.243072509765625	0.24310302734375	1.275634765625E-06	3.101106642589E-07	190574.15625	4.16861894336762E-06
1	45	53.1904068657071	0.253143310546875	0.253082275390625	1.25457763671875E-06	3.17511336334064E-07	201727.078125	4.29602505391813E-06
1	46	53.2911148654529	0.263214111328125	0.263275146484375	1.23504638671875E-06	3.25157031966228E-07	213170.25	4.42138798462111E-06
1	47	53.3918228651986	0.273284912109375	0.2733154296875	1.21734619140625E-06	3.3271948041147E-07	224517.4375	4.54487553724903E-06
1	48	53.4925308649443	0.283355712890625	0.283355712890625	1.20147705078125E-06	3.40445382107646E-07	235839.46875	4.6666727939737E-06
1	49	53.5932388646901	0.293426513671875	0.29339599609375	1.1865234375E-06	3.48121204751806E-07	247273.671875	4.78691845273715E-06
1	50	53.6939468644358	0.303497314453125	0.303436279296875	1.173095703125E-06	3.55959798525873E-07	258662.84375	4.90573484057677E-06
1	51	53.7946548641816	0.313568115234375	0.313629150390625	1.1602783203125E-06	3.63897100896793E-07	270305.09375	5.02322927786736E-06
1	52	53.8953628639273	0.323638916015625	0.323638916015625	1.14898681640625E-06	3.71856856418162E-07	281673.3125	5.13950999447843E-06
1	53	53.996070863673	0.333709716796875	0.333740234375	1.13922119140625E-06	3.8020391457394E-07	292954.75	5.25473069501459E-06
1	54	54.0967788634188	0.343780517578125	0.34381103515625	1.1297607421875E-06	3.88424183483949E-07	304322	5.36898278369335E-06
1	55	54.1974868631645	0.353851318359375	0.35382080078125	1.1212158203125E-06	3.96709452843425E-07	315568.875	5.48232856090181E-06
1	56	54.2981948629102	0.363922119140625	0.36395263671875	1.11328125E-06	4.05181623364115E-07	326918.875	5.59484442419489E-06
1	57	54.398902862656	0.373992919921875	0.37408447265625	1.10595703125E-06	4.13721352288121E-07	338245.03125	5.70659176446497E-06
1	58	54.4996108624017	0.384063720703125	0.384063720703125	1.1004638671875E-06	4.22648213316279E-07	349001.6875	5.81769381824415E-06
1	59	54.6003188621474	0.394134521484375	0.3941650390625	1.09527587890625E-06	4.31719428206634E-07	359877.4375	5.92825836065458E-06
1	60	54.7010268618932	0.404205322265625	0.404205322265625	1.090087890625E-06	4.40619317032542E-07	370800.6875	6.03829994361149E-06
1	61	54.8017348616389	0.414276123046875	0.414276123046875	1.08612060546875E-06	4.4995383063906E-07	381427.375	6.14788086750195E-06
1	62	54.9024428613847	0.424346923828125	0.424407958984375	1.08245849609375E-06	4.59403963759542E-07	392077.84375	6.25707752988092E-06
1	63	55.0031508611304	0.434417724609375	0.4344482421875	1.08001708984375E-06	4.69211528297819E-07	402260.53125	6.36596678305068E-06
1	64	55.1038588608761	0.444488525390625	0.444488525390625	1.07757568359375E-06	4.7897003696562E-07	412489.375	6.47461001790361E-06
1	65	55.2045668606219	0.454559326171875	0.454559326171875	1.07574462890625E-06	4.88989769564796E-07	422553.1875	6.58303861200693E-06
1	66	55.3052748603676	0.464630126953125	0.464630126953125	1.07513427734375E-06	4.99539794418524E-07	432160.09375	6.69134396957816E-06
1	67	55.4059828601133	0.474700927734375	0.4747314453125	1.07421875E-06	5.09965389028366E-07	441931.8125	6.79957247484708E-06
1	68	55.5066908598591	0.484771728515625	0.4847412109375	1.07513427734375E-06	5.21161894084798E-07	450865.75	6.90780098011601E-06
1	69	55.6073988596048	0.494842529296875	0.494873046875	1.07696533203125E-06	5.32961109911412E-07	459506.96875	7.0161677285796E-06
1	70	55.7081068593506	0.504913330078125	0.504913330078125	1.07940673828125E-06	5.45006855645624E-07	467769.3125	7.12474957254017E-06
1	71	55.8088148590963	0.514984130859375	0.514923095703125	1.0821533203125E-06	5.57225746433687E-07	475831.9375	7.23359289622749E-06
1	72	55.909522858842	0.525054931640625	0.52508544921875	1.08673095703125E-06	5.70626582430123E-07	483178.90625	7.34280502001639E-06
1	73	56.0102308585878	0.535125732421875	0.53515625	1.09222412109375E-06	5.84510587486875E-07	489969.25	7.45252373235417E-06
1	74	56.1109388583335	0.545196533203125	0.545166015625	1.10107421875E-06	6.00268208472698E-07	495121.96875	7.56296549297986E-06
1	75	56.2116468580792	0.555267333984375	0.555206298828125	1.11175537109375E-06	6.17253533619078E-07	499396.125	7.67438996263081E-06
1	76	56.312354857825	0.565338134765625	0.565277099609375	1.12640380859375E-06	6.36730248970707E-07	501842.34375	7.787089998601E-06
1	77	56.4130628575707	0.575408935546875	0.57537841796875	1.14654541015625E-06	6.59697491300903E-07	501836.5625	7.90154263086151E-06
1	78	56.5137708573164	0.585479736328125	0.585479736328125	1.17523193359375E-06	6.88074464960664E-07	498182.3125	8.01845362730091E-06
1	79	56.6144788570622	0.595550537109375	0.595489501953125	1.2152099609375E-06	7.23644802747003E-07	490030.125	8.13882161310175E-06
1	80	56.7151868568079	0.605621337890625	0.60552978515625	1.273193359375E-06	7.70956489759556E-07	475599.25	8.26412269816501E-06
1	81	56.8158948565537	0.615692138671875	0.61566162109375	1.3543701171875E-06	8.33833667002182E-07	454574.15625	8.39643053041073E-06
1	82	56.9166028562994	0.625762939453125	0.625732421875	1.46759033203125E-06	9.18318846743205E-07	426367.21875	8.53852816362632E-06
1	83	57.0173108560451	0.635833740234375	0.635772705078125	1.61651611328125E-06	1.02773685739521E-06	393298.09375	8.69382529344875E-06
1	84	57.1180188557909	0.645904541015625	0.645843505859375	1.80755615234375E-06	1.16739840905211E-06	357302.03125	8.86624093254795E-06
1	85	57.2187268555366	0.655975341796875	0.65594482421875	2.0361328125E-06	1.33559080950363E-06	322152.28125	9.05978595255874E-06
1	86	57.3194348552823	0.666046142578125	0.665985107421875	2.29400634765625E-06	1.52777397488535E-06	290315.3125	9.27782548387768E-06
1	87	57.4201428550281	0.676116943359375	0.67608642578125	2.5616455078125E-06	1.73189368979365E-06	263926.625	9.5223267635447E-06
1	88	57.5208508547738	0.686187744140625	0.686126708984375	2.81646728515625E-06	1.93245341506554E-06	243612.53125	9.7931369964499E-06
1	89	57.6215588545195	0.696258544921875	0.696136474609375	3.0328369140625E-06	2.11126825888641E-06	229533.125	1.00876723081456E-05
1	90	57.7222668542653	0.706329345703125	0.70623779296875	3.194580078125E-06	2.25613302973215E-06	221073.765625	1.04012478914228E-05
1	91	57.822974854011	0.716400146484375	0.716339111328125	3.294677734375E-06	2.36010646403884E-06	217423.125	1.0728007509897E-05
1	92	57.9236828537568	0.726470947265625	0.726470947265625	3.34014892578125E-06	2.42652117776743E-06	217496.578125	1.10620976556675E-05
1	93	58.0243908535025	0.736541748046875	0.7364501953125	3.34716796875E-06	2.46502236223023E-06	220021.890625	1.13988307930413E-05
1	94	58.1250988532482	0.746612548828125	0.74652099609375	3.3367919921875E-06	2.49098525273439E-06	223724.171875	1.17353956738953E-05
1	95	58.225806852994	0.756683349609375	0.75714111328125	3.3282470703125E-06	2.51995265898586E-06	227489.46875	1.20710064948071E-05
1	96	58.3265148527397	0.766754150390625	0.7666015625	3.3416748046875E-06	2.5617330265959E-06	229406.390625	1.24068637887831E-05
1	97	58.4272228524854	0.776824951171875	0.7769775390625	3.3941650390625E-06	2.63718993664952E-06	228915.671875	1.27460407384206E-05
1	98	58.5279308522312	0.786895751953125	0.7867431640625	3.50433349609375E-06	2.75701040663989E-06	224505.796875	1.30934076878475E-05
1	99	58.6286388519769	0.796966552734375	0.797119140625	3.68438720703125E-06	2.93689549835108E-06	216350.53125	1.34553883981425E-05
1	100	58.7293468517227	0.807037353515625	0.80657958984375	3.94622802734375E-06	3.18294701173727E-06	204392.546875	1.38396198963164E-05
1	101	58.8300548514684	0.817108154296875	0.81756591796875	4.2889404296875E-06	3.50649156644067E-06	190621.875	1.42542940011481E-05
1	102	58.9307628512141	0.827178955078125	0.82733154296875	4.703369140625E-06	3.89124579669442E-06	175901.890625	1.47070923048886E-05
1	103	59.0314708509599	0.837249755859375	0.83770751953125	5.16357421875E-06	4.32556498708436E-06	162234.046875	1.52039328895626E-05
1	104	59.1321788507056	0.847320556640625	0.84716796875	5.633544921875E-06	4.77255889563821E-06	150379.203125	1.57476115418831E-05
1	105	59.2328868504513	0.857391357421875	0.858154296875	6.0760498046875E-06	5.21418814969365E-06	141235.5625	1.63372351380531E-05
1	106	59.3335948501971	0.867462158203125	0.86761474609375	6.4453125E-06	5.59204818273429E-06	134611.75	1.69677368830889E-05
1	107	59.4343028499428	0.877532958984375	0.877685546875	6.707763671875E-06	5.8873069974652E-06	130846.2265625	1.76300454768352E-05
1	108	59.5350108496885	0.887603759765625	0.887451171875	6.84814453125E-06	6.0773936638725E-06	129590.015625	1.83126412593992E-05
1	109	59.6357188494343	0.897674560546875	0.897216796875	6.8695068359375E-06	6.16343686488108E-06	130608.6171875	1.90033788385335E-05
1	110	59.73642684918	0.907745361328125	0.9075927734375	6.79931640625E-06	6.17101068201009E-06	133482.9375	1.96916589629836E-05
1	111	59.8371348489258	0.917816162109375	0.9173583984375	6.671142578125E-06	6.11982841292047E-06	137511.4375	2.03699510166189E-05
1	112	59.9378428486715	0.927886962890625	0.92742919921875	6.5155029296875E-06	6.04266733716941E-06	142341.921875	2.10339512705104E-05
1	113	60.0385508484172	0.937957763671875	0.93780517578125	6.365966796875E-06	5.97003645452787E-06	147315.4375	2.16825847019209E-05
1	114	60.139258848163	0.948028564453125	0.948486328125	6.23779296875E-06	5.91646085013053E-06	152054.796875	2.23172337427968E-05
1	115	60.2399668479087	0.958099365234375	0.95855712890625	6.146240234375E-06	5.89152250540792E-06	155958.296875	2.29408196901204E-05
1	116	60.3406748476544	0.968170166015625	0.968017578125	6.1065673828125E-06	5.91126445215195E-06	158520.75	2.35577972489409E-05
1	117	60.4413828474002	0.978240966796875	0.97808837890625	6.1187744140625E-06	5.98470205659396E-06	159850.375	2.41733923758147E-05
1	118	60.5420908471459	0.988311767578125	0.98876953125	6.1859130859375E-06	6.11644190939842E-06	159842.140625	2.47929820034187E-05
1	119	60.6427988468917	0.998382568359375	0.99853515625	6.298828125E-06	6.28960106041632E-06	158527.140625	2.54216392931994E-05
1	120	60.7435068466374	1.00845336914063	1.00860595703125	6.4361572265625E-06	6.49154617349268E-06	156709.34375	2.60628967225784E-05
1	121	60.8442148463831	1.01852416992188	1.01837158203125	6.573486328125E-06	6.69425162413972E-06	154921.078125	2.67179839283926E-05
1	122	60.9449228461289	1.02859497070313	1.02874755859375	6.683349609375E-06	6.8754793574044E-06	153926.9375	2.73855184786953E-05
1	123	61.0456308458746	1.03866577148438	1.038818359375	6.7474365234375E-06	7.00936061548418E-06	153957.5	2.80618132819654E-05
1	124	61.1463388456203	1.04873657226563	1.048583984375	6.75048828125E-06	7.07845356373582E-06	155334.546875	2.87414877675474E-05
1	125	61.2470468453661	1.05880737304688	1.0589599609375	6.70166015625E-06	7.09678943167091E-06	158014.578125	2.94188557745656E-05
1	126	61.3477548451118	1.06887817382813	1.06903076171875	6.610107421875E-06	7.06640821590554E-06	161726.6875	3.00891570077511E-05
1	127	61.4484628448575	1.07894897460938	1.0791015625	6.4910888671875E-06	7.00454393154359E-06	166243.546875	3.07488553517032E-05
1	128	61.5491708446033	1.08901977539063	1.08917236328125	6.35986328125E-06	6.92698722559726E-06	171257.203125	3.13959535560571E-05
1	129	61.649878844349	1.09909057617188	1.09893798828125	6.2286376953125E-06	6.84488668412087E-06	176433.125	3.20298313454259E-05
1	130	61.7505868440948	1.10916137695313	1.10931396484375	6.097412109375E-06	6.76394438414718E-06	181931.9375	3.26504996337462E-05
1	131	61.8512948438405	1.11923217773438	1.11968994140625	5.9783935546875E-06	6.69394694341463E-06	187289.4375	3.32585659634788E-05
1	132	61.9520028435862	1.12930297851563	1.129150390625	5.865478515625E-06	6.62300681142369E-06	192507.8125	3.38549507432617E-05
1	133	62.052710843332	1.13937377929688	1.1395263671875	5.76171875E-06	6.5656299739203E-06	197775.4375	3.44404252246022E-05
1	134	62.1534188430777	1.14944458007813	1.14898681640625	5.670166015625E-06	6.51494610792724E-06	202637.25	3.50160662492272E-05
1	135	62.2541268428234	1.15951538085938	1.15936279296875	5.584716796875E-06	6.47471279080492E-06	207595.625	3.55827942257747E-05
1	136	62.3548348425692	1.16958618164063	1.1700439453125	5.5084228515625E-06	6.44509691483108E-06	212409.96875	3.6141380405752E-05
1	137	62.4555428423149	1.17965698242188	1.1798095703125	5.4412841796875E-06	6.41967881165328E-06	216825.578125	3.66927415598184E-05
1	138	62.5562508420606	1.18972778320313	1.1895751953125	5.377197265625E-06	6.39658037471236E-06	221225.875	3.72374961443711E-05
1	139	62.6569588418064	1.19979858398438	1.199951171875	5.3192138671875E-06	6.38279698250699E-06	225588.0625	3.77761025447398E-05
1	140	62.7576668415521	1.20986938476563	1.21002197265625	5.267333984375E-06	6.37358971289359E-06	229721.90625	3.8309175579343E-05
1	141	62.8583748412979	1.21994018554688	1.21917724609375	5.2215576171875E-06	6.36600407233345E-06	233489.203125	3.88373337045778E-05
1	142	62.9590828410436	1.23001098632813	1.23046875	5.1788330078125E-06	6.37239190837136E-06	237595.765625	3.93610353057738E-05
1	143	63.0597908407893	1.24008178710938	1.23992919921875	5.13916015625E-06	6.37219454802107E-06	241270.796875	3.98805896111298E-05
1	144	63.1604988405351	1.25015258789063	1.25	5.1055908203125E-06	6.38198844171711E-06	244829.640625	4.03964513679966E-05
1	145	63.2612068402808	1.26022338867188	1.2603759765625	5.072021484375E-06	6.3926540860848E-06	248495.796875	4.09089370805304E-05
1	146	63.3619148400265	1.27029418945313	1.2701416015625	5.0445556640625E-06	6.40729967926745E-06	251784.640625	4.14183450629935E-05
1	147	63.4626228397723	1.28036499023438	1.28021240234375	5.01708984375E-06	6.42294071440119E-06	255170.328125	4.19249918195419E-05
1	148	63.563330839518	1.29043579101563	1.28997802734375	4.9957275390625E-06	6.44437886876403E-06	258216.25	4.24291756644379E-05
1	149	63.6640388392638	1.30050659179688	1.30035400390625	4.974365234375E-06	6.46843591312063E-06	261411.03125	4.2931209463859E-05
1	150	63.7647468390095	1.31057739257813	1.31072998046875	4.9578857421875E-06	6.49844923827914E-06	264372.78125	4.34313369623851E-05
1	151	63.8654548387552	1.32064819335938	1.32080078125	4.94476318359375E-06	6.53104689263273E-06	267111.03125	4.39299765275791E-05
1	152	63.966162838501	1.33071899414063	1.33056640625	4.93499755859375E-06	6.56634165352443E-06	269618.46875	4.44274628534913E-05
1	153	64.0668708382467	1.34078979492188	1.34063720703125	4.927978515625E-06	6.60663135931827E-06	272046.09375	4.49241015303414E-05
1	154	64.1675788379924	1.35086059570313	1.3507080078125	4.92279052734375E-06	6.64925255478011E-06	274378.53125	4.5420129026752E-05
1	155	64.2682868377382	1.36093139648438	1.36138916015625	4.92095947265625E-06	6.69934070174349E-06	276651.15625	4.59158000012394E-05
1	156	64.3689948374839	1.37100219726563	1.3714599609375	4.92034912109375E-06	6.74806187817012E-06	278732.25	4.64113472844474E-05
1	157	64.4697028372296	1.38107299804688	1.38092041015625	4.92156982421875E-06	6.79629602018395E-06	280585.375	4.69069273094647E-05
1	158	64.5704108369754	1.39114379882813	1.39129638671875	4.92523193359375E-06	6.85245686327107E-06	282483.4375	4.74027547170408E-05
1	159	64.6711188367211	1.40121459960938	1.40167236328125	4.92919921875E-06	6.90912202117033E-06	284361.09375	4.78989641123917E-05
1	160	64.7718268364669	1.41128540039063	1.4117431640625	4.9359130859375E-06	6.96824099577498E-06	286014.59375	4.8395711928606E-05
1	161	64.8725348362126	1.42135620117188	1.42120361328125	4.94384765625E-06	7.02621400705539E-06	287469.125	4.88931982545182E-05
1	162	64.9732428359583	1.43142700195313	1.4312744140625	4.9560546875E-06	7.0934738687356E-06	288793.125	4.93916959385388E-05
1	163	65.0739508357041	1.44149780273438	1.4410400390625	4.974365234375E-06	7.16825979907298E-06	289693.25	4.98917324875947E-05
1	164	65.1746588354498	1.45156860351563	1.451416015625	4.998779296875E-06	7.25530844647437E-06	290354.09375	5.03939227201045E-05
1	165	65.2753668351955	1.46163940429688	1.46209716796875	5.0323486328125E-06	7.35778212401783E-06	290539.75	5.08990306116175E-05
1	166	65.3760748349413	1.47171020507813	1.47186279296875	5.078125E-06	7.47430340197752E-06	289843.75	5.14081330038607E-05
1	167	65.476782834687	1.48178100585938	1.4813232421875	5.1361083984375E-06	7.60823695600266E-06	288413.53125	5.19224595336709E-05
1	168	65.5774908344328	1.49185180664063	1.49169921875	5.2093505859375E-06	7.77078457758762E-06	286350.3125	5.24433962709736E-05
1	169	65.6781988341785	1.50192260742188	1.5020751953125	5.2978515625E-06	7.95777123130392E-06	283525.375	5.29724748048466E-05
1	170	65.7789068339242	1.49185180664063	1.49139404296875	4.9896240234375E-06	7.44149519960047E-06	298899.09375	5.34904902451672E-05
1	171	65.87961483367	1.48178100585938	1.48193359375	4.7625732421875E-06	7.05781712895259E-06	311162.375	5.3981551900506E-05
1	172	65.9803228334157	1.47171020507813	1.47125244140625	4.58251953125E-06	6.74204284223379E-06	321057.53125	5.44521135452669E-05
1	173	66.0810308331614	1.46163940429688	1.46148681640625	4.43359375E-06	6.47963906885707E-06	329639.3125	5.49061114725191E-05
1	174	66.1817388329072	1.45156860351563	1.451416015625	4.30908203125E-06	6.25427037448389E-06	336827.21875	5.53463396499865E-05
1	175	66.2824468326529	1.44149780273438	1.44134521484375	4.20318603515625E-06	6.05824197918992E-06	342917.28125	5.5774966313038E-05
1	176	66.3831548323986	1.43142700195313	1.4312744140625	4.112548828125E-06	5.88618559049792E-06	348026.125	5.61936976737343E-05
1	177	66.4838628321444	1.42135620117188	1.4215087890625	4.03411865234375E-06	5.73453507968225E-06	352371.5625	5.66039161640219E-05
1	178	66.5845708318901	1.41128540039063	1.41082763671875	3.96636962890625E-06	5.59586396775558E-06	355697.46875	5.7006771385204E-05
1	179	66.6852788316359	1.40121459960938	1.40106201171875	3.9080810546875E-06	5.47546369489282E-06	358503.84375	5.74032819713466E-05
1	180	66.7859868313816	1.39114379882813	1.3909912109375	3.85711669921875E-06	5.36521520189126E-06	360629.8125	5.77942919335328E-05
1	181	66.8866948311273	1.38107299804688	1.38092041015625	3.8140869140625E-06	5.26695021108026E-06	362057.9375	5.81805652473122E-05
1	182	66.9874028308731	1.37100219726563	1.370849609375	3.77777099609375E-06	5.17875560035463E-06	362872.625	5.85628476983402E-05
1	183	67.0881108306188	1.36093139648438	1.361083984375	3.74725341796875E-06	5.10032623424195E-06	363221.78125	5.89417613809928E-05
1	184	67.1888188303645	1.35086059570313	1.35101318359375	3.721923828125E-06	5.02836792293238E-06	362987.875	5.93178665440064E-05
1	185	67.2895268301103	1.34078979492188	1.3409423828125	3.702392578125E-06	4.96469510835595E-06	362182.6875	5.96917088842019E-05
1	186	67.390234829856	1.33071899414063	1.33026123046875	3.6859130859375E-06	4.90322736368398E-06	360904.125	6.00637395109516E-05
1	187	67.4909428296017	1.32064819335938	1.32080078125	3.6724853515625E-06	4.85062128063873E-06	359647.6875	6.0434264014475E-05
1	188	67.5916508293475	1.31057739257813	1.31072998046875	3.662109375E-06	4.80003654956818E-06	357916.6875	6.0803591622971E-05
1	189	67.6923588290932	1.30050659179688	1.30035400390625	3.6529541015625E-06	4.7501334847766E-06	355973.28125	6.1171936977189E-05
1	190	67.793066828839	1.29043579101563	1.290283203125	3.643798828125E-06	4.70153236165061E-06	354103.875	6.15393510088325E-05
1	191	67.8937748285847	1.28036499023438	1.28082275390625	3.63555908203125E-06	4.65650691694464E-06	352304.21875	6.19058992015198E-05
1	192	67.9944828283304	1.27029418945313	1.2701416015625	3.62701416015625E-06	4.60682167613413E-06	350189.3125	6.22715961071663E-05
1	193	68.0951908280762	1.26022338867188	1.26007080078125	3.6187744140625E-06	4.55991175840609E-06	348203.75	6.26364562776871E-05
1	194	68.1958988278219	1.25015258789063	1.25030517578125	3.60931396484375E-06	4.51274354418274E-06	346410.78125	6.30004142294638E-05
1	195	68.2966068275676	1.24008178710938	1.24053955078125	3.60015869140625E-06	4.46613921667449E-06	344579.125	6.33634408586659E-05
1	196	68.3973148273134	1.23001098632813	1.2298583984375	3.58978271484375E-06	4.41492420577561E-06	342599.6875	6.372548523359E-05
1	197	68.4980228270591	1.21994018554688	1.21978759765625	3.57940673828125E-06	4.36611571785761E-06	340779.28125	6.40864818706177E-05
1	198	68.5987308268049	1.20986938476563	1.21002197265625	3.568115234375E-06	4.31749776907964E-06	339120.78125	6.44463871140033E-05
1	199	68.6994388265506	1.19979858398438	1.1993408203125	3.5565185546875E-06	4.26547785536968E-06	337223.28125	6.48051427560858E-05
1	200	68.8001468262963	1.18972778320313	1.18927001953125	3.54339599609375E-06	4.21405457018409E-06	335630	6.51626542094164E-05
1	201	68.9008548260421	1.17965698242188	1.17950439453125	3.5296630859375E-06	4.16325292462716E-06	334169.125	6.5518805058673E-05
1	202	69.0015628257878	1.16958618164063	1.16943359375	3.514404296875E-06	4.10986240240163E-06	332754.4375	6.58735079923645E-05
1	203	69.1022708255335	1.15951538085938	1.15966796875	3.49822998046875E-06	4.05678520110087E-06	331501.34375	6.62266174913384E-05
1	204	69.2029788252793	1.14944458007813	1.1492919921875	3.47900390625E-06	3.99839154852089E-06	330350.875	6.65779516566545E-05
1	205	69.303686825025	1.13937377929688	1.13922119140625	3.45672607421875E-06	3.93797563447151E-06	329566.53125	6.69271903461777E-05
1	206	69.4043948247707	1.12930297851563	1.12945556640625	3.42987060546875E-06	3.87388627132168E-06	329299.78125	6.72739624860696E-05
1	207	69.5051028245165	1.11923217773438	1.11968994140625	3.397216796875E-06	3.80382925868616E-06	329590.375	6.7617729655467E-05
1	208	69.6058108242622	1.10916137695313	1.1090087890625	3.3551025390625E-06	3.72083809452306E-06	330543.9375	6.79577351547778E-05
1	209	69.706518824008	1.09909057617188	1.09954833984375	3.30078125E-06	3.62936839337635E-06	333117.625	6.82928875903599E-05
1	210	69.8072268237537	1.08901977539063	1.0888671875	3.23028564453125E-06	3.51735184267454E-06	337080.78125	6.86217535985634E-05
1	211	69.9079348234994	1.07894897460938	1.07879638671875	3.13751220703125E-06	3.38473660121963E-06	343838.15625	6.89423977746628E-05
1	212	70.0086428232452	1.06887817382813	1.06842041015625	3.0145263671875E-06	3.22078153658367E-06	354423.96875	6.92521789460443E-05
1	213	70.1093508229909	1.05880737304688	1.05865478515625	2.8570556640625E-06	3.02463558909949E-06	370540.5	6.95478374836966E-05
1	214	70.2100588227366	1.04873657226563	1.04827880859375	2.65960693359375E-06	2.78800962405512E-06	394148.03125	6.98256189934909E-05
1	215	70.3107668224824	1.03866577148438	1.03851318359375	2.425537109375E-06	2.51895221481391E-06	428158.03125	7.00816744938493E-05
1	216	70.4114748222281	1.02859497070313	1.02874755859375	2.1630859375E-06	2.22526932702749E-06	475592.59375	7.03127298038453E-05
1	217	70.5121828219739	1.01852416992188	1.0186767578125	1.88934326171875E-06	1.92463016901456E-06	539169.75	7.05167913110927E-05
1	218	70.6128908217196	1.00845336914063	1.0089111328125	1.6278076171875E-06	1.6423132365162E-06	619797.5625	7.06938953953795E-05
1	219	70.7135988214653	0.998382568359375	0.99884033203125	1.40411376953125E-06	1.40248539537424E-06	711367.125	7.08465595380403E-05
1	220	70.8143068212111	0.988311767578125	0.98876953125	1.2347412109375E-06	1.22087442377961E-06	800790.9375	7.09794403519481E-05
1	221	70.9150148209568	0.978240966796875	0.9783935546875	1.12701416015625E-06	1.10266330466402E-06	868128.9375	7.10983586031944E-05
1	222	71.0157228207025	0.968170166015625	0.9686279296875	1.07421875E-06	1.04051832749974E-06	901704.5625	7.12092005414888E-05
1	223	71.1164308204483	0.958099365234375	0.958251953125	1.06170654296875E-06	1.01738226021553E-06	902558.25	7.13167537469417E-05
1	224	71.217138820194	0.948028564453125	0.94818115234375	1.0650634765625E-06	1.00987301721034E-06	890257.9375	7.14238485670649E-05
1	225	71.3178468199397	0.937957763671875	0.93780517578125	1.06109619140625E-06	9.95101572698331E-07	883807.875	7.15309070073999E-05
1	226	71.4185548196855	0.927886962890625	0.92742919921875	1.031494140625E-06	9.56637791205139E-07	899112.4375	7.16362774255686E-05
1	227	71.5192628194312	0.917816162109375	0.91766357421875	9.6099853515625E-07	8.81873290836666E-07	954906.375	7.17366056051105E-05
1	228	71.619970819177	0.907745361328125	0.908203125	8.35571289062501E-07	7.5886845252171E-07	1086924.75	7.18270748620853E-05
1	229	71.7206788189227	0.897674560546875	0.8978271484375	6.41784667968751E-07	5.76211675706872E-07	1398953.875	7.19014642527327E-05
1	230	71.8213868186684	0.887603759765625	0.88775634765625	3.72924804687499E-07	3.3106636010416E-07	2380523.75	7.19525560270995E-05
1	231	71.9220948184142	0.877532958984375	0.87738037109375	2.80761718749994E-08	2.46334810327653E-08	31250002	7.19727468094788E-05
1	232	72.0228028181599	0.867462158203125	0.8673095703125	-3.77502441406249E-07	-3.27411470379957E-07	-2297494	7.19551535439678E-05
1	233	72.1235108179056	0.857391357421875	0.85784912109375	-8.2275390625E-07	-7.05798697708815E-07	-1042655.8125	7.18947194400243E-05
1	234	72.2242188176514	0.847320556640625	0.84716796875	-1.26739501953125E-06	-1.07369646684674E-06	-668432.5	7.17894727131352E-05
1	235	72.3249268173971	0.837249755859375	0.83740234375	-1.67388916015625E-06	-1.40171857765381E-06	-500273.5	7.16413633199409E-05
1	236	72.4256348171428	0.827178955078125	0.82733154296875	-2.00347900390625E-06	-1.65754136105534E-06	-412947.4375	7.14561901986599E-05
1	237	72.5263428168886	0.817108154296875	0.8172607421875	-2.2332763671875E-06	-1.82516907898389E-06	-365947	7.1242859121412E-05
1	238	72.6270508166343	0.807037353515625	0.8074951171875	-2.3516845703125E-06	-1.8989737782249E-06	-343368.8125	7.10119857103564E-05
1	239	72.7277588163801	0.796966552734375	0.79742431640625	-2.3724365234375E-06	-1.89183856491582E-06	-336120.40625	7.07741055521183E-05
1	240	72.8284668161258	0.786895751953125	0.787353515625	-2.3199462890625E-06	-1.82661779035698E-06	-339384.40625	7.05378261045553E-05
1	241	72.9291748158715	0.776824951171875	0.77728271484375	-2.22503662109375E-06	-1.72948239196558E-06	-349334.8125	7.03089681337588E-05
1	242	73.0298828156173	0.766754150390625	0.7672119140625	-2.1142578125E-06	-1.62208380061202E-06	-362875.28125	7.00904711266048E-05
1	243	73.130590815363	0.756683349609375	0.75653076171875	-2.00927734375E-06	-1.5200801044557E-06	-376518.84375	6.98828298482113E-05
1	244	73.2312988151087	0.746612548828125	0.746551513671875	-1.92779541015625E-06	-1.4391986269402E-06	-387256.59375	6.96845818310976E-05
1	245	73.3320068148545	0.736541748046875	0.7364501953125	-1.881103515625E-06	-1.38533903282223E-06	-391499.03125	6.94927875883877E-05
1	246	73.4327148146002	0.726470947265625	0.726409912109375	-1.87713623046875E-06	-1.3635702771353E-06	-386977.75	6.93035472068004E-05
1	247	73.533422814346	0.716400146484375	0.71630859375	-1.9219970703125E-06	-1.37674294364842E-06	-372689.75	6.91122477292083E-05
1	248	73.6341308140917	0.706329345703125	0.706329345703125	-2.01202392578125E-06	-1.42115152357292E-06	-351054.15625	6.89141525072046E-05
1	249	73.7348388138374	0.696258544921875	0.6961669921875	-2.14141845703125E-06	-1.49078482536424E-06	-325096.1875	6.87050123815425E-05
1	250	73.8355468135832	0.686187744140625	0.686126708984375	-2.29095458984375E-06	-1.57188515004236E-06	-299493.8125	6.84818223817274E-05
1	251	73.9362548133289	0.676116943359375	0.676116943359375	-2.44049072265625E-06	-1.65005701546761E-06	-277041.40625	6.82435784256086E-05
1	252	74.0369628130746	0.666046142578125	0.665985107421875	-2.564697265625E-06	-1.7080501493183E-06	-259673.96875	6.79915465298109E-05
1	253	74.1376708128204	0.655975341796875	0.655975341796875	-2.645263671875E-06	-1.73522766999668E-06	-247981.09375	6.77292046020739E-05
1	254	74.2383788125661	0.645904541015625	0.645904541015625	-2.6708984375E-06	-1.72514535279333E-06	-241830.453125	6.74615148454905E-05
1	255	74.3390868123118	0.635833740234375	0.635833740234375	-2.645263671875E-06	-1.68194776506425E-06	-240366.875	6.7193825088907E-05
1	256	74.4397948120576	0.625762939453125	0.625732421875	-2.579345703125E-06	-1.61398020281922E-06	-242593.484375	6.69307410134934E-05
1	257	74.5405028118033	0.615692138671875	0.615631103515625	-2.486572265625E-06	-1.53081111875508E-06	-247582.234375	6.66756532154977E-05
1	258	74.6412108115491	0.605621337890625	0.6055908203125	-2.3797607421875E-06	-1.44116120281979E-06	-254475.515625	6.64306135149673E-05
1	259	74.7419188112948	0.595550537109375	0.5955810546875	-2.26776123046875E-06	-1.35063555717352E-06	-262629.53125	6.61965896142647E-05
1	260	74.8426268110405	0.585479736328125	0.585479736328125	-2.158203125E-06	-1.26358406760119E-06	-271281.125	6.59737270325422E-05
1	261	74.9433348107863	0.575408935546875	0.575408935546875	-2.05322265625E-06	-1.18144271255005E-06	-280246.71875	6.57616619719192E-05
1	262	75.044042810532	0.565338134765625	0.565338134765625	-1.9561767578125E-06	-1.10590121948917E-06	-289001.5625	6.55597759759985E-05
1	263	75.1447508102777	0.555267333984375	0.55523681640625	-1.8658447265625E-06	-1.03598563327978E-06	-297579.34375	6.53673196211457E-05
1	264	75.2454588100235	0.545196533203125	0.54510498046875	-1.7840576171875E-06	-9.72498696683033E-07	-305542.28125	6.51835362077691E-05
1	265	75.3461668097692	0.535125732421875	0.535125732421875	-1.7095947265625E-06	-9.14848101274401E-07	-313013.21875	6.50076181045733E-05
1	266	75.446874809515	0.525054931640625	0.52508544921875	-1.641845703125E-06	-8.62109232002695E-07	-319814.125	6.483885954367E-05
1	267	75.5475828092607	0.514984130859375	0.514984130859375	-1.5802001953125E-06	-8.13778001429455E-07	-325898.03125	6.46766129648313E-05
1	268	75.6482908090064	0.504913330078125	0.5048828125	-1.5234375E-06	-7.69157395552611E-07	-331410.25	6.45203326712362E-05
1	269	75.7489988087522	0.494842529296875	0.4947509765625	-1.47186279296875E-06	-7.28205577615881E-07	-336139.34375	6.43695093458518E-05
1	270	75.8497068084979	0.484771728515625	0.484771728515625	-1.42425537109375E-06	-6.90438696437923E-07	-340368.5625	6.42236773273908E-05
1	271	75.9504148082436	0.474700927734375	0.474700927734375	-1.38031005859375E-06	-6.55234430269047E-07	-343908.9375	6.40824582660571E-05
1	272	76.0511228079894	0.464630126953125	0.464569091796875	-1.34002685546875E-06	-6.22535083039111E-07	-346686.40625	6.39454738120548E-05
1	273	76.1518308077351	0.454559326171875	0.45458984375	-1.30218505859375E-06	-5.9196008805884E-07	-349097.71875	6.38124329270795E-05
1	274	76.2525388074808	0.444488525390625	0.444549560546875	-1.2677001953125E-06	-5.63555545340932E-07	-350674.03125	6.36830227449536E-05
1	275	76.3532468072266	0.434417724609375	0.4344482421875	-1.2347412109375E-06	-5.3643111641577E-07	-351853.6875	6.35570177109912E-05
1	276	76.4539548069723	0.424346923828125	0.42437744140625	-1.20452880859375E-06	-5.11174846451468E-07	-352318.21875	6.34341922705062E-05
1	277	76.5546628067181	0.414276123046875	0.41424560546875	-1.1761474609375E-06	-4.87213867472747E-07	-352205.53125	6.33143135928549E-05
1	278	76.6553708064638	0.404205322265625	0.40423583984375	-1.14959716796875E-06	-4.64708335812247E-07	-351632.625	6.31972070550546E-05
1	279	76.7560788062095	0.394134521484375	0.3941650390625	-1.12457275390625E-06	-4.43267225591626E-07	-350502.0625	6.3082690758165E-05
1	280	76.8567868059553	0.384063720703125	0.384063720703125	-1.10107421875E-06	-4.2288266399737E-07	-348808.21875	6.29706191830337E-05
1	281	76.957494805701	0.373992919921875	0.3740234375	-1.0784912109375E-06	-4.03380994384861E-07	-346802.5	6.28608686383814E-05
1	282	77.0582028054467	0.363922119140625	0.363922119140625	-1.05712890625E-06	-3.84712592449432E-07	-344255.21875	6.27533299848437E-05
1	283	77.1589108051925	0.353851318359375	0.35382080078125	-1.03790283203125E-06	-3.67231621112296E-07	-340899.71875	6.26478431513533E-05
1	284	77.2596188049382	0.343780517578125	0.343780517578125	-1.01898193359375E-06	-3.50306152085977E-07	-337376.46875	6.25442698947154E-05
1	285	77.360326804684	0.333709716796875	0.333740234375	-1.00128173828125E-06	-3.3416799283259E-07	-333313.03125	6.24425374553539E-05
1	286	77.4610348044297	0.323638916015625	0.3236083984375	-9.8480224609375E-07	-3.18690268841237E-07	-328602.4375	6.23425294179469E-05
1	287	77.5617428041754	0.313568115234375	0.3135986328125	-9.6893310546875E-07	-3.03856097616517E-07	-323653.53125	6.22441511950456E-05
1	288	77.6624508039212	0.303497314453125	0.303497314453125	-9.5367431640625E-07	-2.89437593892217E-07	-318240	6.21473445789889E-05
1	289	77.7631588036669	0.293426513671875	0.293426513671875	-9.4024658203125E-07	-2.75893256684867E-07	-312074.03125	6.20519786025397E-05
1	290	77.8638668034126	0.283355712890625	0.283355712890625	-9.26513671875E-07	-2.6253292162437E-07	-305830.0625	6.19579805061221E-05
1	291	77.9645748031584	0.273284912109375	0.2733154296875	-9.1400146484375E-07	-2.49810682362295E-07	-299031.75	6.18652993580326E-05
1	292	78.0652828029041	0.263214111328125	0.26324462890625	-9.02404785156249E-07	-2.37553194892826E-07	-291714.59375	6.17738332948647E-05
1	293	78.1659908026498	0.253143310546875	0.253143310546875	-8.92028808593751E-07	-2.25811120913022E-07	-283783.8125	6.16834804532118E-05
1	294	78.2666988023956	0.243072509765625	0.243133544921875	-8.8165283203125E-07	-2.1435937469505E-07	-275770.1875	6.15941680734977E-05
1	295	78.3674068021413	0.233001708984375	0.2330322265625	-8.72802734375E-07	-2.03391167019618E-07	-266993	6.15058233961463E-05
1	296	78.4681148018871	0.222930908203125	0.222900390625	-8.64562988281251E-07	-1.92711425484049E-07	-257818.5625	6.14183372817934E-05
1	297	78.5688228016328	0.212860107421875	0.212860107421875	-8.5723876953125E-07	-1.82471936227557E-07	-248309	6.13316442468204E-05
1	298	78.6695308013785	0.202789306640625	0.202850341796875	-8.514404296875E-07	-1.7271497654292E-07	-238243.734375	6.1245598772075E-05
1	299	78.7702388011243	0.192718505859375	0.192840576171875	-8.465576171875E-07	-1.63250660989434E-07	-227793.796875	6.11600989941508E-05
1	300	78.87094680087	0.182647705078125	0.182647705078125	-8.441162109375E-07	-1.54175879174545E-07	-216377.453125	6.10749702900648E-05
1	301	78.9716548006157	0.172576904296875	0.172607421875	-8.4259033203125E-07	-1.45437340393073E-07	-204853.3125	6.09900380368344E-05
1	302	79.0723628003615	0.162506103515625	0.16259765625	-8.44421386718749E-07	-1.37300943947594E-07	-192555.109375	6.090508759371E-05
1	303	79.1730708001072	0.152435302734375	0.15252685546875	-8.4991455078125E-07	-1.29634798895495E-07	-179461.40625	6.08197733527049E-05
1	304	79.2737787998529	0.142364501953125	0.142486572265625	-8.59985351562501E-07	-1.22536363278414E-07	-165684.890625	6.07336733082775E-05
1	305	79.3744867995987	0.132293701171875	0.13232421875	-8.76464843749999E-07	-1.15977520920296E-07	-150974.9375	6.06462344876491E-05
1	306	79.4751947993444	0.122222900390625	0.122283935546875	-9.01184082031251E-07	-1.10200339520361E-07	-135692.515625	6.05567220191006E-05
1	307	79.5759027990902	0.112152099609375	0.112213134765625	-9.3719482421875E-07	-1.05165561592457E-07	-119732.9921875	6.04641536483541E-05
1	308	79.6766107988359	0.102081298828125	0.1021728515625	-9.8876953125E-07	-1.01025406706867E-07	-103333.328125	6.03671724093147E-05
1	309	79.7773187985816	0.092010498046875	0.092071533203125	-1.060791015625E-06	-9.7668653609162E-08	-86795.171875	6.02639702265151E-05
1	310	79.8780267983274	0.081939697265625	0.082061767578125	-1.1578369140625E-06	-9.50141441080632E-08	-70875.0703125	6.01522515353281E-05
1	311	79.9787347980731	0.071868896484375	0.0718994140625	-1.28631591796875E-06	-9.24853580386298E-08	-55895.61328125	6.00291787122842E-05
1	312	80.0794427978188	0.061798095703125	0.061798095703125	-1.4508056640625E-06	-8.96570213626546E-08	-42595.7109375	5.98913538851775E-05
1	313	80.1801507975646	0.051727294921875	0.05181884765625	-1.6534423828125E-06	-8.56794812875705E-08	-31339.978515625	5.9735044487752E-05
1	314	80.2808587973103	0.041656494140625	0.0417755126953125	-1.8890380859375E-06	-7.89155336633485E-08	-22114.703125	5.95566671108827E-05
1	315	80.3815667970561	0.031585693359375	0.031707763671875	-2.14324951171875E-06	-6.79576501738666E-08	-14794.2470703125	5.93536242377013E-05
1	316	80.4822747968018	0.021514892578125	0.021649169921875	-2.393798828125E-06	-5.18237577296077E-08	-9043.8564453125	5.91251664445736E-05
1	317	80.5829827965475	0.011444091796875	0.0115753173828125	-2.61627197265625E-06	-3.0284176943951E-08	-4424.35546875	5.8872887166217E-05
1	318	80.6836907962933	0.001373291015625	0.00147705078125	-2.7880859375E-06	-4.11814449208237E-09	-529.772399902344	5.86007554375101E-05
1	319	80.784398796039	-0.008697509765625	-0.00859985351562501	-2.89581298828125E-06	2.49035654320551E-08	2969.75439453125	5.83145483687986E-05
1	320	80.8851067957847	-0.018768310546875	-0.018658447265625	-2.9400634765625E-06	5.48570220360034E-08	6346.27392578125	5.80206906306557E-05
1	321	80.9858147955305	-0.028839111328125	-0.02869873046875	-2.93243408203125E-06	8.41571363707772E-08	9786.6591796875	5.77249847992789E-05
1	322	81.0865227952762	-0.038909912109375	-0.038775634765625	-2.88665771484375E-06	1.119319819054E-07	13432.708984375	5.74319710722193E-05
1	323	81.1872307950219	-0.048980712890625	-0.04886474609375	-2.81890869140625E-06	1.37745246320264E-07	17334.6328125	5.71446726098657E-05
1	324	81.2879387947677	-0.059051513671875	-0.0589599609375	-2.74169921875E-06	1.61650476115938E-07	21504.8984375	5.68646755709779E-05
1	325	81.3886467945134	-0.069122314453125	-0.06903076171875	-2.6617431640625E-06	1.83742159265421E-07	25934.419921875	5.65925911359955E-05
1	326	81.4893547942592	-0.079193115234375	-0.079071044921875	-2.58575439453125E-06	2.04458302732746E-07	30579.48828125	5.63283574592788E-05
1	327	81.5900627940049	-0.089263916015625	-0.089111328125	-2.51495361328125E-06	2.24110863200622E-07	35432.59375	5.60715161554981E-05
1	328	81.6907707937506	-0.099334716796875	-0.099273681640625	-2.4505615234375E-06	2.43276247147151E-07	40510.5859375	5.58214815100655E-05
1	329	81.7914787934964	-0.109405517578125	-0.10931396484375	-2.393798828125E-06	2.61675637602821E-07	45665.48046875	5.55775513930712E-05
1	330	81.8921867932421	-0.119476318359375	-0.11932373046875	-2.34344482421875E-06	2.79628579846758E-07	50918.08984375	5.5339012760669E-05
1	331	81.9928947929878	-0.129547119140625	-0.129425048828125	-2.29888916015625E-06	2.97533830462271E-07	56298.953125	5.51052507944405E-05
1	332	82.0936027927336	-0.139617919921875	-0.1395263671875	-2.26043701171875E-06	3.15390565219786E-07	61725.39453125	5.48756688658614E-05
1	333	82.1943107924793	-0.149688720703125	-0.14959716796875	-2.2259521484375E-06	3.32996137331065E-07	67205.921875	5.46497612958774E-05
1	334	82.2950187922251	-0.159759521484375	-0.159637451171875	-2.1978759765625E-06	3.50863331277651E-07	72632.6015625	5.44270042155404E-05
1	335	82.3957267919708	-0.169830322265625	-0.169677734375	-2.17315673828125E-06	3.68736294831251E-07	78078.921875	5.42069064977113E-05
1	336	82.4964347917165	-0.179901123046875	-0.17974853515625	-2.15240478515625E-06	3.86891599646333E-07	83510.5625	5.39890970685519E-05
1	337	82.5971427914623	-0.189971923828125	-0.189788818359375	-2.13531494140625E-06	4.05258873570347E-07	88880.953125	5.37731939402875E-05
1	338	82.697850791208	-0.200042724609375	-0.19989013671875	-2.1234130859375E-06	4.24449297042884E-07	94136.25	5.35587496415246E-05
1	339	82.7985587909537	-0.189971923828125	-0.189910888671875	-1.9219970703125E-06	3.65008162361846E-07	98809.1484375	5.33550482941791E-05
2	340	82.8992667906995	-0.179901123046875	-0.179718017578125	-1.776123046875E-06	3.19201291176796E-07	101185.5703125	5.31688310729805E-05
2	341	82.9999747904452	-0.169830322265625	-0.169647216796875	-1.65740966796875E-06	2.81174919791738E-07	102356.84375	5.29959397681523E-05
2	342	83.1006827901909	-0.159759521484375	-0.159637451171875	-1.55731201171875E-06	2.48605317665351E-07	102508.328125	5.2834064263152E-05
2	343	83.2013907899367	-0.149688720703125	-0.14959716796875	-1.46820068359375E-06	2.19638650378329E-07	101891.5078125	5.26817202626262E-05
2	344	83.3020987896824	-0.139617919921875	-0.13946533203125	-1.38885498046875E-06	1.9369710457795E-07	100417.4921875	5.25378563906997E-05
2	345	83.4028067894282	-0.129547119140625	-0.129486083984375	-1.31683349609375E-06	1.70511611941038E-07	98331.3984375	5.24016140843742E-05
2	346	83.5035147891739	-0.119476318359375	-0.11944580078125	-1.24908447265625E-06	1.49197887822083E-07	95626.6796875	5.22724076290615E-05
2	347	83.6042227889196	-0.109405517578125	-0.10931396484375	-1.18438720703125E-06	1.29470066667636E-07	92295.796875	5.2149873226881E-05
2	348	83.7049307886654	-0.099334716796875	-0.09930419921875	-1.121826171875E-06	1.11402044922215E-07	88520.1328125	5.20337453053799E-05
2	349	83.8056387884111	-0.089263916015625	-0.08917236328125	-1.058349609375E-06	9.43755296134441E-08	84256.0625	5.19239656568971E-05
2	350	83.9063467881568	-0.079193115234375	-0.0791015625	-9.91210937500001E-07	7.84063303171934E-08	79802.9609375	5.18207634740975E-05
2	351	84.0070547879026	-0.069122314453125	-0.069061279296875	-9.17663574218749E-07	6.33750190104365E-08	75257.734375	5.17246407980565E-05
2	352	84.1077627876483	-0.059051513671875	-0.058990478515625	-8.33740234374999E-07	4.91827343296336E-08	70754.03125	5.16364525537938E-05
2	353	84.208470787394	-0.048980712890625	-0.0488006591796875	-7.3211669921875E-07	3.57277762930153E-08	66656.9375	5.15576066391077E-05
2	354	84.3091787871398	-0.038909912109375	-0.0387847900390625	-6.085205078125E-07	2.36013413257297E-08	63736.2109375	5.14901003043633E-05
2	355	84.4098867868855	-0.028839111328125	-0.02872314453125	-4.5501708984375E-07	1.306952146507E-08	63125.421875	5.14365456183441E-05
2	356	84.5105947866313	-0.018768310546875	-0.01864013671875	-2.667236328125E-07	4.97176477765038E-09	69885.5859375	5.14002022100613E-05
2	357	84.611302786377	-0.008697509765625	-0.0086029052734375	-4.119873046875E-08	3.54428736359935E-10	208814.828125	5.13846971443854E-05
2	358	84.7120107861227	0.001373291015625	0.0014495849609375	2.1697998046875E-07	3.14530901324162E-10	6680.7314453125	5.13935483468231E-05
2	359	84.8127187858685	0.011444091796875	0.011517333984375	4.95300292968751E-07	5.70453906334478E-09	23253.234375	5.14294151798822E-05
2	360	84.9134267856142	0.021514892578125	0.021624755859375	7.7056884765625E-07	1.66633622455947E-08	28063.3671875	5.14931562065613E-05
2	361	85.0141347853599	0.031585693359375	0.0316619873046875	1.01806640625E-06	3.22340056868597E-08	31100.119140625	5.15832216478884E-05
2	362	85.1148427851057	0.041656494140625	0.041729736328125	1.21673583984375E-06	5.07740622879282E-08	34296.46484375	5.16957516083494E-05
2	363	85.2155507848514	0.051727294921875	0.051727294921875	1.35040283203125E-06	6.98526889664208E-08	38305.0859375	5.18250199093018E-05
2	364	85.3162587845972	0.061798095703125	0.06182861328125	1.4202880859375E-06	8.78144419402815E-08	43532.4453125	5.19645327585749E-05
2	365	85.4169667843429	0.071868896484375	0.071929931640625	1.43524169921875E-06	1.03236835968801E-07	50116.94921875	5.21083202329464E-05
2	366	85.5176747840886	0.081939697265625	0.08203125	1.4111328125E-06	1.15756982665971E-07	58131.48828125	5.22516493219882E-05
2	367	85.6183827838344	0.092010498046875	0.09210205078125	1.36260986328125E-06	1.25499155956277E-07	67592.3828125	5.23913149663713E-05
2	368	85.7190907835801	0.102081298828125	0.102081298828125	1.30218505859375E-06	1.32928747120786E-07	78392.3125	5.25254981766921E-05
2	369	85.8197987833258	0.112152099609375	0.112213134765625	1.23809814453125E-06	1.38930872140008E-07	90633.4765625	5.26534131495282E-05
2	370	85.9205067830716	0.122222900390625	0.12225341796875	1.1761474609375E-06	1.43788042805681E-07	103943.9609375	5.2774979849346E-05
2	371	86.0212147828173	0.132293701171875	0.132354736328125	1.1187744140625E-06	1.4807510240189E-07	118303.328125	5.28905402461533E-05
2	372	86.121922782563	0.142364501953125	0.1424560546875	1.06597900390625E-06	1.51855161334424E-07	133638.71875	5.30005490873009E-05
2	373	86.2226307823088	0.152435302734375	0.152496337890625	1.01959228515625E-06	1.55484073616208E-07	149566.015625	5.31055666215252E-05
2	374	86.3233387820545	0.162506103515625	0.16259765625	9.7930908203125E-07	1.59233366048284E-07	166033.03125	5.3206218581181E-05
2	375	86.4240467818003	0.172576904296875	0.172607421875	9.442138671875E-07	1.62978324169671E-07	182805.4375	5.3303076128941E-05
2	376	86.524754781546	0.182647705078125	0.18267822265625	9.13391113281251E-07	1.66856665373416E-07	200000	5.3396615840029E-05
2	377	86.6254627812917	0.192718505859375	0.192779541015625	8.8623046875E-07	1.70847101799154E-07	217527.546875	5.3487230616156E-05
2	378	86.7261707810375	0.202789306640625	0.202880859375	8.6334228515625E-07	1.75155619785983E-07	234994.703125	5.35753315489274E-05
2	379	86.8268787807832	0.212860107421875	0.212799072265625	8.4259033203125E-07	1.79302446667862E-07	252553.421875	5.36612315045204E-05
2	380	86.9275867805289	0.222930908203125	0.222930908203125	8.251953125E-07	1.83961532229659E-07	270155.34375	5.37452106073033E-05
2	381	87.0282947802747	0.233001708984375	0.233062744140625	8.09631347656251E-07	1.88694897929054E-07	287862.8125	5.38275307917502E-05
2	382	87.1290027800204	0.243072509765625	0.243194580078125	7.97119140624999E-07	1.9385505822811E-07	305091.875	5.39084358024411E-05
2	383	87.2297107797662	0.253143310546875	0.253173828125	7.8460693359375E-07	1.98641942006361E-07	322676	5.39880820724647E-05
2	384	87.3304187795119	0.263214111328125	0.26324462890625	7.7484130859375E-07	2.03972803092256E-07	339740.0625	5.40666078450158E-05
2	385	87.4311267792576	0.273284912109375	0.2733154296875	7.65380859375001E-07	2.09190389455216E-07	357097.3125	5.41441622772254E-05
2	386	87.5318347790034	0.283355712890625	0.28338623046875	7.574462890625E-07	2.14649844565429E-07	374133.75	5.42208435945213E-05
2	387	87.6325427787491	0.293426513671875	0.29339599609375	7.5042724609375E-07	2.20172339027158E-07	390971.96875	5.42967718502041E-05
2	388	87.7332507784948	0.303497314453125	0.303497314453125	7.4462890625E-07	2.25992863533975E-07	407581.96875	5.43720525456592E-05
2	389	87.8339587782406	0.313568115234375	0.3135986328125	7.39440917968751E-07	2.31887653967533E-07	424102.34375	5.44467839063145E-05
2	390	87.9346667779863	0.323638916015625	0.32366943359375	7.34863281250001E-07	2.37852773921077E-07	440448.53125	5.4521020501852E-05
2	391	88.035374777732	0.333709716796875	0.333740234375	7.31201171875E-07	2.4403124143646E-07	456427.375	5.45948423678055E-05
2	392	88.1360827774778	0.343780517578125	0.34375	7.275390625E-07	2.50091545694886E-07	472483.25	5.46682967978995E-05
2	393	88.2367907772235	0.353851318359375	0.353851318359375	7.2509765625E-07	2.56576754509297E-07	488005.03125	5.47414419997949E-05
2	394	88.3374987769693	0.363922119140625	0.36395263671875	7.22656250000001E-07	2.63012651657846E-07	503631.75	5.48143434571102E-05
2	395	88.438206776715	0.373992919921875	0.3740234375	7.21130371093751E-07	2.69719635070942E-07	518662.75	5.48870411876123E-05
2	396	88.5389147764607	0.384063720703125	0.38409423828125	7.19604492187501E-07	2.76395923037853E-07	533757.4375	5.49595897609834E-05
2	397	88.6396227762065	0.394134521484375	0.39410400390625	7.19299316406249E-07	2.83478726714748E-07	547899.875	5.50320437469054E-05
2	398	88.7403307759522	0.404205322265625	0.404205322265625	7.183837890625E-07	2.90374543965299E-07	562659.3125	5.51044358871877E-05
2	399	88.8410387756979	0.414276123046875	0.414276123046875	7.1868896484375E-07	2.97735681442646E-07	576433.125	5.51767989236396E-05
2	400	88.9417467754437	0.424346923828125	0.42431640625	7.1868896484375E-07	3.04951527141384E-07	590403.375	5.52491765120067E-05
2	401	89.0424547751894	0.434417724609375	0.434417724609375	7.18994140625E-07	3.12343786390556E-07	604202.0625	5.5321568652289E-05
2	402	89.1431627749351	0.444488525390625	0.44451904296875	7.1990966796875E-07	3.20013526788898E-07	617465.0625	5.5394022638211E-05
2	403	89.2438707746809	0.454559326171875	0.45458984375	7.21130371093751E-07	3.27818526102419E-07	630385.125	5.54665857634973E-05
2	404	89.3445787744266	0.464630126953125	0.464630126953125	7.220458984375E-07	3.35484259039731E-07	643491.1875	5.55392543901689E-05
2	405	89.4452867741724	0.474700927734375	0.47467041015625	7.232666015625E-07	3.43313246276011E-07	656286.9375	5.56120321562048E-05
2	406	89.5459947739181	0.484771728515625	0.484710693359375	7.25708007812501E-07	3.51758416172743E-07	667914.25	5.56849954591598E-05
2	407	89.6467027736638	0.494842529296875	0.494781494140625	7.275390625E-07	3.59972858632318E-07	680075.5625	5.57581734028645E-05
2	408	89.7474107734096	0.504913330078125	0.5048828125	7.3089599609375E-07	3.69016817103329E-07	690772.4375	5.58316096430644E-05
2	409	89.8481187731553	0.514984130859375	0.5150146484375	7.342529296875E-07	3.78151014501782E-07	701413.125	5.59053842152935E-05
2	410	89.948826772901	0.525054931640625	0.524993896484375	7.39440917968751E-07	3.88201954137912E-07	709987.625	5.59795917070005E-05
2	411	90.0495347726468	0.535125732421875	0.53515625	7.45239257812499E-07	3.98819423708119E-07	718099.9375	5.60543521714862E-05
2	412	90.1502427723925	0.545196533203125	0.545196533203125	7.53173828125001E-07	4.10627762903459E-07	723865.5	5.61298038519453E-05
2	413	90.2509507721383	0.555267333984375	0.555267333984375	7.63854980468751E-07	4.24143706823088E-07	726927.6875	5.62061904929578E-05
2	414	90.351658771884	0.565338134765625	0.5653076171875	7.781982421875E-07	4.39921393535769E-07	726431.375	5.62838395126164E-05
2	415	90.4523667716297	0.575408935546875	0.575408935546875	7.97119140624999E-07	4.58669461522732E-07	721860.625	5.63631620025262E-05
2	416	90.5530747713755	0.585479736328125	0.58551025390625	8.251953125E-07	4.83160306430364E-07	709541.4375	5.64448528166395E-05
2	417	90.6537827711212	0.595550537109375	0.59552001953125	8.648681640625E-07	5.15046281179821E-07	688567.4375	5.65299560548738E-05
2	418	90.7544907708669	0.605621337890625	0.6055908203125	9.20715332031249E-07	5.57576754545153E-07	657739.5	5.66198650631122E-05
2	419	90.8551987706127	0.615692138671875	0.61566162109375	9.9945068359375E-07	6.15323415331659E-07	616000	5.67165552638471E-05
2	420	90.9559067703584	0.625762939453125	0.625701904296875	1.1090087890625E-06	6.93908873472537E-07	564199.25	5.68227223993745E-05
2	421	91.0566147701041	0.635833740234375	0.6357421875	1.25457763671875E-06	7.97587915712938E-07	506738.0625	5.69417388760485E-05
2	422	91.1573227698499	0.645904541015625	0.64581298828125	1.44012451171875E-06	9.300511010224E-07	448442.46875	5.70774282095954E-05
2	423	91.2580307695956	0.655975341796875	0.65594482421875	1.663818359375E-06	1.09137306480989E-06	394240.65625	5.72337230551057E-05
2	424	91.3587387693414	0.666046142578125	0.665985107421875	1.917724609375E-06	1.27717601117183E-06	347278.8125	5.74140685785096E-05
2	425	91.4594467690871	0.676116943359375	0.676055908203125	2.18170166015625E-06	1.47495222790894E-06	309875.53125	5.76204911340028E-05
2	426	91.5601547688328	0.686187744140625	0.68609619140625	2.43316650390625E-06	1.66938616530388E-06	281976.6875	5.78528706682846E-05
2	427	91.6608627685786	0.696258544921875	0.6961669921875	2.6483154296875E-06	1.84366967914684E-06	262871.625	5.81087406317238E-05
2	428	91.7615707683243	0.706329345703125	0.706268310546875	2.8094482421875E-06	1.98422435460088E-06	251390.390625	5.83835608267691E-05
2	429	91.86227876807	0.716400146484375	0.716339111328125	2.90985107421875E-06	2.08443998417351E-06	246177.25	5.86715505050961E-05
2	430	91.9629867678158	0.726470947265625	0.72637939453125	2.95440673828125E-06	2.14602005144116E-06	245863.03125	5.89668416068889E-05
2	431	92.0636947675615	0.736541748046875	0.736419677734375	2.962646484375E-06	2.18175114241603E-06	248568.1875	5.92647884332109E-05
2	432	92.1644027673073	0.746612548828125	0.746490478515625	2.9559326171875E-06	2.20657557292725E-06	252539.75	5.95628116570879E-05
2	433	92.265110767053	0.756683349609375	0.75653076171875	2.950439453125E-06	2.23209826799575E-06	256412.90625	5.98602200625464E-05
2	434	92.3658187667987	0.766754150390625	0.7672119140625	2.96600341796875E-06	2.27555324272544E-06	258668.59375	6.0158137785038E-05
2	435	92.4665267665445	0.776824951171875	0.77667236328125	3.02032470703125E-06	2.34580261349038E-06	257148.640625	6.0459573433036E-05
2	436	92.5672347662902	0.786895751953125	0.78704833984375	3.131103515625E-06	2.46432978201483E-06	251364.515625	6.07693218626082E-05
2	437	92.6679427660359	0.796966552734375	0.79742431640625	3.310546875E-06	2.6399104626762E-06	240873.890625	6.10936840530485E-05
2	438	92.7686507657817	0.807037353515625	0.80718994140625	3.56964111328125E-06	2.88137835013913E-06	226126.359375	6.14401287748478E-05
2	439	92.8693587655274	0.817108154296875	0.81787109375	3.90716552734375E-06	3.19555783789838E-06	209325.9375	6.18166159256361E-05
2	440	92.9700667652731	0.827178955078125	0.82733154296875	4.3133544921875E-06	3.56857435690472E-06	191806.984375	6.22305524302647E-05
2	441	93.0707747650189	0.837249755859375	0.83770751953125	4.7637939453125E-06	3.99066584577668E-06	175848.828125	6.26876280875877E-05
2	442	93.1714827647646	0.847320556640625	0.8477783203125	5.2276611328125E-06	4.43189765064744E-06	162171.640625	6.3190731452778E-05
2	443	93.2721907645104	0.857391357421875	0.8575439453125	5.657958984375E-06	4.85194823340862E-06	151564.1875	6.37388657196425E-05
2	444	93.3728987642561	0.867462158203125	0.8673095703125	6.0211181640625E-06	5.22217351317522E-06	144044.59375	6.43269595457241E-05
2	445	93.4736067640018	0.877532958984375	0.8782958984375	6.2744140625E-06	5.51079210708849E-06	139980.546875	6.49460853310302E-05
2	446	93.5743147637476	0.887603759765625	0.88775634765625	6.40869140625E-06	5.68935638511903E-06	138523.8125	6.55847325106151E-05
2	447	93.6750227634933	0.897674560546875	0.89752197265625	6.427001953125E-06	5.76837510379846E-06	139648.625	6.62310631014407E-05
2	448	93.775730763239	0.907745361328125	0.90789794921875	6.3568115234375E-06	5.77133596380008E-06	142822.859375	6.68747743475251E-05
2	449	93.8764387629848	0.917816162109375	0.9173583984375	6.2286376953125E-06	5.71389318793081E-06	147280.75	6.75085029797629E-05
2	450	93.9771467627305	0.927886962890625	0.92803955078125	6.0821533203125E-06	5.64447873330209E-06	152584.046875	6.81284000165761E-05
2	451	94.0778547624762	0.937957763671875	0.93780517578125	5.938720703125E-06	5.56936311113532E-06	157913.671875	6.87337014824152E-05
2	452	94.178562762222	0.948028564453125	0.94818115234375	5.816650390625E-06	5.51523817193811E-06	163011.546875	6.93256297381595E-05
2	453	94.2792707619677	0.958099365234375	0.95794677734375	5.7342529296875E-06	5.49310880160192E-06	167056.953125	6.99072625138797E-05
2	454	94.3799787617135	0.968170166015625	0.96832275390625	5.6976318359375E-06	5.51714674656978E-06	169951.796875	7.04829071764834E-05
2	455	94.4806867614592	0.978240966796875	0.97869873046875	5.718994140625E-06	5.59717227588408E-06	171131.265625	7.10577805875801E-05
2	456	94.5813947612049	0.988311767578125	0.98846435546875	5.792236328125E-06	5.72541875953902E-06	170653.328125	7.16374124749564E-05
2	457	94.6821027609507	0.998382568359375	0.99853515625	5.9112548828125E-06	5.90259605814936E-06	168921.015625	7.22267359378748E-05
2	458	94.7828107606964	1.00845336914063	1.00830078125	6.0546875E-06	6.10494589636801E-06	166532.265625	7.28292652638629E-05
2	459	94.8835187604421	1.01852416992188	1.01837158203125	6.201171875E-06	6.31509692539112E-06	164222.4375	7.34463974367827E-05
2	460	94.9842267601879	1.02859497070313	1.0284423828125	6.317138671875E-06	6.4968126025633E-06	162801.9375	7.40767427487299E-05
2	461	95.0849347599336	1.03866577148438	1.03851318359375	6.3873291015625E-06	6.63332548356266E-06	162589.59375	7.47164667700417E-05
2	462	95.1856427596794	1.04873657226563	1.048583984375	6.396484375E-06	6.70725103191216E-06	163931.296875	7.53601780161262E-05
2	463	95.2863507594251	1.05880737304688	1.05865478515625	6.353759765625E-06	6.72643773214077E-06	166618.640625	7.60022085160017E-05
2	464	95.3870587591708	1.06887817382813	1.06903076171875	6.2652587890625E-06	6.69775408823625E-06	170628.359375	7.6637625170406E-05
2	465	95.4877667589166	1.07894897460938	1.0791015625	6.15234375E-06	6.63900391373318E-06	175396.828125	7.7262899139896E-05
2	466	95.5884747586623	1.08901977539063	1.0888671875	6.0272216796875E-06	6.56284373690141E-06	180658.234375	7.78761896071956E-05
2	467	95.689182758408	1.09909057617188	1.0992431640625	5.8990478515625E-06	6.48448803985957E-06	186342.484375	7.84767253207974E-05
2	468	95.7898907581538	1.10916137695313	1.10931396484375	5.77392578125E-06	6.40509642835241E-06	192124.734375	7.90645062807016E-05
2	469	95.8905987578995	1.11923217773438	1.11907958984375	5.6549072265625E-06	6.32829096502974E-06	197895.3125	7.96399908722378E-05
2	470	95.9913067576452	1.12930297851563	1.12945556640625	5.548095703125E-06	6.2663275457453E-06	203575.359375	8.02041104179807E-05
2	471	96.092014757391	1.13937377929688	1.13922119140625	5.450439453125E-06	6.20925584371435E-06	209014.5625	8.07579272077419E-05
2	472	96.1927227571367	1.14944458007813	1.14990234375	5.35888671875E-06	6.16219631410786E-06	214578.59375	8.13022197689861E-05
2	473	96.2934307568825	1.15951538085938	1.15936279296875	5.279541015625E-06	6.12090298091061E-06	219595.390625	8.18379121483304E-05
2	474	96.3941387566282	1.16958618164063	1.16973876953125	5.206298828125E-06	6.09000926488079E-06	224677.609375	8.23659138404764E-05
2	475	96.4948467563739	1.17965698242188	1.1798095703125	5.13916015625E-06	6.06323010288179E-06	229572.453125	8.28868505777791E-05
2	476	96.5955547561197	1.18972778320313	1.18988037109375	5.078125E-06	6.04236129220226E-06	234314.90625	8.3401333540678E-05
2	477	96.6962627558654	1.19979858398438	1.199951171875	5.023193359375E-06	6.02758655077196E-06	238882.140625	8.39099739096127E-05
2	478	96.7969707556111	1.20986938476563	1.209716796875	4.974365234375E-06	6.01757346885279E-06	243190.1875	8.44133901409805E-05
2	479	96.8976787553569	1.21994018554688	1.21978759765625	4.92645263671875E-06	6.00922567173257E-06	247599.578125	8.49119387567043E-05
2	480	96.9983867551026	1.23001098632813	1.2298583984375	4.88616943359375E-06	6.0092966123193E-06	251701.953125	8.54060417623259E-05
2	481	97.0990947548484	1.24008178710938	1.23992919921875	4.8480224609375E-06	6.01120473220362E-06	255759.796875	8.5896193922963E-05
2	482	97.1998027545941	1.25015258789063	1.25030517578125	4.814453125E-06	6.01953524892451E-06	259698.28125	8.63827372086234E-05
2	483	97.3005107543398	1.26022338867188	1.26007080078125	4.78363037109375E-06	6.02771251578815E-06	263413.09375	8.68660426931456E-05
2	484	97.4012187540856	1.27029418945313	1.26983642578125	4.75494384765625E-06	6.03800071985461E-06	267056.03125	8.73463504831307E-05
2	485	97.5019267538313	1.28036499023438	1.280517578125	4.72991943359375E-06	6.0567449509108E-06	270727.125	8.78239516168833E-05
2	486	97.602634753577	1.29043579101563	1.29058837890625	4.70733642578125E-06	6.07523361395579E-06	274165.3125	8.82991516846232E-05
2	487	97.7033427533228	1.30050659179688	1.300048828125	4.68658447265625E-06	6.09278868068941E-06	277397.9375	8.87721762410365E-05
2	488	97.8040507530685	1.31057739257813	1.31072998046875	4.66827392578125E-06	6.11884661338991E-06	280774	8.92432290129364E-05
2	489	97.9047587528142	1.32064819335938	1.32080078125	4.65301513671875E-06	6.14570581092266E-06	283859.125	8.97125937626697E-05
2	490	98.00546675256	1.33071899414063	1.33087158203125	4.639892578125E-06	6.17510067968396E-06	286832.4375	9.01805251487531E-05
2	491	98.1061747523057	1.34078979492188	1.34063720703125	4.630126953125E-06	6.20732043898897E-06	289546.53125	9.06473069335334E-05
2	492	98.2068827520515	1.35086059570313	1.35040283203125	4.62249755859375E-06	6.24223321210593E-06	292137.0625	9.11132156034E-05
2	493	98.3075907517972	1.36093139648438	1.36077880859375	4.61761474609375E-06	6.28355201115482E-06	294693.03125	9.15784912649542E-05
2	494	98.4082987515429	1.37100219726563	1.37115478515625	4.61639404296875E-06	6.32979072179296E-06	297018.5625	9.20434613362886E-05
2	495	98.5090067512887	1.38107299804688	1.380615234375	4.6173095703125E-06	6.37472794551286E-06	299008.59375	9.25084168557078E-05
2	496	98.6097147510344	1.39114379882813	1.39129638671875	4.62188720703125E-06	6.43041448711301E-06	301023.46875	9.29736488615163E-05
2	497	98.7104227507801	1.40121459960938	1.4007568359375	4.62890625E-06	6.48397190161631E-06	302610.78125	9.34394629439339E-05
2	498	98.8111307505259	1.41128540039063	1.41143798828125	4.63897705078125E-06	6.5476283452881E-06	304256.3125	9.390613558935E-05
2	499	98.9118387502716	1.42135620117188	1.42120361328125	4.6533203125E-06	6.6133152358816E-06	305417.125	9.43740378716029E-05
2	500	99.0125467500173	1.43142700195313	1.43157958984375	4.67071533203125E-06	6.68650045554386E-06	306501.15625	9.4843540864531E-05
2	501	99.1132547497631	1.44149780273438	1.44134521484375	4.693603515625E-06	6.76510262564989E-06	307087.125	9.53150738496333E-05
2	502	99.2139627495088	1.45156860351563	1.451416015625	4.72137451171875E-06	6.85267832523095E-06	307413.875	9.57891534199007E-05
2	503	99.3146707492546	1.46163940429688	1.46148681640625	4.757080078125E-06	6.95240942150122E-06	307223.53125	9.62664344115183E-05
2	504	99.4153787490003	1.47171020507813	1.4715576171875	4.80224609375E-06	7.06678201822797E-06	306431.09375	9.67477826634422E-05
2	505	99.516086748746	1.48178100585938	1.48162841796875	4.857177734375E-06	7.19653280611965E-06	305038.9375	9.72341731539927E-05
2	506	99.6167947484918	1.49185180664063	1.49139404296875	4.9249267578125E-06	7.34500599719468E-06	302825.65625	9.77267409325577E-05
2	507	99.7175027482375	1.50192260742188	1.5020751953125	5.0048828125E-06	7.51770994611434E-06	300121.96875	9.82267447398044E-05
2	508	99.8182107479832	1.49185180664063	1.49139404296875	4.76715087890625E-06	7.10970016370993E-06	312848.09375	9.8718810477294E-05
2	509	99.918918747729	1.48178100585938	1.48193359375	4.5953369140625E-06	6.80998346069828E-06	322486.40625	9.91902488749474E-05
2	510	100.019626747475	1.47171020507813	1.47186279296875	4.45953369140625E-06	6.56382144370582E-06	330048.59375	9.96461967588402E-05
2	511	100.12033474722	1.46163940429688	1.46209716796875	4.35028076171875E-06	6.36053300695494E-06	336092.625	0.000100089804618619
2	512	100.221042746966	1.45156860351563	1.451416015625	4.259033203125E-06	6.18162903265329E-06	340785.3125	0.000100523320725188
2	513	100.321750746712	1.44149780273438	1.44134521484375	4.18243408203125E-06	6.02833142693271E-06	344618.75	0.000100948382169008
2	514	100.422458746458	1.43142700195313	1.43157958984375	4.11712646484375E-06	5.89399451200734E-06	347713.28125	0.000101366298622452
2	515	100.523166746203	1.42135620117188	1.4215087890625	4.06036376953125E-06	5.77184255234897E-06	350093.96875	0.000101778066891711
2	516	100.623874745949	1.41128540039063	1.4111328125	4.010009765625E-06	5.65865639146068E-06	351902.5625	0.000102184443676379
2	517	100.724582745695	1.40121459960938	1.40106201171875	3.96575927734375E-06	5.5562745728821E-06	353289.71875	0.000102586054708809
2	518	100.825290745441	1.39114379882813	1.3916015625	3.92608642578125E-06	5.46354795005755E-06	354450.0625	0.000102983438409865
2	519	100.925998745186	1.38107299804688	1.3812255859375	3.89007568359375E-06	5.37307232661988E-06	355063.9375	0.000103377016785089
2	520	101.026706744932	1.37100219726563	1.370849609375	3.8568115234375E-06	5.28710825165035E-06	355436	0.000103767102700658
2	521	101.127414744678	1.36093139648438	1.36077880859375	3.82568359375E-06	5.20590901942342E-06	355695.59375	0.000104153943539131
2	522	101.228122744424	1.35086059570313	1.3507080078125	3.7969970703125E-06	5.12863425683463E-06	355730.59375	0.00010453777940711
2	523	101.328830744169	1.34078979492188	1.3409423828125	3.76953125E-06	5.05472416989505E-06	355731.875	0.000104918784927577
2	524	101.429538743915	1.33071899414063	1.33026123046875	3.7432861328125E-06	4.97954806633061E-06	355372.59375	0.000105297083791811
2	525	101.530246743661	1.32064819335938	1.32080078125	3.7176513671875E-06	4.91027685711742E-06	355278.28125	0.000105672770587262
2	526	101.630954743407	1.31057739257813	1.3104248046875	3.69354248046875E-06	4.84010934087564E-06	354788.09375	0.000106045954453293
2	527	101.731662743152	1.30050659179688	1.300048828125	3.66912841796875E-06	4.77004596177721E-06	354320.90625	0.000106416693597566
2	528	101.832370742898	1.29043579101563	1.29058837890625	3.64593505859375E-06	4.70540135211195E-06	353980.0625	0.000106785038951784
2	529	101.933078742644	1.28036499023438	1.280517578125	3.62335205078125E-06	4.6397658479691E-06	353406.90625	0.000107151077827439
2	530	102.033786742389	1.27029418945313	1.27044677734375	3.60137939453125E-06	4.57536089015775E-06	352766.71875	0.00010751486843219
2	531	102.134494742135	1.26022338867188	1.26007080078125	3.58001708984375E-06	4.51107462140499E-06	351973.40625	0.000107876483525615
2	532	102.235202741881	1.25015258789063	1.25	3.5595703125E-06	4.44946272182278E-06	351166	0.000108235988591332
2	533	102.335910741627	1.24008178710938	1.23992919921875	3.53912353515625E-06	4.38826282334048E-06	350349.21875	0.000108593434561044
2	534	102.436618741372	1.23001098632813	1.22955322265625	3.51959228515625E-06	4.32752585766139E-06	349345.375	0.000108948872366454
2	535	102.537326741118	1.21994018554688	1.21978759765625	3.50006103515625E-06	4.26933092967374E-06	348504.65625	0.000109302338387351
2	536	102.638034740864	1.20986938476563	1.21002197265625	3.4814453125E-06	4.21262529926025E-06	347563.125	0.000109653883555438
2	537	102.73874274061	1.19979858398438	1.199951171875	3.4625244140625E-06	4.1548601075192E-06	346553.875	0.000110003544250503
2	538	102.839450740355	1.18972778320313	1.18927001953125	3.44390869140625E-06	4.0957370401884E-06	345325.65625	0.000110351305920631
2	539	102.940158740101	1.17965698242188	1.17919921875	3.42498779296875E-06	4.03874264520709E-06	344292.96875	0.000110697183117736
2	540	103.040866739847	1.16958618164063	1.16943359375	3.40484619140625E-06	3.98174142901553E-06	343461.5	0.000111041095806286
2	541	103.141574739593	1.15951538085938	1.15936279296875	3.3843994140625E-06	3.92374658986228E-06	342560.875	0.000111382956674788
2	542	103.242282739338	1.14944458007813	1.1492919921875	3.36151123046875E-06	3.86335796065396E-06	341897.4375	0.000111722642031964
2	543	103.342990739084	1.13937377929688	1.13983154296875	3.3367919921875E-06	3.80338065042451E-06	341595.03125	0.000112059926323127
2	544	103.44369873883	1.12930297851563	1.12945556640625	3.3074951171875E-06	3.73566876987752E-06	341483.6875	0.0001123944966821
2	545	103.544406738576	1.11923217773438	1.11907958984375	3.2720947265625E-06	3.661734126581E-06	342007.09375	0.000112725807412062
2	546	103.645114738321	1.10916137695313	1.109619140625	3.22906494140625E-06	3.58303213943145E-06	343634.84375	0.000113053167297039
2	547	103.745822738067	1.09909057617188	1.09893798828125	3.17413330078125E-06	3.48817570738902E-06	346216.71875	0.000113375586806796
2	548	103.846530737813	1.08901977539063	1.08978271484375	3.1024169921875E-06	3.38096037921787E-06	351268.9375	0.000113691639853641
2	549	103.947238737558	1.07894897460938	1.0791015625	3.00872802734375E-06	3.24672282658867E-06	358657.09375	0.000113999361929018
2	550	104.047946737304	1.06887817382813	1.0693359375	2.8857421875E-06	3.08582775687682E-06	370558.375	0.000114296170067973
2	551	104.14865473705	1.05880737304688	1.0589599609375	2.7288818359375E-06	2.8897766242153E-06	388056.375	0.000114578891952988
2	552	104.249362736796	1.04873657226563	1.04827880859375	2.53326416015625E-06	2.65556695921987E-06	413805.59375	0.000114843860501423
2	553	104.350070736541	1.03866577148438	1.0382080078125	2.3004150390625E-06	2.38830921261979E-06	451313.375	0.000115087255835533
2	554	104.450778736287	1.02859497070313	1.02874755859375	2.04010009765625E-06	2.09874792744813E-06	504263.28125	0.000115305818326306
2	555	104.551486736033	1.01852416992188	1.01898193359375	1.76849365234375E-06	1.80206302502484E-06	576186.375	0.0001154975980171
2	556	104.652194735779	1.00845336914063	1.00860595703125	1.50909423828125E-06	1.52208144754695E-06	668351.875	0.000115662631287705
2	557	104.752902735524	0.998382568359375	0.99853515625	1.28662109375E-06	1.284736413254E-06	776091.0625	0.000115803406515624
2	558	104.85361073527	0.988311767578125	0.98846435546875	1.11846923828125E-06	1.10556686649943E-06	883765.375	0.000115924514830112
2	559	104.954318735016	0.978240966796875	0.9783935546875	1.01226806640625E-06	9.90396529232385E-07	966536.0625	0.000116031806101091
2	560	105.055026734762	0.968170166015625	0.968017578125	9.63439941406249E-07	9.32626733174402E-07	1004751.375	0.00011613129026955
2	561	105.155734734507	0.958099365234375	0.95855712890625	9.552001953125E-07	9.15614009500132E-07	1003514.375	0.000116227900434751
2	562	105.256442734253	0.948028564453125	0.9478759765625	9.63439941406249E-07	9.13221526843699E-07	983845.4375	0.000116324510599952
2	563	105.357150733999	0.937957763671875	0.93780517578125	9.6588134765625E-07	9.05808519746643E-07	970932.0625	0.000116421666461974
2	564	105.457858733745	0.927886962890625	0.92803955078125	9.429931640625E-07	8.75134958278068E-07	984142.375	0.000116517781862058
2	565	105.55856673349	0.917816162109375	0.91766357421875	8.807373046875E-07	8.08220534054271E-07	1041926.5625	0.000116609611723106
2	566	105.659274733236	0.907745361328125	0.908203125	7.65380859375001E-07	6.9512128675342E-07	1186602.875	0.000116692506708205
2	567	105.759982732982	0.897674560546875	0.89691162109375	5.8319091796875E-07	5.23070696090144E-07	1537938.25	0.00011676040594466
2	568	105.860690732727	0.887603759765625	0.887451171875	3.2928466796875E-07	2.92224058284773E-07	2695088	0.000116806353616994
2	569	105.961398732473	0.877532958984375	0.87799072265625	1.83105468749972E-09	1.60764901391275E-09	479500000	0.000116823030111846
2	570	106.062106732219	0.867462158203125	0.86761474609375	-3.863525390625E-07	-3.35205157853125E-07	-2245655.75	0.000116803668788634
2	571	106.162814731965	0.857391357421875	0.8575439453125	-8.1298828125E-07	-6.97173163644038E-07	-1054804.75	0.000116743278340437
2	572	106.26352273171	0.847320556640625	0.8477783203125	-1.2396240234375E-06	-1.05092635749315E-06	-683899.5625	0.000116639916086569
2	573	106.364230731456	0.837249755859375	0.83709716796875	-1.63055419921875E-06	-1.3649322454512E-06	-513382	0.000116495393740479
2	574	106.464938731202	0.827178955078125	0.82733154296875	-1.94793701171875E-06	-1.61158959599561E-06	-424721.9375	0.000116315204650164
2	575	106.565646730948	0.817108154296875	0.81695556640625	-2.16888427734375E-06	-1.77188212546753E-06	-376670.875	0.000116107905341778
2	576	106.666354730693	0.807037353515625	0.806884765625	-2.28363037109375E-06	-1.84262648872391E-06	-353334.25	0.000115883703983855
2	577	106.767062730439	0.796966552734375	0.79742431640625	-2.3065185546875E-06	-1.83927397756634E-06	-345726.375	0.000115652568638325
2	578	106.867770730185	0.786895751953125	0.78704833984375	-2.259521484375E-06	-1.77835249814962E-06	-348325.25	0.000115422648377717
2	579	106.968478729931	0.776824951171875	0.77728271484375	-2.17132568359375E-06	-1.68773385667009E-06	-357976.125	0.000115199538413435
2	580	107.069186729676	0.766754150390625	0.76690673828125	-2.06787109375E-06	-1.58586419729545E-06	-370867.78125	0.00011498607636895
2	581	107.169894729422	0.756683349609375	0.75653076171875	-1.97052001953125E-06	-1.49075890476524E-06	-383924.46875	0.000114782727905549
2	582	107.270602729168	0.746612548828125	0.746551513671875	-1.89483642578125E-06	-1.41459292990476E-06	-393992.59375	0.00011458809603937
2	583	107.371310728913	0.736541748046875	0.7364501953125	-1.85211181640625E-06	-1.36398807626392E-06	-397627.3125	0.000114399423182476
2	584	107.472018728659	0.726470947265625	0.72637939453125	-1.85089111328125E-06	-1.34444917421206E-06	-392448.5	0.000114212962216698
2	585	107.572726728405	0.716400146484375	0.716339111328125	-1.89544677734375E-06	-1.35778259391373E-06	-377926.25	0.000114024318463635
2	586	107.673434728151	0.706329345703125	0.706298828125	-1.98394775390625E-06	-1.4012598512636E-06	-356006.78125	0.000113828973553609
2	587	107.774142727896	0.696258544921875	0.6961669921875	-2.1099853515625E-06	-1.46890204177907E-06	-329939.28125	0.000113622823846526
2	588	107.874850727642	0.686187744140625	0.686187744140625	-2.25494384765625E-06	-1.54731480961345E-06	-304303.6875	0.000113403038994875
2	589	107.975558727388	0.676116943359375	0.67608642578125	-2.39898681640625E-06	-1.62192236530245E-06	-281821.65625	0.000113168694952037
2	590	108.076266727134	0.666046142578125	0.665985107421875	-2.51861572265625E-06	-1.67736050116218E-06	-264425.0625	0.000112921072286554
2	591	108.176974726879	0.655975341796875	0.655914306640625	-2.5958251953125E-06	-1.70263888321642E-06	-252680.453125	0.0001126635397668
2	592	108.277682726625	0.645904541015625	0.645843505859375	-2.620849609375E-06	-1.69265865679336E-06	-246425.25	0.000112400855869055
2	593	108.378390726371	0.635833740234375	0.6357421875	-2.59674072265625E-06	-1.65085759817885E-06	-244823.140625	0.000112138128315564
2	594	108.479098726117	0.625762939453125	0.625762939453125	-2.5335693359375E-06	-1.58541365635756E-06	-246988.6875	0.00011187980271643
2	595	108.579806725862	0.615692138671875	0.61566162109375	-2.44415283203125E-06	-1.50477114857495E-06	-251891.625	0.000111629153252579
2	596	108.680514725608	0.605621337890625	0.6055908203125	-2.34039306640625E-06	-1.41732050451537E-06	-258756.046875	0.000111388231744058
2	597	108.781222725354	0.595550537109375	0.595458984375	-2.232666015625E-06	-1.32946104258735E-06	-266703.125	0.000111157954961527
2	598	108.8819307251	0.585479736328125	0.58544921875	-2.12615966796875E-06	-1.24475855045603E-06	-275355.25	0.000110938475700095
2	599	108.982638724845	0.575408935546875	0.575439453125	-2.02392578125E-06	-1.16464661914506E-06	-284318.46875	0.000110729502921458
2	600	109.083346724591	0.565338134765625	0.56536865234375	-1.92901611328125E-06	-1.09060511022108E-06	-293086.5625	0.000110530454549007
2	601	109.184054724337	0.555267333984375	0.555267333984375	-1.84112548828125E-06	-1.02231683740683E-06	-301591.25	0.000110340610262938
2	602	109.284762724082	0.545196533203125	0.54522705078125	-1.76116943359375E-06	-9.60237230174243E-07	-309582.40625	0.000110159220639616
2	603	109.385470723828	0.535125732421875	0.53509521484375	-1.68701171875E-06	-9.02711917660781E-07	-317185.25	0.000109985594463069
2	604	109.486178723574	0.525054931640625	0.525054931640625	-1.6204833984375E-06	-8.50842752697645E-07	-324011.3125	0.00010981904779328
2	605	109.58688672332	0.514984130859375	0.51495361328125	-1.5594482421875E-06	-8.03043462838104E-07	-330215.28125	0.000109658925794065
2	606	109.687594723065	0.504913330078125	0.5048828125	-1.5045166015625E-06	-7.59604574795958E-07	-335578.09375	0.000109504639112856
2	607	109.788302722811	0.494842529296875	0.494842529296875	-1.4532470703125E-06	-7.19128422588255E-07	-340508.1875	0.000109355707536452
2	608	109.889010722557	0.484771728515625	0.48480224609375	-1.40594482421875E-06	-6.81605172303534E-07	-344823.09375	0.00010921173816314
2	609	109.989718722303	0.474700927734375	0.474700927734375	-1.36260986328125E-06	-6.46832177153556E-07	-348376.25	0.000109072330815252
2	610	110.090426722048	0.464630126953125	0.46466064453125	-1.32232666015625E-06	-6.14433133705461E-07	-351396.28125	0.000108937128970865
2	611	110.191134721794	0.454559326171875	0.454559326171875	-1.285400390625E-06	-5.84290717142721E-07	-353632.5	0.000108805819763802
2	612	110.29184272154	0.444488525390625	0.44451904296875	-1.25091552734375E-06	-5.56055738343275E-07	-355354.96875	0.0001086781048798
2	613	110.392550721286	0.434417724609375	0.43438720703125	-1.21826171875E-06	-5.29197279774962E-07	-356563.125	0.000108553773316089
2	614	110.493258721031	0.424346923828125	0.42431640625	-1.18865966796875E-06	-5.04367790199467E-07	-356970.46875	0.00010843257769011
2	615	110.593966720777	0.414276123046875	0.414215087890625	-1.16058349609375E-06	-4.80731159768766E-07	-356902.46875	0.000108314285171218
2	616	110.694674720523	0.404205322265625	0.404296875	-1.134033203125E-06	-4.58486056231777E-07	-356512.40625	0.000108198735688347
2	617	110.795382720269	0.394134521484375	0.394134521484375	-1.10931396484375E-06	-4.37218943716289E-07	-355295.71875	0.000108085776446387
2	618	110.896090720014	0.384063720703125	0.384033203125	-1.08612060546875E-06	-4.17106377881282E-07	-353582.46875	0.000107975225546397
2	619	110.99679871976	0.373992919921875	0.373931884765625	-1.06414794921875E-06	-3.97918825001398E-07	-351390.90625	0.000107866952021141
2	620	111.097506719506	0.363922119140625	0.363983154296875	-1.043701171875E-06	-3.79889627311059E-07	-348742.71875	0.000107760817627423
2	621	111.198214719251	0.353851318359375	0.353851318359375	-1.02447509765625E-06	-3.62511855200864E-07	-345397.6875	0.000107656676846091
2	622	111.298922718997	0.343780517578125	0.343841552734375	-1.00677490234375E-06	-3.46171020737529E-07	-341527.75	0.000107554391433951
2	623	111.399630718743	0.333709716796875	0.333770751953125	-9.89685058593751E-07	-3.30327935671448E-07	-337249.46875	0.000107453859527595
2	624	111.500338718489	0.323638916015625	0.32366943359375	-9.74426269531251E-07	-3.15391986305258E-07	-332164.125	0.000107354964711703
2	625	111.601046718234	0.313568115234375	0.3135986328125	-9.5947265625E-07	-3.00889325899334E-07	-326844.78125	0.000107257583294995
2	626	111.70175471798	0.303497314453125	0.303497314453125	-9.4573974609375E-07	-2.87029450873888E-07	-320909.96875	0.000107161649793852
2	627	111.802462717726	0.293426513671875	0.293426513671875	-9.326171875E-07	-2.73654620741581E-07	-314626.96875	0.000107067062344868
2	628	111.903170717472	0.283355712890625	0.283416748046875	-9.20715332031249E-07	-2.6094613758687E-07	-307822.34375	0.000106973740912508
2	629	112.003878717217	0.273284912109375	0.27325439453125	-9.09423828125E-07	-2.48504051114651E-07	-300469.8125	0.000106881590909325
2	630	112.104586716963	0.263214111328125	0.263275146484375	-8.99353027343749E-07	-2.36777282225376E-07	-292738.40625	0.00010679051047191
2	631	112.205294716709	0.253143310546875	0.253204345703125	-8.8958740234375E-07	-2.25247390517325E-07	-284631.21875	0.000106700426840689
2	632	112.306002716455	0.243072509765625	0.24310302734375	-8.81347656250001E-07	-2.14258278674606E-07	-275831.03125	0.00010661125270417
2	633	112.4067107162	0.233001708984375	0.233001708984375	-8.73718261718751E-07	-2.03577840807156E-07	-266678.3125	0.000106522878922988
2	634	112.507418715946	0.222930908203125	0.222900390625	-8.6700439453125E-07	-1.93255615954513E-07	-257092.578125	0.00010643522546161
2	635	112.608126715692	0.212860107421875	0.212860107421875	-8.612060546875E-07	-1.83316416269008E-07	-247165.140625	0.000106348205008544
2	636	112.708834715438	0.202789306640625	0.20281982421875	-8.575439453125E-07	-1.73926906654742E-07	-236512.46875	0.000106261657492723
2	637	112.809542715183	0.192718505859375	0.1927490234375	-8.5479736328125E-07	-1.64761360110788E-07	-225490.90625	0.000106175437394995
2	638	112.910250714929	0.182647705078125	0.18267822265625	-8.5418701171875E-07	-1.56041352283864E-07	-213862.109375	0.000106089384644292
2	639	113.010958714675	0.172576904296875	0.17266845703125	-8.55407714843751E-07	-1.47701925357069E-07	-201855.171875	0.000106003295513801
2	640	113.11166671442	0.162506103515625	0.1624755859375	-8.59985351562501E-07	-1.39726623160641E-07	-188928.328125	0.000105916922620963
2	641	113.212374714166	0.152435302734375	0.152496337890625	-8.6822509765625E-07	-1.32401140717775E-07	-175641.484375	0.00010582989489194
2	642	113.313082713912	0.142364501953125	0.142364501953125	-8.81347656250001E-07	-1.25472624290524E-07	-161530.46875	0.000105741797597148
2	643	113.413790713658	0.132293701171875	0.132354736328125	-9.0057373046875E-07	-1.19195192382904E-07	-146967.140625	0.000105652070487849
2	644	113.514498713403	0.122222900390625	0.12225341796875	-9.28955078125E-07	-1.13567928394787E-07	-131603.15625	0.000105559949588496
2	645	113.615206713149	0.112152099609375	0.112152099609375	-9.6893310546875E-07	-1.08667883580438E-07	-115748.03125	0.000105464379885234
2	646	113.715914712895	0.102081298828125	0.1021728515625	-1.02386474609375E-06	-1.04611174833735E-07	-99791.359375	0.000105364037153777
2	647	113.816622712641	0.092010498046875	0.09210205078125	-1.09893798828125E-06	-1.01214446601716E-07	-83810.046875	0.000105257146060467
2	648	113.917330712386	0.081939697265625	0.082000732421875	-1.19873046875E-06	-9.82967662821466E-08	-68406.3203125	0.000105141451058444
2	649	114.018038712132	0.071868896484375	0.07196044921875	-1.33056640625E-06	-9.57481560703854E-08	-54082.56640625	0.000105014085420407
2	650	114.118746711878	0.061798095703125	0.061859130859375	-1.497802734375E-06	-9.26527761180296E-08	-41299.91796875	0.000104871665826067
2	651	114.219454711624	0.051727294921875	0.05181884765625	-1.70257568359375E-06	-8.82255122292008E-08	-30435.5625	0.000104710517916828
2	652	114.320162711369	0.041656494140625	0.041778564453125	-1.94000244140625E-06	-8.10505156323416E-08	-21535.314453125	0.000104527098301332
2	653	114.420870711115	0.031585693359375	0.031689453125	-2.19696044921875E-06	-6.96204764949471E-08	-14424.2265625	0.000104318787634838
2	654	114.521578710861	0.021514892578125	0.0216217041015625	-2.449951171875E-06	-5.29721191355748E-08	-8825.361328125	0.000104084792837966
2	655	114.622286710607	0.011444091796875	0.0115447998046875	-2.67486572265625E-06	-3.08807877047457E-08	-4316.029296875	0.000103826743725222
2	656	114.722994710352	0.001373291015625	0.00147094726562499	-2.84912109375E-06	-4.19090673275946E-09	-516.281066894531	0.000103548583865631
2	657	114.823702710098	-0.008697509765625	-0.0085723876953125	-2.95928955078125E-06	2.53681768924707E-08	2896.77221679688	0.000103256112197414
2	658	114.924410709844	-0.018768310546875	-0.018658447265625	-3.00628662109375E-06	5.60926416426355E-08	6206.47705078125	0.000102955717011355
2	659	115.025118709589	-0.028839111328125	-0.028704833984375	-3.00048828125E-06	8.61285158748615E-08	9566.720703125	0.000102653255453333
2	660	115.125826709335	-0.038909912109375	-0.038739013671875	-2.955322265625E-06	1.14486262248192E-07	13108.220703125	0.000102353355032392
2	661	115.226534709081	-0.048980712890625	-0.048834228515625	-2.88818359375E-06	1.41042207246755E-07	16908.28515625	0.000102059108030517
2	662	115.327242708827	-0.059051513671875	-0.058990478515625	-2.811279296875E-06	1.65838713428457E-07	20983.5	0.00010177212243434
2	663	115.427950708572	-0.069122314453125	-0.06903076171875	-2.73162841796875E-06	1.88566389169864E-07	25270.919921875	0.000101493009424303
2	664	115.528658708318	-0.079193115234375	-0.0791015625	-2.65533447265625E-06	2.10041093851032E-07	29789.6796875	0.000101221754448488
2	665	115.629366708064	-0.089263916015625	-0.089202880859375	-2.58453369140625E-06	2.30547840374129E-07	34514.11328125	0.000100957906397525
2	666	115.73007470781	-0.099334716796875	-0.0992431640625	-2.520751953125E-06	2.50167403237356E-07	39370.4609375	0.000100700839539059
2	667	115.830782707555	-0.109405517578125	-0.10931396484375	-2.4639892578125E-06	2.69348419124071E-07	44364.62890625	0.000100449833553284
2	668	115.931490707301	-0.119476318359375	-0.119293212890625	-2.4139404296875E-06	2.87966713585774E-07	49418.45703125	0.000100204211776145
2	669	116.032198707047	-0.129547119140625	-0.12945556640625	-2.37060546875E-06	3.06888068735134E-07	54608.65234375	9.9963290267624E-05
2	670	116.132906706793	-0.139617919921875	-0.1395263671875	-2.33184814453125E-06	3.25354278629675E-07	59835.10546875	9.9726501503028E-05
2	671	116.233614706538	-0.149688720703125	-0.149566650390625	-2.29827880859375E-06	3.43745853115252E-07	65077.6796875	9.94933579931967E-05
2	672	116.334322706284	-0.159759521484375	-0.15960693359375	-2.27020263671875E-06	3.62340102810776E-07	70305.1484375	9.92633140413091E-05
2	673	116.43503070603	-0.169830322265625	-0.169647216796875	-2.24639892578125E-06	3.81095333068515E-07	75519.6328125	9.90358894341625E-05
2	674	116.535738705776	-0.179901123046875	-0.17974853515625	-2.22625732421875E-06	4.00166470626573E-07	80740.234375	9.88106694421731E-05
2	675	116.636446705521	-0.189971923828125	-0.189849853515625	-2.2100830078125E-06	4.19583955135749E-07	85901.6796875	9.85872829915024E-05
2	676	116.737154705267	-0.200042724609375	-0.19989013671875	-2.19757080078125E-06	4.3927269643973E-07	90959.59375	9.8365344456397E-05
2	677	116.837862705013	-0.189971923828125	-0.1898193359375	-1.9854736328125E-06	3.76881274632979E-07	95604.0625	9.81547054834664E-05
