Potential - Start -0.2 V, Upper Vertex 1.5 V, Lower Vertex -0.2 V, Stop -0.19 V; Scan - # end cross 5, Rate 0.1 Vps, Step 0.01 V 
Scan	Index	Time (s)	Potential applied (V)	WE(1).Potential (V)	WE(1).Current (A)	WE(1).Power (W)	WE(1).Resistance (Ω)	WE(1).Charge (C)
1	1	74.4017218121537	-0.189971923828125	-0.189910888671875	-1.58081054687501E-07	3.00213116588566E-08	1201351.375	0
1	2	74.5024298118994	-0.179901123046875	-0.179779052734375	-1.2786865234375E-07	2.29881038649182E-08	1405966.625	-1.43987106682175E-08
1	3	74.6031378116452	-0.169830322265625	-0.169677734375	-1.03759765625E-07	1.76057213252534E-08	1635294.25	-2.60621284553508E-08
1	4	74.7038458113909	-0.159759521484375	-0.15966796875	-8.42285156249997E-08	1.34485951264196E-08	1895652.25	-3.55280889152709E-08
1	5	74.8045538111367	-0.149688720703125	-0.149566650390625	-6.68334960937503E-08	9.99606175611234E-09	2237899.75	-4.31346656171172E-08
1	6	74.9052618108824	-0.139617919921875	-0.1395263671875	-5.12695312500006E-08	7.15345116475419E-09	2721428.5	-4.90816240983349E-08
1	7	75.0059698106281	-0.129547119140625	-0.129425048828125	-3.69262695312497E-08	4.77918415953127E-09	3504958.75	-5.35226369891006E-08
1	8	75.1066778103739	-0.119476318359375	-0.119415283203125	-2.34985351562494E-08	2.80608425384798E-09	5081818.5	-5.65652662487537E-08
1	9	75.2073858101196	-0.109405517578125	-0.109344482421875	-1.068115234375E-08	1.16792497895091E-09	10237143	-5.82863499687392E-08
1	10	75.3080938098653	-0.099334716796875	-0.099273681640625	3.35693359374972E-09	-3.33255145701372E-10	-29572728	-5.86551536230218E-08
1	11	75.4088018096111	-0.089263916015625	-0.089263916015625	1.77001953125006E-08	-1.57998869543263E-09	-5043103.5	-5.75948426728701E-08
1	12	75.5095098093568	-0.079193115234375	-0.07916259765625	3.38745117187497E-08	-2.68159427996295E-09	-2336937	-5.49978516062311E-08
1	13	75.6102178091026	-0.069122314453125	-0.069061279296875	5.31005859375003E-08	-3.66719432598472E-09	-1300574.75	-5.0618307767536E-08
1	14	75.7109258088483	-0.059051513671875	-0.0589599609375	7.56835937500006E-08	-4.4623016393075E-09	-779032.25	-4.41335075151983E-08
1	15	75.811633808594	-0.048980712890625	-0.048858642578125	1.0528564453125E-07	-5.14411357954714E-09	-464057.96875	-3.50209852229E-08
1	16	75.9123418083398	-0.038909912109375	-0.038751220703125	1.434326171875E-07	-5.55818902014948E-09	-270170.21875	-2.24970246875955E-08
1	17	76.0130498080855	-0.028839111328125	-0.0287445068359375	1.95922851562499E-07	-5.63170576839411E-09	-146713.40625	-5.40911937463306E-09
1	18	76.1137578078312	-0.018768310546875	-0.0186553955078125	2.655029296875E-07	-4.95306196057754E-09	-70264.3671875	1.78255152860629E-08
1	19	76.214465807577	-0.008697509765625	-0.00860595703125	3.59191894531249E-07	-3.09118997066093E-09	-23959.21875	4.92813967412076E-08
1	20	76.3151738073227	0.001373291015625	0.0014312744140625	4.81567382812501E-07	6.89255097441333E-10	2972.11669921875	9.16169895504026E-08
1	21	76.4158818070684	0.011444091796875	0.0115264892578125	6.3507080078125E-07	7.32013649695773E-09	18149.9296875	1.47844190223623E-07
1	22	76.5165898068142	0.021514892578125	0.021588134765625	8.1817626953125E-07	1.76629004755569E-08	26385.677734375	2.21020982849041E-07
1	23	76.6172978065599	0.031585693359375	0.031671142578125	1.02294921875E-06	3.23979705285637E-08	30960.623046875	3.13729003664776E-07
1	24	76.7180058063057	0.041656494140625	0.0417388916015625	1.23565673828125E-06	5.15749363216855E-08	33778.7109375	4.2745884343276E-07
1	25	76.8187138060514	0.051727294921875	0.05181884765625	1.4349365234375E-06	7.43567554195579E-08	36112.29296875	5.61933916287671E-07
1	26	76.9194218057971	0.061798095703125	0.06182861328125	1.6033935546875E-06	9.91355975088482E-08	38561.09765625	7.14925988631876E-07
1	27	77.0201298055429	0.071868896484375	0.071807861328125	1.72393798828125E-06	1.23792304407289E-07	41653.390625	8.82470430951798E-07
1	28	77.1208378052886	0.081939697265625	0.082000732421875	1.79107666015625E-06	1.46869595596399E-07	45782.92578125	1.05946548956126E-06
1	29	77.2215458050343	0.092010498046875	0.092071533203125	1.80816650390625E-06	1.66480660368507E-07	50919.83203125	1.24070174933877E-06
1	30	77.3222538047801	0.102081298828125	0.10211181640625	1.78680419921875E-06	1.82453817387795E-07	57147.73828125	1.42172291361931E-06
1	31	77.4229618045258	0.112152099609375	0.112152099609375	1.73980712890625E-06	1.95123021740073E-07	64462.375	1.59930186782731E-06
1	32	77.5236698042715	0.122222900390625	0.122283935546875	1.67938232421875E-06	2.05361473604171E-07	72814.828125	1.77147171598335E-06
1	33	77.6243778040173	0.132293701171875	0.132293701171875	1.61376953125E-06	2.13491546219302E-07	81978.0625	1.93729511011043E-06
1	34	77.725085803763	0.142364501953125	0.14239501953125	1.549072265625E-06	2.20580162135775E-07	91922.78125	2.09655695471156E-06
1	35	77.8257938035088	0.152435302734375	0.1524658203125	1.48834228515625E-06	2.26921329726792E-07	102440.0234375	2.24950281335623E-06
1	36	77.9265018032545	0.162506103515625	0.16253662109375	1.431884765625E-06	2.32733697203003E-07	113512.3671875	2.3965478703758E-06
1	37	78.0272098030002	0.172576904296875	0.172607421875	1.380615234375E-06	2.3830443751649E-07	125022.1015625	2.53816847362032E-06
1	38	78.127917802746	0.182647705078125	0.1826171875	1.33514404296875E-06	2.43820238665649E-07	136777.140625	2.67491782324214E-06
1	39	78.2286258024917	0.192718505859375	0.1927490234375	1.29425048828125E-06	2.49465500701262E-07	148927.15625	2.80731842394744E-06
1	40	78.3293338022374	0.202789306640625	0.202880859375	1.25732421875E-06	2.55087030609502E-07	161359.21875	2.93580046673014E-06
1	41	78.4300418019832	0.212860107421875	0.212860107421875	1.22528076171875E-06	2.60813379782121E-07	173723.546875	3.06080960399413E-06
1	42	78.5307498017289	0.222930908203125	0.222900390625	1.19598388671875E-06	2.66585260533247E-07	186374.078125	3.18272986987722E-06
1	43	78.6314578014747	0.233001708984375	0.23297119140625	1.17095947265625E-06	2.72799809408752E-07	198957.53125	3.30191483044473E-06
1	44	78.7321658012204	0.243072509765625	0.2430419921875	1.14776611328125E-06	2.7895535481548E-07	211752.203125	3.41867212227953E-06
1	45	78.8328738009661	0.253143310546875	0.253173828125	1.12640380859375E-06	2.85175957515094E-07	224762.953125	3.53318546331138E-06
1	46	78.9335818007119	0.263214111328125	0.26312255859375	1.1065673828125E-06	2.91162820076352E-07	237782.703125	3.64562470167584E-06
1	47	79.0342898004576	0.273284912109375	0.273223876953125	1.08856201171875E-06	2.9742110996267E-07	250995.25	3.75615809389274E-06
1	48	79.1349978002033	0.283355712890625	0.283355712890625	1.0723876953125E-06	3.03867182083195E-07	264228.8125	3.8649704947602E-06
1	49	79.2357057999491	0.293426513671875	0.29339599609375	1.05682373046875E-06	3.10067861164498E-07	277620.5625	3.97218491343665E-06
1	50	79.3364137996948	0.303497314453125	0.303497314453125	1.04278564453125E-06	3.16482612561231E-07	291044.78125	4.07790867029689E-06
1	51	79.4371217994405	0.313568115234375	0.313629150390625	1.0296630859375E-06	3.22932351082272E-07	304593.96875	4.18226454712567E-06
1	52	79.5378297991863	0.323638916015625	0.323638916015625	1.016845703125E-06	3.29090823925071E-07	318277.3125	4.2853143895627E-06
1	53	79.638537798932	0.333709716796875	0.333648681640625	1.004638671875E-06	3.35196347123201E-07	332108.15625	4.38710458183778E-06
1	54	79.7392457986778	0.343780517578125	0.343780517578125	9.9365234375E-07	3.4159830875069E-07	345976.6875	4.48772652816842E-06
1	55	79.8399537984235	0.353851318359375	0.35382080078125	9.82666015625E-07	3.47687659996154E-07	360062.125	4.58724207419436E-06
1	56	79.9406617981692	0.363922119140625	0.3638916015625	9.7320556640625E-07	3.54141292291388E-07	373910.34375	4.6857280722179E-06
1	57	80.041369797915	0.373992919921875	0.3740234375	9.6435546875E-07	3.60691529976975E-07	387848.125	4.78329184261383E-06
1	58	80.1420777976607	0.384063720703125	0.384124755859375	9.56115722656251E-07	3.67267716683273E-07	401755.5	4.87999523102189E-06
1	59	80.2427857974064	0.394134521484375	0.39410400390625	9.490966796875E-07	3.74042798512164E-07	415241.15625	4.97593009640696E-06
1	60	80.3434937971522	0.404205322265625	0.4041748046875	9.4146728515625E-07	3.80517349185538E-07	429303.09375	5.07112781633623E-06
1	61	80.4442017968979	0.414276123046875	0.414276123046875	9.34753417968751E-07	3.8724601836293E-07	443192.9375	5.16560294272495E-06
1	62	80.5449097966437	0.424346923828125	0.424407958984375	9.28649902343751E-07	3.94126402625261E-07	457016.125	5.25943278262275E-06
1	63	80.6456177963894	0.434417724609375	0.434417724609375	9.2315673828125E-07	4.01035634922664E-07	470578.5	5.35267872692202E-06
1	64	80.7463257961351	0.444488525390625	0.44451904296875	9.1827392578125E-07	4.0819023183758E-07	484081.125	5.44540216651512E-06
1	65	80.8470337958809	0.454559326171875	0.454559326171875	9.1400146484375E-07	4.15467866332619E-07	497328.90625	5.53766449229443E-06
1	66	80.9477417956266	0.464630126953125	0.464599609375	9.09423828125E-07	4.22517956621959E-07	510872.5	5.62948116566986E-06
1	67	81.0484497953723	0.474700927734375	0.474639892578125	9.0545654296875E-07	4.29765805165516E-07	524199.53125	5.72086764805135E-06
1	68	81.1491577951181	0.484771728515625	0.48480224609375	9.02099609375E-07	4.37339906511625E-07	537415.4375	5.81188533033128E-06
1	69	81.2498657948638	0.494842529296875	0.494781494140625	8.98132324218751E-07	4.443792533948E-07	550900.4375	5.90253421250964E-06
1	70	81.3505737946095	0.504913330078125	0.50482177734375	8.94775390624999E-07	4.51702106829543E-07	564188.25	5.99281429458642E-06
1	71	81.4512817943553	0.514984130859375	0.514984130859375	8.9141845703125E-07	4.59066342273218E-07	577713.125	6.0827564993815E-06
1	72	81.551989794101	0.525054931640625	0.52508544921875	8.88671874999999E-07	4.66628677031622E-07	590865.375	6.17239084022003E-06
1	73	81.6526977938468	0.535125732421875	0.535125732421875	8.868408203125E-07	4.74571322683914E-07	603406.75	6.26179507889901E-06
1	74	81.7534057935925	0.545196533203125	0.545166015625	8.84094238281249E-07	4.81978133848315E-07	616637.9375	6.35096876067109E-06
1	75	81.8541137933382	0.555267333984375	0.55517578125	8.8165283203125E-07	4.89472256504087E-07	629698.875	6.43988141746377E-06
1	76	81.954821793084	0.565338134765625	0.565399169921875	8.7921142578125E-07	4.97105418162391E-07	643075.3125	6.52854760119226E-06
1	77	82.0555297928297	0.575408935546875	0.575408935546875	8.7738037109375E-07	5.04852494032093E-07	655826.125	6.61699914417113E-06
1	78	82.1562377925754	0.585479736328125	0.585418701171875	8.75244140625001E-07	5.1238424703115E-07	668863.375	6.70525105306297E-06
1	79	82.2569457923212	0.595550537109375	0.595489501953125	8.740234375E-07	5.20471758136409E-07	681319.8125	6.79333334119292E-06
1	80	82.3576537920669	0.605621337890625	0.605560302734375	8.7249755859375E-07	5.28349858086585E-07	694053.875	6.88127784087555E-06
1	81	82.4583617918126	0.615692138671875	0.6156005859375	8.7188720703125E-07	5.36734262368554E-07	706055.3125	6.96911456543603E-06
1	82	82.5590697915584	0.625762939453125	0.62567138671875	8.709716796875E-07	5.44942054148123E-07	718360.25	7.0568744376942E-06
1	83	82.6597777913041	0.635833740234375	0.63580322265625	8.709716796875E-07	5.53766597022332E-07	729993.0625	7.14458838046994E-06
1	84	82.7604857910499	0.645904541015625	0.645782470703125	8.70361328124999E-07	5.62064087716863E-07	741970.5625	7.23227140042582E-06
1	85	82.8611937907956	0.655975341796875	0.655975341796875	8.70666503906251E-07	5.71135728932859E-07	753417.4375	7.31993895897176E-06
1	86	82.9619017905413	0.666046142578125	0.665985107421875	8.7127685546875E-07	5.80257392357453E-07	764378.3125	7.4076529017475E-06
1	87	83.0626097902871	0.676116943359375	0.675994873046875	8.7188720703125E-07	5.89391277117102E-07	775323.75	7.4954282354156E-06
1	88	83.1633177900328	0.686187744140625	0.68609619140625	8.73718261718751E-07	5.994547791488E-07	785260.25	7.58332635086845E-06
1	89	83.2640257897785	0.696258544921875	0.696136474609375	8.75244140625001E-07	6.09289315889328E-07	795362.6875	7.67139317758847E-06
1	90	83.3647337895243	0.706329345703125	0.70623779296875	8.7738037109375E-07	6.19639138221828E-07	804939.1875	7.7596450864803E-06
1	91	83.46544178927	0.716400146484375	0.716278076171875	8.7921142578125E-07	6.29759881576319E-07	814682.375	7.84809708420653E-06
1	92	83.5661497890158	0.726470947265625	0.726318359375	8.8165283203125E-07	6.40360610759672E-07	823814.5	7.93676281318767E-06
1	93	83.6668577887615	0.736541748046875	0.73638916015625	8.837890625E-07	6.50812637559284E-07	833218.25	8.02566046331776E-06
1	94	83.7675657885072	0.746612548828125	0.746551513671875	8.8653564453125E-07	6.61844524074695E-07	842099.8125	8.11480276752263E-06
1	95	83.868273788253	0.756683349609375	0.7568359375	8.89892578125E-07	6.73502654535696E-07	850480.125	8.2042533904314E-06
1	96	83.9689817879987	0.766754150390625	0.7666015625	8.929443359375E-07	6.84532494688028E-07	858509.9375	8.2940268839593E-06
1	97	84.0696897877444	0.776824951171875	0.7769775390625	8.96301269531249E-07	6.96405948019674E-07	866871	8.38412233861163E-06
1	98	84.1703977874902	0.786895751953125	0.787353515625	8.99353027343749E-07	7.08108757407899E-07	875466.625	8.47454066388309E-06
1	99	84.2711057872359	0.796966552734375	0.79742431640625	9.0301513671875E-07	7.2008623419606E-07	883068.625	8.56529732118361E-06
1	100	84.3718137869816	0.807037353515625	0.8074951171875	9.0606689453125E-07	7.31644547613541E-07	891209.1875	8.65639140101848E-06
1	101	84.4725217867274	0.817108154296875	0.8172607421875	9.0972900390625E-07	7.43485770726693E-07	898356.3125	8.74782381288242E-06
1	102	84.5732297864731	0.827178955078125	0.8270263671875	9.1400146484375E-07	7.55903272420255E-07	904841.4375	8.83965640241513E-06
1	103	84.6739377862189	0.837249755859375	0.83709716796875	9.17663574218749E-07	7.68173549658968E-07	912204.875	8.93188735062722E-06
1	104	84.7746457859646	0.847320556640625	0.84747314453125	9.228515625E-07	7.82091888140712E-07	918320.125	9.02456486073788E-06
1	105	84.8753537857103	0.857391357421875	0.85784912109375	9.27124023437501E-07	7.95332539382798E-07	925279.8125	9.11771894607227E-06
1	106	84.9760617854561	0.867462158203125	0.86761474609375	9.31701660156251E-07	8.08358095127915E-07	931215.1875	9.21131777431583E-06
1	107	85.0767697852018	0.877532958984375	0.87738037109375	9.36279296875001E-07	8.21473065570899E-07	937092.625	9.30537862586789E-06
1	108	85.1774777849475	0.887603759765625	0.88775634765625	9.4146728515625E-07	8.35793514397665E-07	942949.8125	9.3999306045589E-06
1	109	85.2781857846933	0.897674560546875	0.8978271484375	9.46655273437499E-07	8.49932746405102E-07	948420.4375	9.49500463320874E-06
1	110	85.378893784439	0.907745361328125	0.90789794921875	9.521484375E-07	8.64453568283352E-07	953525.6875	9.59061708272202E-06
1	111	85.4796017841848	0.917816162109375	0.91827392578125	9.57641601562501E-07	8.79377239471069E-07	958891.0625	9.68678250501398E-06
1	112	85.5803097839305	0.927886962890625	0.927734375	9.63134765625E-07	8.9353324028707E-07	963244.625	9.78350180957932E-06
1	113	85.6810177836762	0.937957763671875	0.9381103515625	9.686279296875E-07	9.08679851363559E-07	968494.0625	9.88077317742864E-06
1	114	85.781725783422	0.948028564453125	0.947265625	9.7381591796875E-07	9.22462277230807E-07	972735.875	9.9785838756361E-06
1	115	85.8824337831677	0.958099365234375	0.9576416015625	9.78698730468749E-07	9.37242589316156E-07	978484.5625	1.00769002528978E-05
1	116	85.9831417829134	0.968170166015625	0.96771240234375	9.832763671875E-07	9.5152870471793E-07	984171.375	1.01756932053831E-05
1	117	86.0838497826592	0.978240966796875	0.97808837890625	9.87854003906249E-07	9.66208403951896E-07	990114.375	1.0274948181177E-05
1	118	86.1845577824049	0.988311767578125	0.98876953125	9.9151611328125E-07	9.80380946202786E-07	997229.9375	1.03746169770602E-05
1	119	86.2852657821506	0.998382568359375	0.99853515625	9.95788574218751E-07	9.94329866443877E-07	1002758.1875	1.04746859506122E-05
1	120	86.3859737818964	1.00845336914063	1.00830078125	9.9945068359375E-07	1.00774684597127E-06	1008855	1.05751541923382E-05
1	121	86.4866817816421	1.01852416992188	1.01837158203125	1.00189208984375E-06	1.02029844128992E-06	1016448.375	1.06759298432735E-05
1	122	86.5873897813879	1.02859497070313	1.02813720703125	1.00433349609375E-06	1.03259264960798E-06	1023701	1.07769510577782E-05
1	123	86.6880977811336	1.03866577148438	1.03851318359375	1.005859375E-06	1.04459809335822E-06	1032463.6875	1.08781723611173E-05
1	124	86.7888057808793	1.04873657226563	1.0491943359375	1.00738525390625E-06	1.05694289231906E-06	1041502.625	1.0979547369061E-05
1	125	86.8895137806251	1.05880737304688	1.05804443359375	1.0089111328125E-06	1.06747279460251E-06	1048699.375	1.10810760816094E-05
1	126	86.9902217803708	1.06887817382813	1.068115234375	1.00982666015625E-06	1.07861126252828E-06	1057721.375	1.11827275759424E-05
1	127	87.0909297801165	1.07894897460938	1.07940673828125	1.01165771484375E-06	1.09199015696504E-06	1066968.375	1.12845173134701E-05
1	128	87.1916377798623	1.08901977539063	1.0888671875	1.0125732421875E-06	1.10255768959178E-06	1075346.625	1.13864452941925E-05
1	129	87.292345779608	1.09909057617188	1.09893798828125	1.01470947265625E-06	1.11510280476068E-06	1083007.5	1.14885269795195E-05
1	130	87.3930537793537	1.10916137695313	1.10931396484375	1.01654052734375E-06	1.12766258553165E-06	1091263.875	1.15908087536809E-05
1	131	87.4937617790995	1.11923217773438	1.1187744140625	1.01806640625E-06	1.13898670406343E-06	1098920.875	1.16932596938568E-05
1	132	87.5944697788452	1.12930297851563	1.12884521484375	1.0205078125E-06	1.15199532046972E-06	1106160.375	1.17959098133724E-05
1	133	87.695177778591	1.13937377929688	1.13983154296875	1.0235595703125E-06	1.16668547889276E-06	1113595.75	1.18988364192774E-05
1	134	87.7958857783367	1.14944458007813	1.14990234375	1.0272216796875E-06	1.18120453862502E-06	1119429.625	1.20021013572114E-05
1	135	87.8965937780824	1.15951538085938	1.1590576171875	1.0308837890625E-06	1.19485366667504E-06	1124334	1.21057355499943E-05
1	136	87.9973017778282	1.16958618164063	1.16943359375	1.03546142578125E-06	1.21090340599039E-06	1129384	1.22097844723612E-05
1	137	88.0980097775739	1.17965698242188	1.17919921875	1.03973388671875E-06	1.22605342767201E-06	1134135.625	1.2314279047132E-05
1	138	88.1987177773196	1.18972778320313	1.18927001953125	1.04400634765625E-06	1.24160544601182E-06	1139140.625	1.24192038128967E-05
1	139	88.2994257770654	1.19979858398438	1.19964599609375	1.04827880859375E-06	1.25756344004913E-06	1144395.875	1.25245587696554E-05
1	140	88.4001337768111	1.20986938476563	1.20941162109375	1.0528564453125E-06	1.27333680666197E-06	1148695.625	1.26303584693233E-05
1	141	88.5008417765569	1.21994018554688	1.219482421875	1.05743408203125E-06	1.28952217437472E-06	1153246.875	1.27366201922996E-05
1	142	88.6015497763026	1.23001098632813	1.2298583984375	1.0626220703125E-06	1.30687465116353E-06	1157380.875	1.28433739519096E-05
1	143	88.7022577760483	1.24008178710938	1.240234375	1.06781005859375E-06	1.32433467570081E-06	1161474.75	1.29506497614784E-05
1	144	88.8029657757941	1.25015258789063	1.25030517578125	1.07208251953125E-06	1.34043023081176E-06	1166239.75	1.30584012367763E-05
1	145	88.9036737755398	1.26022338867188	1.26007080078125	1.07696533203125E-06	1.35705249704188E-06	1170019.875	1.31666147353826E-05
1	146	89.0043817752855	1.27029418945313	1.27044677734375	1.08123779296875E-06	1.37365509544907E-06	1174993	1.32752893478028E-05
1	147	89.1050897750313	1.28036499023438	1.28021240234375	1.08551025390625E-06	1.3896836890126E-06	1179364.625	1.33843932417221E-05
1	148	89.205797774777	1.29043579101563	1.290283203125	1.08978271484375E-06	1.40612826271536E-06	1183982.125	1.34939282361302E-05
1	149	89.3065057745227	1.30050659179688	1.3006591796875	1.09466552734375E-06	1.4237867844713E-06	1188179.5	1.36039234348573E-05
1	150	89.4072137742685	1.31057739257813	1.31072998046875	1.099853515625E-06	1.44161094794981E-06	1191731.375	1.37144270411227E-05
1	151	89.5079217740142	1.32064819335938	1.3201904296875	1.1053466796875E-06	1.45926810546371E-06	1194367.75	1.38254672492621E-05
1	152	89.60862977376	1.33071899414063	1.33056640625	1.11114501953125E-06	1.47845219089504E-06	1197473.25	1.39370768010849E-05
1	153	89.7093377735057	1.34078979492188	1.3409423828125	1.1163330078125E-06	1.49693823914276E-06	1201202.875	1.40492393256864E-05
1	154	89.8100457732514	1.35086059570313	1.35101318359375	1.1224365234375E-06	1.51642655055184E-06	1203643.25	1.41619702844764E-05
1	155	89.9107537729972	1.36093139648438	1.361083984375	1.12945556640625E-06	1.53728387886076E-06	1205079.75	1.427536153642E-05
1	156	90.0114617727429	1.37100219726563	1.37115478515625	1.13555908203125E-06	1.55702718984685E-06	1207471.125	1.43894139910117E-05
1	157	90.1121697724886	1.38107299804688	1.38092041015625	1.14288330078125E-06	1.57823092195031E-06	1208277.625	1.45041431096615E-05
1	158	90.2128777722344	1.39114379882813	1.3909912109375	1.151123046875E-06	1.60120202963299E-06	1208377.625	1.46196553032496E-05
1	159	90.3135857719801	1.40121459960938	1.4013671875	1.1590576171875E-06	1.62426522365422E-06	1209057.5	1.47359824040905E-05
1	160	90.4142937717259	1.41128540039063	1.4117431640625	1.1676025390625E-06	1.6483547824464E-06	1209095.75	1.48531389640993E-05
1	161	90.5150017714716	1.42135620117188	1.4215087890625	1.17584228515625E-06	1.67147015872615E-06	1208928.125	1.49711404446862E-05
1	162	90.6157097712173	1.43142700195313	1.43096923828125	1.1846923828125E-06	1.69525833371154E-06	1207882.625	1.50900032167556E-05
1	163	90.7164177709631	1.44149780273438	1.44134521484375	1.1932373046875E-06	1.71986687291792E-06	1207928.375	1.52097409227281E-05
1	164	90.8171257707088	1.45156860351563	1.45172119140625	1.20208740234375E-06	1.74509568751091E-06	1207667	1.53303553815931E-05
1	165	90.9178337704545	1.46163940429688	1.461181640625	1.21063232421875E-06	1.76895366621466E-06	1206957.5	1.54518456838559E-05
1	166	91.0185417702003	1.47171020507813	1.4715576171875	1.21978759765625E-06	1.79498772467923E-06	1206404.875	1.55742272909265E-05
1	167	91.119249769946	1.48178100585938	1.48193359375	1.22802734375E-06	1.81985490144143E-06	1206759.5	1.56974838319002E-05
1	168	91.2199577696917	1.49185180664063	1.49139404296875	1.236572265625E-06	1.84421639914945E-06	1206071.125	1.58215862029465E-05
1	169	91.3206657694375	1.50192260742188	1.50146484375	1.243896484375E-06	1.86766681053996E-06	1207065.75	1.59464889293304E-05
1	170	91.4213737691832	1.49185180664063	1.49200439453125	1.14501953125E-06	1.7083741568058E-06	1303038.375	1.60667786985869E-05
1	171	91.522081768929	1.48178100585938	1.48223876953125	1.07818603515625E-06	1.59812907440937E-06	1374752.375	1.61787265824387E-05
1	172	91.6227897686747	1.47171020507813	1.4715576171875	1.0272216796875E-06	1.51161577832681E-06	1432561	1.62847427418455E-05
1	173	91.7234977684204	1.46163940429688	1.46148681640625	9.8480224609375E-07	1.4392754792425E-06	1484040.875	1.63860568136442E-05
1	174	91.8242057681662	1.45156860351563	1.451416015625	9.4879150390625E-07	1.37709116643236E-06	1529752.375	1.64834200404584E-05
1	175	91.9249137679119	1.44149780273438	1.441650390625	9.1827392578125E-07	1.32382990614133E-06	1569956.875	1.65774345077807E-05
1	176	92.0256217676576	1.43142700195313	1.4312744140625	8.9080810546875E-07	1.27499083646399E-06	1606714.625	1.66685294971103E-05
1	177	92.1263297674034	1.42135620117188	1.42059326171875	8.65478515625E-07	1.22949290926044E-06	1641396.375	1.67569651239319E-05
1	178	92.2270377671491	1.41128540039063	1.41143798828125	8.428955078125E-07	1.18969467166608E-06	1674511.25	1.68429887708044E-05
1	179	92.3277457668949	1.40121459960938	1.40106201171875	8.221435546875E-07	1.15187401661387E-06	1704157.375	1.69268296303926E-05
1	180	92.4284537666406	1.39114379882813	1.3909912109375	8.03527832031251E-07	1.11770009425527E-06	1731105.25	1.70086896105204E-05
1	181	92.5291617663863	1.38107299804688	1.38092041015625	7.8643798828125E-07	1.0860081829378E-06	1755917.75	1.7088750610128E-05
1	182	92.6298697661321	1.37100219726563	1.37115478515625	7.69958496093751E-07	1.05573224118416E-06	1780816.5	1.71671199495904E-05
1	183	92.7305777658778	1.36093139648438	1.36077880859375	7.550048828125E-07	1.02739466001367E-06	1802344.375	1.72439085872611E-05
1	184	92.8312857656235	1.35086059570313	1.3507080078125	7.40966796875001E-07	1.00082968401694E-06	1822899.625	1.73192365764407E-05
1	185	92.9319937653693	1.34078979492188	1.34063720703125	7.275390625E-07	9.75365878730372E-07	1842701.375	1.73931821336737E-05
1	186	93.032701765115	1.33071899414063	1.33056640625	7.14111328125E-07	9.50172534430749E-07	1863247.875	1.74657743627904E-05
1	187	93.1334097648607	1.32064819335938	1.32080078125	7.0159912109375E-07	9.26672669265827E-07	1882557.625	1.75370623765048E-05
1	188	93.2341177646065	1.31057739257813	1.31072998046875	6.8939208984375E-07	9.03606860447326E-07	1901283.75	1.76071043824777E-05
1	189	93.3348257643522	1.30050659179688	1.30035400390625	6.77490234375E-07	8.80977097494906E-07	1919369.375	1.76759313035291E-05
1	190	93.435533764098	1.29043579101563	1.29058837890625	6.66198730468751E-07	8.59788315210608E-07	1937242.375	1.77435922523728E-05
1	191	93.5362417638437	1.28036499023438	1.28021240234375	6.549072265625E-07	8.38420305626641E-07	1954799.75	1.78101145138498E-05
1	192	93.6369497635894	1.27029418945313	1.27044677734375	6.439208984375E-07	8.18067235286435E-07	1972985.875	1.78755162778543E-05
1	193	93.7376577633352	1.26022338867188	1.26007080078125	6.329345703125E-07	7.97542327291012E-07	1990839.125	1.79398102773121E-05
1	194	93.8383657630809	1.25015258789063	1.25	6.21337890625E-07	7.76672322899685E-07	2011788	1.80029674083926E-05
1	195	93.9390737628266	1.24008178710938	1.23992919921875	6.103515625E-07	7.5679270139517E-07	2031500	1.80649894900853E-05
1	196	94.0397817625724	1.23001098632813	1.23016357421875	5.999755859375E-07	7.38068081318488E-07	2050356.125	1.81259329110617E-05
1	197	94.1404897623181	1.21994018554688	1.219482421875	5.8929443359375E-07	7.18634169061261E-07	2069394.125	1.81858176802052E-05
1	198	94.2411977620638	1.20986938476563	1.21002197265625	5.79223632812501E-07	7.00873329151364E-07	2089041.125	1.82446583494311E-05
1	199	94.3419057618096	1.19979858398438	1.19964599609375	5.69763183593749E-07	6.83514144839137E-07	2105516.75	1.83025131264003E-05
1	200	94.4426137615553	1.18972778320313	1.18988037109375	5.5999755859375E-07	6.6633009510042E-07	2124795.75	1.83594020199962E-05
1	201	94.5433217613011	1.17965698242188	1.17950439453125	5.5084228515625E-07	6.49720902856643E-07	2141274.25	1.84153377631446E-05
1	202	94.6440297610468	1.16958618164063	1.16943359375	5.4168701171875E-07	6.33466925137327E-07	2158873.5	1.84703494596761E-05
1	203	94.7447377607925	1.15951538085938	1.1590576171875	5.328369140625E-07	6.17588682416681E-07	2175257.75	1.85244571184739E-05
1	204	94.8454457605383	1.14944458007813	1.14898681640625	5.24291992187501E-07	6.02404554683744E-07	2191501.75	1.85776880243793E-05
1	205	94.946153760284	1.13937377929688	1.13922119140625	5.1605224609375E-07	5.87897659443115E-07	2207569.5	1.8630073100212E-05
1	206	95.0468617600297	1.12930297851563	1.129150390625	5.0811767578125E-07	5.73741203879763E-07	2222222.5	1.8681643268792E-05
1	207	95.1475697597755	1.11923217773438	1.119384765625	5.0018310546875E-07	5.59897330276726E-07	2237950	1.87324167200131E-05
1	208	95.2482777595212	1.10916137695313	1.10931396484375	4.92248535156251E-07	5.46058174677455E-07	2253564.75	1.87823879969073E-05
1	209	95.348985759267	1.09909057617188	1.0992431640625	4.84619140625001E-07	5.32714295786718E-07	2268262	1.8831577108358E-05
1	210	95.4496937590127	1.08901977539063	1.0894775390625	4.7607421875E-07	5.18672152338695E-07	2288461.5	1.88799531315453E-05
1	211	95.5504017587584	1.07894897460938	1.0791015625	4.67834472656251E-07	5.04840897974645E-07	2306588.5	1.89274815056706E-05
1	212	95.6511097585042	1.06887817382813	1.06903076171875	4.58679199218751E-07	4.90342131342913E-07	2330672	1.89741367648821E-05
1	213	95.7518177582499	1.05880737304688	1.05865478515625	4.498291015625E-07	4.76213728006769E-07	2353460	1.90198825293919E-05
1	214	95.8525257579956	1.04873657226563	1.048583984375	4.40673828125E-07	4.62083534102931E-07	2379501.5	1.90647242561681E-05
1	215	95.9532337577414	1.03866577148438	1.03851318359375	4.3182373046875E-07	4.48454613888316E-07	2404947	1.91086564882426E-05
1	216	96.0539417574871	1.02859497070313	1.02813720703125	4.2266845703125E-07	4.34561172824033E-07	2432491	1.91516846825834E-05
1	217	96.1546497572328	1.01852416992188	1.01837158203125	4.132080078125E-07	4.20799295852703E-07	2464549.5	1.91937742783921E-05
1	218	96.2553577569786	1.00845336914063	1.00830078125	4.0435791015625E-07	4.07714395578296E-07	2493585	1.92349416465731E-05
1	219	96.3560657567243	0.998382568359375	0.99853515625	3.948974609375E-07	3.94318988128362E-07	2528593.5	1.92751867871266E-05
1	220	96.4567737564701	0.988311767578125	0.9881591796875	3.857421875E-07	3.81174658059535E-07	2561709	1.93144951481372E-05
1	221	96.5574817562158	0.978240966796875	0.97869873046875	3.7689208984375E-07	3.68863794619756E-07	2596761.25	1.93528976524249E-05
1	222	96.6581897559615	0.968170166015625	0.96832275390625	3.692626953125E-07	3.57565454578435E-07	2622314	1.93904688785551E-05
1	223	96.7588977557073	0.958099365234375	0.95794677734375	3.6163330078125E-07	3.4642545188035E-07	2648945.25	1.94272724911571E-05
1	224	96.859605755453	0.948028564453125	0.9478759765625	3.5430908203125E-07	3.3584106517992E-07	2675280	1.94633230421459E-05
1	225	96.9603137551987	0.937957763671875	0.9381103515625	3.47290039062501E-07	3.25796378319865E-07	2701230.25	1.94986514543416E-05
1	226	97.0610217549445	0.927886962890625	0.92803955078125	3.399658203125E-07	3.15501722525369E-07	2729802.5	1.95332577277441E-05
1	227	97.1617297546902	0.917816162109375	0.91796875	3.33251953124999E-07	3.05914852560818E-07	2754579	1.95671564142685E-05
1	228	97.262437754436	0.907745361328125	0.90728759765625	3.277587890625E-07	2.97371485658005E-07	2768156.5	1.9600442101364E-05
1	229	97.3631457541817	0.897674560546875	0.897216796875	3.216552734375E-07	2.88594520725383E-07	2789373.75	1.96331420738716E-05
1	230	97.4638537539274	0.887603759765625	0.88775634765625	3.1707763671875E-07	2.8148767228231E-07	2799807.75	1.96653054445051E-05
1	231	97.5645617536732	0.877532958984375	0.877685546875	3.12194824218751E-07	2.74008897349631E-07	2811339.25	1.96969904209254E-05
1	232	97.6652697534189	0.867462158203125	0.8673095703125	3.082275390625E-07	2.67328687186819E-07	2813861.5	1.97282315639313E-05
1	233	97.7659777531646	0.857391357421875	0.8575439453125	3.04260253906249E-07	2.60916550587353E-07	2818455.25	1.97590725292685E-05
1	234	97.8666857529104	0.847320556640625	0.84747314453125	3.009033203125E-07	2.55007478244806E-07	2816430	1.97895460587461E-05
1	235	97.9673937526561	0.837249755859375	0.83740234375	2.96630859374999E-07	2.48399373958819E-07	2823045.5	1.98196339624701E-05
1	236	98.0681017524018	0.827178955078125	0.82763671875	2.9266357421875E-07	2.42219130086596E-07	2827945.75	1.98493071366102E-05
1	237	98.1688097521476	0.817108154296875	0.81756591796875	2.89306640625001E-07	2.36527242236662E-07	2825949.5	1.98786110559013E-05
1	238	98.2695177518933	0.807037353515625	0.80657958984375	2.86254882812501E-07	2.30887337693275E-07	2817697.25	1.9907593014068E-05
1	239	98.3702257516391	0.796966552734375	0.79742431640625	2.838134765625E-07	2.26319770035843E-07	2809677.5	1.99362984858453E-05
1	240	98.4709337513848	0.786895751953125	0.7867431640625	2.8045654296875E-07	2.2064726579174E-07	2805223.25	1.99647111003287E-05
1	241	98.5716417511305	0.776824951171875	0.7769775390625	2.77099609375001E-07	2.15300175909761E-07	2803964.75	1.99927872017724E-05
1	242	98.6723497508763	0.766754150390625	0.7672119140625	2.7435302734375E-07	2.10486916785158E-07	2796440.5	2.0020555894007E-05
1	243	98.773057750622	0.756683349609375	0.75653076171875	2.7130126953125E-07	2.0524775834474E-07	2788526.5	2.00480317289475E-05
1	244	98.8737657503677	0.746612548828125	0.746490478515625	2.685546875E-07	2.00473522227185E-07	2779659	2.00752147065941E-05
1	245	98.9744737501135	0.736541748046875	0.73638916015625	2.66113281249999E-07	1.95962925886306E-07	2767202	2.0102137568756E-05
1	246	99.0751817498592	0.726470947265625	0.72637939453125	2.63366699218751E-07	1.91304138752457E-07	2758053.25	2.01287984964438E-05
1	247	99.1758897496049	0.716400146484375	0.71630859375	2.61535644531249E-07	1.87340219781618E-07	2738856.5	2.01552302314667E-05
1	248	99.2765977493507	0.706329345703125	0.706268310546875	2.5970458984375E-07	1.8342112184655E-07	2719506.5	2.01814764295705E-05
1	249	99.3773057490964	0.696258544921875	0.696197509765625	2.57568359375E-07	1.79318448090271E-07	2702962	2.02075225388398E-05
1	250	99.4780137488422	0.686187744140625	0.686126708984375	2.55126953125E-07	1.75049407857841E-07	2689354.25	2.02333394554444E-05
1	251	99.5787217485879	0.676116943359375	0.675994873046875	2.5360107421875E-07	1.71433015339062E-07	2665583.75	2.02589562832145E-05
1	252	99.6794297483336	0.666046142578125	0.665924072265625	2.52380371093749E-07	1.68066165429082E-07	2638573	2.028443486779E-05
1	253	99.7801377480794	0.655975341796875	0.655914306640625	2.5054931640625E-07	1.64338871400105E-07	2617905	2.03097588382661E-05
1	254	99.8808457478251	0.645904541015625	0.645843505859375	2.49633789062501E-07	1.61224363637302E-07	2587163.75	2.03349445655476E-05
1	255	99.9815537475708	0.635833740234375	0.63580322265625	2.4871826171875E-07	1.58135875949483E-07	2556319	2.03600393433589E-05
1	256	100.082261747317	0.625762939453125	0.625732421875	2.48107910156251E-07	1.55249168187765E-07	2522017.25	2.03850559046259E-05
1	257	100.182969747062	0.615692138671875	0.61566162109375	2.471923828125E-07	1.52186871105187E-07	2490617.25	2.04099960683379E-05
1	258	100.283677746808	0.605621337890625	0.605560302734375	2.459716796875E-07	1.48950690004312E-07	2461910.75	2.04348289116751E-05
1	259	100.384385746554	0.595550537109375	0.59552001953125	2.45361328125E-07	1.46117571375726E-07	2427114.5	2.04595689865528E-05
1	260	100.4850937463	0.585479736328125	0.585479736328125	2.44140625E-07	1.42939384772944E-07	2398125.25	2.04842181119602E-05
1	261	100.585801746045	0.575408935546875	0.575347900390625	2.4261474609375E-07	1.39587882586056E-07	2371446.75	2.0508728994173E-05
1	262	100.686509745791	0.565338134765625	0.565277099609375	2.41699218749999E-07	1.36627022584435E-07	2338762.75	2.05331161851063E-05
1	263	100.787217745537	0.555267333984375	0.55523681640625	2.40478515625001E-07	1.33522519263352E-07	2308883.5	2.05573942366755E-05
1	264	100.887925745282	0.545196533203125	0.545166015625	2.392578125E-07	1.30435225287329E-07	2278571.5	2.0581552234944E-05
1	265	100.988633745028	0.535125732421875	0.535125732421875	2.3773193359375E-07	1.27216466694335E-07	2250962.75	2.06055701710284E-05
1	266	101.089341744774	0.525054931640625	0.5250244140625	2.362060546875E-07	1.24013936897427E-07	2222739	2.06294353120029E-05
1	267	101.19004974452	0.514984130859375	0.514892578125	2.34069824218749E-07	1.20520809332447E-07	2199739.25	2.06531149160583E-05
1	268	101.290757744265	0.504913330078125	0.5048828125	2.3193359375E-07	1.1709928315895E-07	2176842.25	2.0676579879364E-05
1	269	101.391465744011	0.494842529296875	0.494781494140625	2.30712890625E-07	1.14152463481787E-07	2144576.75	2.06998756766552E-05
1	270	101.492173743757	0.484771728515625	0.48468017578125	2.288818359375E-07	1.10934486485803E-07	2117600	2.07230186788365E-05
1	271	101.592881743503	0.474700927734375	0.47454833984375	2.276611328125E-07	1.08036211088347E-07	2084450.375	2.07460070669185E-05
1	272	101.693589743248	0.464630126953125	0.46453857421875	2.25830078125E-07	1.04906781928094E-07	2057027	2.07688426598907E-05
1	273	101.794297742994	0.454559326171875	0.45452880859375	2.23693847656251E-07	1.01675297514703E-07	2031923.625	2.07914781640284E-05
1	274	101.89500574274	0.444488525390625	0.444488525390625	2.215576171875E-07	9.84798163017331E-08	2006198.375	2.08138972084271E-05
1	275	101.995713742486	0.434417724609375	0.434356689453125	2.1942138671875E-07	9.53071435105812E-08	1979555	2.08361034310656E-05
1	276	102.096421742231	0.424346923828125	0.42425537109375	2.17590332031251E-07	9.23138614439267E-08	1949789.625	2.08581077458803E-05
1	277	102.197129741977	0.414276123046875	0.41424560546875	2.166748046875E-07	8.97565897162167E-08	1911831	2.08799756364897E-05
1	278	102.297837741723	0.404205322265625	0.4041748046875	2.15759277343749E-07	8.72044623179136E-08	1873267.375	2.09017507586395E-05
1	279	102.398545741469	0.394134521484375	0.39410400390625	2.1484375E-07	8.46707806090308E-08	1834375	2.09234331123298E-05
1	280	102.499253741214	0.384063720703125	0.384033203125	2.1392822265625E-07	8.2155537484141E-08	1795149.875	2.09450226975605E-05
1	281	102.59996174096	0.373992919921875	0.373992919921875	2.1240234375E-07	7.94369725554134E-08	1760775.875	2.09664904105011E-05
1	282	102.700669740706	0.363922119140625	0.363922119140625	2.11181640624999E-07	7.68536665418651E-08	1723266	2.09878198802471E-05
1	283	102.801377740451	0.353851318359375	0.353851318359375	2.09960937500001E-07	7.42949524124015E-08	1685319.875	2.10090256587137E-05
1	284	102.902085740197	0.343780517578125	0.34381103515625	2.08740234375E-07	7.17671966299349E-08	1647076	2.10301095648902E-05
1	285	103.002793739943	0.333709716796875	0.3336181640625	2.0721435546875E-07	6.91304720135122E-08	1610014.75	2.10510534088826E-05
1	286	103.103501739689	0.323638916015625	0.323638916015625	2.056884765625E-07	6.65687949208404E-08	1573442.25	2.10718444577651E-05
1	287	103.204209739434	0.313568115234375	0.313507080078125	2.03552246093749E-07	6.38150723375475E-08	1540179.875	2.10924517887179E-05
1	288	103.30491773918	0.303497314453125	0.303466796875	2.00805664062501E-07	6.0937850321352E-08	1511246.25	2.11128135561012E-05
1	289	103.405625738926	0.293426513671875	0.29339599609375	1.9805908203125E-07	5.81097410190523E-08	1481355.875	2.11328970181057E-05
1	290	103.506333738672	0.283355712890625	0.283355712890625	1.9561767578125E-07	5.54293855259402E-08	1448518	2.11527203646256E-05
1	291	103.607041738417	0.273284912109375	0.273223876953125	1.922607421875E-07	5.25302255027782E-08	1421111.125	2.11722526728408E-05
1	292	103.707749738163	0.263214111328125	0.263153076171875	1.8890380859375E-07	4.97106142915982E-08	1393053.375	2.11914448300377E-05
1	293	103.808457737909	0.253143310546875	0.25311279296875	1.861572265625E-07	4.71187746597934E-08	1359672.125	2.12103313970147E-05
1	294	103.909165737655	0.243072509765625	0.243072509765625	1.82189941406249E-07	4.42853647086849E-08	1334170.875	2.12288796319626E-05
1	295	104.0098737374	0.233001708984375	0.233001708984375	1.77612304687499E-07	4.13839700286189E-08	1311855.625	2.12469967664219E-05
1	296	104.110581737146	0.222930908203125	0.222991943359375	1.727294921875E-07	3.85172853611948E-08	1290989.5	2.12646373256575E-05
1	297	104.211289736892	0.212860107421875	0.21282958984375	1.6754150390625E-07	3.56577878335429E-08	1270309.625	2.12817722058389E-05
1	298	104.311997736638	0.202789306640625	0.202789306640625	1.60827636718749E-07	3.26141247342093E-08	1260910.75	2.12983068195172E-05
1	299	104.412705736383	0.192718505859375	0.1927490234375	1.5380859375E-07	2.96464541804653E-08	1253174.625	2.1314150217222E-05
1	300	104.513413736129	0.182647705078125	0.1826171875	1.45263671875E-07	2.65276423050409E-08	1257142.875	2.1329209630494E-05
1	301	104.614121735875	0.172576904296875	0.17254638671875	1.3458251953125E-07	2.32217285400793E-08	1282086.125	2.13432995224139E-05
1	302	104.71482973562	0.162506103515625	0.16253662109375	1.20849609375E-07	1.96424867482392E-08	1344949.5	2.13561615964863E-05
1	303	104.815537735366	0.152435302734375	0.15240478515625	1.01318359374999E-07	1.54414028230576E-08	1504216.875	2.13673502003076E-05
1	304	104.916245735112	0.142364501953125	0.14239501953125	7.53784179687494E-08	1.07335109689188E-08	1889068.875	2.13762468774803E-05
1	305	105.016953734858	0.132293701171875	0.13238525390625	3.96728515625E-08	5.25210053226033E-09	3336923	2.13820403587306E-05
1	306	105.117661734603	0.122222900390625	0.122283935546875	-9.1552734375E-09	-1.11954279180537E-09	-13356667	2.13835774047766E-05
1	307	105.218369734349	0.112152099609375	0.11224365234375	-7.65991210937497E-08	-8.59776516648481E-09	-1465338.625	2.13792591239326E-05
1	308	105.319077734095	0.102081298828125	0.102081298828125	-1.65710449218751E-07	-1.69159370955185E-08	-616022.125	2.13670573430136E-05
1	309	105.419785733841	0.092010498046875	0.092071533203125	-2.82897949218749E-07	-2.60468464574615E-08	-325458.5	2.13444673136109E-05
1	310	105.520493733586	0.081939697265625	0.08203125	-4.32739257812501E-07	-3.54981430916723E-08	-189562.765625	2.13084331335267E-05
1	311	105.621201733332	0.071868896484375	0.071868896484375	-6.1370849609375E-07	-4.41065530765172E-08	-117105.9140625	2.12557406484848E-05
1	312	105.721909733078	0.061798095703125	0.061859130859375	-8.18786621093751E-07	-5.06494259866486E-08	-75549.7578125	2.11836086236872E-05
1	313	105.822617732824	0.051727294921875	0.051788330078125	-1.036376953125E-06	-5.36722311039739E-08	-49970.5546875	2.10901926038787E-05
1	314	105.923325732569	0.041656494140625	0.0417572021484375	-1.24542236328125E-06	-5.20053546892996E-08	-33528.546875	2.09752961382037E-05
1	315	106.024033732315	0.031585693359375	0.031658935546875	-1.42578125E-06	-4.51387158761918E-08	-22204.625	2.08407891477691E-05
1	316	106.124741732061	0.021514892578125	0.02159423828125	-1.5594482421875E-06	-3.36750929363916E-08	-13847.3583984375	2.06904715014389E-05
1	317	106.225449731807	0.011444091796875	0.011505126953125	-1.63848876953125E-06	-1.88510203003034E-08	-7021.7919921875	2.05294418265112E-05
1	318	106.326157731552	0.001373291015625	0.00150146484374999	-1.663818359375E-06	-2.49816478614662E-09	-902.421142578125	2.0363158910186E-05
1	319	106.426865731298	-0.008697509765625	-0.0086517333984375	-1.64642333984375E-06	1.42444145367904E-08	5254.86572265625	2.01964739972027E-05
1	320	106.527573731044	-0.018768310546875	-0.0186859130859375	-1.6009521484375E-06	2.99152524974033E-08	11671.75	2.00329559447709E-05
1	321	106.628281730789	-0.028839111328125	-0.0287384033203125	-1.539306640625E-06	4.42372147801962E-08	18669.70703125	1.98748311959207E-05
1	322	106.728989730535	-0.038909912109375	-0.0387969970703125	-1.470947265625E-06	5.70683376110992E-08	26375.51953125	1.97232529899338E-05
1	323	106.829697730281	-0.048980712890625	-0.048858642578125	-1.402587890625E-06	6.8528535734913E-08	34834.640625	1.95785596588394E-05
1	324	106.930405730027	-0.059051513671875	-0.0589599609375	-1.33758544921875E-06	7.88639837878691E-08	44079.3984375	1.94405802176334E-05
1	325	107.031113729772	-0.069122314453125	-0.069091796875	-1.2786865234375E-06	8.83467450307762E-08	54033.4140625	1.93088399100816E-05
1	326	107.131821729518	-0.079193115234375	-0.07916259765625	-1.2255859375E-06	9.70205675798752E-08	64591.6328125	1.91827402886702E-05
1	327	107.232529729264	-0.089263916015625	-0.0892333984375	-1.17889404296875E-06	1.05196711785993E-07	75692.46875	1.90616647159914E-05
1	328	107.33323772901	-0.099334716796875	-0.099334716796875	-1.13677978515625E-06	1.12921689776613E-07	87382.5546875	1.89450620382559E-05
1	329	107.433945728755	-0.109405517578125	-0.109344482421875	-1.1004638671875E-06	1.20329644914818E-07	99362.1796875	1.88324083865155E-05
1	330	107.534653728501	-0.119476318359375	-0.119354248046875	-1.06842041015625E-06	1.27520507930967E-07	111710.9453125	1.87231962627266E-05
1	331	107.635361728247	-0.129547119140625	-0.12945556640625	-1.0394287109375E-06	1.34559826392433E-07	124544.9296875	1.86170564120403E-05
1	332	107.736069727993	-0.139617919921875	-0.1395263671875	-1.01470947265625E-06	1.41578723855673E-07	137503.765625	1.85136232175864E-05
1	333	107.836777727738	-0.149688720703125	-0.149566650390625	-9.93957519531249E-07	1.48662905985475E-07	150475.890625	1.84124783118023E-05
1	334	107.937485727484	-0.159759521484375	-0.15972900390625	-9.7503662109375E-07	1.55741631147066E-07	163818.46875	1.83133324753726E-05
1	335	108.03819372723	-0.169830322265625	-0.16973876953125	-9.59167480468751E-07	1.62807907599927E-07	176964.6875	1.82159365067491E-05
1	336	108.138901726976	-0.179901123046875	-0.1798095703125	-9.45434570312501E-07	1.69998173760177E-07	190187.234375	1.81200321094366E-05
1	337	108.239609726721	-0.189971923828125	-0.1898193359375	-9.344482421875E-07	1.77376335841473E-07	203135.203125	1.80253737198655E-05
1	338	108.340317726467	-0.200042724609375	-0.199920654296875	-9.2437744140625E-07	1.84802146918628E-07	216276	1.79317739821272E-05
1	339	108.441025726213	-0.189971923828125	-0.189788818359375	-7.9620361328125E-07	1.51110540969057E-07	238367.1875	1.78451355168363E-05
2	340	108.541733725958	-0.179901123046875	-0.179718017578125	-7.1075439453125E-07	1.27735361843406E-07	252855.3125	1.7769254554878E-05
2	341	108.642441725704	-0.169830322265625	-0.169677734375	-6.4422607421875E-07	1.0931081817489E-07	263382.28125	1.77010260813404E-05
2	342	108.74314972545	-0.159759521484375	-0.15966796875	-5.889892578125E-07	9.40427113960141E-08	271088.09375	1.76389276020927E-05
2	343	108.843857725196	-0.149688720703125	-0.149505615234375	-5.413818359375E-07	8.09396212275715E-08	276155.59375	1.75820096046664E-05
2	344	108.944565724941	-0.139617919921875	-0.13958740234375	-4.9896240234375E-07	6.96488626772407E-08	279755.375	1.75296245288337E-05
2	345	109.045273724687	-0.129547119140625	-0.12945556640625	-4.59899902343749E-07	5.95365996503006E-08	281486.40625	1.74813412741059E-05
2	346	109.145981724433	-0.119476318359375	-0.119415283203125	-4.241943359375E-07	5.06552844115049E-08	281510.8125	1.74368233274436E-05
2	347	109.246689724179	-0.109405517578125	-0.10931396484375	-3.9031982421875E-07	4.26674091613677E-08	280062.5625	1.73958105733618E-05
2	348	109.347397723924	-0.099334716796875	-0.09930419921875	-3.57666015624999E-07	3.55177363076109E-08	277645.0625	1.7358146578772E-05
2	349	109.44810572367	-0.089263916015625	-0.08917236328125	-3.2623291015625E-07	2.90909589750754E-08	273339.5625	1.73237094713841E-05
2	350	109.548813723416	-0.079193115234375	-0.07916259765625	-2.93579101562499E-07	2.32404833155897E-08	269646.59375	1.7292499251198E-05
2	351	109.649521723162	-0.069122314453125	-0.069091796875	-2.5909423828125E-07	1.79012857870475E-08	266666.65625	1.72646687133238E-05
2	352	109.750229722907	-0.059051513671875	-0.05902099609375	-2.20947265625E-07	1.30405268805589E-08	267127.09375	1.72404979821295E-05
2	353	109.850937722653	-0.048980712890625	-0.048834228515625	-1.77001953125E-07	8.64375326870004E-09	275896.53125	1.72204581758706E-05
2	354	109.951645722399	-0.038909912109375	-0.0387847900390625	-1.22680664062499E-07	4.75814365685778E-09	316144.28125	1.72053696587682E-05
2	355	110.052353722145	-0.028839111328125	-0.0287689208984375	-5.52368164062497E-08	1.5891035154425E-09	520828.75	1.71964093169663E-05
2	356	110.15306172189	-0.018768310546875	-0.0186553955078125	3.11279296874994E-08	-5.80703818364725E-10	-599313.75	1.71951960510341E-05
2	357	110.253769721636	-0.008697509765625	-0.00859680175781249	1.40991210937499E-07	-1.21207344161434E-09	-60974.03125	1.7203863535542E-05
2	358	110.354477721382	0.001373291015625	0.00142517089843749	2.79541015625E-07	3.98393734668545E-10	5098.25341796875	1.72250383911887E-05
2	359	110.455185721127	0.011444091796875	0.011541748046875	4.5013427734375E-07	5.19533660536808E-09	25640.677734375	1.72617801581509E-05
2	360	110.555893720873	0.021514892578125	0.02156982421875	6.488037109375E-07	1.39945806054698E-08	33245.53125	1.73171156347962E-05
2	361	110.656601720619	0.031585693359375	0.03165283203125	8.67309570312499E-07	2.74528026977805E-08	36495.42578125	1.7393458620063E-05
2	362	110.757309720365	0.041656494140625	0.04171142578125	1.090087890625E-06	4.54691182483202E-08	38264.28125	1.74920223798836E-05
2	363	110.85801772011	0.051727294921875	0.051727294921875	1.295166015625E-06	6.69954332011002E-08	39938.73828125	1.76121284312103E-05
2	364	110.958725719856	0.061798095703125	0.061859130859375	1.46392822265625E-06	9.05573216414268E-08	42255.578125	1.77510592038743E-05
2	365	111.059433719602	0.071868896484375	0.0718994140625	1.58111572265625E-06	1.13681295488277E-07	45473.84765625	1.79043909156462E-05
2	366	111.160141719348	0.081939697265625	0.082000732421875	1.6448974609375E-06	1.34882796487545E-07	49851.578125	1.80668321263511E-05
2	367	111.260849719093	0.092010498046875	0.092041015625	1.65924072265625E-06	1.52718186541279E-07	55471.76953125	1.82332096301252E-05
2	368	111.361557718839	0.102081298828125	0.10211181640625	1.636962890625E-06	1.67153245911322E-07	62378.82421875	1.83991869562306E-05
2	369	111.462265718585	0.112152099609375	0.112213134765625	1.59149169921875E-06	1.78586276433634E-07	70508.1484375	1.85617518582148E-05
2	370	111.562973718331	0.122222900390625	0.122222900390625	1.53411865234375E-06	1.87504426207852E-07	79669.7890625	1.87191380973672E-05
2	371	111.663681718076	0.132293701171875	0.13232421875	1.47247314453125E-06	1.94843849499193E-07	89865.2890625	1.88705325854244E-05
2	372	111.764389717822	0.142364501953125	0.142333984375	1.41143798828125E-06	2.00895598823081E-07	100843.2421875	1.90157497854671E-05
2	373	111.865097717568	0.152435302734375	0.1524658203125	1.353759765625E-06	2.06402091862401E-07	112623.984375	1.91549879673403E-05
2	374	111.965805717314	0.162506103515625	0.16259765625	1.3018798828125E-06	2.1168260389004E-07	124894.5234375	1.92887109733419E-05
2	375	112.066513717059	0.172576904296875	0.172607421875	1.25518798828125E-06	2.16654754581214E-07	137515.203125	1.94174681382719E-05
2	376	112.167221716805	0.182647705078125	0.18267822265625	1.21368408203125E-06	2.21713648329569E-07	150515.46875	1.95417869690573E-05
2	377	112.267929716551	0.192718505859375	0.19268798828125	1.17706298828125E-06	2.26805880743086E-07	163702.375	1.96621695067734E-05
2	378	112.368637716296	0.202789306640625	0.202850341796875	1.1444091796875E-06	2.32143776202065E-07	177253.34375	1.97790650418028E-05
2	379	112.469345716042	0.212860107421875	0.212799072265625	1.11480712890625E-06	2.37229912158909E-07	190884.203125	1.989282645809E-05
2	380	112.570053715788	0.222930908203125	0.222930908203125	1.08856201171875E-06	2.42674104811158E-07	204793.953125	2.00037738977699E-05
2	381	112.670761715534	0.233001708984375	0.23297119140625	1.06414794921875E-06	2.4791580699457E-07	218927.453125	2.0112171114306E-05
2	382	112.771469715279	0.243072509765625	0.24298095703125	1.04278564453125E-06	2.53377038461622E-07	233011.421875	2.02182636712678E-05
2	383	112.872177715025	0.253143310546875	0.253143310546875	1.0223388671875E-06	2.58798252161796E-07	247611.9375	2.03222516574897E-05
2	384	112.972885714771	0.263214111328125	0.263214111328125	1.0052490234375E-06	2.64595740873119E-07	261839.703125	2.04243497137213E-05
2	385	113.073593714517	0.273284912109375	0.273284912109375	9.8876953125E-07	2.70215792852468E-07	276388.875	2.05247561098076E-05
2	386	113.174301714262	0.283355712890625	0.28338623046875	9.74426269531251E-07	2.76138990784602E-07	290823.6875	2.06236109079327E-05
2	387	113.275009714008	0.293426513671875	0.29345703125	9.60693359375001E-07	2.81922211797792E-07	305463.78125	2.07210523512913E-05
2	388	113.375717713754	0.303497314453125	0.303497314453125	9.48486328125001E-07	2.87863059611482E-07	319980.6875	2.08171859412687E-05
2	389	113.4764257135	0.313568115234375	0.313568115234375	9.3658447265625E-07	2.93683029894964E-07	334799.625	2.09121080843033E-05
2	390	113.577133713245	0.323638916015625	0.323638916015625	9.259033203125E-07	2.99658324820484E-07	349538.5625	2.10058915399713E-05
2	391	113.677841712991	0.333709716796875	0.33367919921875	9.1583251953125E-07	3.05594255678443E-07	364345.21875	2.10986290767323E-05
2	392	113.778549712737	0.343780517578125	0.343780517578125	9.07287597656251E-07	3.11907797367894E-07	378910.1875	2.11904316529399E-05
2	393	113.879257712483	0.353851318359375	0.353790283203125	8.99658203125001E-07	3.18290318546133E-07	393249.6875	2.12814175029052E-05
2	394	113.979965712228	0.363922119140625	0.363922119140625	8.9263916015625E-07	3.24851129107628E-07	407692.3125	2.13716666621622E-05
2	395	114.080673711974	0.373992919921875	0.37396240234375	8.85620117187499E-07	3.3118860187642E-07	422260.53125	2.14612100535305E-05
2	396	114.18138171172	0.384063720703125	0.384033203125	8.79821777343751E-07	3.37880777578903E-07	436489.78125	2.15501077036606E-05
2	397	114.282089711465	0.394134521484375	0.394073486328125	8.7432861328125E-07	3.44549704323072E-07	450715.5625	2.16384360101074E-05
2	398	114.382797711211	0.404205322265625	0.404205322265625	8.685302734375E-07	3.51064556980418E-07	465390.03125	2.17261949728709E-05
2	399	114.483505710957	0.414276123046875	0.414215087890625	8.642578125E-07	3.57988625410144E-07	479272.59375	2.18134482565802E-05
2	400	114.584213710703	0.424346923828125	0.424285888671875	8.59985351562501E-07	3.64879639391802E-07	493364.09375	2.19002704398008E-05
2	401	114.684921710448	0.434417724609375	0.434417724609375	8.563232421875E-07	3.72001977666514E-07	507305.8125	2.19866942643421E-05
2	402	114.785629710194	0.444488525390625	0.444427490234375	8.52355957031251E-07	3.78810398160567E-07	521410.6875	2.20727324631298E-05
2	403	114.88633770994	0.454559326171875	0.45458984375	8.4869384765625E-07	3.85807595648657E-07	535634.6875	2.21583868551534E-05
2	404	114.987045709686	0.464630126953125	0.464599609375	8.44726562500001E-07	3.92459611475715E-07	550000	2.22436574404128E-05
2	405	115.087753709431	0.474700927734375	0.47467041015625	8.41064453125E-07	3.99228412106822E-07	564368.6875	2.23285442189081E-05
2	406	115.188461709177	0.484771728515625	0.4847412109375	8.37097167968751E-07	4.05775494982663E-07	579074	2.24130453716498E-05
2	407	115.289169708923	0.494842529296875	0.49481201171875	8.34045410156251E-07	4.12695698059906E-07	593267.5	2.24971954594366E-05
2	408	115.389877708669	0.504913330078125	0.5048828125	8.30993652343751E-07	4.19554424979651E-07	607565.1875	2.25810363190249E-05
2	409	115.490585708414	0.514984130859375	0.51495361328125	8.2855224609375E-07	4.2666596300478E-07	621510.125	2.26646006922238E-05
2	410	115.59129370816	0.525054931640625	0.52508544921875	8.26110839843749E-07	4.33778751585123E-07	635611.375	2.27479195018532E-05
2	411	115.692001707906	0.535125732421875	0.53509521484375	8.23974609375E-07	4.4090484152548E-07	649407.4375	2.28310091188177E-05
2	412	115.792709707652	0.545196533203125	0.545074462890625	8.2244873046875E-07	4.48295793376019E-07	662745.8125	2.29139113798738E-05
2	413	115.893417707397	0.555267333984375	0.5552978515625	8.20312500000001E-07	4.55517778163994E-07	676934.5	2.29966317419894E-05
2	414	115.994125707143	0.565338134765625	0.565277099609375	8.18481445312499E-07	4.62668793943521E-07	690641.375	2.30791520152707E-05
2	415	116.094833706889	0.575408935546875	0.57537841796875	8.18481445312499E-07	4.70936527108279E-07	702982.875	2.31615795200923E-05
2	416	116.195541706634	0.585479736328125	0.585479736328125	8.1787109375E-07	4.78846914120368E-07	715858.25	2.32439761020942E-05
2	417	116.29624970638	0.595550537109375	0.595550537109375	8.18481445312499E-07	4.87447039176914E-07	727628.6875	2.3326372684096E-05
2	418	116.396957706126	0.605621337890625	0.60552978515625	8.18786621093751E-07	4.9579966798774E-07	739545.3125	2.34088165598223E-05
2	419	116.497665705872	0.615692138671875	0.615631103515625	8.19091796875E-07	5.0425836661816E-07	751602.125	2.34912895393791E-05
2	420	116.598373705617	0.625762939453125	0.62567138671875	8.197021484375E-07	5.12864176016592E-07	763291.1875	2.35738098126603E-05
2	421	116.699081705363	0.635833740234375	0.635711669921875	8.2061767578125E-07	5.21676213338651E-07	774674.625	2.36564064834965E-05
2	422	116.799789705109	0.645904541015625	0.6458740234375	8.21838378906251E-07	5.30804015852482E-07	785889.375	2.37391104747076E-05
2	423	116.900497704855	0.655975341796875	0.65582275390625	8.23364257812501E-07	5.39980987923627E-07	796515.9375	2.38219527091132E-05
2	424	117.0012057046	0.666046142578125	0.665924072265625	8.251953125E-07	5.4951738093223E-07	806989.6875	2.39049641095335E-05
2	425	117.101913704346	0.676116943359375	0.676055908203125	8.2763671875E-07	5.59528700705414E-07	816851.0625	2.39881919696927E-05
2	426	117.202621704092	0.686187744140625	0.686126708984375	8.29467773437501E-07	5.69120004456636E-07	827189.125	2.40716326516122E-05
2	427	117.303329703838	0.696258544921875	0.6961669921875	8.31298828125E-07	5.78722790578468E-07	837445	2.41552588704508E-05
2	428	117.404037703583	0.706329345703125	0.70623779296875	8.33740234374999E-07	5.88818863889173E-07	847071.75	2.42391015490284E-05
2	429	117.504745703329	0.716400146484375	0.71630859375	8.3587646484375E-07	5.98745486968255E-07	856955.125	2.43231734202709E-05
2	430	117.605453703075	0.726470947265625	0.7264404296875	8.3831787109375E-07	6.08987988925946E-07	866545.3125	2.44074744841782E-05
2	431	117.706161702821	0.736541748046875	0.7364501953125	8.41369628906249E-07	6.19626803199935E-07	875299.25	2.44920538534643E-05
2	432	117.806869702566	0.746612548828125	0.74652099609375	8.44726562500001E-07	6.30606052709481E-07	883742.8125	2.45769551838748E-05
2	433	117.907577702312	0.756683349609375	0.75653076171875	8.4808349609375E-07	6.41601218376309E-07	892047.5625	2.46621948463144E-05
2	434	118.008285702058	0.766754150390625	0.76690673828125	8.5174560546875E-07	6.5320944031555E-07	900394.125	2.47477892116876E-05
2	435	118.108993701803	0.776824951171875	0.77667236328125	8.55102539062499E-07	6.64134518046922E-07	908279.8125	2.48337346420158E-05
2	436	118.209701701549	0.786895751953125	0.787353515625	8.59375E-07	6.76631884743983E-07	916193.25	2.49200656980975E-05
2	437	118.310409701295	0.796966552734375	0.797119140625	8.636474609375E-07	6.88429906858801E-07	922968.25	2.50068278546678E-05
2	438	118.411117701041	0.807037353515625	0.8074951171875	8.685302734375E-07	7.01333931374393E-07	929725.9375	2.50940483965678E-05
2	439	118.511825700786	0.817108154296875	0.816650390625	8.73718261718751E-07	7.13522354089946E-07	934683.9375	2.51817782555008E-05
2	440	118.612533700532	0.827178955078125	0.82733154296875	8.7921142578125E-07	7.27399367406178E-07	940992.6875	2.52700447163079E-05
2	441	118.713241700278	0.837249755859375	0.8380126953125	8.85009765625E-07	7.41649387236976E-07	946896.5625	2.53588805207983E-05
2	442	118.813949700024	0.847320556640625	0.84808349609375	8.9019775390625E-07	7.54962002247339E-07	952691.125	2.54482692980673E-05
2	443	118.914657699769	0.857391357421875	0.85723876953125	8.9599609375E-07	7.68082600188791E-07	956743.875	2.5538211048115E-05
2	444	119.015365699515	0.867462158203125	0.86700439453125	9.0179443359375E-07	7.81859739618085E-07	961421.375	2.56287385127507E-05
2	445	119.116073699261	0.877532958984375	0.87738037109375	9.075927734375E-07	7.96304107097967E-07	966711.5	2.57198480539955E-05
2	446	119.216781699007	0.887603759765625	0.88775634765625	9.136962890625E-07	8.11139670986449E-07	971609.875	2.58115560427541E-05
2	447	119.317489698752	0.897674560546875	0.897216796875	9.2010498046875E-07	8.25533618353802E-07	975124.375	2.59038952208357E-05
2	448	119.418197698498	0.907745361328125	0.9075927734375	9.26513671875E-07	8.40897087073245E-07	979578.4375	2.59968801401556E-05
2	449	119.518905698244	0.917816162109375	0.91796875	9.326171875E-07	8.56113445024675E-07	984293.1875	2.60904962487984E-05
2	450	119.61961369799	0.927886962890625	0.92803955078125	9.3902587890625E-07	8.71453153195034E-07	988300.3125	2.61847399087856E-05
2	451	119.720321697735	0.937957763671875	0.9375	9.4512939453125E-07	8.86058785454225E-07	991927.6875	2.62796147580957E-05
2	452	119.821029697481	0.948028564453125	0.948486328125	9.5062255859375E-07	9.01652470020053E-07	997752.875	2.63750735030044E-05
2	453	119.921737697227	0.958099365234375	0.958251953125	9.56115722656251E-07	9.16199780931493E-07	1002234.25	2.64710852206917E-05
2	454	120.022445696972	0.968170166015625	0.96771240234375	9.619140625E-07	9.30856117520307E-07	1006028	2.65676662820624E-05
2	455	120.123153696718	0.978240966796875	0.97869873046875	9.66796875000001E-07	9.46202874274604E-07	1012310.625	2.66647839453071E-05
2	456	120.223861696464	0.988311767578125	0.9881591796875	9.722900390625E-07	9.60777242653421E-07	1016321.5	2.67624254775001E-05
2	457	120.32456969621	0.998382568359375	0.99822998046875	9.77478027343751E-07	9.75747752818279E-07	1021230.1875	2.68606036115671E-05
2	458	120.425277695955	1.00845336914063	1.00830078125	9.82055664062501E-07	9.90207468021254E-07	1026724.6875	2.69592746917624E-05
2	459	120.525985695701	1.01852416992188	1.0186767578125	9.8602294921875E-07	1.00443855899357E-06	1033116.75	2.7058375053457E-05
2	460	120.626693695447	1.02859497070313	1.0284423828125	9.89990234375E-07	1.01814794106758E-06	1038840.9375	2.71578755928203E-05
2	461	120.727401695193	1.03866577148438	1.03790283203125	9.9334716796875E-07	1.03099785064842E-06	1044854.0625	2.72577435680432E-05
2	462	120.828109694938	1.04873657226563	1.04949951171875	9.9639892578125E-07	1.04572006875969E-06	1053292.625	2.73579353233799E-05
2	463	120.928817694684	1.05880737304688	1.058349609375	9.99755859375E-07	1.05809112938005E-06	1058608.125	2.74584490398411E-05
2	464	121.02952569443	1.06887817382813	1.0687255859375	1.00250244140625E-06	1.07139999272476E-06	1066057.75	2.75592719845008E-05
2	465	121.130233694176	1.07894897460938	1.07879638671875	1.0052490234375E-06	1.08445897240017E-06	1073163.375	2.76603695965605E-05
2	466	121.230941693921	1.08901977539063	1.0894775390625	1.007080078125E-06	1.09719110241713E-06	1081818.25	2.77616982202744E-05
2	467	121.331649693667	1.09909057617188	1.0992431640625	1.00830078125E-06	1.10836765543354E-06	1090193.75	2.78631814580876E-05
2	468	121.432357693413	1.10916137695313	1.1090087890625	1.00982666015625E-06	1.11990664208861E-06	1098217	2.79648011201061E-05
2	469	121.533065693159	1.11923217773438	1.11907958984375	1.01165771484375E-06	1.13212547603325E-06	1106184	2.80665917671286E-05
2	470	121.633773692904	1.12930297851563	1.129150390625	1.0125732421875E-06	1.14334739009792E-06	1115129.625	2.81685206573457E-05
2	471	121.73448169265	1.13937377929688	1.13922119140625	1.01409912109375E-06	1.15528314381663E-06	1123382.5	2.82705714198528E-05
2	472	121.835189692396	1.14944458007813	1.14990234375	1.016845703125E-06	1.16927321869298E-06	1130852.375	2.83728368231095E-05
2	473	121.935897692141	1.15951538085938	1.15966796875	1.01898193359375E-06	1.18168077278824E-06	1138065.25	2.84753496089252E-05
2	474	122.036605691887	1.16958618164063	1.16943359375	1.02081298828125E-06	1.19377295959566E-06	1145590.375	2.85780606645858E-05
2	475	122.137313691633	1.17965698242188	1.17919921875	1.0235595703125E-06	1.20698064165481E-06	1152057.25	2.86810027319007E-05
2	476	122.238021691379	1.18972778320313	1.18927001953125	1.02630615234375E-06	1.22055507745245E-06	1158786.875	2.87842231045943E-05
2	477	122.338729691124	1.19979858398438	1.199951171875	1.02874755859375E-06	1.23444681321416E-06	1166419.5	2.88877017737832E-05
2	478	122.43943769087	1.20986938476563	1.209716796875	1.0321044921875E-06	1.2485540992202E-06	1172087.5	2.89914751192555E-05
2	479	122.540145690616	1.21994018554688	1.21978759765625	1.03515625E-06	1.26267070754693E-06	1178360.875	2.90955686068628E-05
2	480	122.640853690362	1.23001098632813	1.2298583984375	1.038818359375E-06	1.27759949464235E-06	1183901.25	2.92000022454886E-05
2	481	122.741561690107	1.24008178710938	1.23992919921875	1.04278564453125E-06	1.29298030060454E-06	1189054.75	2.93048196908785E-05
2	482	122.842269689853	1.25015258789063	1.25	1.046142578125E-06	1.30767818973254E-06	1194865.875	2.94100045721279E-05
2	483	122.942977689599	1.26022338867188	1.26007080078125	1.0504150390625E-06	1.32359730287135E-06	1199593.25	2.95155750791309E-05
2	484	123.043685689345	1.27029418945313	1.270751953125	1.05377197265625E-06	1.33908270072425E-06	1205908	2.96215293928981E-05
2	485	123.14439368909	1.28036499023438	1.2799072265625	1.05743408203125E-06	1.35341747409257E-06	1210389.625	2.97278365906095E-05
2	486	123.245101688836	1.29043579101563	1.28997802734375	1.06201171875E-06	1.36997175559372E-06	1214655.125	2.98345603368944E-05
2	487	123.345809688582	1.30050659179688	1.3006591796875	1.06597900390625E-06	1.38647533276526E-06	1220154.625	2.99417133646784E-05
2	488	123.446517688328	1.31057739257813	1.31103515625	1.07025146484375E-06	1.40313727570174E-06	1224978.625	3.00492811220465E-05
2	489	123.547225688073	1.32064819335938	1.32080078125	1.0748291015625E-06	1.41963516853139E-06	1228847.25	3.01572945318185E-05
2	490	123.647933687819	1.33071899414063	1.33087158203125	1.07940673828125E-06	1.43655176998436E-06	1232965.75	3.02657681459095E-05
2	491	123.748641687565	1.34078979492188	1.34063720703125	1.08428955078125E-06	1.45363890169392E-06	1236419.875	3.03747183352243E-05
2	492	123.84934968731	1.35086059570313	1.3507080078125	1.0888671875E-06	1.47074160850025E-06	1240470.875	3.04841469187522E-05
2	493	123.950057687056	1.36093139648438	1.361083984375	1.09405517578125E-06	1.48910100961075E-06	1244072.5	3.05940666294191E-05
2	494	124.050765686802	1.37100219726563	1.37115478515625	1.099853515625E-06	1.50806943111093E-06	1246670.375	3.07045374938753E-05
2	495	124.151473686548	1.38107299804688	1.38092041015625	1.10595703125E-06	1.52723862356652E-06	1248620.25	3.08156086248346E-05
2	496	124.252181686293	1.39114379882813	1.39068603515625	1.1126708984375E-06	1.54737574575847E-06	1249863	3.09273236780427E-05
2	497	124.352889686039	1.40121459960938	1.40106201171875	1.1199951171875E-06	1.56918258653604E-06	1250953.75	3.10397481371183E-05
2	498	124.453597685785	1.41128540039063	1.41082763671875	1.126708984375E-06	1.58959221607802E-06	1252166.875	3.11528783640824E-05
2	499	124.554305685531	1.42135620117188	1.42120361328125	1.13433837890625E-06	1.61212585680914E-06	1252892.125	3.12667325488292E-05
2	500	124.655013685276	1.43142700195313	1.4312744140625	1.1419677734375E-06	1.63446929946076E-06	1253340.375	3.13813543471042E-05
2	501	124.755721685022	1.44149780273438	1.441650390625	1.1492919921875E-06	1.65687720254937E-06	1254381.375	3.14967255690135E-05
2	502	124.856429684768	1.45156860351563	1.45172119140625	1.1578369140625E-06	1.68085637142212E-06	1253821.875	3.16129007842392E-05
2	503	124.957137684514	1.46163940429688	1.46209716796875	1.16546630859375E-06	1.70402495314192E-06	1254516.875	3.17298872687388E-05
2	504	125.057845684259	1.47171020507813	1.4715576171875	1.17340087890625E-06	1.72672696407972E-06	1254096.25	3.18476595566608E-05
2	505	125.158553684005	1.48178100585938	1.48162841796875	1.1810302734375E-06	1.74984802470135E-06	1254522	3.19662140100263E-05
2	506	125.259261683751	1.49185180664063	1.49169921875	1.18896484375E-06	1.77357787833898E-06	1254620.125	3.20855542668141E-05
2	507	125.359969683497	1.50192260742188	1.50146484375	1.19659423828125E-06	1.79664414190484E-06	1254782	3.22056766890455E-05
2	508	125.460677683242	1.49185180664063	1.4910888671875	1.09832763671875E-06	1.63770414474129E-06	1357599.375	3.2321233447874E-05
2	509	125.561385682988	1.48178100585938	1.48162841796875	1.0321044921875E-06	1.52919528773054E-06	1435541.125	3.24285101669375E-05
2	510	125.662093682734	1.47171020507813	1.4715576171875	9.81750488281249E-07	1.44470232044114E-06	1498912.125	3.25299151882064E-05
2	511	125.762801682479	1.46163940429688	1.4617919921875	9.40551757812499E-07	1.37489098506194E-06	1554185.625	3.26267108903266E-05
2	512	125.863509682225	1.45156860351563	1.4520263671875	9.0484619140625E-07	1.31386047996784E-06	1604721.75	3.27196357829962E-05
2	513	125.964217681971	1.44149780273438	1.44134521484375	8.740234375E-07	1.25976953313511E-06	1649092.125	3.28092064592056E-05
2	514	126.064925681717	1.43142700195313	1.4312744140625	8.46252441406251E-07	1.21121945539926E-06	1691309.125	3.28958303725813E-05
2	515	126.165633681462	1.42135620117188	1.4208984375	8.21533203124999E-07	1.16731530397374E-06	1729569.125	3.29798094753642E-05
2	516	126.266341681208	1.41128540039063	1.4117431640625	7.9925537109375E-07	1.12834334231593E-06	1766323	3.30614238919225E-05
2	517	126.367049680954	1.40121459960938	1.4013671875	7.79113769531251E-07	1.09182440155564E-06	1798668.25	3.31408991769422E-05
2	518	126.4677576807	1.39114379882813	1.39129638671875	7.586669921875E-07	1.05553067442088E-06	1833869.625	3.32183335558511E-05
2	519	126.568465680445	1.38107299804688	1.38092041015625	7.40661621093749E-07	1.02279477687262E-06	1864441.75	3.32938325300347E-05
2	520	126.669173680191	1.37100219726563	1.3714599609375	7.23876953125E-07	9.92768264040933E-07	1894603.75	3.33675779984333E-05
2	521	126.769881679937	1.36093139648438	1.36138916015625	7.0831298828125E-07	9.6428959750483E-07	1922016.375	3.34396936523262E-05
2	522	126.870589679683	1.35086059570313	1.3507080078125	6.93359374999999E-07	9.36526078021416E-07	1948063.375	3.35102740791626E-05
2	523	126.971297679428	1.34078979492188	1.34063720703125	6.7901611328125E-07	9.10314213342645E-07	1974382.125	3.35793774866033E-05
2	524	127.072005679174	1.33071899414063	1.33087158203125	6.64672851562501E-07	8.84594157923857E-07	2002295.75	3.36470366164576E-05
2	525	127.17271367892	1.32064819335938	1.3201904296875	6.50634765624999E-07	8.58961811900372E-07	2029080.625	3.37132696586195E-05
2	526	127.273421678665	1.31057739257813	1.31103515625	6.36901855468749E-07	8.35000719234813E-07	2058457.125	3.37781020789407E-05
2	527	127.374129678411	1.30050659179688	1.30035400390625	6.2408447265625E-07	8.11530753708212E-07	2083618.625	3.38415957230609E-05
2	528	127.474837678157	1.29043579101563	1.29058837890625	6.121826171875E-07	7.90075716849969E-07	2108175.5	3.39038488164078E-05
2	529	127.575545677903	1.28036499023438	1.28021240234375	6.00280761718749E-07	7.68486870583729E-07	2132689.25	3.39649013767485E-05
2	530	127.676253677648	1.27029418945313	1.26983642578125	5.88378906250001E-07	7.4714495212902E-07	2158195	3.40247534040827E-05
2	531	127.776961677394	1.26022338867188	1.259765625	5.76171875000001E-07	7.25841516668879E-07	2186440.75	3.40833939844742E-05
2	532	127.87766967714	1.25015258789063	1.25030517578125	5.65185546875E-07	7.06654418536345E-07	2212203	3.41408667736687E-05
2	533	127.978377676886	1.24008178710938	1.23992919921875	5.54504394531249E-07	6.87546162225772E-07	2236103.5	3.4197248169221E-05
2	534	128.079085676631	1.23001098632813	1.22955322265625	5.4351806640625E-07	6.68284371840855E-07	2262212.25	3.42525345331524E-05
2	535	128.179793676377	1.21994018554688	1.21978759765625	5.33447265625001E-07	6.50692300041555E-07	2286613.5	3.43067658832297E-05
2	536	128.280501676123	1.20986938476563	1.20941162109375	5.2398681640625E-07	6.33715728781681E-07	2308095.75	3.43600113410503E-05
2	537	128.381209675869	1.19979858398438	1.1993408203125	5.15136718750001E-07	6.17824468918116E-07	2328199	3.44123363902327E-05
2	538	128.481917675614	1.18972778320313	1.18988037109375	5.0628662109375E-07	6.02420470841025E-07	2350211	3.44637701346073E-05
2	539	128.58262567536	1.17965698242188	1.17950439453125	4.98046875E-07	5.87448482747277E-07	2368260	3.45143416780047E-05
2	540	128.683333675106	1.16958618164063	1.1700439453125	4.89501953125E-07	5.72738770188153E-07	2390274.5	3.45640692103188E-05
2	541	128.784041674852	1.15951538085938	1.15936279296875	4.81567382812501E-07	5.58311285203672E-07	2407477.75	3.46129636454862E-05
2	542	128.884749674597	1.14944458007813	1.14959716796875	4.73937988281251E-07	5.44837746474514E-07	2425628	3.46610795531888E-05
2	543	128.985457674343	1.13937377929688	1.1395263671875	4.66003417968749E-07	5.3102314723219E-07	2445317.75	3.4708409657469E-05
2	544	129.086165674089	1.12930297851563	1.1297607421875	4.58374023437499E-07	5.17852981829492E-07	2464713.75	3.4754953958327E-05
2	545	129.186873673834	1.11923217773438	1.11907958984375	4.50439453125E-07	5.04077604546183E-07	2484417.5	3.48007160937414E-05
2	546	129.28758167358	1.10916137695313	1.10870361328125	4.41894531250001E-07	4.89930016556173E-07	2508978	3.48456487699877E-05
2	547	129.388289673326	1.09909057617188	1.09954833984375	4.33959960937499E-07	4.77159915135417E-07	2533755.5	3.48897519870661E-05
2	548	129.488997673072	1.08901977539063	1.0888671875	4.24804687499999E-07	4.62555874491954E-07	2563218.5	3.49329930031672E-05
2	549	129.589705672817	1.07894897460938	1.07879638671875	4.150390625E-07	4.47742621645375E-07	2599264.75	3.49752845067997E-05
2	550	129.690413672563	1.06887817382813	1.0687255859375	4.04968261718749E-07	4.3279993633405E-07	2639035.5	3.50165755662601E-05
2	551	129.791121672309	1.05880737304688	1.05865478515625	3.948974609375E-07	4.18060068341219E-07	2680834.75	3.50568516296335E-05
2	552	129.891829672055	1.04873657226563	1.04888916015625	3.8482666015625E-07	4.0364051301367E-07	2725614.75	3.50961126969196E-05
2	553	129.9925376718	1.03866577148438	1.03851318359375	3.74755859375001E-07	3.89188869576174E-07	2771172.75	3.51343624060974E-05
2	554	130.093245671546	1.02859497070313	1.02874755859375	3.6468505859375E-07	3.75168838218087E-07	2820920.75	3.51715934812091E-05
2	555	130.193953671292	1.01852416992188	1.01837158203125	3.5552978515625E-07	3.62061427949811E-07	2864377.75	3.5207860491937E-05
2	556	130.294661671038	1.00845336914063	1.00830078125	3.45764160156251E-07	3.48634273450443E-07	2916151.75	3.52431743522175E-05
2	557	130.395369670783	0.998382568359375	0.99853515625	3.369140625E-07	3.36420526991787E-07	2963768.25	3.52775496139657E-05
2	558	130.496077670529	0.988311767578125	0.98846435546875	3.28979492187501E-07	3.25184515759247E-07	3004638.25	3.53110808646306E-05
2	559	130.596785670275	0.978240966796875	0.97808837890625	3.21350097656251E-07	3.14308778115446E-07	3043684.75	3.53438263118733E-05
2	560	130.697493670021	0.968170166015625	0.96893310546875	3.1402587890625E-07	3.04270059814371E-07	3085520	3.53758186975028E-05
2	561	130.798201669766	0.958099365234375	0.95794677734375	3.0792236328125E-07	2.94973233394558E-07	3111001	3.54071380570531E-05
2	562	130.898909669512	0.948028564453125	0.94818115234375	3.0242919921875E-07	2.86757654066605E-07	3135217	3.54378717020154E-05
2	563	130.999617669258	0.937957763671875	0.9381103515625	2.96630859374999E-07	2.78272466402996E-07	3162551.5	3.54680378222838E-05
2	564	131.100325669003	0.927886962890625	0.927734375	2.911376953125E-07	2.7009843961423E-07	3186582.75	3.54976327798795E-05
2	565	131.201033668749	0.917816162109375	0.91796875	2.85949707031249E-07	2.62492903857492E-07	3210245.5	3.55266929545905E-05
2	566	131.301741668495	0.907745361328125	0.908203125	2.81372070312499E-07	2.55542971672185E-07	3227766	3.55552583641838E-05
2	567	131.402449668241	0.897674560546875	0.89752197265625	2.7740478515625E-07	2.48976874672735E-07	3235423.5	3.55833944922779E-05
2	568	131.503157667986	0.887603759765625	0.88775634765625	2.728271484375E-07	2.42204038158889E-07	3253915	3.56111013388727E-05
2	569	131.603865667732	0.877532958984375	0.877685546875	2.69165039062499E-07	2.36242271967058E-07	3260771	3.56383934558835E-05
2	570	131.704573667478	0.867462158203125	0.8673095703125	2.655029296875E-07	2.30273229817612E-07	3266666.5	3.5665314499056E-05
2	571	131.805281667224	0.857391357421875	0.85723876953125	2.61840820312501E-07	2.24460109166102E-07	3273892.75	3.56918681063689E-05
2	572	131.905989666969	0.847320556640625	0.84747314453125	2.58789062500001E-07	2.19316760308175E-07	3274764.5	3.57180870196316E-05
2	573	132.006697666715	0.837249755859375	0.83770751953125	2.55432128906249E-07	2.13977415342015E-07	3279570	3.57439785148017E-05
2	574	132.107405666461	0.827178955078125	0.82733154296875	2.52380371093749E-07	2.0880224838038E-07	3278113.5	3.57695498678368E-05
2	575	132.208113666207	0.817108154296875	0.8172607421875	2.490234375E-07	2.03517075192394E-07	3281862.75	3.5794797440758E-05
2	576	132.308821665952	0.807037353515625	0.8074951171875	2.46276855468749E-07	1.98867340372999E-07	3278810.5	3.58197357854806E-05
2	577	132.409529665698	0.796966552734375	0.79681396484375	2.43530273437501E-07	1.94048325852236E-07	3271929.75	3.58444012817927E-05
2	578	132.510237665444	0.786895751953125	0.7867431640625	2.410888671875E-07	1.89675006367906E-07	3263291.25	3.58688048436306E-05
2	579	132.61094566519	0.776824951171875	0.7769775390625	2.38647460937499E-07	1.85423715493016E-07	3255754.5	3.58929610229097E-05
2	580	132.711653664935	0.766754150390625	0.76629638671875	2.3681640625E-07	1.81471548899026E-07	3235824.75	3.59169025614392E-05
2	581	132.812361664681	0.756683349609375	0.75714111328125	2.3468017578125E-07	1.77686004576572E-07	3226268	3.59406440111343E-05
2	582	132.913069664427	0.746612548828125	0.746490478515625	2.32543945312499E-07	1.73591843122267E-07	3210105	3.59641708200797E-05
2	583	133.013777664172	0.736541748046875	0.736358642578125	2.3040771484375E-07	1.6966271232377E-07	3195894.25	3.59874793502968E-05
2	584	133.114485663918	0.726470947265625	0.72637939453125	2.2918701171875E-07	1.6647672396175E-07	3169374.25	3.60106241714675E-05
2	585	133.215193663664	0.716400146484375	0.716339111328125	2.27966308593749E-07	1.63301180577946E-07	3142302.75	3.603364166338E-05
2	586	133.31590166341	0.706329345703125	0.7061767578125	2.2705078125E-07	1.60337975785296E-07	3110215	3.6056553653907E-05
2	587	133.416609663155	0.696258544921875	0.696136474609375	2.25830078125E-07	1.57208560835898E-07	3082567.5	3.60793601430487E-05
2	588	133.517317662901	0.686187744140625	0.68603515625	2.25219726562501E-07	1.54508640548556E-07	3046070.5	3.61020720447414E-05
2	589	133.618025662647	0.676116943359375	0.675994873046875	2.24609375E-07	1.51834782968763E-07	3009646.75	3.61247221007943E-05
2	590	133.718733662393	0.666046142578125	0.665985107421875	2.23388671874999E-07	1.48773523278578E-07	2981284.25	3.61472812073771E-05
2	591	133.819441662138	0.655975341796875	0.6558837890625	2.227783203125E-07	1.46116676091879E-07	2944109.75	3.61697457265109E-05
2	592	133.920149661884	0.645904541015625	0.64581298828125	2.2125244140625E-07	1.42887699894345E-07	2918896.75	3.61921047442593E-05
2	593	134.02085766163	0.635833740234375	0.635833740234375	2.2125244140625E-07	1.40679759397244E-07	2873793.25	3.62143873644527E-05
2	594	134.121565661376	0.625762939453125	0.625640869140625	2.20336914062499E-07	1.37851785098064E-07	2839473.75	3.62366226909216E-05
2	595	134.222273661121	0.615692138671875	0.61566162109375	2.1942138671875E-07	1.35089322839121E-07	2805841.5	3.62587670679204E-05
2	596	134.322981660867	0.605621337890625	0.6055908203125	2.19116210937501E-07	1.326947653979E-07	2763788.5	3.62808495992795E-05
2	597	134.423689660613	0.595550537109375	0.59552001953125	2.178955078125E-07	1.29761133393913E-07	2733053.25	3.63028557330836E-05
2	598	134.524397660359	0.585479736328125	0.58544921875	2.1636962890625E-07	1.26673427303103E-07	2705782.75	3.63247199857142E-05
2	599	134.625105660104	0.575408935546875	0.575347900390625	2.1514892578125E-07	1.23785483197025E-07	2674184.5	3.63464496331289E-05
2	600	134.72581365985	0.565338134765625	0.5653076171875	2.1392822265625E-07	1.20935254699361E-07	2642510.75	3.63680555892643E-05
2	601	134.826521659596	0.555267333984375	0.55523681640625	2.1209716796875E-07	1.17764152207656E-07	2617841.75	3.63895087502897E-05
2	602	134.927229659341	0.545196533203125	0.545196533203125	2.11181640624999E-07	1.15135492251284E-07	2581647.5	3.64108200301416E-05
2	603	135.027937659087	0.535125732421875	0.535125732421875	2.1026611328125E-07	1.12518804940009E-07	2544992.75	3.64320439985022E-05
2	604	135.128645658833	0.525054931640625	0.52508544921875	2.08740234375E-07	1.09606460796385E-07	2515497	3.64531406376045E-05
2	605	135.229353658579	0.514984130859375	0.5150146484375	2.0721435546875E-07	1.06718431425179E-07	2485419.75	3.64740881195758E-05
2	606	135.330061658324	0.504913330078125	0.50482177734375	2.0599365234375E-07	1.03990075217553E-07	2450666.75	3.64948937203735E-05
2	607	135.43076965807	0.494842529296875	0.49481201171875	2.0477294921875E-07	1.01324111767553E-07	2416393.5	3.65155756298918E-05
2	608	135.531477657816	0.484771728515625	0.4847412109375	2.032470703125E-07	9.85222285976306E-08	2384985	3.65361229341943E-05
2	609	135.632185657562	0.474700927734375	0.474700927734375	2.02331542968751E-07	9.6046967712482E-08	2346154	3.65565465472173E-05
2	610	135.732893657307	0.464630126953125	0.464569091796875	2.01416015625E-07	9.35716570893419E-08	2306515.25	3.65768755727913E-05
2	611	135.833601657053	0.454559326171875	0.45452880859375	2.001953125E-07	9.09945327975947E-08	2270427	3.65970990969799E-05
2	612	135.934309656799	0.444488525390625	0.4444580078125	1.995849609375E-07	8.87071323063537E-08	2226911.25	3.66172280337196E-05
2	613	136.035017656545	0.434417724609375	0.434356689453125	1.983642578125E-07	8.61608384639112E-08	2189692.5	3.6637266020989E-05
2	614	136.13572565629	0.424346923828125	0.42431640625	1.9683837890625E-07	8.35217477401784E-08	2155659	3.66571657650638E-05
2	615	136.236433656036	0.414276123046875	0.41424560546875	1.953125E-07	8.09073412710859E-08	2120937.5	3.66769127140287E-05
2	616	136.337141655782	0.404205322265625	0.40423583984375	1.94091796875E-07	7.84588607416481E-08	2082704.375	3.6696521419799E-05
2	617	136.437849655528	0.394134521484375	0.394134521484375	1.92871093749999E-07	7.60171516844821E-08	2043512.75	3.67160064342897E-05
2	618	136.538557655273	0.384063720703125	0.384033203125	1.91650390625001E-07	7.36001126711017E-08	2003821.75	3.67353677575011E-05
2	619	136.639265655019	0.373992919921875	0.373931884765625	1.904296875E-07	7.12077294906521E-08	1963621.75	3.67546090274118E-05
2	620	136.739973654765	0.363922119140625	0.363983154296875	1.89819335937499E-07	6.90910368916775E-08	1917524.125	3.67737557098735E-05
2	621	136.84068165451	0.353851318359375	0.353851318359375	1.88293457031249E-07	6.66278907601736E-08	1879254.5	3.6792793252971E-05
2	622	136.941389654256	0.343780517578125	0.343780517578125	1.861572265625E-07	6.39972270732869E-08	1846721.375	3.68116488971282E-05
2	623	137.042097654002	0.333709716796875	0.333740234375	1.84020996093751E-07	6.14152071420904E-08	1813598.75	3.68302899005357E-05
2	624	137.142805653748	0.323638916015625	0.3236083984375	1.8157958984375E-07	5.87606763247095E-08	1782185	3.68486980732996E-05
2	625	137.243513653493	0.313568115234375	0.3135986328125	1.7974853515625E-07	5.63688935528717E-08	1744652	3.68668952432927E-05
2	626	137.344221653239	0.303497314453125	0.303466796875	1.77612304687499E-07	5.38994378018742E-08	1708591	3.68848886864726E-05
2	627	137.444929652985	0.293426513671875	0.29339599609375	1.751708984375E-07	5.13944407032341E-08	1674912.875	3.69026529369876E-05
2	628	137.545637652731	0.283355712890625	0.283294677734375	1.727294921875E-07	4.89333444875228E-08	1640106.125	3.69201698049437E-05
2	629	137.646345652476	0.273284912109375	0.27325439453125	1.690673828125E-07	4.61984051014497E-08	1616245.5	3.69373810826801E-05
2	630	137.747053652222	0.263214111328125	0.263214111328125	1.66015625E-07	4.36976534956557E-08	1585478	3.69542540283874E-05
2	631	137.847761651968	0.253143310546875	0.25311279296875	1.62353515624999E-07	4.10937524009114E-08	1559022.5	3.69707886420656E-05
2	632	137.948469651714	0.243072509765625	0.24310302734375	1.5838623046875E-07	3.85041722950064E-08	1534874.75	3.69869376299903E-05
2	633	138.049177651459	0.233001708984375	0.23297119140625	1.544189453125E-07	3.59751659573249E-08	1508695.75	3.7002690078225E-05
2	634	138.149885651205	0.222930908203125	0.22296142578125	1.4984130859375E-07	3.34088312570202E-08	1487983.75	3.70180096069816E-05
2	635	138.250593650951	0.212860107421875	0.212890625	1.45263671875E-07	3.09252747854316E-08	1465546.25	3.70328707504086E-05
2	636	138.351301650697	0.202789306640625	0.202789306640625	1.4068603515625E-07	2.85296213320407E-08	1441431.75	3.70472698705271E-05
2	637	138.452009650442	0.192718505859375	0.192718505859375	1.33361816406249E-07	2.57012882087793E-08	1445080.125	3.70610687241424E-05
2	638	138.552717650188	0.182647705078125	0.182647705078125	1.2542724609375E-07	2.29089991421461E-08	1456204.375	3.70740999642294E-05
2	639	138.653425649934	0.172576904296875	0.17266845703125	1.141357421875E-07	1.97076417407516E-08	1512834.25	3.70861635019537E-05
2	640	138.754133649679	0.162506103515625	0.162506103515625	1.0040283203125E-07	1.63160720489941E-08	1618541.125	3.7096964661032E-05
2	641	138.854841649425	0.152435302734375	0.152496337890625	8.11767578124997E-08	1.23791581430055E-08	1878571.375	3.7106110539753E-05
2	642	138.955549649171	0.142364501953125	0.142364501953125	5.645751953125E-08	8.03754662825895E-09	2521621.5	3.71130408893805E-05
2	643	139.056257648917	0.132293701171875	0.13232421875	2.16674804687497E-08	2.86713230934765E-09	6107042.5	3.7116973544471E-05
2	644	139.156965648662	0.122222900390625	0.12225341796875	-2.65502929687494E-08	-3.24586402200566E-09	-4604598	3.71167261619121E-05
2	645	139.257673648408	0.112152099609375	0.1121826171875	-9.12475585937503E-08	-1.02363895138069E-08	-1229431.5	3.71107962564565E-05
2	646	139.358381648154	0.102081298828125	0.102081298828125	-1.788330078125E-07	-1.82555055516787E-08	-570819.125	3.70971974916756E-05
2	647	139.4590896479	0.092010498046875	0.092041015625	-2.947998046875E-07	-2.71336730861549E-08	-312215.3125	3.70733469026163E-05
2	648	139.559797647645	0.081939697265625	0.081939697265625	-4.4281005859375E-07	-3.62837191403287E-08	-185044.8125	3.70362067769747E-05
2	649	139.660505647391	0.071868896484375	0.07196044921875	-6.2255859375E-07	-4.47995951446956E-08	-115588.2421875	3.69825611414853E-05
2	650	139.761213647137	0.061798095703125	0.06182861328125	-8.282470703125E-07	-5.12093656368506E-08	-74649.96875	3.69095068890601E-05
2	651	139.861921646883	0.051727294921875	0.051788330078125	-1.04705810546875E-06	-5.42253886237631E-08	-49460.80078125	3.68150758731645E-05
2	652	139.962629646628	0.041656494140625	0.041748046875	-1.259765625E-06	-5.25927497108114E-08	-33139.53515625	3.66989188478328E-05
2	653	140.063337646374	0.031585693359375	0.03162841796875	-1.4471435546875E-06	-4.57708608792018E-08	-21855.7578125	3.65626146958675E-05
2	654	140.16404564612	0.021514892578125	0.0215728759765625	-1.588134765625E-06	-3.42606334413631E-08	-13583.7822265625	3.6409775930224E-05
2	655	140.264753645866	0.011444091796875	0.011566162109375	-1.67510986328125E-06	-1.93745925969324E-08	-6904.71875	3.62454593414441E-05
2	656	140.365461645611	0.001373291015625	0.00144042968749999	-1.7071533203125E-06	-2.45903430950989E-09	-843.76123046875	3.60751473635901E-05
2	657	140.466169645357	-0.008697509765625	-0.00865478515625	-1.69403076171875E-06	1.46614720364369E-08	5108.98974609375	3.59038858732674E-05
2	658	140.566877645103	-0.018768310546875	-0.0186431884765625	-1.6497802734375E-06	3.07571639268645E-08	11300.408203125	3.57355129381176E-05
2	659	140.667585644848	-0.028839111328125	-0.0287261962890625	-1.588134765625E-06	4.56210713650762E-08	18088.009765625	3.55724696419202E-05
2	660	140.768293644594	-0.038909912109375	-0.03876953125	-1.51947021484375E-06	5.89091477820602E-08	25515.1640625	3.54159892594907E-05
2	661	140.86900164434	-0.048980712890625	-0.0488311767578125	-1.4508056640625E-06	7.08445426766957E-08	33657.97265625	3.52664246747736E-05
2	662	140.969709644086	-0.059051513671875	-0.059051513671875	-1.38519287109375E-06	8.17977365841216E-08	42630.53515625	3.512361945468E-05
2	663	141.070417643831	-0.069122314453125	-0.069091796875	-1.32537841796875E-06	9.15727795813837E-08	52129.86328125	3.49871334037744E-05
2	664	141.171125643577	-0.079193115234375	-0.079193115234375	-1.27197265625E-06	1.00731476493365E-07	62260.07421875	3.48563444276806E-05
2	665	141.271833643323	-0.089263916015625	-0.08917236328125	-1.224365234375E-06	1.09179538299031E-07	72831.5078125	3.4730644983938E-05
2	666	141.372541643069	-0.099334716796875	-0.099273681640625	-1.182861328125E-06	1.1742699257411E-07	83926.734375	3.46094311680645E-05
2	667	141.473249642814	-0.109405517578125	-0.109344482421875	-1.14593505859375E-06	1.253016677083E-07	95419.4453125	3.44921681971755E-05
2	668	141.57395764256	-0.119476318359375	-0.119415283203125	-1.1138916015625E-06	1.33015674919079E-07	107205.484375	3.43783758580685E-05
2	669	141.674665642306	-0.129547119140625	-0.129486083984375	-1.085205078125E-06	1.40518963576142E-07	119319.4609375	3.42676430591382E-05
2	670	141.775373642052	-0.139617919921875	-0.139556884765625	-1.06109619140625E-06	1.48083287854206E-07	131521.421875	3.41595659847371E-05
2	671	141.876081641797	-0.149688720703125	-0.149627685546875	-1.03973388671875E-06	1.55572976723306E-07	143909.59375	3.40537808369845E-05
2	672	141.976789641543	-0.159759521484375	-0.15960693359375	-1.0223388671875E-06	1.63172373390807E-07	156119.40625	3.39499492838513E-05
2	673	142.077497641289	-0.169830322265625	-0.169677734375	-1.00677490234375E-06	1.70827277656826E-07	168535.9375	3.38477730110753E-05
2	674	142.178205641035	-0.179901123046875	-0.17974853515625	-9.9365234375E-07	1.78607550083143E-07	180896.8125	3.37470446538646E-05
2	675	142.27891364078	-0.189971923828125	-0.189849853515625	-9.8236083984375E-07	1.8650105459983E-07	193258.78125	3.36475459334906E-05
2	676	142.379621640526	-0.200042724609375	-0.19989013671875	-9.72595214843749E-07	1.94412194787219E-07	205522.4375	3.35491058649495E-05
2	677	142.480329640272	-0.189971923828125	-0.18988037109375	-8.39843749999999E-07	1.59469834670745E-07	226090.125	3.3457839890616E-05
