Potential - Start -0.2 V, Upper Vertex 1.5 V, Lower Vertex -0.2 V, Stop -0.19 V; Scan - # end cross 5, Rate 0.1 Vps, Step 0.01 V 
Scan	Index	Time (s)	Potential applied (V)	WE(1).Potential (V)	WE(1).Current (A)	WE(1).Power (W)	WE(1).Resistance (Ω)	WE(1).Charge (C)
1	1	64.6051978368876	-0.189971923828125	-0.189788818359375	-2.288818359375E-07	4.34392113390913E-08	829200	0
1	2	64.7059058366333	-0.179901123046875	-0.1796875	-2.0263671875E-07	3.64112828776797E-08	886747	-2.17286846293518E-08
1	3	64.806613836379	-0.169830322265625	-0.16961669921875	-1.8341064453125E-07	3.11095078586732E-08	924792.0625	-4.11677127942767E-08
1	4	64.9073218361248	-0.159759521484375	-0.159637451171875	-1.6754150390625E-07	2.67458979408275E-08	952823.3125	-5.88395572265199E-08
1	5	65.0080298358705	-0.149688720703125	-0.1495361328125	-1.5380859375E-07	2.2999941506896E-08	972222.25	-7.50208215549719E-08
1	6	65.1087378356162	-0.139617919921875	-0.139495849609375	-1.4068603515625E-07	1.96251175310636E-08	991540.1875	-8.98497987122937E-08
1	7	65.209445835362	-0.129547119140625	-0.12939453125	-1.2847900390625E-07	1.66244795707371E-08	1007125.9375	-1.03403337448071E-07
1	8	65.3101538351077	-0.119476318359375	-0.11932373046875	-1.16577148437499E-07	1.39104203711327E-08	1023560.1875	-1.15742892603521E-07
1	9	65.4108618348534	-0.109405517578125	-0.109344482421875	-1.04370117187499E-07	1.14122959971041E-08	1047660.8125	-1.2686847128407E-07
1	10	65.5115698345992	-0.099334716796875	-0.09918212890625	-9.12475585937503E-08	9.05012687013595E-09	1086956.5	-1.36718611543074E-07
1	11	65.6122778343449	-0.089263916015625	-0.08917236328125	-7.53784179687494E-08	6.72167166371196E-09	1182996	-1.45108884908041E-07
1	12	65.7129858340907	-0.079193115234375	-0.0791015625	-5.67626953124997E-08	4.49001769098345E-09	1393548.375	-1.51762719724502E-07
1	13	65.8136938338364	-0.069122314453125	-0.069061279296875	-3.17382812500003E-08	2.19188622807565E-09	2175961.5	-1.56219101654642E-07
1	14	65.9144018335821	-0.059051513671875	-0.058990478515625	6.10351562499445E-10	-3.60049282055463E-11	-96650000	-1.57786516297165E-07
1	15	66.0151098333279	-0.048980712890625	-0.0487762451171875	4.45556640624997E-08	-2.17325801799007E-09	-1094726.125	-1.55512225319399E-07
1	16	66.1158178330736	-0.038909912109375	-0.0387420654296875	1.0406494140625E-07	-4.03169053697638E-09	-372287.40625	-1.48028590274407E-07
1	17	66.2165258328193	-0.028839111328125	-0.0286407470703125	1.849365234375E-07	-5.29672039562001E-09	-154867.984375	-1.33476206087835E-07
1	18	66.3172338325651	-0.018768310546875	-0.0186248779296875	2.93884277343751E-07	-5.47355893942836E-09	-63374.8671875	-1.09365664968664E-07
1	19	66.4179418323108	-0.008697509765625	-0.00860595703125	4.351806640625E-07	-3.74514597112352E-09	-19775.595703125	-7.26543234463861E-08
1	20	66.5186498320566	0.001373291015625	0.0015106201171875	6.1248779296875E-07	9.25236387505635E-10	2466.36767578125	-1.99000300682428E-08
1	21	66.6193578318023	0.011444091796875	0.011590576171875	8.2244873046875E-07	9.5326546656338E-09	14092.763671875	5.23547640796096E-08
1	22	66.720065831548	0.021514892578125	0.021649169921875	1.053466796875E-06	2.28066827645534E-08	20550.40625	1.46814613799506E-07
1	23	66.8207738312938	0.031585693359375	0.0317108154296875	1.28936767578125E-06	4.08868991996769E-08	24594.08203125	2.64785711578952E-07
1	24	66.9214818310395	0.041656494140625	0.0417327880859375	1.50848388671875E-06	6.2953233737062E-08	27665.38671875	4.05668714620333E-07
1	25	67.0221898307852	0.051727294921875	0.05181884765625	1.68792724609375E-06	8.74664465300157E-08	30699.693359375	5.66620769859583E-07
1	26	67.122897830531	0.061798095703125	0.0618896484375	1.81121826171875E-06	1.1209566253001E-07	34170.17578125	7.4281678053012E-07
1	27	67.2236058302767	0.071868896484375	0.07196044921875	1.87408447265625E-06	1.34859959644018E-07	38397.65625	9.2838649834448E-07
1	28	67.3243138300224	0.081939697265625	0.08197021484375	1.88385009765625E-06	1.54419595332911E-07	43512.0703125	1.11761357857176E-06
1	29	67.4250218297682	0.092010498046875	0.092071533203125	1.851806640625E-06	1.70498665852392E-07	49719.84375	1.30571879708441E-06
1	30	67.5257298295139	0.102081298828125	0.102081298828125	1.793212890625E-06	1.83053501245922E-07	56926.48046875	1.48926005749672E-06
1	31	67.6264378292597	0.112152099609375	0.112213134765625	1.7218017578125E-06	1.93208762766517E-07	65171.92578125	1.66625511610619E-06
1	32	67.7271458290054	0.122222900390625	0.12225341796875	1.6461181640625E-06	2.01243565811637E-07	74267.7109375	1.83584336355125E-06
1	33	67.8278538287511	0.132293701171875	0.1324462890625	1.57073974609375E-06	2.08038656523968E-07	84320.9609375	1.9978249383712E-06
1	34	67.9285618284969	0.142364501953125	0.14239501953125	1.5008544921875E-06	2.13714187680125E-07	94875.96875	2.15249201573897E-06
1	35	68.0292698282426	0.152435302734375	0.152496337890625	1.43585205078125E-06	2.18962171061321E-07	106206.1640625	2.30036698667391E-06
1	36	68.1299778279883	0.162506103515625	0.16253662109375	1.3775634765625E-06	2.23904507379302E-07	117988.484375	2.44203374677454E-06
1	37	68.2306858277341	0.172576904296875	0.172637939453125	1.3250732421875E-06	2.28757897957621E-07	130285.5859375	2.57812234849553E-06
1	38	68.3313938274798	0.182647705078125	0.1827392578125	1.278076171875E-06	2.33554686701609E-07	142979.9375	2.70920122602547E-06
1	39	68.4321018272256	0.192718505859375	0.19268798828125	1.2359619140625E-06	2.3815501037916E-07	155901.234375	2.83579311144422E-06
1	40	68.5328098269713	0.202789306640625	0.20281982421875	1.1981201171875E-06	2.43002517663626E-07	169281.71875	2.95835889119189E-06
1	41	68.633517826717	0.212860107421875	0.212860107421875	1.16424560546875E-06	2.47821418497551E-07	182830.9375	3.07731352222618E-06
1	42	68.7342258264628	0.222930908203125	0.22296142578125	1.134033203125E-06	2.52845637760402E-07	196609.265625	3.1930410386849E-06
1	43	68.8349338262085	0.233001708984375	0.23309326171875	1.10626220703125E-06	2.57862268426834E-07	210703.453125	3.30584884977725E-06
1	44	68.9356418259542	0.243072509765625	0.24310302734375	1.08123779296875E-06	2.62852182686402E-07	224837.71875	3.41599820785632E-06
1	45	69.0363498257	0.253143310546875	0.253204345703125	1.0589599609375E-06	2.68133248937374E-07	239106.640625	3.52376559931145E-06
1	46	69.1370578254457	0.263214111328125	0.26324462890625	1.038818359375E-06	2.73463342637115E-07	253407.75	3.62939726983313E-06
1	47	69.2377658251914	0.273284912109375	0.2734375	1.0205078125E-06	2.79045082152152E-07	267942.59375	3.73309262613475E-06
1	48	69.3384738249372	0.283355712890625	0.2833251953125	1.00311279296875E-06	2.8420711828403E-07	282446	3.83498991141096E-06
1	49	69.4391818246829	0.293426513671875	0.29339599609375	9.88159179687501E-07	2.8992195666433E-07	296911.6875	3.93525851904997E-06
1	50	69.5398898244287	0.303497314453125	0.30352783203125	9.74426269531251E-07	2.9576548854493E-07	311493.90625	4.03408239435521E-06
1	51	69.6405978241744	0.313568115234375	0.313629150390625	9.625244140625E-07	3.01875701325116E-07	325840.21875	4.13161569667864E-06
1	52	69.7413058239201	0.323638916015625	0.32366943359375	9.521484375E-07	3.08181341779346E-07	339935.90625	4.22802713728743E-06
1	53	69.8420138236659	0.333709716796875	0.333709716796875	9.4207763671875E-07	3.1438045766663E-07	354227.40625	4.32340902989381E-06
1	54	69.9427218234116	0.343780517578125	0.34381103515625	9.344482421875E-07	3.21273603276495E-07	367929.46875	4.41789961769246E-06
1	55	70.0434298231573	0.353851318359375	0.353912353515625	9.2803955078125E-07	3.28444656361171E-07	381354.8125	4.51168307336047E-06
1	56	70.1441378229031	0.363922119140625	0.364013671875	9.22241210937499E-07	3.35708421062009E-07	394705.5	4.60485216535744E-06
1	57	70.2448458226488	0.373992919921875	0.373992919921875	9.17663574218749E-07	3.43199673125127E-07	407549.0625	4.69749875264824E-06
1	58	70.3455538223945	0.384063720703125	0.384033203125	9.14611816406249E-07	3.51241311591366E-07	419886.5625	4.78976107842755E-06
1	59	70.4462618221403	0.394134521484375	0.394195556640625	9.130859375E-07	3.59934404059459E-07	431717.9375	4.8817933020473E-06
1	60	70.546969821886	0.404205322265625	0.4041748046875	9.1217041015625E-07	3.68676296602644E-07	443091.34375	4.97370228913496E-06
1	61	70.6476778216318	0.414276123046875	0.414306640625	9.1278076171875E-07	3.78171137072059E-07	453895.03125	5.0655958148127E-06
1	62	70.7483858213775	0.424346923828125	0.424346923828125	9.130859375E-07	3.87465178164348E-07	464739.3125	5.15753526997287E-06
1	63	70.8490938211232	0.434417724609375	0.434417724609375	9.1522216796875E-07	3.97588706846363E-07	474658.25	5.24959796166513E-06
1	64	70.949801820869	0.444488525390625	0.44451904296875	9.17968750000001E-07	4.08054603440178E-07	484242.03125	5.34190667167422E-06
1	65	71.0505098206147	0.454559326171875	0.45458984375	9.21020507812501E-07	4.18686568082194E-07	493571.90625	5.43450687473523E-06
1	66	71.1512178203604	0.464630126953125	0.464630126953125	9.25292968749999E-07	4.29918998179346E-07	502143.8125	5.52747633264516E-06
1	67	71.2519258201062	0.474700927734375	0.474700927734375	9.30175781250001E-07	4.41555300767504E-07	510334.65625	5.62090644962154E-06
1	68	71.3526338198519	0.484771728515625	0.48480224609375	9.3536376953125E-07	4.53466441285855E-07	518303.4375	5.71484406464151E-06
1	69	71.4533418195977	0.494842529296875	0.494842529296875	9.42382812500001E-07	4.66331073312176E-07	525097.1875	5.80939604333253E-06
1	70	71.5540498193434	0.504913330078125	0.50494384765625	9.4970703125E-07	4.79548702969623E-07	531683.8125	5.90467016081675E-06
1	71	71.6547578190891	0.514984130859375	0.515045166015625	9.58862304687499E-07	4.93857385208685E-07	537141.9375	6.00077419221634E-06
1	72	71.7554658188349	0.525054931640625	0.52508544921875	9.68017578125E-07	5.08291918777104E-07	542433.8125	6.09780045124353E-06
1	73	71.8561738185806	0.535125732421875	0.53515625	9.783935546875E-07	5.23593428169988E-07	546974.375	6.19580987404333E-06
1	74	71.9568818183263	0.545196533203125	0.54522705078125	9.91210937500001E-07	5.40434996310069E-07	550061.625	6.29498754278757E-06
1	75	72.0575898180721	0.555267333984375	0.555267333984375	1.005859375E-06	5.58520810045593E-07	552032.8125	6.39554809822585E-06
1	76	72.1582978178178	0.565338134765625	0.565338134765625	1.02447509765625E-06	5.79174809445249E-07	551832	6.49778348815744E-06
1	77	72.2590058175635	0.575408935546875	0.575347900390625	1.04736328125E-06	6.02598277055222E-07	549329.8125	6.60210889691371E-06
1	78	72.3597138173093	0.585479736328125	0.585418701171875	1.07696533203125E-06	6.30475653906615E-07	543581.75	6.70907729727332E-06
1	79	72.460421817055	0.595550537109375	0.59552001953125	1.116943359375E-06	6.65162076529668E-07	533169.4375	6.81954907122417E-06
1	80	72.5611298168008	0.605621337890625	0.605712890625	1.17095947265625E-06	7.09265236764622E-07	517279.15625	6.9347543103504E-06
1	81	72.6618378165465	0.615692138671875	0.61566162109375	1.24298095703125E-06	7.65255663282005E-07	495310.59375	7.0563060035056E-06
1	82	72.7625458162922	0.625762939453125	0.625762939453125	1.3427734375E-06	8.40257825984736E-07	466022.71875	7.18650881026406E-06
1	83	72.863253816038	0.635833740234375	0.635772705078125	1.47735595703125E-06	9.39262577048794E-07	430344.96875	7.32851367502008E-06
1	84	72.9639618157837	0.645904541015625	0.645965576171875	1.65313720703125E-06	1.06786967535299E-06	390751.34375	7.48614638723666E-06
1	85	73.0646698155294	0.655975341796875	0.655914306640625	1.87408447265625E-06	1.22923881917814E-06	349991.875	7.66375615057768E-06
1	86	73.1653778152752	0.666046142578125	0.665924072265625	2.14111328125E-06	1.42581893669558E-06	311017.65625	7.86593773227651E-06
1	87	73.2660858150209	0.676116943359375	0.676055908203125	2.4432373046875E-06	1.6517649328307E-06	276704.96875	8.0967774920282E-06
1	88	73.3667938147667	0.686187744140625	0.686126708984375	2.76214599609375E-06	1.89518209481321E-06	248403.5	8.35889022710035E-06
1	89	73.4675018145124	0.696258544921875	0.69622802734375	3.077392578125E-06	2.1425669274322E-06	226239.59375	8.65293350216234E-06
1	90	73.5682098142581	0.706329345703125	0.706298828125	3.36212158203125E-06	2.37466247199336E-06	210075.34375	8.97718928172253E-06
1	91	73.6689178140039	0.716400146484375	0.716339111328125	3.5882568359375E-06	2.57040869655611E-06	199634.296875	9.32716829993296E-06
1	92	73.7696258137496	0.726470947265625	0.72637939453125	3.73992919921875E-06	2.71660746875568E-06	194222.765625	9.69617212831508E-06
1	93	73.8703338134953	0.736541748046875	0.736358642578125	3.81591796875E-06	2.80988410850114E-06	192970.25	1.00766392279183E-05
1	94	73.9710418132411	0.746612548828125	0.74652099609375	3.831787109375E-06	2.8605095394596E-06	194823.1875	1.04617320175748E-05
1	95	74.0717498129868	0.756683349609375	0.7568359375	3.7982177734375E-06	2.87462762571522E-06	199260.8125	1.08459325929289E-05
1	96	74.1724578127325	0.766754150390625	0.76690673828125	3.74664306640625E-06	2.87332568404963E-06	204691.703125	1.12258467197535E-05
1	97	74.2731658124783	0.776824951171875	0.7769775390625	3.6944580078125E-06	2.87051079794765E-06	210308.9375	1.16005357995164E-05
1	98	74.373873812224	0.786895751953125	0.7867431640625	3.660888671875E-06	2.88017895400117E-06	214904.984375	1.197090750793E-05
1	99	74.4745818119698	0.796966552734375	0.797119140625	3.65997314453125E-06	2.91743458546989E-06	217793.71875	1.23395420814632E-05
1	100	74.5752898117155	0.807037353515625	0.8074951171875	3.70452880859375E-06	2.99138901027618E-06	217975.125	1.27103739941958E-05
1	101	74.6759978114612	0.817108154296875	0.81756591796875	3.8031005859375E-06	3.10928544422495E-06	214973.515625	1.30884127429454E-05
1	102	74.776705811207	0.827178955078125	0.82733154296875	3.96148681640625E-06	3.27746283801389E-06	208843.703125	1.3479390872817E-05
1	103	74.8774138109527	0.837249755859375	0.83709716796875	4.1766357421875E-06	3.49624997397768E-06	200423.796875	1.3889178262616E-05
1	104	74.9781218106984	0.847320556640625	0.84747314453125	4.43756103515625E-06	3.76071375285392E-06	190977.234375	1.43229372042697E-05
1	105	75.0788298104442	0.857391357421875	0.858154296875	4.72198486328125E-06	4.05219134336221E-06	181735.9375	1.47841574289487E-05
1	106	75.1795378101899	0.867462158203125	0.86700439453125	5.0048828125E-06	4.3392551560828E-06	173231.71875	1.52739430632209E-05
1	107	75.2802458099356	0.877532958984375	0.87799072265625	5.255126953125E-06	4.61395256934338E-06	167073.171875	1.57905760715948E-05
1	108	75.3809538096814	0.887603759765625	0.887451171875	5.4473876953125E-06	4.8342903937737E-06	162913.171875	1.63294898811728E-05
1	109	75.4816618094271	0.897674560546875	0.8978271484375	5.5633544921875E-06	4.99493080496904E-06	161382.328125	1.68839251273312E-05
1	110	75.5823698091729	0.907745361328125	0.90789794921875	5.6060791015625E-06	5.08974744661828E-06	161948.828125	1.74463511939393E-05
1	111	75.6830778089186	0.917816162109375	0.91766357421875	5.584716796875E-06	5.12489123138948E-06	164316.9375	1.8009852283285E-05
1	112	75.7837858086643	0.927886962890625	0.927734375	5.523681640625E-06	5.12450924361474E-06	167955.8125	1.85692042578012E-05
1	113	75.8844938084101	0.937957763671875	0.93780517578125	5.4443359375E-06	5.10572635903372E-06	172253.375	1.91214876394952E-05
1	114	75.9852018081558	0.948028564453125	0.9478759765625	5.3680419921875E-06	5.08823814016068E-06	176577.609375	1.96659348148387E-05
1	115	76.0859098079015	0.958099365234375	0.95794677734375	5.3131103515625E-06	5.08967696077889E-06	180298.6875	2.02037736016791E-05
1	116	76.1866178076473	0.968170166015625	0.96832275390625	5.2886962890625E-06	5.12116503159632E-06	183092.90625	2.07376178877894E-05
1	117	76.287325807393	0.978240966796875	0.97869873046875	5.31005859375E-06	5.1969473133795E-06	184310.34375	2.12713075598003E-05
1	118	76.3880338071388	0.988311767578125	0.9881591796875	5.377197265625E-06	5.3135267990001E-06	183768.4375	2.18094519368606E-05
1	119	76.4887418068845	0.998382568359375	0.99884033203125	5.4962158203125E-06	5.48984189663315E-06	181732.375	2.23569732042961E-05
1	120	76.5894498066302	1.00845336914063	1.0089111328125	5.6610107421875E-06	5.71145665162476E-06	178221.03125	2.29187844524859E-05
1	121	76.690157806376	1.01852416992188	1.01837158203125	5.8563232421875E-06	5.96391328144819E-06	173892.65625	2.34987273870502E-05
1	122	76.7908658061217	1.02859497070313	1.02874755859375	6.0577392578125E-06	6.23188407189446E-06	169823.6875	2.40986482822336E-05
1	123	76.8915738058674	1.03866577148438	1.03851318359375	6.2469482421875E-06	6.48753803034197E-06	166243.28125	2.47182379098376E-05
1	124	76.9922818056132	1.04873657226563	1.04888916015625	6.3934326171875E-06	6.70600229568663E-06	164057.28125	2.53547314059688E-05
1	125	77.0929898053589	1.05880737304688	1.0589599609375	6.4849853515625E-06	6.86733937982353E-06	163294.125	2.60032120422693E-05
1	126	77.1936978051046	1.06887817382813	1.0687255859375	6.5155029296875E-06	6.96328424965031E-06	164028.109375	2.66578390437644E-05
1	127	77.2944058048504	1.07894897460938	1.07879638671875	6.4849853515625E-06	6.9959783104423E-06	166352.953125	2.73124642262701E-05
1	128	77.3951138045961	1.08901977539063	1.08917236328125	6.414794921875E-06	6.98681742505869E-06	169790.671875	2.79620198853081E-05
1	129	77.4958218043419	1.09909057617188	1.0992431640625	6.317138671875E-06	6.94407117407536E-06	174009.671875	2.86031245195772E-05
1	130	77.5965298040876	1.10916137695313	1.1090087890625	6.2042236328125E-06	6.88053842168301E-06	178750.609375	2.92336244456237E-05
1	131	77.6972378038333	1.11923217773438	1.11907958984375	6.09130859375E-06	6.81665915180929E-06	183717.4375	2.98527538689086E-05
1	132	77.7979458035791	1.12930297851563	1.1297607421875	5.9814453125E-06	6.75760202284437E-06	188877.5625	3.04606655845419E-05
1	133	77.8986538033248	1.13937377929688	1.13983154296875	5.8807373046875E-06	6.70304962113732E-06	193824.59375	3.10579744109418E-05
1	134	77.9993618030705	1.14944458007813	1.14898681640625	5.7891845703125E-06	6.65169636704377E-06	198471.28125	3.16456025757361E-05
1	135	78.1000698028163	1.15951538085938	1.15966796875	5.706787109375E-06	6.61797776047024E-06	203208.5625	3.22244704875629E-05
1	136	78.200777802562	1.16958618164063	1.16912841796875	5.6365966796875E-06	6.58990529700532E-06	207417.4375	3.27956549881492E-05
1	137	78.3014858023078	1.17965698242188	1.17919921875	5.57861328125E-06	6.57829605188454E-06	211378.5625	3.33603857143316E-05
1	138	78.4021938020535	1.18972778320313	1.18927001953125	5.5328369140625E-06	6.58003682474373E-06	214947.59375	3.39198923029471E-05
1	139	78.5029018017992	1.19979858398438	1.19964599609375	5.5023193359375E-06	6.60083514958387E-06	218025.515625	3.44755535479635E-05
1	140	78.603609801545	1.20986938476563	1.209716796875	5.487060546875E-06	6.63778882881161E-06	220467.203125	3.50289155903738E-05
1	141	78.7043178012907	1.21994018554688	1.219482421875	5.4931640625E-06	6.69881683279527E-06	222000.015625	3.55818119714968E-05
1	142	78.8050258010364	1.23001098632813	1.2298583984375	5.523681640625E-06	6.79334607411874E-06	222651.9375	3.6136552807875E-05
1	143	78.9057338007822	1.24008178710938	1.2396240234375	5.5877685546875E-06	6.92673211233341E-06	221845.984375	3.66960593964905E-05
1	144	79.0064418005279	1.25015258789063	1.25	5.6854248046875E-06	7.10678068571724E-06	219860.453125	3.7263711419655E-05
1	145	79.1071498002736	1.26022338867188	1.26068115234375	5.8197021484375E-06	7.33678871256416E-06	216622.96875	3.78430413547903E-05
1	146	79.2078578000194	1.27029418945313	1.27044677734375	5.9844970703125E-06	7.60298507884727E-06	212289.65625	3.84374288842082E-05
1	147	79.3085657997651	1.28036499023438	1.280517578125	6.16455078125E-06	7.89381556387525E-06	207722.78125	3.90491804864723E-05
1	148	79.4092737995109	1.29043579101563	1.290283203125	6.3507080078125E-06	8.19421165942913E-06	203171.5625	3.96793766412884E-05
1	149	79.5099817992566	1.30050659179688	1.30035400390625	6.53076171875E-06	8.49230218591401E-06	199112.140625	4.03280100726988E-05
1	150	79.6106897990023	1.31057739257813	1.31072998046875	6.6986083984375E-06	8.78006630955497E-06	195671.984375	4.09941603720654E-05
1	151	79.7113977987481	1.32064819335938	1.32049560546875	6.854248046875E-06	9.05100387171842E-06	192653.625	4.16766015405301E-05
1	152	79.8121057984938	1.33071899414063	1.33056640625	6.9976806640625E-06	9.31087834032951E-06	190143.921875	4.23741003032774E-05
1	153	79.9128137982395	1.34078979492188	1.34063720703125	7.1258544921875E-06	9.55318500928115E-06	188137.046875	4.30852778663393E-05
1	154	80.0135217979853	1.35086059570313	1.35101318359375	7.232666015625E-06	9.77142644842388E-06	186793.265625	4.38082861364819E-05
1	155	80.114229797731	1.36093139648438	1.36077880859375	7.318115234375E-06	9.95833579509053E-06	185946.625	4.45409750682302E-05
1	156	80.2149377974768	1.37100219726563	1.37115478515625	7.3760986328125E-06	1.0113772987097E-05	185891.609375	4.52808890258893E-05
1	157	80.3156457972225	1.38107299804688	1.38092041015625	7.4127197265625E-06	1.02363756013801E-05	186290.65625	4.6025565097807E-05
1	158	80.4163537969682	1.39114379882813	1.3909912109375	7.427978515625E-06	1.03322527138516E-05	187263.765625	4.67728532385081E-05
1	159	80.517061796714	1.40121459960938	1.4007568359375	7.4249267578125E-06	1.04005166576826E-05	188655.984375	4.75207561976276E-05
1	160	80.6177697964597	1.41128540039063	1.4111328125	7.4188232421875E-06	1.04689443105599E-05	190209.796875	4.82681971334387E-05
1	161	80.7184777962054	1.42135620117188	1.4215087890625	7.4249267578125E-06	1.05545987025835E-05	191450.890625	4.90156417072285E-05
1	162	80.8191857959512	1.43142700195313	1.43218994140625	7.45849609375E-06	1.06819825305138E-05	192021.28125	4.97650798934046E-05
1	163	80.9198937956969	1.44149780273438	1.44134521484375	7.513427734375E-06	1.0829442544491E-05	191835.90625	5.05189782415982E-05
1	164	81.0206017954426	1.45156860351563	1.45172119140625	7.5958251953125E-06	1.10270202640095E-05	191120.9375	5.12797887495253E-05
1	165	81.1213097951884	1.46163940429688	1.4617919921875	7.7056884765625E-06	1.12641137093306E-05	189702.96875	5.20502799190581E-05
1	166	81.2220177949341	1.47171020507813	1.47216796875	7.84912109375E-06	1.1555224773474E-05	187558.3125	5.28335258422885E-05
1	167	81.3227257946799	1.48178100585938	1.48162841796875	8.026123046875E-06	1.18917314466671E-05	184600.765625	5.36329098395072E-05
1	168	81.4234337944256	1.49185180664063	1.4923095703125	8.23974609375E-06	1.22962510431535E-05	181111.125	5.4451960750157E-05
1	169	81.5241417941713	1.50192260742188	1.50146484375	8.4930419921875E-06	1.27520033856854E-05	176787.640625	5.52945239178371E-05
1	170	81.6248497939171	1.49185180664063	1.49169921875	7.879638671875E-06	1.17540503197233E-05	189310.625	5.61189553991426E-05
1	171	81.7255577936628	1.48178100585938	1.48193359375	7.4188232421875E-06	1.09942029666854E-05	199753.203125	5.68892937735654E-05
1	172	81.8262657934085	1.47171020507813	1.47125244140625	7.0526123046875E-06	1.03761731224949E-05	208611	5.76179882045835E-05
1	173	81.9269737931543	1.46163940429688	1.4617919921875	6.756591796875E-06	9.87673138297396E-06	216350.5	5.83133369218558E-05
1	174	82.0276817929	1.45156860351563	1.45172119140625	6.512451171875E-06	9.45426290854812E-06	222914.71875	5.89814844715875E-05
1	175	82.1283897926457	1.44149780273438	1.441650390625	6.3079833984375E-06	9.09390655579045E-06	228543.78125	5.96270438109059E-05
1	176	82.2290977923915	1.43142700195313	1.4312744140625	6.1309814453125E-06	8.77511592989322E-06	233449.484375	6.02533982601017E-05
1	177	82.3298057921372	1.42135620117188	1.42120361328125	5.975341796875E-06	8.49217667564517E-06	237844.75	6.08629998168908E-05
1	178	82.430513791883	1.41128540039063	1.41143798828125	5.828857421875E-06	8.22707079350948E-06	242146.59375	6.14573873463087E-05
1	179	82.5312217916287	1.40121459960938	1.40106201171875	5.682373046875E-06	7.96135645941831E-06	246562.84375	6.20370265096426E-05
1	180	82.6319297913744	1.39114379882813	1.39129638671875	5.5328369140625E-06	7.69781581766438E-06	251461.671875	6.26017572358251E-05
1	181	82.7326377911202	1.38107299804688	1.38153076171875	5.37109375E-06	7.42033125789021E-06	257215.90625	6.3150808273349E-05
1	182	82.8333457908659	1.37100219726563	1.370849609375	5.1910400390625E-06	7.11613483872497E-06	264079.96875	6.36826589470729E-05
1	183	82.9340537906116	1.36093139648438	1.36077880859375	4.9835205078125E-06	6.78146898280829E-06	273055.75	6.4194988226518E-05
1	184	83.0347617903574	1.35086059570313	1.3507080078125	4.7552490234375E-06	6.42295299257967E-06	284045.6875	6.46853732177988E-05
1	185	83.1354697901031	1.34078979492188	1.34033203125	4.5037841796875E-06	6.03656599196256E-06	297601.3125	6.51516020298004E-05
1	186	83.2361777898489	1.33071899414063	1.3311767578125	4.2340087890625E-06	5.63621415494708E-06	314401.03125	6.55915864626877E-05
1	187	83.3368857895946	1.32064819335938	1.32080078125	3.95538330078125E-06	5.22427353644161E-06	333924.84375	6.60039513604715E-05
1	188	83.4375937893403	1.31057739257813	1.31103515625	3.677978515625E-06	4.82195900985971E-06	356455.375	6.63883256493136E-05
1	189	83.5383017890861	1.30050659179688	1.30096435546875	3.4161376953125E-06	4.44427314505447E-06	380829.03125	6.6745538788382E-05
1	190	83.6390097888318	1.29043579101563	1.29058837890625	3.18023681640625E-06	4.10437633036054E-06	405815.1875	6.70776935294271E-05
1	191	83.7397177885775	1.28036499023438	1.280517578125	2.9827880859375E-06	3.81951258532354E-06	429302.25	6.73880276735872E-05
1	192	83.8404257883233	1.27029418945313	1.27044677734375	2.82989501953125E-06	3.59523096449266E-06	448937.78125	6.7680717620533E-05
1	193	83.941133788069	1.26022338867188	1.26007080078125	2.7227783203125E-06	3.43089322996093E-06	462788.625	6.79603181197308E-05
1	194	84.0418417878147	1.25015258789063	1.24969482421875	2.65838623046875E-06	3.32217132381629E-06	470095.28125	6.82312820572406E-05
1	195	84.1425497875605	1.24008178710938	1.23992919921875	2.62542724609375E-06	3.25534392686677E-06	472277.125	6.84973419993185E-05
1	196	84.2432577873062	1.23001098632813	1.2298583984375	2.61505126953125E-06	3.21614265885728E-06	470299.9375	6.8761219154112E-05
1	197	84.343965787052	1.21994018554688	1.2200927734375	2.61749267578125E-06	3.19358377964818E-06	466130.375	6.90247034071945E-05
1	198	84.4446737867977	1.20986938476563	1.21002197265625	2.6251220703125E-06	3.17645549330337E-06	460939.3125	6.92886897013523E-05
1	199	84.5453817865434	1.19979858398438	1.1993408203125	2.63214111328125E-06	3.15683428198099E-06	455652.1875	6.95534108672291E-05
1	200	84.6460897862892	1.18972778320313	1.18988037109375	2.6361083984375E-06	3.13665350404335E-06	451377.65625	6.98186922818422E-05
1	201	84.7467977860349	1.17965698242188	1.1798095703125	2.63519287109375E-06	3.1090257834876E-06	447712.78125	7.00841192156076E-05
1	202	84.8475057857806	1.16958618164063	1.1700439453125	2.6287841796875E-06	3.07579307445849E-06	445089.40625	7.03491823514923E-05
1	203	84.9482137855264	1.15951538085938	1.15966796875	2.61627197265625E-06	3.03400679513288E-06	443252.0625	7.06132923369296E-05
1	204	85.0489217852721	1.14944458007813	1.14990234375	2.59674072265625E-06	2.9859982078051E-06	442825.25	7.08757870597765E-05
1	205	85.1496297850179	1.13937377929688	1.1395263671875	2.56805419921875E-06	2.92636559606763E-06	443731.4375	7.11358588887379E-05
1	206	85.2503377847636	1.12930297851563	1.129150390625	2.5274658203125E-06	2.85388887277804E-06	446752	7.13924382580444E-05
1	207	85.3510457845093	1.11923217773438	1.11907958984375	2.47314453125E-06	2.7676453555614E-06	452492.625	7.16442373231985E-05
1	208	85.4517537842551	1.10916137695313	1.1090087890625	2.40020751953125E-06	2.66185111286177E-06	462047.0625	7.1889633545652E-05
1	209	85.5524617840008	1.09909057617188	1.09954833984375	2.30316162109375E-06	2.53243752013077E-06	477408.25	7.21264659659937E-05
1	210	85.6531697837465	1.08901977539063	1.0894775390625	2.17681884765625E-06	2.37159520111163E-06	500490.71875	7.23520497558638E-05
1	211	85.7538777834923	1.07894897460938	1.07940673828125	2.01690673828125E-06	2.17706246985472E-06	535179.3125	7.25632198737003E-05
1	212	85.854585783238	1.06887817382813	1.0687255859375	1.8194580078125E-06	1.94450126400625E-06	587386.8125	7.27563965483569E-05
1	213	85.9552937829837	1.05880737304688	1.05865478515625	1.58782958984375E-06	1.68096335073642E-06	666730.75	7.29279636288993E-05
1	214	86.0560017827295	1.04873657226563	1.048583984375	1.32965087890625E-06	1.39425060297071E-06	788616	7.30748724890873E-05
1	215	86.1567097824752	1.03866577148438	1.03851318359375	1.05987548828125E-06	1.10069458969519E-06	979844.5625	7.3195195000153E-05
1	216	86.257417782221	1.02859497070313	1.02874755859375	7.965087890625E-07	8.19406409391377E-07	1291571	7.32886692276224E-05
1	217	86.3581257819667	1.01852416992188	1.01806640625	5.60302734375E-07	5.70425413570774E-07	1816993.5	7.33569904696196E-05
1	218	86.4588337817124	1.00845336914063	1.00860595703125	3.6895751953125E-07	3.72132745951603E-07	2733664.25	7.34037821530364E-05
1	219	86.5595417814582	0.998382568359375	0.99822998046875	2.3651123046875E-07	2.36092603245197E-07	4220645	7.34342756913975E-05
1	220	86.6602497812039	0.988311767578125	0.98876953125	1.6357421875E-07	1.61737204962265E-07	6044776.5	7.34544155420735E-05
1	221	86.7609577809496	0.978240966796875	0.97808837890625	1.4312744140625E-07	1.39991286118857E-07	6833689	7.34698624000885E-05
1	222	86.8616657806954	0.968170166015625	0.968017578125	1.59912109375E-07	1.54797731966028E-07	6053435.5	7.34851200832054E-05
1	223	86.9623737804411	0.958099365234375	0.958251953125	1.971435546875E-07	1.88913190868334E-07	4860681	7.350309897447E-05
1	224	87.0630817801868	0.948028564453125	0.94818115234375	2.3193359375E-07	2.19915051502539E-07	4088158	7.35247085685842E-05
1	225	87.1637897799326	0.937957763671875	0.93780517578125	2.4566650390625E-07	2.30387300348411E-07	3817391.5	7.35487556084991E-05
1	226	87.2644977796783	0.927886962890625	0.927734375	2.20947265625E-07	2.04980366902419E-07	4198895	7.35722496756352E-05
1	227	87.3652057794241	0.917816162109375	0.9173583984375	1.48925781250001E-07	1.36618311330494E-07	6159836	7.35908761271276E-05
1	228	87.4659137791698	0.907745361328125	0.90789794921875	2.01416015624997E-08	1.82865171893809E-08	45075760	7.35993889975362E-05
1	229	87.5666217789155	0.897674560546875	0.897216796875	-1.67236328125001E-07	-1.50047242186702E-07	-5364963.5	7.35919820726849E-05
1	230	87.6673297786613	0.887603759765625	0.887451171875	-4.0557861328125E-07	-3.59931192406293E-07	-2188111.5	7.35631401767023E-05
1	231	87.768037778407	0.877532958984375	0.87738037109375	-6.8511962890625E-07	-6.01110514253378E-07	-1280623.625	7.35082139726728E-05
1	232	87.8687457781527	0.867462158203125	0.867919921875	-9.82666015625E-07	-8.5287535966927E-07	-883229.875	7.34242348698899E-05
1	233	87.9694537778985	0.857391357421875	0.8575439453125	-1.2738037109375E-06	-1.09234269984881E-06	-673215.125	7.33106135157868E-05
1	234	88.0701617776442	0.847320556640625	0.84716796875	-1.52740478515625E-06	-1.29396835291118E-06	-554645.375	7.31695618014783E-05
1	235	88.17086977739	0.837249755859375	0.8380126953125	-1.72393798828125E-06	-1.44468197049719E-06	-486103.71875	7.30058454792015E-05
1	236	88.2715777771357	0.827178955078125	0.8270263671875	-1.84417724609375E-06	-1.52518316554051E-06	-448452.78125	7.28261729818769E-05
1	237	88.3722857768814	0.817108154296875	0.81756591796875	-1.88995361328125E-06	-1.54516158090701E-06	-432585.1875	7.26381476852112E-05
1	238	88.4729937766272	0.807037353515625	0.80718994140625	-1.86920166015625E-06	-1.50880066485115E-06	-431836.75	7.24488563719206E-05
1	239	88.5737017763729	0.796966552734375	0.797119140625	-1.80450439453125E-06	-1.43840497912606E-06	-441738.5625	7.22638724255376E-05
1	240	88.6744097761186	0.786895751953125	0.787353515625	-1.71875E-06	-1.35326376948797E-06	-458096.625	7.20864627510309E-05
1	241	88.7751177758644	0.776824951171875	0.7769775390625	-1.6326904296875E-06	-1.26856377846707E-06	-475887.84375	7.19177041901276E-05
1	242	88.8758257756101	0.766754150390625	0.76690673828125	-1.56402587890625E-06	-1.19946196264209E-06	-490341.46875	7.1756738179829E-05
1	243	88.9765337753558	0.756683349609375	0.7562255859375	-1.5283203125E-06	-1.15575483050634E-06	-494808.34375	7.16010254109278E-05
1	244	89.0772417751016	0.746612548828125	0.746612548828125	-1.536865234375E-06	-1.14744284474E-06	-485802.25	7.14466805220582E-05
1	245	89.1779497748473	0.736541748046875	0.7364501953125	-1.59637451171875E-06	-1.1756502544813E-06	-461326.71875	7.12889086571522E-05
1	246	89.2786577745931	0.726470947265625	0.7264404296875	-1.7120361328125E-06	-1.24369228160504E-06	-424313.71875	7.11223183316179E-05
1	247	89.3793657743388	0.716400146484375	0.71630859375	-1.8817138671875E-06	-1.34788774630579E-06	-380668.1875	7.09413579897955E-05
1	248	89.4800737740845	0.706329345703125	0.706298828125	-2.0947265625E-06	-1.47950288464926E-06	-337179.46875	7.07411309122108E-05
1	249	89.5807817738303	0.696258544921875	0.6962890625	-2.3309326171875E-06	-1.62300284500816E-06	-298716.9375	7.05182828824036E-05
1	250	89.681489773576	0.686187744140625	0.686126708984375	-2.56195068359375E-06	-1.75782270162017E-06	-267814.1875	7.02719044056721E-05
1	251	89.7821977733217	0.676116943359375	0.67608642578125	-2.76031494140625E-06	-1.86621139164345E-06	-244930.90625	7.00039090588689E-05
1	252	89.8829057730675	0.666046142578125	0.665985107421875	-2.8985595703125E-06	-1.9303972749185E-06	-229764.171875	6.97189607308246E-05
1	253	89.9836137728132	0.655975341796875	0.655914306640625	-2.962646484375E-06	-1.94324229596532E-06	-221394.734375	6.94238260621205E-05
1	254	90.084321772559	0.645904541015625	0.6458740234375	-2.95166015625E-06	-1.9064004845859E-06	-218817.21875	6.91260138410144E-05
1	255	90.1850297723047	0.635833740234375	0.63580322265625	-2.87689208984375E-06	-1.82913720436773E-06	-221003.5	6.8832523538731E-05
1	256	90.2857377720504	0.625762939453125	0.62567138671875	-2.7593994140625E-06	-1.72647730778408E-06	-226741.875	6.85487175360322E-05
1	257	90.3864457717962	0.615692138671875	0.615753173828125	-2.61749267578125E-06	-1.61172931711917E-06	-235245.4375	6.82779646012932E-05
1	258	90.4871537715419	0.605621337890625	0.605682373046875	-2.4658203125E-06	-1.49350387346203E-06	-245631.203125	6.80220036883838E-05
1	259	90.5878617712876	0.595550537109375	0.595550537109375	-2.31658935546875E-06	-1.37964593704964E-06	-257080.765625	6.77811840432696E-05
1	260	90.6885697710334	0.585479736328125	0.58551025390625	-2.17498779296875E-06	-1.27347755096707E-06	-269201.65625	6.75550181767903E-05
1	261	90.7892777707791	0.575408935546875	0.575469970703125	-2.042236328125E-06	-1.17524564302585E-06	-281784.21875	6.73426620778628E-05
1	262	90.8899857705248	0.565338134765625	0.565338134765625	-1.92108154296875E-06	-1.08606070625683E-06	-294281.1875	6.71430971124209E-05
1	263	90.9906937702706	0.555267333984375	0.555328369140625	-1.80908203125E-06	-1.0046345551018E-06	-306966.9375	6.69552682666108E-05
1	264	91.0914017700163	0.545196533203125	0.545135498046875	-1.708984375E-06	-9.31627994305018E-07	-318982.15625	6.67781205265783E-05
1	265	91.1921097697621	0.535125732421875	0.53515625	-1.617431640625E-06	-8.65578613229445E-07	-330867.9375	6.66106207063422E-05
1	266	91.2928177695078	0.525054931640625	0.52508544921875	-1.534423828125E-06	-8.05703564310534E-07	-342203.6875	6.6451910242904E-05
1	267	91.3935257692535	0.514984130859375	0.5150146484375	-1.45782470703125E-06	-7.50801063986728E-07	-353276.125	6.63012397126295E-05
1	268	91.4942337689993	0.504913330078125	0.50494384765625	-1.38824462890625E-06	-7.00985594903614E-07	-363728.28125	6.61579251755029E-05
1	269	91.594941768745	0.494842529296875	0.494842529296875	-1.324462890625E-06	-6.55400526738958E-07	-373617.53125	6.60213336232118E-05
1	270	91.6956497684907	0.484771728515625	0.484771728515625	-1.26495361328125E-06	-6.13213728684059E-07	-383232.84375	6.58909484627657E-05
1	271	91.7963577682365	0.474700927734375	0.4747314453125	-1.2103271484375E-06	-5.74580326428986E-07	-392234	6.57663040328771E-05
1	272	91.8970657679822	0.464630126953125	0.464691162109375	-1.15966796875E-06	-5.38887434231583E-07	-400710.53125	6.56469637760893E-05
1	273	91.9977737677279	0.454559326171875	0.45452880859375	-1.112060546875E-06	-5.05463560784847E-07	-408726.6875	6.55325784464367E-05
1	274	92.0984817674737	0.444488525390625	0.444580078125	-1.068115234375E-06	-4.74862758892414E-07	-416228.5625	6.54227987979539E-05
1	275	92.1991897672194	0.434417724609375	0.43450927734375	-1.02783203125E-06	-4.46602541614993E-07	-422743.46875	6.53172537568025E-05
1	276	92.2998977669652	0.424346923828125	0.424285888671875	-9.89379882812499E-07	-4.19779894400563E-07	-428840.25	6.52156813885085E-05
1	277	92.4006057667109	0.414276123046875	0.41436767578125	-9.53063964843751E-07	-3.94918885149309E-07	-434774.28125	6.51178706903011E-05
1	278	92.5013137664566	0.404205322265625	0.404266357421875	-9.19494628906251E-07	-3.717207448517E-07	-439661.46875	6.50235815555789E-05
1	279	92.6020217662024	0.394134521484375	0.394134521484375	-8.8714599609375E-07	-3.4965484019267E-07	-444272.46875	6.49326102575287E-05
1	280	92.7027297659481	0.384063720703125	0.384124755859375	-8.563232421875E-07	-3.28934930848845E-07	-448574.5	6.4844818552956E-05
1	281	92.8034377656938	0.373992919921875	0.374053955078125	-8.2672119140625E-07	-3.09238345153062E-07	-452454.78125	6.4760068198666E-05
1	282	92.9041457654396	0.363922119140625	0.363983154296875	-7.9833984375E-07	-2.90582249817817E-07	-455925.09375	6.46782427793369E-05
1	283	93.0048537651853	0.353851318359375	0.353912353515625	-7.7178955078125E-07	-2.73145843721068E-07	-458560.71875	6.45991822239012E-05
1	284	93.1055617649311	0.343780517578125	0.343780517578125	-7.45849609375E-07	-2.56408554832888E-07	-460924.71875	6.45227628410794E-05
1	285	93.2062697646768	0.333709716796875	0.333740234375	-7.21435546875E-07	-2.40772067172657E-07	-462605.78125	6.44488754915074E-05
1	286	93.3069777644225	0.323638916015625	0.323638916015625	-6.98242187500001E-07	-2.25978340040456E-07	-463505.25	6.4377389207948E-05
1	287	93.4076857641683	0.313568115234375	0.31365966796875	-6.756591796875E-07	-2.11927030591141E-07	-464227.65625	6.43082094029523E-05
1	288	93.508393763914	0.303497314453125	0.303558349609375	-6.54296875E-07	-1.98617271962576E-07	-463945.90625	6.42412414890714E-05
1	289	93.6091017636597	0.293426513671875	0.29345703125	-6.3446044921875E-07	-1.86186881023787E-07	-462530.0625	6.41763472231105E-05
1	290	93.7098097634055	0.283355712890625	0.283416748046875	-6.15539550781249E-07	-1.74454214629804E-07	-460436.3125	6.41134029137902E-05
1	291	93.8105177631512	0.273284912109375	0.273345947265625	-5.9783935546875E-07	-1.63416956411311E-07	-457223.09375	6.40523066977039E-05
1	292	93.9112257628969	0.263214111328125	0.263214111328125	-5.80444335937499E-07	-1.52781126416812E-07	-453470.0625	6.39929712633602E-05
1	293	94.0119337626427	0.253143310546875	0.253204345703125	-5.645751953125E-07	-1.42952899295778E-07	-448486.46875	6.39353165752254E-05
1	294	94.1126417623884	0.243072509765625	0.243133544921875	-5.4962158203125E-07	-1.33631445464744E-07	-442365.34375	6.38792116660625E-05
1	295	94.2133497621342	0.233001708984375	0.233001708984375	-5.36193847656249E-07	-1.24934089740236E-07	-434547.53125	6.38245401205495E-05
1	296	94.3140577618799	0.222930908203125	0.222991943359375	-5.22460937499999E-07	-1.16504580205401E-07	-426810.75	6.37712291791104E-05
1	297	94.4147657616256	0.212860107421875	0.212890625	-5.108642578125E-07	-1.08758207773008E-07	-416726.40625	6.37191988062114E-05
1	298	94.5154737613714	0.202789306640625	0.202850341796875	-5.0018310546875E-07	-1.01462312329659E-07	-405552.1875	6.36682889307849E-05
1	299	94.6161817611171	0.192718505859375	0.192718505859375	-4.9102783203125E-07	-9.46301526028037E-08	-392479.8125	6.36183758615516E-05
1	300	94.7168897608628	0.182647705078125	0.182708740234375	-4.833984375E-07	-8.83211157542974E-08	-377967.1875	6.35693140793592E-05
1	301	94.8175977606086	0.172576904296875	0.172607421875	-4.78210449218749E-07	-8.25426695882925E-08	-360944.5	6.35208925814368E-05
1	302	94.9183057603543	0.162506103515625	0.162567138671875	-4.7637939453125E-07	-7.74436301753667E-08	-341255.625	6.34728203294799E-05
1	303	95.0190137601001	0.152435302734375	0.1524658203125	-4.78515625000001E-07	-7.29572775526321E-08	-318622.4375	6.34247408015653E-05
1	304	95.1197217598458	0.142364501953125	0.14239501953125	-4.86145019531251E-07	-6.92246260314278E-08	-292906.5	6.33761665085331E-05
1	305	95.2204297595915	0.132293701171875	0.132354736328125	-5.01098632812499E-07	-6.63227766040109E-08	-264129.125	6.3326457166113E-05
1	306	95.3211377593373	0.122222900390625	0.12237548828125	-5.25817871093751E-07	-6.43472191086403E-08	-232733.59375	6.3274746935349E-05
1	307	95.421845759083	0.112152099609375	0.1121826171875	-5.645751953125E-07	-6.3335527045183E-08	-198702.703125	6.32198352832347E-05
1	308	95.5225537588287	0.102081298828125	0.1021728515625	-6.2255859375E-07	-6.36085815131082E-08	-164117.65625	6.31600632914342E-05
1	309	95.6232617585745	0.092010498046875	0.09210205078125	-7.049560546875E-07	-6.49278959485855E-08	-130649.3515625	6.30932190688327E-05
1	310	95.7239697583202	0.081939697265625	0.082061767578125	-8.17260742187501E-07	-6.70658621970688E-08	-100410.7578125	6.30165668553673E-05
1	311	95.8246777580659	0.071868896484375	0.071929931640625	-9.64965820312499E-07	-6.94099213660593E-08	-74541.4296875	6.29268251941539E-05
1	312	95.9253857578117	0.061798095703125	0.06182861328125	-1.1480712890625E-06	-7.09836598389302E-08	-53854.33203125	6.28204215900041E-05
1	313	96.0260937575574	0.051727294921875	0.05181884765625	-1.3623046875E-06	-7.05930531808008E-08	-38037.63671875	6.26940163783729E-05
1	314	96.1268017573032	0.041656494140625	0.0417877197265625	-1.59576416015625E-06	-6.66833486206997E-08	-26186.65234375	6.25450629740953E-05
1	315	96.2275097570489	0.031585693359375	0.0317413330078125	-1.82952880859375E-06	-5.80716807974113E-08	-17349.458984375	6.23725863988511E-05
1	316	96.3282177567946	0.021514892578125	0.0216278076171875	-2.04010009765625E-06	-4.4122892006726E-08	-10601.3466796875	6.21777362539433E-05
1	317	96.4289257565404	0.011444091796875	0.01153564453125	-2.208251953125E-06	-2.54736107763165E-08	-5223.88037109375	6.19638158241287E-05
1	318	96.5296337562861	0.001373291015625	0.00147705078125	-2.320556640625E-06	-3.42757999760579E-09	-636.507141113281	6.1735772760585E-05
1	319	96.6303417560318	-0.008697509765625	-0.008544921875	-2.37548828125E-06	2.02983621022668E-08	3597.12231445313	6.14993114140816E-05
1	320	96.7310497557776	-0.018768310546875	-0.01865234375	-2.381591796875E-06	4.44222685302975E-08	7831.8818359375	6.12597723375075E-05
1	321	96.8317577555233	-0.028839111328125	-0.0286712646484375	-2.3516845703125E-06	6.74257734090133E-08	12191.798828125	6.10214301559608E-05
1	322	96.932465755269	-0.038909912109375	-0.0387420654296875	-2.30010986328125E-06	8.91110047973598E-08	16843.572265625	6.07871952524874E-05
1	323	97.0331737550148	-0.048980712890625	-0.04879150390625	-2.23785400390625E-06	1.09188263763826E-07	21802.810546875	6.05586901656352E-05
1	324	97.1338817547605	-0.059051513671875	-0.0589599609375	-2.17254638671875E-06	1.28093248008554E-07	27138.642578125	6.03366097493563E-05
1	325	97.2345897545063	-0.069122314453125	-0.069061279296875	-2.10906982421875E-06	1.4565505068731E-07	32744.900390625	6.01210122113116E-05
1	326	97.335297754252	-0.079193115234375	-0.07916259765625	-2.04986572265625E-06	1.62272698389643E-07	38618.4296875	5.99115919612814E-05
1	327	97.4360057539977	-0.089263916015625	-0.08917236328125	-1.99493408203125E-06	1.77892985675498E-07	44699.40234375	5.97079197177663E-05
1	328	97.5367137537435	-0.099334716796875	-0.099212646484375	-1.94580078125E-06	1.93048037999688E-07	50988.08203125	5.95094898017123E-05
1	329	97.6374217534892	-0.109405517578125	-0.1092529296875	-1.90093994140625E-06	2.07683257258395E-07	57473.11328125	5.93157892581075E-05
1	330	97.7381297532349	-0.119476318359375	-0.119415283203125	-1.8603515625E-06	2.22154397988561E-07	64189.6328125	5.91263924434315E-05
1	331	97.8388377529807	-0.129547119140625	-0.12939453125	-1.8231201171875E-06	2.35901765677227E-07	70974.21875	5.89409173699096E-05
1	332	97.9395457527264	-0.139617919921875	-0.139434814453125	-1.78985595703125E-06	2.49568216759144E-07	77902.8125	5.87589893257245E-05
1	333	98.0402537524722	-0.149688720703125	-0.149566650390625	-1.759033203125E-06	2.63092687191602E-07	85027.765625	5.85802881687414E-05
1	334	98.1409617522179	-0.159759521484375	-0.15960693359375	-1.7315673828125E-06	2.763701445474E-07	92174.8359375	5.84045228606556E-05
1	335	98.2416697519636	-0.169830322265625	-0.169647216796875	-1.70562744140625E-06	2.89354943561193E-07	99463.234375	5.82314460189082E-05
1	336	98.3423777517094	-0.179901123046875	-0.179779052734375	-1.683349609375E-06	3.0263097983152E-07	106798.40625	5.80607957090251E-05
1	337	98.4430857514551	-0.189971923828125	-0.1898193359375	-1.66412353515625E-06	3.15882829227121E-07	114065.65625	5.78922372369561E-05
1	338	98.5437937512008	-0.200042724609375	-0.19989013671875	-1.64764404296875E-06	3.29347784600031E-07	121318.765625	5.77254795643967E-05
1	339	98.6445017509466	-0.189971923828125	-0.18975830078125	-1.45843505859375E-06	2.76750142802484E-07	130110.90625	5.75690755795222E-05
2	340	98.7452097506923	-0.179901123046875	-0.1796875	-1.32232666015625E-06	2.37605561892451E-07	135887.375	5.7429053413216E-05
2	341	98.845917750438	-0.169830322265625	-0.169586181640625	-1.2115478515625E-06	2.05461759605896E-07	139974.8125	5.73014622204937E-05
2	342	98.9466257501838	-0.159759521484375	-0.159576416015625	-1.11785888671875E-06	1.7838391386249E-07	142751.84375	5.71841665077955E-05
2	343	99.0473337499295	-0.149688720703125	-0.149505615234375	-1.03668212890625E-06	1.54989791667504E-07	144215.484375	5.70756783417892E-05
2	344	99.1480417496753	-0.139617919921875	-0.13946533203125	-9.64965820312499E-07	1.34579281052538E-07	144528.78125	5.69748845009599E-05
2	345	99.248749749421	-0.129547119140625	-0.129364013671875	-9.0087890625E-07	1.16541308159412E-07	143597.5625	5.68809336982667E-05
2	346	99.3494577491667	-0.119476318359375	-0.119384765625	-8.41674804687501E-07	1.00483141807217E-07	141841.921875	5.67931892874185E-05
2	347	99.4501657489125	-0.109405517578125	-0.10931396484375	-7.861328125E-07	8.59352908832989E-08	139052.796875	5.67112219869159E-05
2	348	99.5508737486582	-0.099334716796875	-0.0992431640625	-7.33337402343751E-07	7.2778725268563E-08	135330.84375	5.6634711654624E-05
2	349	99.6515817484039	-0.089263916015625	-0.089202880859375	-6.817626953125E-07	6.08151964343051E-08	130841.5390625	5.65634545637295E-05
2	350	99.7522897481497	-0.079193115234375	-0.07904052734375	-6.2896728515625E-07	4.97139041044647E-08	125667.15625	5.64974543522112E-05
2	351	99.8529977478954	-0.069122314453125	-0.06903076171875	-5.72509765625E-07	3.95207848669088E-08	120575.6953125	5.64369547646493E-05
2	352	99.9537057476412	-0.059051513671875	-0.0589599609375	-5.0994873046875E-07	3.00665590202698E-08	115619.390625	5.63824469281826E-05
2	353	100.054413747387	-0.048980712890625	-0.04881591796875	-4.3670654296875E-07	2.1318228959899E-08	111781.96875	5.63347821298521E-05
2	354	100.155121747133	-0.038909912109375	-0.038775634765625	-3.4820556640625E-07	1.35018911606721E-08	111358.4609375	5.6295255490113E-05
2	355	100.255829746878	-0.028839111328125	-0.028704833984375	-2.38037109375E-07	6.83281520252876E-09	120589.7421875	5.62657369300723E-05
2	356	100.356537746624	-0.018768310546875	-0.0186492919921875	-1.0040283203125E-07	1.87244153515564E-09	185744.671875	5.62486966373399E-05
2	357	100.45724574637	-0.008697509765625	-0.00853881835937501	6.95800781250006E-08	-5.94131577269508E-10	-122719.296875	5.62471432203893E-05
2	358	100.557953746116	0.001373291015625	0.001513671875	2.73742675781249E-07	4.14356576827757E-10	5529.54296875	5.62644308956806E-05
2	359	100.658661745861	0.011444091796875	0.0115325927734375	5.07507324218751E-07	5.85287507348653E-09	22723.9921875	5.63037719985005E-05
2	360	100.759369745607	0.021514892578125	0.0216339111328125	7.5958251953125E-07	1.64327413898491E-08	28481.318359375	5.63675748708192E-05
2	361	100.860077745353	0.031585693359375	0.0317352294921875	1.01043701171875E-06	3.20664526043402E-08	31407.4296875	5.64567017136142E-05
2	362	100.960785745099	0.041656494140625	0.0417388916015625	1.239013671875E-06	5.17150517964637E-08	33687.19140625	5.6569970183773E-05
2	363	101.061493744844	0.051727294921875	0.05181884765625	1.4227294921875E-06	7.37242018544748E-08	36422.13671875	5.67040005989838E-05
2	364	101.16220174459	0.061798095703125	0.061920166015625	1.5484619140625E-06	9.58810204565452E-08	39988.17578125	5.68536088394467E-05
2	365	101.262909744336	0.071868896484375	0.0718994140625	1.61346435546875E-06	1.16007136341523E-07	44562.13671875	5.7012824981939E-05
2	366	101.363617744081	0.081939697265625	0.08209228515625	1.62506103515625E-06	1.33404967073147E-07	50516.43359375	5.71758973819669E-05
2	367	101.464325743827	0.092010498046875	0.092041015625	1.59759521484375E-06	1.47044289633413E-07	57612.2265625	5.73381730646361E-05
2	368	101.565033743573	0.102081298828125	0.1021728515625	1.54693603515625E-06	1.58054859866752E-07	66048.53125	5.74965124542359E-05
2	369	101.665741743319	0.112152099609375	0.112213134765625	1.48345947265625E-06	1.66463635764558E-07	75642.875	5.76491038373206E-05
2	370	101.766449743064	0.122222900390625	0.12237548828125	1.4166259765625E-06	1.73360291455538E-07	86385.1796875	5.7795135944616E-05
2	371	101.86715774281	0.132293701171875	0.13238525390625	1.35101318359375E-06	1.78854207888435E-07	97989.6171875	5.79344959987793E-05
2	372	101.967865742556	0.142364501953125	0.142486572265625	1.28997802734375E-06	1.83804530706766E-07	110456.59375	5.80674823140725E-05
2	373	102.068573742302	0.152435302734375	0.15252685546875	1.23382568359375E-06	1.88191549455041E-07	123621.078125	5.81945641897619E-05
2	374	102.169281742047	0.162506103515625	0.16259765625	1.18408203125E-06	1.92528943898651E-07	137319.59375	5.83163164264988E-05
2	375	102.269989741793	0.172576904296875	0.17266845703125	1.13983154296875E-06	1.96812948161096E-07	151485.953125	5.84333356528077E-05
2	376	102.370697741539	0.182647705078125	0.18267822265625	1.099853515625E-06	2.00919288317891E-07	166093.234375	5.85461129958276E-05
2	377	102.471405741285	0.192718505859375	0.19281005859375	1.0650634765625E-06	2.05354936611002E-07	181031.53125	5.86551250307821E-05
2	378	102.57211374103	0.202789306640625	0.202850341796875	1.033935546875E-06	2.09734167810893E-07	196192.453125	5.87608192290645E-05
2	379	102.672821740776	0.212860107421875	0.212890625	1.00677490234375E-06	2.14332928294425E-07	211458.03125	5.88635739404708E-05
2	380	102.773529740522	0.222930908203125	0.22296142578125	9.81750488281249E-07	2.18892466818943E-07	227106.015625	5.89637056691572E-05
2	381	102.874237740268	0.233001708984375	0.23297119140625	9.600830078125E-07	2.23671676735648E-07	242657.359375	5.90614836255554E-05
2	382	102.974945740013	0.243072509765625	0.243133544921875	9.40551757812499E-07	2.28679681413269E-07	258500.984375	5.91571879340336E-05
2	383	103.075653739759	0.253143310546875	0.253173828125	9.22546386718751E-07	2.33564591667346E-07	274429.375	5.92510041315109E-05
2	384	103.176361739505	0.263214111328125	0.2633056640625	9.06982421874999E-07	2.38813612440936E-07	290309.5625	5.93431286688428E-05
2	385	103.27706973925	0.273284912109375	0.273284912109375	8.929443359375E-07	2.44028200313551E-07	306049.21875	5.94337616348639E-05
2	386	103.377777738996	0.283355712890625	0.283355712890625	8.8043212890625E-07	2.49475448299563E-07	321837.09375	5.95230594626628E-05
2	387	103.478485738742	0.293426513671875	0.293426513671875	8.685302734375E-07	2.54849794600887E-07	337842.59375	5.96111240156461E-05
2	388	103.579193738488	0.303497314453125	0.303466796875	8.58154296874999E-07	2.60421330722238E-07	353627.3125	5.96980717091355E-05
2	389	103.679901738233	0.313568115234375	0.31365966796875	8.4808349609375E-07	2.66009578808735E-07	369845.28125	5.97839862166438E-05
2	390	103.780609737979	0.323638916015625	0.323638916015625	8.404541015625E-07	2.72003660484188E-07	385076.25	5.98690094193444E-05
2	391	103.881317737725	0.333709716796875	0.333770751953125	8.32214355468749E-07	2.77768805290179E-07	401063.46875	5.99532359046862E-05
2	392	103.982025737471	0.343780517578125	0.3438720703125	8.2550048828125E-07	2.83866569361635E-07	416561.9375	6.00367093284149E-05
2	393	104.082733737216	0.353851318359375	0.3538818359375	8.197021484375E-07	2.90077679210299E-07	431720.0625	6.011955338181E-05
2	394	104.183441736962	0.363922119140625	0.363922119140625	8.15734863281251E-07	2.96863959192706E-07	446127.96875	6.02019026700873E-05
2	395	104.284149736708	0.373992919921875	0.3740234375	8.11157226562501E-07	3.03391800571262E-07	461098.59375	6.02838226768654E-05
2	396	104.384857736454	0.384063720703125	0.38409423828125	8.07800292968749E-07	3.10271445869148E-07	475481.6875	6.03653425059747E-05
2	397	104.485565736199	0.394134521484375	0.3941650390625	8.05053710937501E-07	3.17324008847208E-07	489613.375	6.04465567448642E-05
2	398	104.586273735945	0.404205322265625	0.40411376953125	8.038330078125E-07	3.24839959375822E-07	502733.5	6.05275708949193E-05
2	399	104.686981735691	0.414276123046875	0.41436767578125	8.0230712890625E-07	3.32450127871198E-07	516470.15625	6.06084468017798E-05
2	400	104.787689735437	0.424346923828125	0.42437744140625	8.0169677734375E-07	3.40222044314942E-07	529349.0625	6.0689213569276E-05
2	401	104.888397735182	0.434417724609375	0.434478759765625	8.0108642578125E-07	3.48055039012252E-07	542361.9375	6.07699221291114E-05
2	402	104.989105734928	0.444488525390625	0.444488525390625	8.0078125E-07	3.55938055918159E-07	555068.625	6.08505833952222E-05
2	403	105.089813734674	0.454559326171875	0.454620361328125	8.0108642578125E-07	3.64190185564439E-07	567504.75	6.09312410233542E-05
2	404	105.190521734419	0.464630126953125	0.46466064453125	8.0230712890625E-07	3.7280054243638E-07	579155.5625	6.101197868702E-05
2	405	105.291229734165	0.474700927734375	0.474700927734375	8.03527832031251E-07	3.8143539882185E-07	590771	6.10928400419652E-05
2	406	105.391937733911	0.484771728515625	0.484771728515625	8.056640625E-07	3.90563144492262E-07	601704.5625	6.11738723819144E-05
2	407	105.492645733657	0.494842529296875	0.49481201171875	8.0841064453125E-07	4.00011288093083E-07	612080.0625	6.12551448284648E-05
2	408	105.593353733402	0.504913330078125	0.5048828125	8.11767578125E-07	4.09847501714466E-07	621954.875	6.13367301411927E-05
2	409	105.694061733148	0.514984130859375	0.5150146484375	8.16650390625E-07	4.2058690041813E-07	630642.75	6.14187229075469E-05
2	410	105.794769732894	0.525054931640625	0.525054931640625	8.23059082031249E-07	4.32151210816301E-07	637931.0625	6.15012904745527E-05
2	411	105.89547773264	0.535125732421875	0.53515625	8.30993652343751E-07	4.44711446334622E-07	643995.5625	6.15845783613622E-05
2	412	105.996185732385	0.545196533203125	0.545166015625	8.41674804687501E-07	4.58852468909754E-07	647715.75	6.1668804846704E-05
2	413	106.096893732131	0.555267333984375	0.55523681640625	8.55102539062499E-07	4.74784400239514E-07	649321.9375	6.17542464169674E-05
2	414	106.197601731877	0.565338134765625	0.565277099609375	8.72192382812501E-07	4.93030370307679E-07	648110.625	6.18412232142873E-05
2	415	106.298309731623	0.575408935546875	0.575408935546875	8.9599609375E-07	5.15564181569061E-07	642200.25	6.19302518316545E-05
2	416	106.399017731368	0.585479736328125	0.58538818359375	9.2681884765625E-07	5.42548775683827E-07	631610.1875	6.20220380369574E-05
2	417	106.499725731114	0.595550537109375	0.595489501953125	9.7015380859375E-07	5.77716377847537E-07	613809.375	6.2117564084474E-05
2	418	106.60043373086	0.605621337890625	0.605621337890625	1.02935791015625E-06	6.23401092525455E-07	588348.625	6.22182415099815E-05
2	419	106.701141730606	0.615692138671875	0.61572265625	1.11175537109375E-06	6.84532949435379E-07	553829.3125	6.23260566499084E-05
2	420	106.801849730351	0.625762939453125	0.625732421875	1.22344970703125E-06	7.65552101711364E-07	511449.25	6.24436434009112E-05
2	421	106.902557730097	0.635833740234375	0.635833740234375	1.3751220703125E-06	8.74348984325479E-07	462383.5	6.25744942226447E-05
2	422	107.003265729843	0.645904541015625	0.645843505859375	1.56982421875E-06	1.0138608104171E-06	411411.34375	6.27227855147794E-05
2	423	107.103973729588	0.655975341796875	0.6558837890625	1.81304931640625E-06	1.18914965696604E-06	361757.28125	6.2893122958485E-05
2	424	107.204681729334	0.666046142578125	0.665985107421875	2.10205078125E-06	1.39993449010944E-06	316826.375	6.30902650300413E-05
2	425	107.30538972908	0.676116943359375	0.676055908203125	2.4224853515625E-06	1.6377355223085E-06	279075.34375	6.33180970908143E-05
2	426	107.406097728826	0.686187744140625	0.686126708984375	2.75665283203125E-06	1.89141303508222E-06	248898.484375	6.35788819636218E-05
2	427	107.506805728571	0.696258544921875	0.696197509765625	3.0755615234375E-06	2.14119813790603E-06	226364.375	6.38725614408031E-05
2	428	107.607513728317	0.706329345703125	0.70623779296875	3.35205078125E-06	2.36734490499657E-06	210688.28125	6.41962178633548E-05
2	429	107.708221728063	0.716400146484375	0.716339111328125	3.5614013671875E-06	2.55117083725054E-06	201139.6875	6.45443360554054E-05
2	430	107.808929727809	0.726470947265625	0.72637939453125	3.69293212890625E-06	2.68246981249831E-06	196694.484375	6.49096182314679E-05
2	431	107.909637727554	0.736541748046875	0.736419677734375	3.748779296875E-06	2.76067476079334E-06	196442.53125	6.5284337324556E-05
2	432	108.0103457273	0.746612548828125	0.74658203125	3.7457275390625E-06	2.79649293588591E-06	199315.625	6.56617194181308E-05
2	433	108.111053727046	0.756683349609375	0.7568359375	3.7042236328125E-06	2.80348945125297E-06	204317.03125	6.60368532408029E-05
2	434	108.211761726792	0.766754150390625	0.7672119140625	3.65142822265625E-06	2.80141921393806E-06	210112.828125	6.64072431391105E-05
2	435	108.312469726537	0.776824951171875	0.7769775390625	3.6065673828125E-06	2.80222184301238E-06	215434.078125	6.67727072141133E-05
2	436	108.413177726283	0.786895751953125	0.78704833984375	3.58642578125E-06	2.82269047602313E-06	219452.015625	6.71349043841474E-05
2	437	108.513885726029	0.796966552734375	0.797119140625	3.60565185546875E-06	2.87413399746583E-06	221074.90625	6.74970578984357E-05
2	438	108.614593725775	0.807037353515625	0.80718994140625	3.6761474609375E-06	2.96734924631892E-06	219574.96875	6.78637225064449E-05
2	439	108.71530172552	0.817108154296875	0.81695556640625	3.804931640625E-06	3.10846007778309E-06	214709.65625	6.82404279359616E-05
2	440	108.816009725266	0.827178955078125	0.82733154296875	3.99383544921875E-06	3.30422608385561E-06	207152.140625	6.86331259203143E-05
2	441	108.916717725012	0.837249755859375	0.83740234375	4.234619140625E-06	3.54608005181944E-06	197751.515625	6.90474626026116E-05
2	442	109.017425724757	0.847320556640625	0.84747314453125	4.51263427734375E-06	3.82433609047439E-06	187800.109375	6.94879199727438E-05
2	443	109.118133724503	0.857391357421875	0.8575439453125	4.801025390625E-06	4.11709015679662E-06	178616.84375	6.99568990967236E-05
2	444	109.218841724249	0.867462158203125	0.867919921875	5.0750732421875E-06	4.40475696450449E-06	171016.234375	7.04541962477379E-05
2	445	109.319549723995	0.877532958984375	0.877685546875	5.3009033203125E-06	4.65252605863498E-06	165572.84375	7.09766682120971E-05
2	446	109.42025772374	0.887603759765625	0.88775634765625	5.4595947265625E-06	4.84678957946016E-06	162604.8125	7.15185087756254E-05
2	447	109.520965723486	0.897674560546875	0.8978271484375	5.535888671875E-06	4.97027122037252E-06	162183.015625	7.20721727702767E-05
2	448	109.621673723232	0.907745361328125	0.9075927734375	5.5450439453125E-06	5.03264163853601E-06	163676.390625	7.26301441318356E-05
2	449	109.722381722978	0.917816162109375	0.91766357421875	5.499267578125E-06	5.04647732668673E-06	166870.140625	7.31862674001604E-05
2	450	109.823089722723	0.927886962890625	0.9283447265625	5.4229736328125E-06	5.03438877785811E-06	171187.390625	7.37362424843013E-05
2	451	109.923797722469	0.937957763671875	0.93780517578125	5.340576171875E-06	5.00841997563839E-06	175600	7.42782358429395E-05
2	452	110.024505722215	0.948028564453125	0.94818115234375	5.2734375E-06	5.00017358717741E-06	179803.25	7.48126913094893E-05
2	453	110.125213721961	0.958099365234375	0.95794677734375	5.230712890625E-06	5.01074464409612E-06	183138.859375	7.53416170482524E-05
2	454	110.225921721706	0.968170166015625	0.96832275390625	5.230712890625E-06	5.06501828567707E-06	185122.53125	7.58683891035616E-05
2	455	110.326629721452	0.978240966796875	0.9783935546875	5.279541015625E-06	5.16546879225643E-06	185317.921875	7.63976277085021E-05
2	456	110.427337721198	0.988311767578125	0.98876953125	5.377197265625E-06	5.31680871063145E-06	183881.953125	7.69342368585058E-05
2	457	110.528045720944	0.998382568359375	0.99853515625	5.5267333984375E-06	5.51863740838598E-06	180673.671875	7.74832878960297E-05
2	458	110.628753720689	1.00845336914063	1.009521484375	5.712890625E-06	5.76728552914574E-06	176709.40625	7.80492482590489E-05
2	459	110.729461720435	1.01852416992188	1.0186767578125	5.9234619140625E-06	6.03409262112109E-06	171973.21875	7.86351884016767E-05
2	460	110.830169720181	1.02859497070313	1.02874755859375	6.1279296875E-06	6.30409294899437E-06	167878.484375	7.92420250945725E-05
2	461	110.930877719926	1.03866577148438	1.038818359375	6.3018798828125E-06	6.54650830256287E-06	164842.625	7.98679175204597E-05
2	462	111.031585719672	1.04873657226563	1.04888916015625	6.4239501953125E-06	6.73801196171553E-06	163277.90625	8.05087111075409E-05
2	463	111.132293719418	1.05880737304688	1.05804443359375	6.48193359375E-06	6.85817349221907E-06	163229.765625	8.11585705378093E-05
2	464	111.233001719164	1.06887817382813	1.06903076171875	6.4788818359375E-06	6.92612366037793E-06	165002.359375	8.18112021079287E-05
2	465	111.333709718909	1.07894897460938	1.07879638671875	6.4239501953125E-06	6.93013453201274E-06	167933.484375	8.24609087430872E-05
2	466	111.434417718655	1.08901977539063	1.08917236328125	6.33544921875E-06	6.90039632900152E-06	171917.15625	8.31033976282924E-05
2	467	111.535125718401	1.09909057617188	1.09893798828125	6.2286376953125E-06	6.84488668412087E-06	176433.125	8.37360494188033E-05
2	468	111.635833718147	1.10916137695313	1.10931396484375	6.11572265625E-06	6.78425658406923E-06	181387.234375	8.43576417537406E-05
2	469	111.736541717892	1.11923217773438	1.11846923828125	6.005859375E-06	6.71736870572204E-06	186229.6875	8.49680072860792E-05
2	470	111.837249717638	1.12930297851563	1.12945556640625	5.8990478515625E-06	6.66271216687164E-06	191464.046875	8.55674661579542E-05
2	471	111.937957717384	1.13937377929688	1.1395263671875	5.8074951171875E-06	6.61779358779313E-06	196216.515625	8.61569424159825E-05
2	472	112.03866571713	1.14944458007813	1.1492919921875	5.7220458984375E-06	6.57630153000355E-06	200853.328125	8.67374983499758E-05
2	473	112.139373716875	1.15951538085938	1.15966796875	5.65185546875E-06	6.55427538731601E-06	205183.59375	8.73102180776186E-05
2	474	112.240081716621	1.16958618164063	1.16912841796875	5.5938720703125E-06	6.53995448374189E-06	209001.65625	8.78764840308577E-05
2	475	112.340789716367	1.17965698242188	1.17950439453125	5.548095703125E-06	6.54400309940684E-06	212596.265625	8.84375258465298E-05
2	476	112.441497716113	1.18972778320313	1.1895751953125	5.517578125E-06	6.56357360639959E-06	215597.359375	8.89947332325391E-05
2	477	112.542205715858	1.19979858398438	1.19964599609375	5.5023193359375E-06	6.60083514958387E-06	218025.515625	8.95496268640272E-05
2	478	112.642913715604	1.20986938476563	1.21002197265625	5.5084228515625E-06	6.66531286697136E-06	219667.59375	9.01040621101856E-05
2	479	112.74362171535	1.21994018554688	1.2200927734375	5.5419921875E-06	6.76174431646359E-06	220154.203125	9.06604909687303E-05
2	480	112.844329715095	1.23001098632813	1.23046875	5.60302734375E-06	6.89435000822414E-06	219607.84375	9.12216928554699E-05
2	481	112.945037714841	1.24008178710938	1.240234375	5.7037353515625E-06	7.07396839061403E-06	217442.5	9.17910292628221E-05
2	482	113.045745714587	1.25015258789063	1.25030517578125	5.8380126953125E-06	7.29929706722032E-06	214166.25	9.23722036532126E-05
2	483	113.146453714333	1.26022338867188	1.26007080078125	6.005859375E-06	7.5678076427721E-06	209806.921875	9.29685920709744E-05
2	484	113.247161714078	1.27029418945313	1.26983642578125	6.1920166015625E-06	7.86284817877458E-06	205076.40625	9.35827993089333E-05
2	485	113.347869713824	1.28036499023438	1.280517578125	6.38427734375E-06	8.17517957329983E-06	200573.625	9.42160695558414E-05
2	486	113.44857771357	1.29043579101563	1.2908935546875	6.573486328125E-06	8.48567106004339E-06	196378.828125	9.48685410548933E-05
2	487	113.549285713316	1.30050659179688	1.300048828125	6.744384765625E-06	8.768029147177E-06	192760.1875	9.55391515162773E-05
2	488	113.649993713061	1.31057739257813	1.31072998046875	6.9000244140625E-06	9.0440689746174E-06	189960.203125	9.62262056418695E-05
2	489	113.750701712807	1.32064819335938	1.32080078125	7.037353515625E-06	9.29494217416504E-06	187684.296875	9.69280081335455E-05
2	490	113.851409712553	1.33071899414063	1.33056640625	7.159423828125E-06	9.52608843363123E-06	185848.265625	9.7642870969139E-05
2	491	113.952117712299	1.34078979492188	1.3409423828125	7.2662353515625E-06	9.74360227701254E-06	184544.3125	9.83692589215934E-05
2	492	114.052825712044	1.35086059570313	1.35040283203125	7.3516845703125E-06	9.92773584584938E-06	183686.1875	9.91053311736323E-05
2	493	114.15353371179	1.36093139648438	1.36077880859375	7.421875E-06	1.00995293905726E-05	183347.046875	9.98492396320216E-05
2	494	114.254241711536	1.37100219726563	1.370849609375	7.470703125E-06	1.02412095657201E-05	183496.734375	0.000100599136203527
2	495	114.354949711282	1.38107299804688	1.380615234375	7.50732421875E-06	1.03647262221784E-05	183902.4375	0.000101353340141941
2	496	114.455657711027	1.39114379882813	1.39129638671875	7.53173828125E-06	1.04788796306821E-05	184724.484375	0.000102110621810425
2	497	114.556365710773	1.40121459960938	1.4007568359375	7.550048828125E-06	1.05757826531772E-05	185529.5	0.000102870049886405
2	498	114.657073710519	1.41128540039063	1.41143798828125	7.5592041015625E-06	1.06693478301167E-05	186717.8125	0.000103630860394333
2	499	114.757781710264	1.42135620117188	1.42120361328125	7.574462890625E-06	1.07648538687499E-05	187630.9375	0.000104392900539096
2	500	114.85848971001	1.43142700195313	1.43157958984375	7.60498046875E-06	1.08871345219086E-05	188242.390625	0.000105157247162424
2	501	114.959197709756	1.44149780273438	1.44134521484375	7.666015625E-06	1.10493747342844E-05	188017.515625	0.000105926199466921
2	502	115.059905709502	1.45156860351563	1.451416015625	7.757568359375E-06	1.12594580059522E-05	187096.78125	0.000106702842458617
2	503	115.160613709247	1.46163940429688	1.4617919921875	7.8826904296875E-06	1.15228540380485E-05	185443.28125	0.000107490392110776
2	504	115.261321708993	1.47171020507813	1.4715576171875	8.0413818359375E-06	1.18333573482232E-05	182998.09375	0.00010829223174369
2	505	115.362029708739	1.48178100585938	1.48193359375	8.23974609375E-06	1.22107558127027E-05	179851.859375	0.000109112050267868
2	506	115.462737708485	1.49185180664063	1.49200439453125	8.4747314453125E-06	1.26443364933948E-05	176053.296875	0.000109953689388931
2	507	115.56344570823	1.50192260742188	1.50177001953125	8.7493896484375E-06	1.31395700009307E-05	171642.84375	0.000110820990812499
2	508	115.664153707976	1.49185180664063	1.49169921875	8.14208984375E-06	1.21455486805644E-05	183208.40625	0.000111671550257597
2	509	115.764861707722	1.48178100585938	1.48162841796875	7.684326171875E-06	1.13853157017729E-05	192811.75	0.000112468471343163
2	510	115.865569707468	1.47171020507813	1.47186279296875	7.330322265625E-06	1.07892283267574E-05	200791.015625	0.000113224516098853
2	511	115.966277707213	1.46163940429688	1.46148681640625	7.0465087890625E-06	1.02983794931788E-05	207405.8125	0.000113948452053592
2	512	116.066985706959	1.45156860351563	1.451416015625	6.817626953125E-06	9.89521322480869E-06	212891.671875	0.000114646565634757
2	513	116.167693706705	1.44149780273438	1.44195556640625	6.62841796875E-06	9.55788436840521E-06	217541.4375	0.000115323629870545
2	514	116.268401706451	1.43142700195313	1.431884765625	6.4727783203125E-06	9.26827306102496E-06	221216.40625	0.000115983326395508
2	515	116.369109706196	1.42135620117188	1.42120361328125	6.33544921875E-06	9.00396298675332E-06	224325.625	0.000116628267278429
2	516	116.469817705942	1.41128540039063	1.4111328125	6.2103271484375E-06	8.76359627000056E-06	227223.59375	0.000117260002298281
2	517	116.570525705688	1.40121459960938	1.4007568359375	6.09130859375E-06	8.53244182508206E-06	229959.921875	0.000117879433673806
2	518	116.671233705433	1.39114379882813	1.39129638671875	5.975341796875E-06	8.31347097118851E-06	232839.640625	0.000118487041618209
2	519	116.771941705179	1.38107299804688	1.3812255859375	5.8441162109375E-06	8.07204287411878E-06	236344.65625	0.000119082200399134
2	520	116.872649704925	1.37100219726563	1.37054443359375	5.7037353515625E-06	7.81722246756544E-06	240288.9375	0.000119663680379745
2	521	116.973357704671	1.36093139648438	1.36077880859375	5.5389404296875E-06	7.53727272240212E-06	245674.921875	0.000120229793537874
2	522	117.074065704416	1.35086059570313	1.35040283203125	5.3497314453125E-06	7.22429240340716E-06	252424.40625	0.000120778080599848
2	523	117.174773704162	1.34078979492188	1.3409423828125	5.1361083984375E-06	6.8872254814778E-06	261081.390625	0.000121306082291994
2	524	117.275481703908	1.33071899414063	1.33056640625	4.89471435546875E-06	6.5127419475175E-06	271837.40625	0.000121811171993613
2	525	117.376189703654	1.32064819335938	1.32049560546875	4.6392822265625E-06	6.12615167483455E-06	284633.625	0.000122291254228912
2	526	117.476897703399	1.31057739257813	1.31103515625	4.37530517578125E-06	5.7361789913557E-06	299644.28125	0.000122745172120631
2	527	117.577605703145	1.30050659179688	1.30126953125	4.11773681640625E-06	5.3582853070111E-06	316015.71875	0.000123172823805362
2	528	117.678313702891	1.29043579101563	1.290283203125	3.87908935546875E-06	5.00512351209181E-06	332625.3125	0.000123575504403561
2	529	117.779021702637	1.28036499023438	1.28021240234375	3.67218017578125E-06	4.7011703827593E-06	348624.625	0.000123955731396563
2	530	117.879729702382	1.27029418945313	1.27044677734375	3.50799560546875E-06	4.45672139903763E-06	362157.46875	0.000124317288282327
2	531	117.980437702128	1.26022338867188	1.26007080078125	3.3892822265625E-06	4.27073518949328E-06	371781.03125	0.000124664598843083
2	532	118.081145701874	1.25015258789063	1.24969482421875	3.31207275390625E-06	4.13908037444344E-06	377315.03125	0.000125002028653398
2	533	118.18185370162	1.24008178710938	1.23992919921875	3.26568603515625E-06	4.04921956942417E-06	379684.15625	0.000125333244795911
2	534	118.282561701365	1.23001098632813	1.23016357421875	3.2427978515625E-06	3.98917154598166E-06	379352.5625	0.000125660983030684
2	535	118.383269701111	1.21994018554688	1.2200927734375	3.2330322265625E-06	3.94459902963717E-06	377383.4375	0.000125987062347122
2	536	118.483977700857	1.20986938476563	1.21002197265625	3.23028564453125E-06	3.90871628042078E-06	374586.6875	0.000126312515931204
2	537	118.584685700602	1.19979858398438	1.19964599609375	3.22967529296875E-06	3.87446698368876E-06	371444.78125	0.000126637794892304
2	538	118.685393700348	1.18972778320313	1.1895751953125	3.22967529296875E-06	3.84194163416396E-06	368326.5625	0.000126963059301488
2	539	118.786101700094	1.17965698242188	1.18011474609375	3.22784423828125E-06	3.80922665499384E-06	365604.625	0.000127288221847266
2	540	118.88680969984	1.16958618164063	1.16973876953125	3.22235107421875E-06	3.76930893253302E-06	363007.84375	0.000127613006043248
2	541	118.987517699585	1.15951538085938	1.15936279296875	3.21319580078125E-06	3.72525960301573E-06	360813	0.000127937062643468
2	542	119.088225699331	1.14944458007813	1.1492919921875	3.1976318359375E-06	3.6750125218532E-06	359419.75	0.000128259882330894
2	543	119.188933699077	1.13937377929688	1.13922119140625	3.1756591796875E-06	3.61777802027063E-06	358735.375	0.000128580795717426
2	544	119.289641698823	1.12930297851563	1.12945556640625	3.1439208984375E-06	3.55091879100655E-06	359250.625	0.00012889901699964
2	545	119.390349698568	1.11923217773438	1.11968994140625	3.1005859375E-06	3.47169475389819E-06	361122.0625	0.000129213454783894
2	546	119.491057698314	1.10916137695313	1.1090087890625	3.0401611328125E-06	3.37156529894855E-06	364786.1875	0.000129522653878666
2	547	119.59176569806	1.09909057617188	1.0992431640625	2.96112060546875E-06	3.25499149766983E-06	371225.40625	0.000129824853502214
2	548	119.692473697806	1.08901977539063	1.08917236328125	2.8558349609375E-06	3.11049643642036E-06	381384.90625	0.000130117754451931
2	549	119.793181697551	1.07894897460938	1.07879638671875	2.72003173828125E-06	2.93436028186989E-06	396611.6875	0.000130398519104347
2	550	119.893889697297	1.06887817382813	1.06903076171875	2.54730224609375E-06	2.723144234551E-06	419671.78125	0.000130663756863214
2	551	119.994597697043	1.05880737304688	1.05865478515625	2.337646484375E-06	2.47476054937579E-06	452872.0625	0.000130909727886319
2	552	120.095305696789	1.04873657226563	1.04888916015625	2.093505859375E-06	2.19585558625113E-06	501020.40625	0.000131132852402516
2	553	120.196013696534	1.03866577148438	1.0382080078125	1.82464599609375E-06	1.89436207165272E-06	568991.4375	0.000131330147269182
2	554	120.29672169628	1.02859497070313	1.0284423828125	1.5460205078125E-06	1.58999296218099E-06	665219.125	0.000131499880808406
2	555	120.397429696026	1.01852416992188	1.01806640625	1.27777099609375E-06	1.30085561522719E-06	796751.875	0.000131642067572102
2	556	120.498137695771	1.00845336914063	1.00830078125	1.0406494140625E-06	1.0492875617274E-06	968914.9375	0.000131758803036064
2	557	120.598845695517	0.998382568359375	0.99822998046875	8.53271484375E-07	8.5176111497276E-07	1169885.625	0.000131854176288471
2	558	120.699553695263	0.988311767578125	0.9881591796875	7.2601318359375E-07	7.17416583029262E-07	1361076.125	0.000131933702505194
2	559	120.800261695009	0.978240966796875	0.97869873046875	6.60400390625E-07	6.4633297824912E-07	1481977.875	0.000132003508042544
2	560	120.900969694754	0.968170166015625	0.968017578125	6.4544677734375E-07	6.24803817572683E-07	1499763.625	0.000132069268147461
2	561	121.0016776945	0.958099365234375	0.958251953125	6.6680908203125E-07	6.38971073385619E-07	1437071	0.000132135348394513
2	562	121.102385694246	0.948028564453125	0.9478759765625	7.0159912109375E-07	6.65028949242696E-07	1351022.25	0.000132204251713119
2	563	121.203093693992	0.937957763671875	0.93780517578125	7.2784423828125E-07	6.82576057897677E-07	1288469.625	0.000132276225485839
2	564	121.303801693737	0.927886962890625	0.92742919921875	7.26318359375E-07	6.73608838042128E-07	1276890.875	0.000132349450723268
2	565	121.404509693483	0.917816162109375	0.91766357421875	6.87561035156251E-07	6.30949671176495E-07	1334665	0.000132420638692565
2	566	121.505217693229	0.907745361328125	0.9075927734375	5.9844970703125E-07	5.43148587439646E-07	1516573.25	0.000132485394715331
2	567	121.605925692975	0.897674560546875	0.8978271484375	4.5135498046875E-07	4.0523875100007E-07	1989182	0.000132538261823356
2	568	121.70663369272	0.887603759765625	0.8880615234375	2.471923828125E-07	2.19522050315391E-07	3592592.5	0.000132573433802463
2	569	121.807341692466	0.877532958984375	0.877685546875	-9.46044921874972E-09	-8.30329938139585E-09	-92774192	0.000132585410028696
2	570	121.908049692212	0.867462158203125	0.86761474609375	-3.0517578125E-07	-2.64774996594497E-07	-2843000	0.000132569562993012
2	571	122.008757691957	0.857391357421875	0.85784912109375	-6.1981201171875E-07	-5.31705154571682E-07	-1384047.25	0.000132522982312366
2	572	122.109465691703	0.847320556640625	0.84747314453125	-9.2132568359375E-07	-7.80798757205048E-07	-919841.0625	0.000132445391500369
2	573	122.210173691449	0.837249755859375	0.83709716796875	-1.1871337890625E-06	-9.93746311905852E-07	-705141.375	0.000132339220726863
2	574	122.310881691195	0.827178955078125	0.82763671875	-1.39068603515625E-06	-1.15098271180614E-06	-595128.4375	0.000132209417643026
2	575	122.41158969094	0.817108154296875	0.81695556640625	-1.51947021484375E-06	-1.24133964618522E-06	-537658.1875	0.000132062879856676
2	576	122.512297690686	0.807037353515625	0.80718994140625	-1.5692138671875E-06	-1.26665361221967E-06	-514391.28125	0.000131907348986715
2	577	122.613005690432	0.796966552734375	0.79742431640625	-1.553955078125E-06	-1.23916152006132E-06	-513157.90625	0.000131750086438842
2	578	122.713713690178	0.786895751953125	0.787353515625	-1.492919921875E-06	-1.17545573630196E-06	-527391.6875	0.000131596665596589
2	579	122.814421689923	0.776824951171875	0.7763671875	-1.4105224609375E-06	-1.09508323475893E-06	-550411.125	0.00013145046250429
2	580	122.915129689669	0.766754150390625	0.7672119140625	-1.3287353515625E-06	-1.01942157471058E-06	-577400.125	0.00013131252489984
2	581	123.015837689415	0.756683349609375	0.7574462890625	-1.26556396484375E-06	-9.58596729105921E-07	-598504.9375	0.000131181892356835
2	582	123.116545689161	0.746612548828125	0.746551513671875	-1.23626708984375E-06	-9.22937033465132E-07	-603875.625	0.000131055916426703
2	583	123.217253688906	0.736541748046875	0.736480712890625	-1.25335693359375E-06	-9.23073173453304E-07	-587606.5625	0.000130930551677011
2	584	123.317961688652	0.726470947265625	0.72637939453125	-1.32415771484375E-06	-9.61840896707145E-07	-548559.625	0.000130800763145089
2	585	123.418669688398	0.716400146484375	0.71630859375	-1.45355224609375E-06	-1.04119192201324E-06	-492798.6875	0.000130660890135914
2	586	123.519377688144	0.706329345703125	0.706329345703125	-1.63848876953125E-06	-1.15731268124364E-06	-431085.875	0.000130505199194886
2	587	123.620085687889	0.696258544921875	0.69622802734375	-1.86676025390625E-06	-1.2996907798879E-06	-372960.625	0.000130328699015081
2	588	123.720793687635	0.686187744140625	0.6861572265625	-2.1160888671875E-06	-1.45196963785565E-06	-324257.28125	0.000130128144519404
2	589	123.821501687381	0.676116943359375	0.676055908203125	-2.3577880859375E-06	-1.59399644417135E-06	-286733.125	0.000129902866319753
2	590	123.922209687126	0.666046142578125	0.66607666015625	-2.56134033203125E-06	-1.70604903360072E-06	-260050.046875	0.000129655163618736
2	591	124.022917686872	0.655975341796875	0.655975341796875	-2.70294189453125E-06	-1.77306321802462E-06	-242689.40625	0.000129390085930936
2	592	124.123625686618	0.645904541015625	0.64593505859375	-2.76580810546875E-06	-1.78653226612369E-06	-233542.984375	0.00012911472003907
2	593	124.224333686364	0.635833740234375	0.635772705078125	-2.752685546875E-06	-1.75008233327389E-06	-230964.53125	0.000128836836665869
2	594	124.325041686109	0.625762939453125	0.625732421875	-2.67608642578125E-06	-1.67451401011931E-06	-233823.703125	0.000128563478938304
2	595	124.425749685855	0.615692138671875	0.615692138671875	-2.55767822265625E-06	-1.57474221396114E-06	-240723.078125	0.000128299943753518
2	596	124.526457685601	0.605621337890625	0.60565185546875	-2.41546630859375E-06	-1.46293166380929E-06	-250739.109375	0.000128049519844353
2	597	124.627165685347	0.595550537109375	0.59552001953125	-2.26409912109375E-06	-1.348316345684E-06	-263027.375	0.00012781388068106
2	598	124.727873685092	0.585479736328125	0.58551025390625	-2.1160888671875E-06	-1.23899167192576E-06	-276694.5625	0.000127593331853859
2	599	124.828581684838	0.575408935546875	0.575439453125	-1.97540283203125E-06	-1.13672467705328E-06	-291302.34375	0.000127387305838056
2	600	124.929289684584	0.565338134765625	0.56536865234375	-1.84478759765625E-06	-1.04298510450462E-06	-306468.15625	0.000127194944070652
2	601	125.02999768433	0.555267333984375	0.555267333984375	-1.72515869140625E-06	-9.57924271460797E-07	-321864.5	0.000127015184261836
2	602	125.130705684075	0.545196533203125	0.545196533203125	-1.6168212890625E-06	-8.81485334502941E-07	-337202.71875	0.00012684689136222
2	603	125.231413683821	0.535125732421875	0.53515625	-1.5179443359375E-06	-8.12337361821847E-07	-352553.28125	0.000126689046737738
2	604	125.332121683567	0.525054931640625	0.524993896484375	-1.42822265625E-06	-7.49808179989486E-07	-367585.46875	0.0001265407045139
2	605	125.432829683313	0.514984130859375	0.51495361328125	-1.346435546875E-06	-6.93351807967701E-07	-382456.9375	0.000126400977023877
2	606	125.533537683058	0.504913330078125	0.50494384765625	-1.27197265625E-06	-6.4227475604639E-07	-396976.96875	0.000126269136671908
2	607	125.634245682804	0.494842529296875	0.494781494140625	-1.20361328125E-06	-5.95525534663466E-07	-411080.125	0.000126144484966062
2	608	125.73495368255	0.484771728515625	0.484771728515625	-1.141357421875E-06	-5.53297809346986E-07	-424732.625	0.000126026396173984
2	609	125.835661682295	0.474700927734375	0.47467041015625	-1.08428955078125E-06	-5.14680152718938E-07	-437770.875	0.00012591433187481
2	610	125.936369682041	0.464630126953125	0.464599609375	-1.0308837890625E-06	-4.78948152249359E-07	-450680.90625	0.000125807826407254
2	611	126.037077681787	0.454559326171875	0.45452880859375	-9.81750488281249E-07	-4.46233855200262E-07	-462977.96875	0.000125706486869603
2	612	126.137785681533	0.444488525390625	0.444549560546875	-9.3658447265625E-07	-4.16358204802236E-07	-474649.71875	0.000125609891256317
2	613	126.238493681278	0.434417724609375	0.434417724609375	-8.941650390625E-07	-3.88441122822769E-07	-485836.1875	0.000125517704873346
2	614	126.339201681024	0.424346923828125	0.424346923828125	-8.5479736328125E-07	-3.6273061709835E-07	-496429.84375	0.000125429636682384
2	615	126.43990968077	0.414276123046875	0.41436767578125	-8.1817626953125E-07	-3.39025802986725E-07	-506452.8125	0.000125345395645127
2	616	126.540617680516	0.404205322265625	0.404266357421875	-7.83691406250001E-07	-3.16820063517298E-07	-515848.90625	0.000125264734379016
2	617	126.641325680261	0.394134521484375	0.39410400390625	-7.5103759765625E-07	-2.95986922083102E-07	-524746.0625	0.000125187449157238
2	618	126.742033680007	0.384063720703125	0.38409423828125	-7.2052001953125E-07	-2.76747584848636E-07	-533079.1875	0.000125113350804895
2	619	126.842741679753	0.373992919921875	0.3740234375	-6.9122314453125E-07	-2.58533646046999E-07	-541103.75	0.000125042264699005
2	620	126.943449679499	0.363922119140625	0.36395263671875	-6.634521484375E-07	-2.41465158978826E-07	-548574.0625	0.000124974045320414
2	621	127.044157679244	0.353851318359375	0.353851318359375	-6.365966796875E-07	-2.25260563979646E-07	-555848.5	0.000124908590805717
2	622	127.14486567899	0.343780517578125	0.34381103515625	-6.11267089843751E-07	-2.10160365554657E-07	-562456.3125	0.000124845755635761
2	623	127.245573678736	0.333709716796875	0.333770751953125	-5.87158203125E-07	-1.95976227246319E-07	-568451.1875	0.000124785408843309
2	624	127.346281678482	0.323638916015625	0.323638916015625	-5.63964843750001E-07	-1.82520963676325E-07	-573863.6875	0.000124727448564954
2	625	127.446989678227	0.313568115234375	0.3135986328125	-5.4290771484375E-07	-1.70255106013428E-07	-577627.9375	0.000124671714729629
2	626	127.547697677973	0.303497314453125	0.303558349609375	-5.2215576171875E-07	-1.58504732894471E-07	-581355.9375	0.000124618076370098
2	627	127.648405677719	0.293426513671875	0.293487548828125	-5.0323486328125E-07	-1.4769315725971E-07	-583201.9375	0.000124566446174867
2	628	127.749113677464	0.283355712890625	0.283355712890625	-4.852294921875E-07	-1.37492534690864E-07	-583962.3125	0.000124516678624786
2	629	127.84982167721	0.273284912109375	0.2733154296875	-4.67834472656251E-07	-1.27866371713026E-07	-584213.9375	0.000124468686408363
2	630	127.950529676956	0.263214111328125	0.26324462890625	-4.52575683593751E-07	-1.1913811448494E-07	-581658.8125	0.000124422338558361
2	631	128.051237676702	0.253143310546875	0.25311279296875	-4.3792724609375E-07	-1.10844986522807E-07	-577979.125	0.000124377489555627
2	632	128.151945676447	0.243072509765625	0.243072509765625	-4.24804687499999E-07	-1.03258336991985E-07	-572198.3125	0.00012433405208867
2	633	128.252653676193	0.233001708984375	0.2330322265625	-4.12902832031251E-07	-9.62196651244085E-08	-564375.4375	0.000124291866086423
2	634	128.353361675939	0.222930908203125	0.222930908203125	-4.01611328125E-07	-8.95315750426562E-08	-555091.1875	0.00012425085878931
2	635	128.454069675685	0.212860107421875	0.212921142578125	-3.91235351562499E-07	-8.33022752999568E-08	-544227.75	0.000124210928333923
2	636	128.55477767543	0.202789306640625	0.20281982421875	-3.8330078125E-07	-7.77409923102823E-08	-529140.125	0.000124171929201111
2	637	128.655485675176	0.192718505859375	0.1927490234375	-3.765869140625E-07	-7.25867579376427E-08	-511831.4375	0.000124133672215976
2	638	128.756193674922	0.182647705078125	0.18267822265625	-3.7109375E-07	-6.77907436852365E-08	-492269.75	0.00012409602641128
2	639	128.856901674668	0.172576904296875	0.17266845703125	-3.680419921875E-07	-6.35492440892449E-08	-469154.25	0.000124058802612126
2	640	128.957609674413	0.162506103515625	0.162567138671875	-3.68347167968749E-07	-5.9881138270157E-08	-441342.1875	0.000124021724332124
2	641	129.058317674159	0.152435302734375	0.1524658203125	-3.7200927734375E-07	-5.67187008471137E-08	-409844.125	0.000123984442325309
2	642	129.159025673905	0.142364501953125	0.1424560546875	-3.802490234375E-07	-5.41687761312915E-08	-374638.84375	0.000123946563689969
2	643	129.259733673651	0.132293701171875	0.13238525390625	-3.948974609375E-07	-5.22786010037635E-08	-335239.5625	0.000123907535453327
2	644	129.360441673396	0.122222900390625	0.12225341796875	-4.1778564453125E-07	-5.10757196536815E-08	-292622.375	0.000123866615467705
2	645	129.461149673142	0.112152099609375	0.11224365234375	-4.5166015625E-07	-5.06959842994092E-08	-248513.515625	0.000123822828754783
2	646	129.561857672888	0.102081298828125	0.10211181640625	-5.0079345703125E-07	-5.11369258049399E-08	-203900.078125	0.00012377486564219
2	647	129.662565672633	0.092010498046875	0.092041015625	-5.7098388671875E-07	-5.25539363138705E-08	-161197.21875	0.000123720907140523
2	648	129.763273672379	0.081939697265625	0.082000732421875	-6.6497802734375E-07	-5.45286837905223E-08	-123313.4453125	0.000123658668599091
2	649	129.863981672125	0.071868896484375	0.071929931640625	-7.91320800781251E-07	-5.6919649438214E-08	-90898.578125	0.000123585341498256
2	650	129.964689671871	0.061798095703125	0.061859130859375	-9.521484375E-07	-5.88990722860672E-08	-64967.94921875	0.000123497549793683
2	651	130.065397671616	0.051727294921875	0.051849365234375	-1.148681640625E-06	-5.95584097595747E-08	-45138.15234375	0.000123391757369973
2	652	130.166105671362	0.041656494140625	0.04180908203125	-1.375732421875E-06	-5.75181076101217E-08	-30390.41796875	0.000123264646390453
2	653	130.266813671108	0.031585693359375	0.0316986083984375	-1.61651611328125E-06	-5.12413080855367E-08	-19609.212890625	0.000123113975860178
2	654	130.367521670854	0.021514892578125	0.0216156005859375	-1.8524169921875E-06	-4.00411046541649E-08	-11668.86328125	0.000122939294669777
2	655	130.468229670599	0.011444091796875	0.011602783203125	-2.06024169921875E-06	-2.39045387928627E-08	-5631.75830078125	0.0001227422762895
2	656	130.568937670345	0.001373291015625	0.00145568847656249	-2.2210693359375E-06	-3.23318505301984E-09	-655.399841308594	0.000122526704217307
2	657	130.669645670091	-0.008697509765625	-0.0085601806640625	-2.3248291015625E-06	1.99009555501561E-08	3682.06909179688	0.000122297802590765
2	658	130.770353669837	-0.018768310546875	-0.0186065673828125	-2.369384765625E-06	4.40861178674368E-08	7852.9111328125	0.000122061421279795
2	659	130.871061669582	-0.028839111328125	-0.028692626953125	-2.36724853515625E-06	6.79225777844294E-08	12120.666015625	0.000121822915389203
2	660	130.971769669328	-0.038909912109375	-0.0387664794921875	-2.3321533203125E-06	9.04093795384142E-08	16622.611328125	0.000121586279419716
2	661	131.072477669074	-0.048980712890625	-0.048785400390625	-2.276611328125E-06	1.11065389774012E-07	21428.955078125	0.000121354212751612
2	662	131.17318566882	-0.059051513671875	-0.0589599609375	-2.21282958984375E-06	1.30468336578815E-07	26644.6015625	0.000121128148748539
2	663	131.273893668565	-0.069122314453125	-0.069000244140625	-2.14691162109375E-06	1.48137416999816E-07	32139.3046875	0.000120908618555404
2	664	131.374601668311	-0.079193115234375	-0.0791015625	-2.08465576171875E-06	1.64899532251184E-07	37944.6640625	0.000120695542136673
2	665	131.475309668057	-0.089263916015625	-0.08917236328125	-2.025146484375E-06	1.80587093723261E-07	44032.55078125	0.00012048859935021
2	666	131.576017667802	-0.099334716796875	-0.099212646484375	-1.971435546875E-06	1.95591326246358E-07	50325.078125	0.00012028735363856
2	667	131.676725667548	-0.109405517578125	-0.109222412109375	-1.92291259765625E-06	2.10025149272042E-07	56800.5078125	0.0001200912593049
2	668	131.777433667294	-0.119476318359375	-0.119354248046875	-1.87957763671875E-06	2.24335565235378E-07	63500.5703125	0.000119899792480282
2	669	131.87814166704	-0.129547119140625	-0.12945556640625	-1.8402099609375E-06	2.38225425164273E-07	70348.2578125	0.000119712480227463
2	670	131.978849666785	-0.139617919921875	-0.139495849609375	-1.80511474609375E-06	2.51806000051147E-07	77278.109375	0.00011952892964473
2	671	132.079557666531	-0.149688720703125	-0.149566650390625	-1.77276611328125E-06	2.65146667288718E-07	84369.0859375	0.000119348762382288
2	672	132.180265666277	-0.159759521484375	-0.159637451171875	-1.74407958984375E-06	2.78420401400581E-07	91531.0625	0.000119171680125874
2	673	132.280973666023	-0.169830322265625	-0.16961669921875	-1.7181396484375E-06	2.91425180876104E-07	98721.140625	0.00011899734090548
2	674	132.381681665768	-0.179901123046875	-0.17974853515625	-1.695556640625E-06	3.04773834614025E-07	106011.515625	0.000118825446406845
2	675	132.482389665514	-0.189971923828125	-0.1898193359375	-1.67633056640625E-06	3.18199937510144E-07	113235.03125	0.000118655661935918
2	676	132.58309766526	-0.200042724609375	-0.199920654296875	-1.66107177734375E-06	3.32082549903134E-07	120356.421875	0.000118487609142903
2	677	132.683805665006	-0.189971923828125	-0.189849853515625	-1.46636962890625E-06	2.78390047014909E-07	129469.3125	0.000118330128316302
