Potential - Start -0.2 V, Upper Vertex 1.5 V, Lower Vertex -0.2 V, Stop -0.19 V; Scan - # end cross 5, Rate 0.1 Vps, Step 0.01 V 
Scan	Index	Time (s)	Potential applied (V)	WE(1).Potential (V)	WE(1).Current (A)	WE(1).Power (W)	WE(1).Resistance (Ω)	WE(1).Charge (C)
1	1	63.4951748396901	-0.189971923828125	-0.18975830078125	-2.001953125E-07	3.79887197254902E-08	947865.875	0
1	2	63.5958828394358	-0.179901123046875	-0.179718017578125	-1.80969238281251E-07	3.25234310594169E-08	993086	-1.91931590620698E-08
1	3	63.6965908391816	-0.169830322265625	-0.1695556640625	-1.666259765625E-07	2.82523764383313E-08	1017582.5	-3.66959689301893E-08
1	4	63.7972988389273	-0.159759521484375	-0.159576416015625	-1.544189453125E-07	2.46416220761603E-08	1033399.25	-5.28618642192669E-08
1	5	63.898006838673	-0.149688720703125	-0.149505615234375	-1.4312744140625E-07	2.13983550878538E-08	1044562.9375	-6.78445104540515E-08
1	6	63.9987148384188	-0.139617919921875	-0.139434814453125	-1.3397216796875E-07	1.86803834623106E-08	1040774.5	-8.17975873701471E-08
1	7	64.0994228381645	-0.129547119140625	-0.129425048828125	-1.24206542968749E-07	1.60754378697447E-08	1042014.8125	-9.4797918848144E-08
1	8	64.2001308379103	-0.119476318359375	-0.11932373046875	-1.15356445312501E-07	1.37647608866587E-08	1034391.5625	-1.06860873927417E-07
1	9	64.300838837656	-0.109405517578125	-0.109283447265625	-1.068115234375E-07	1.16727312260423E-08	1023142.875	-1.18047914554609E-07
1	10	64.4015468374017	-0.099334716796875	-0.099212646484375	-9.765625E-08	9.68873514750612E-09	1015937.5	-1.283436859012E-07
1	11	64.5022548371475	-0.089263916015625	-0.089111328125	-8.697509765625E-08	7.7504660467298E-09	1024561.5	-1.37640611796996E-07
1	12	64.6029628368932	-0.079193115234375	-0.0791015625	-7.476806640625E-08	5.91427085083751E-09	1057959.125	-1.45785023164535E-07
1	13	64.7036708366389	-0.069122314453125	-0.0689697265625	-5.98144531249997E-08	4.1253866989166E-09	1153061.25	-1.52561796085138E-07
1	14	64.8043788363847	-0.059051513671875	-0.0589599609375	-4.05883789062506E-08	2.3930892822932E-09	1452631.625	-1.57617478180327E-07
1	15	64.9050868361304	-0.048980712890625	-0.048809814453125	-1.49536132812503E-08	7.29883098404827E-10	3264081.75	-1.60414245442553E-07
1	16	65.0057948358761	-0.038909912109375	-0.038714599609375	2.01416015624997E-08	-7.79773967618524E-10	-1922121.25	-1.60153007300323E-07
1	17	65.1065028356219	-0.028839111328125	-0.028656005859375	6.7138671875E-08	-1.92392612952119E-09	-426818.1875	-1.55758101527681E-07
1	18	65.2072108353676	-0.018768310546875	-0.018603515625	1.33361816406249E-07	-2.48099829569526E-09	-139496.5625	-1.45662099271249E-07
1	19	65.3079188351134	-0.008697509765625	-0.0085601806640625	2.23693847656251E-07	-1.9148598262575E-09	-38267.39453125	-1.27682909578652E-07
1	20	65.4086268348591	0.001373291015625	0.00152587890625	3.43933105468749E-07	5.24800258805413E-10	4436.55712890625	-9.9100624595394E-08
1	21	65.5093348346048	0.011444091796875	0.01158447265625	5.01403808593751E-07	5.80849857101384E-09	23104.078125	-5.65345317227184E-08
1	22	65.6100428343506	0.021514892578125	0.02164306640625	6.9793701171875E-07	1.51054972974407E-08	31010.05859375	3.85707199512808E-09
1	23	65.7107508340963	0.031585693359375	0.03172607421875	9.28344726562499E-07	2.94527335853445E-08	34174.8828125	8.57468620552027E-08
1	24	65.811458833842	0.041656494140625	0.041802978515625	1.18316650390625E-06	4.94598815237168E-08	35331.4453125	1.92069890658786E-07
1	25	65.9121668335878	0.051727294921875	0.051849365234375	1.44256591796875E-06	7.47961266256425E-08	35942.45703125	3.24286020259024E-07
1	26	66.0128748333335	0.061798095703125	0.061859130859375	1.68426513671875E-06	1.04187172667025E-07	36727.671875	4.81734446111659E-07
1	27	66.1135828330792	0.071868896484375	0.07196044921875	1.884765625E-06	1.35628567932145E-07	38180.0546875	6.61449405470194E-07
1	28	66.214290832825	0.081939697265625	0.082061767578125	2.02728271484375E-06	1.66362383424712E-07	40478.703125	8.58436692396936E-07
1	29	66.3149988325707	0.092010498046875	0.092132568359375	2.10235595703125E-06	1.93695441907948E-07	43823.48828125	1.06638049146568E-06
1	30	66.4157068323165	0.102081298828125	0.102203369140625	2.11669921875E-06	2.16333774005761E-07	48284.31640625	1.27882685774239E-06
1	31	66.5164148320622	0.112152099609375	0.112213134765625	2.08343505859375E-06	2.33788767900478E-07	53859.67578125	1.49032041463215E-06
1	32	66.6171228318079	0.122222900390625	0.122283935546875	2.0196533203125E-06	2.46971154638231E-07	60546.99609375	1.69692725648929E-06
1	33	66.7178308315537	0.132293701171875	0.13238525390625	1.93939208984375E-06	2.56746886861947E-07	68261.21875	1.89628099178663E-06
1	34	66.8185388312994	0.142364501953125	0.142486572265625	1.8524169921875E-06	2.6394454266665E-07	76919.2734375	2.08721371564025E-06
1	35	66.9192468310451	0.152435302734375	0.152557373046875	1.767578125E-06	2.69657078888486E-07	86308.703125	2.26949509851693E-06
1	36	67.0199548307909	0.162506103515625	0.16253662109375	1.68701171875E-06	2.74201170213928E-07	96345.875	2.44344732891477E-06
1	37	67.1206628305366	0.172576904296875	0.172637939453125	1.61376953125E-06	2.78597838132555E-07	106978.0625	2.60965498455334E-06
1	38	67.2213708302824	0.182647705078125	0.18267822265625	1.546630859375E-06	2.82535779660975E-07	118113.65625	2.76879381999606E-06
1	39	67.3220788300281	0.192718505859375	0.19281005859375	1.48681640625E-06	2.86673156324468E-07	129679.8046875	2.92154004455369E-06
1	40	67.4227868297738	0.202789306640625	0.202850341796875	1.4324951171875E-06	2.9058210770927E-07	141606.3125	3.06853894471715E-06
1	41	67.5234948295196	0.212860107421875	0.212921142578125	1.38427734375E-06	2.94741909101504E-07	153813.9375	3.21037464345864E-06
1	42	67.6242028292653	0.222930908203125	0.2230224609375	1.34033203125E-06	2.98924135222478E-07	166393.453125	3.34756964548433E-06
1	43	67.724910829011	0.233001708984375	0.233123779296875	1.30157470703125E-06	3.03428009829076E-07	179109.03125	3.48060029864428E-06
1	44	67.8256188287568	0.243072509765625	0.2431640625	1.2664794921875E-06	3.07962295664765E-07	192000	3.60991202796868E-06
1	45	67.9263268285025	0.253143310546875	0.253173828125	1.234130859375E-06	3.12449628836475E-07	205143.421875	3.73582770407666E-06
1	46	68.0270348282482	0.263214111328125	0.263214111328125	1.20452880859375E-06	3.1704897196505E-07	218520.40625	3.85862404073123E-06
1	47	68.127742827994	0.273284912109375	0.273345947265625	1.17767333984375E-06	3.21912239087396E-07	232106.765625	3.97857729694806E-06
1	48	68.2284508277397	0.283355712890625	0.28338623046875	1.15386962890625E-06	3.26990743815259E-07	245596.421875	4.09597987527377E-06
1	49	68.3291588274855	0.293426513671875	0.293426513671875	1.1309814453125E-06	3.31859951074875E-07	259444.140625	4.2110314097954E-06
1	50	68.4298668272312	0.303497314453125	0.303497314453125	1.11053466796875E-06	3.37044269826947E-07	273289.375	4.32390061178012E-06
1	51	68.5305748269769	0.313568115234375	0.313629150390625	1.09130859375E-06	3.42266190500595E-07	287388.125	4.4347721086524E-06
1	52	68.6312828267227	0.323638916015625	0.323699951171875	1.07330322265625E-06	3.47428198210764E-07	301592.28125	4.54376913694432E-06
1	53	68.7319908264684	0.333709716796875	0.333831787109375	1.05682373046875E-06	3.52801350800291E-07	315882.1875	4.65102948510321E-06
1	54	68.8326988262141	0.343780517578125	0.34381103515625	1.04156494140625E-06	3.58101516440001E-07	330090.84375	4.75669185107108E-06
1	55	68.9334068259599	0.353851318359375	0.3538818359375	1.02813720703125E-06	3.63839063766136E-07	344197.125	4.86090948470519E-06
1	56	69.0341148257056	0.363922119140625	0.363983154296875	1.01531982421875E-06	3.69559273849518E-07	358491.15625	4.96380562253762E-06
1	57	69.1348228254514	0.373992919921875	0.3740234375	1.00372314453125E-06	3.75415964981585E-07	372636.0625	5.06547257828061E-06
1	58	69.2355308251971	0.384063720703125	0.384124755859375	9.9334716796875E-07	3.81569236651558E-07	386697.40625	5.16603313371888E-06
1	59	69.3362388249428	0.394134521484375	0.3941650390625	9.832763671875E-07	3.87573152238474E-07	400869.03125	5.26556414115475E-06
1	60	69.4369468246886	0.404205322265625	0.40423583984375	9.7503662109375E-07	3.94144763049553E-07	414585.28125	5.36417292096303E-06
1	61	69.5376548244343	0.414276123046875	0.41424560546875	9.6710205078125E-07	4.00617750528909E-07	428337.03125	5.46196724826586E-06
1	62	69.63836282418	0.424346923828125	0.424407958984375	9.60693359375001E-07	4.07725906370615E-07	441772.5625	5.55903943677549E-06
1	63	69.7390708239258	0.434417724609375	0.434478759765625	9.54589843750001E-07	4.14748996035996E-07	455147.0625	5.65548180020414E-06
1	64	69.8397788236715	0.444488525390625	0.44451904296875	9.490966796875E-07	4.21891542146113E-07	468360.125	5.75134026803426E-06
1	65	69.9404868234172	0.454559326171875	0.45458984375	9.4482421875E-07	4.29507480248503E-07	481136.96875	5.84670669923071E-06
1	66	70.041194823163	0.464630126953125	0.464630126953125	9.40551757812499E-07	4.37008679909923E-07	493997.40625	5.94164293943322E-06
1	67	70.1419028229087	0.474700927734375	0.47467041015625	9.3658447265625E-07	4.44568939883538E-07	506810.03125	6.03616399530438E-06
1	68	70.2426108226545	0.484771728515625	0.484832763671875	9.344482421875E-07	4.53051114845948E-07	518843.90625	6.13037809671368E-06
1	69	70.3433188224002	0.494842529296875	0.494842529296875	9.31701660156251E-07	4.61045601696242E-07	531116.9375	6.22434617980616E-06
1	70	70.4440268221459	0.504913330078125	0.50494384765625	9.29870605468749E-07	4.69532409397289E-07	543025.9375	6.31808370599174E-06
1	71	70.5447348218917	0.514984130859375	0.514984130859375	9.28955078125E-07	4.78397112146922E-07	554369.25	6.41168298898265E-06
1	72	70.6454428216374	0.525054931640625	0.5250244140625	9.28344726562499E-07	4.87403667648323E-07	565549	6.50520541967126E-06
1	73	70.7461508213831	0.535125732421875	0.53515625	9.28955078125E-07	4.97136113608576E-07	576084.125	6.59872785035986E-06
1	74	70.8468588211289	0.545196533203125	0.545166015625	9.30175781250001E-07	5.07100196500687E-07	586089.25	6.6923425947607E-06
1	75	70.9475668208746	0.555267333984375	0.5552978515625	9.326171875E-07	5.17880323513964E-07	595418.875	6.786141966586E-06
1	76	71.0482748206203	0.565338134765625	0.5653076171875	9.3536376953125E-07	5.28768225649401E-07	604371.9375	6.88020190864336E-06
1	77	71.1489828203661	0.575408935546875	0.575439453125	9.40551757812499E-07	5.41230576800444E-07	611810.5625	6.97466202836949E-06
1	78	71.2496908201118	0.585479736328125	0.585479736328125	9.46655273437499E-07	5.54247435502475E-07	618472	7.06969012753689E-06
1	79	71.3503988198576	0.595550537109375	0.595550537109375	9.5489501953125E-07	5.68688221846969E-07	623681.6875	7.16544082024484E-06
1	80	71.4511068196033	0.605621337890625	0.6055908203125	9.661865234375E-07	5.85113639317569E-07	626784.625	7.26217513147276E-06
1	81	71.551814819349	0.615692138671875	0.61566162109375	9.814453125E-07	6.04238209689356E-07	627301	7.36024639991228E-06
1	82	71.6525228190948	0.625762939453125	0.625762939453125	1.00128173828125E-06	6.26564997219248E-07	624961.9375	7.46008436181E-06
1	83	71.7532308188405	0.635833740234375	0.635833740234375	1.02874755859375E-06	6.54112398024154E-07	618065.875	7.56230429033167E-06
1	84	71.8539388185862	0.645904541015625	0.64593505859375	1.0662841796875E-06	6.88750333210919E-07	605781.3125	7.66779794503236E-06
1	85	71.954646818332	0.655975341796875	0.655975341796875	1.116943359375E-06	7.32687226445705E-07	587295.125	7.77773220761446E-06
1	86	72.0553548180777	0.666046142578125	0.666015625	1.18377685546875E-06	7.88413842656155E-07	562619.25	7.8935827332316E-06
1	87	72.1560628178235	0.676116943359375	0.67608642578125	1.27044677734375E-06	8.58931798575213E-07	532164.3125	8.0171621448244E-06
1	88	72.2567708175692	0.686187744140625	0.686126708984375	1.37542724609375E-06	9.43717395784915E-07	498846.25	8.15039311419241E-06
1	89	72.3574788173149	0.696258544921875	0.696258544921875	1.49566650390625E-06	1.0413705240353E-06	465517.28125	8.29496366350213E-06
1	90	72.4581868170607	0.706329345703125	0.706268310546875	1.62322998046875E-06	1.1464359204183E-06	435100.59375	8.45201248012017E-06
1	91	72.5588948168064	0.716400146484375	0.716339111328125	1.7449951171875E-06	1.2500082675615E-06	410510.6875	8.62161596160149E-06
1	92	72.6596028165521	0.726470947265625	0.72637939453125	1.8499755859375E-06	1.34378410621139E-06	392642.6875	8.80263723956887E-06
1	93	72.7603108162979	0.736541748046875	0.736480712890625	1.9281005859375E-06	1.42000885716698E-06	381972.15625	8.99287897482282E-06
1	94	72.8610188160436	0.746612548828125	0.74652099609375	1.97540283203125E-06	1.47467960687209E-06	377908.25	9.18943533179117E-06
1	95	72.9617268157893	0.756683349609375	0.7568359375	1.99249267578125E-06	1.50798996401136E-06	379843.78125	9.38923494686605E-06
1	96	73.0624348155351	0.766754150390625	0.76690673828125	1.98699951171875E-06	1.52384325247112E-06	385962.21875	9.58961845753947E-06
1	97	73.1631428152808	0.776824951171875	0.7763671875	1.96624755859375E-06	1.526530013507E-06	394847.125	9.78868047241122E-06
1	98	73.2638508150266	0.786895751953125	0.78704833984375	1.937255859375E-06	1.52471397996123E-06	406269.71875	9.98523682937957E-06
1	99	73.3645588147723	0.796966552734375	0.797119140625	1.90673828125E-06	1.51989752339432E-06	418053.78125	1.01787973108003E-05
1	100	73.465266814518	0.807037353515625	0.80718994140625	1.878662109375E-06	1.51643712342775E-06	429662.125	1.03694073914085E-05
1	101	73.5659748142638	0.817108154296875	0.81695556640625	1.85577392578125E-06	1.51608480791765E-06	440223.65625	1.05574517874629E-05
1	102	73.6666828140095	0.827178955078125	0.82794189453125	1.84051513671875E-06	1.52383950080548E-06	449842.5	1.07435744212125E-05
1	103	73.7673908137552	0.837249755859375	0.83740234375	1.83563232421875E-06	1.53716280237859E-06	456192.875	1.09286829683697E-05
1	104	73.868098813501	0.847320556640625	0.84716796875	1.84051513671875E-06	1.55922543854103E-06	460288.53125	1.11137915155268E-05
1	105	73.9688068132467	0.857391357421875	0.8575439453125	1.85516357421875E-06	1.59088426698872E-06	462247.09375	1.12998841359513E-05
1	106	74.0695148129925	0.867462158203125	0.8673095703125	1.87713623046875E-06	1.62805815762113E-06	462038.71875	1.14878203021362E-05
1	107	74.1702228127382	0.877532958984375	0.877685546875	1.90277099609375E-06	1.6700345213394E-06	461267.0625	1.16781538963551E-05
1	108	74.2709308124839	0.887603759765625	0.88775634765625	1.9281005859375E-06	1.71168346696504E-06	460430.53125	1.18710531751276E-05
1	109	74.3716388122297	0.897674560546875	0.89752197265625	1.9476318359375E-06	1.74804233665782E-06	460827.34375	1.2066212548234E-05
1	110	74.4723468119754	0.907745361328125	0.9075927734375	1.9598388671875E-06	1.7787355091059E-06	463095.625	1.22629689940368E-05
1	111	74.5730548117211	0.917816162109375	0.91827392578125	1.96136474609375E-06	1.80106997049734E-06	468181.125	1.24604175653076E-05
1	112	74.6737628114669	0.927886962890625	0.927734375	1.95556640625E-06	1.81424616130244E-06	474407	1.26576505863341E-05
1	113	74.7744708112126	0.937957763671875	0.93841552734375	1.94366455078125E-06	1.82396502168558E-06	482807.34375	1.28539923025528E-05
1	114	74.8751788109583	0.948028564453125	0.94757080078125	1.92840576171875E-06	1.82730093456485E-06	491375.21875	1.30489661387401E-05
1	115	74.9758868107041	0.958099365234375	0.958251953125	1.91192626953125E-06	1.83210693194269E-06	501197.15625	1.3242342902231E-05
1	116	75.0765948104498	0.968170166015625	0.96832275390625	1.89727783203125E-06	1.83717725121824E-06	510374.78125	1.34341507873614E-05
1	117	75.1773028101956	0.978240966796875	0.97808837890625	1.8853759765625E-06	1.84406428616057E-06	518776.3125	1.36246226247749E-05
1	118	75.2780108099413	0.988311767578125	0.98846435546875	1.87591552734375E-06	1.85427552423789E-06	526923.6875	1.38140185299562E-05
1	119	75.378718809687	0.998382568359375	0.99884033203125	1.87042236328125E-06	1.86825332093576E-06	534018.625	1.40026622830192E-05
1	120	75.4794268094328	1.00845336914063	1.00860595703125	1.86798095703125E-06	1.88405670087377E-06	539944.4375	1.41909058584133E-05
1	121	75.5801348091785	1.01852416992188	1.0186767578125	1.8707275390625E-06	1.90566663604841E-06	544535.0625	1.43791648952174E-05
1	122	75.6808428089242	1.02859497070313	1.02874755859375	1.8743896484375E-06	1.92827360478987E-06	548844.0625	1.45677458931459E-05
1	123	75.78155080867	1.03866577148438	1.038818359375	1.87957763671875E-06	1.95253960555419E-06	552687.125	1.4756773452973E-05
1	124	75.8822588084157	1.04873657226563	1.048583984375	1.88507080078125E-06	1.97665508494538E-06	556257.0625	1.49463385241688E-05
1	125	75.9829668081614	1.05880737304688	1.0589599609375	1.8890380859375E-06	2.0004156340292E-06	560581.625	1.51363801705884E-05
1	126	76.0836748079072	1.06887817382813	1.06903076171875	1.8896484375E-06	2.02009232452838E-06	565730	1.53266519191675E-05
1	127	76.1843828076529	1.07894897460938	1.0784912109375	1.88690185546875E-06	2.03500712814275E-06	571567.1875	1.55168163473718E-05
1	128	76.2850908073987	1.08901977539063	1.0894775390625	1.8804931640625E-06	2.04875505005475E-06	579357.375	1.5706520571257E-05
1	129	76.3857988071444	1.09909057617188	1.0992431640625	1.87225341796875E-06	2.05806168196432E-06	587123.0625	1.58954862854443E-05
1	130	76.4865068068901	1.10916137695313	1.1090087890625	1.86309814453125E-06	2.06619210985082E-06	595249.8125	1.60835752467392E-05
1	131	76.5872148066359	1.11923217773438	1.119384765625	1.8536376953125E-06	2.07493371817691E-06	603885.4375	1.62707274284912E-05
1	132	76.6879228063816	1.12930297851563	1.129150390625	1.8450927734375E-06	2.08338724405621E-06	611974.875	1.64569737535203E-05
1	133	76.7886308061273	1.13937377929688	1.1395263671875	1.8365478515625E-06	2.092794602504E-06	620471.9375	1.66423596965615E-05
1	134	76.8893388058731	1.14944458007813	1.1492919921875	1.82952880859375E-06	2.10266262001824E-06	628190.1875	1.68269616551697E-05
1	135	76.9900468056188	1.15951538085938	1.15997314453125	1.8231201171875E-06	2.11477026823559E-06	636257.125	1.70108869497199E-05
1	136	77.0907548053646	1.16958618164063	1.16943359375	1.817626953125E-06	2.12559393730771E-06	643384.875	1.71942119777668E-05
1	137	77.1914628051103	1.17965698242188	1.17950439453125	1.81365966796875E-06	2.13921953218232E-06	650344.9375	1.73770622495795E-05
1	138	77.292170804856	1.18972778320313	1.1895751953125	1.8109130859375E-06	2.15421732718823E-06	656892.5	1.7559574189363E-05
1	139	77.3928788046018	1.19979858398438	1.19964599609375	1.80877685546875E-06	2.16989178625226E-06	663236.0625	1.77418405655771E-05
1	140	77.4935868043475	1.20986938476563	1.209716796875	1.8072509765625E-06	2.18626178138948E-06	669368.5	1.79239214048721E-05
1	141	77.5942948040932	1.21994018554688	1.22039794921875	1.807861328125E-06	2.20631022784801E-06	675050.6875	1.81059567694319E-05
1	142	77.695002803839	1.23001098632813	1.2298583984375	1.80908203125E-06	2.2249146240938E-06	679824.625	1.82880849024514E-05
1	143	77.7957108035847	1.24008178710938	1.2396240234375	1.8115234375E-06	2.24560790229589E-06	684299.25	1.84703967534006E-05
1	144	77.8964188033304	1.25015258789063	1.25030517578125	1.81549072265625E-06	2.26991733143223E-06	688687.1875	1.86530305654742E-05
1	145	77.9971268030762	1.26022338867188	1.259765625	1.8206787109375E-06	2.2936283130548E-06	691920.875	1.88361264008563E-05
1	146	78.0978348028219	1.27029418945313	1.27044677734375	1.827392578125E-06	2.32160505220236E-06	695223.8125	1.90198206837522E-05
1	147	78.1985428025677	1.28036499023438	1.2799072265625	1.8353271484375E-06	2.34904837270733E-06	697372.8125	1.92042534763459E-05
1	148	78.2992508023134	1.29043579101563	1.29058837890625	1.8450927734375E-06	2.38125517171284E-06	699470.75	1.93895775737474E-05
1	149	78.3999588020591	1.30050659179688	1.30035400390625	1.85516357421875E-06	2.41236944020784E-06	700937.6875	1.95759002963314E-05
1	150	78.5006668018049	1.31057739257813	1.31011962890625	1.86798095703125E-06	2.44727857534599E-06	701356	1.97633762581972E-05
1	151	78.6013748015506	1.32064819335938	1.3201904296875	1.88140869140625E-06	2.48381752498972E-06	701703.1875	1.99521728063701E-05
1	152	78.7020828012963	1.33071899414063	1.33087158203125	1.89666748046875E-06	2.5242206902476E-06	701689.5	2.01424136321293E-05
1	153	78.8027908010421	1.34078979492188	1.34063720703125	1.91436767578125E-06	2.56647240348684E-06	700302.875	2.0334315195214E-05
1	154	78.9034988007878	1.35086059570313	1.35101318359375	1.93389892578125E-06	2.61272271018242E-06	698595.5625	2.05280903173843E-05
1	155	79.0042068005336	1.36093139648438	1.36077880859375	1.95648193359375E-06	2.66233905676927E-06	695523.375	2.07239863811992E-05
1	156	79.1049148002793	1.37100219726563	1.37115478515625	1.98333740234375E-06	2.71946259999822E-06	691337.125	2.09223726415075E-05
1	157	79.205622800025	1.38107299804688	1.380615234375	2.0147705078125E-06	2.78162269751192E-06	685246.9375	2.11236929317238E-05
1	158	79.3063307997708	1.39114379882813	1.3909912109375	2.05169677734375E-06	2.85389228338317E-06	677971.125	2.13284565688809E-05
1	159	79.4070387995165	1.40121459960938	1.4013671875	2.0941162109375E-06	2.93462562694913E-06	669192.6875	2.15372147067683E-05
1	160	79.5077467992622	1.41128540039063	1.41082763671875	2.144775390625E-06	3.02590842693462E-06	657797.375	2.17506585613592E-05
1	161	79.608454799008	1.42135620117188	1.42120361328125	2.20367431640625E-06	3.1318697892857E-06	644924.5625	2.19696212298004E-05
1	162	79.7091627987537	1.43142700195313	1.4312744140625	2.271728515625E-06	3.25146675095311E-06	630037.6875	2.21949758270057E-05
1	163	79.8098707984994	1.44149780273438	1.44195556640625	2.3516845703125E-06	3.39102462021401E-06	613158.5625	2.24277828237973E-05
1	164	79.9105787982452	1.45156860351563	1.45172119140625	2.44598388671875E-06	3.55088673131831E-06	593512.1875	2.26693646254716E-05
1	165	80.0112867979909	1.46163940429688	1.461181640625	2.55706787109375E-06	3.73634043171478E-06	571428.5625	2.29212873819051E-05
1	166	80.1119947977367	1.47171020507813	1.47186279296875	2.69012451171875E-06	3.95949382436811E-06	547135.625	2.31855046877172E-05
1	167	80.2127027974824	1.48178100585938	1.48193359375	2.84698486328125E-06	4.21904269387596E-06	520527.375	2.34643212024821E-05
1	168	80.3134107972281	1.49185180664063	1.49200439453125	3.02978515625E-06	4.52045287602232E-06	492445.625	2.37602398556191E-05
1	169	80.4141187969739	1.50192260742188	1.5020751953125	3.233642578125E-06	4.85717418996501E-06	464514.9375	2.40756289713318E-05
1	170	80.5148267967196	1.49185180664063	1.49169921875	2.8338623046875E-06	4.2272699829482E-06	526383.8125	2.43811518885195E-05
1	171	80.6155347964653	1.48178100585938	1.48162841796875	2.5360107421875E-06	3.75742547475966E-06	584235.875	2.4651546482346E-05
1	172	80.7162427962111	1.47171020507813	1.4715576171875	2.303466796875E-06	3.3896840250236E-06	638844.75	2.48952328547603E-05
1	173	80.8169507959568	1.46163940429688	1.4617919921875	2.11669921875E-06	3.09417373500764E-06	690599.8125	2.51178062171675E-05
1	174	80.9176587957026	1.45156860351563	1.4520263671875	1.9659423828125E-06	2.85460009763483E-06	738590.5	2.53233829425881E-05
1	175	81.0183667954483	1.44149780273438	1.441650390625	1.84234619140625E-06	2.65601897808665E-06	782507.875	2.55151462624781E-05
1	176	81.119074795194	1.43142700195313	1.43157958984375	1.739501953125E-06	2.49023560172645E-06	822982.4375	2.56955063377973E-05
1	177	81.2197827949398	1.42135620117188	1.42120361328125	1.6546630859375E-06	2.35161314776633E-06	858908.1875	2.5866416763165E-05
1	178	81.3204907946855	1.41128540039063	1.41143798828125	1.583251953125E-06	2.23466190618637E-06	891480.375	2.60294582403731E-05
1	179	81.4211987944312	1.40121459960938	1.40106201171875	1.52374267578125E-06	2.1348578229663E-06	919487.3125	2.61859076999826E-05
1	180	81.521906794177	1.39114379882813	1.39068603515625	1.4727783203125E-06	2.04817229132459E-06	944260.25	2.63367946899962E-05
1	181	81.6226147939227	1.38107299804688	1.38092041015625	1.4306640625E-06	1.97563326764794E-06	965230.375	2.64829941443168E-05
1	182	81.7233227936684	1.37100219726563	1.37115478515625	1.3922119140625E-06	1.90893797480385E-06	984875.125	2.66251372522675E-05
1	183	81.8240307934142	1.36093139648438	1.36077880859375	1.35986328125E-06	1.85047315426345E-06	1000673.25	2.67637151409872E-05
1	184	81.9247387931599	1.35086059570313	1.3507080078125	1.33026123046875E-06	1.7967944359043E-06	1015370.5625	2.68991734628798E-05
1	185	82.0254467929057	1.34078979492188	1.34063720703125	1.30340576171875E-06	1.74739420799597E-06	1028564.75	2.70317905233242E-05
1	186	82.1261547926514	1.33071899414063	1.33056640625	1.27838134765625E-06	1.70097121099388E-06	1040821.25	2.71617936959956E-05
1	187	82.2268627923971	1.32064819335938	1.3201904296875	1.2554931640625E-06	1.65748997460469E-06	1051531.375	2.72893830697285E-05
1	188	82.3275707921429	1.31057739257813	1.31103515625	1.234130859375E-06	1.61798891440412E-06	1062314.5	2.74147460004315E-05
1	189	82.4282787918886	1.30050659179688	1.3006591796875	1.21307373046875E-06	1.577795387675E-06	1072201.25	2.75379734375747E-05
1	190	82.5289867916343	1.29043579101563	1.2908935546875	1.19537353515625E-06	1.54309998379176E-06	1079908.125	2.76592472800985E-05
1	191	82.6296947913801	1.28036499023438	1.28082275390625	1.17828369140625E-06	1.50917253449734E-06	1087024.125	2.77787712548161E-05
1	192	82.7304027911258	1.27029418945313	1.2701416015625	1.163330078125E-06	1.47759385527024E-06	1091815.375	2.78966799669433E-05
1	193	82.8311107908715	1.26022338867188	1.26007080078125	1.14959716796875E-06	1.44857369832607E-06	1096097.75	2.80131462204736E-05
1	194	82.9318187906173	1.25015258789063	1.24969482421875	1.13800048828125E-06	1.42215333198692E-06	1098149.625	2.81283355434425E-05
1	195	83.032526790363	1.24008178710938	1.240234375	1.12640380859375E-06	1.39700466661452E-06	1101056.75	2.82423570752144E-05
1	196	83.1332347901088	1.23001098632813	1.2298583984375	1.11602783203125E-06	1.37255608478881E-06	1101996.25	2.83552726614289E-05
1	197	83.2339427898545	1.21994018554688	1.21917724609375	1.1065673828125E-06	1.34910169435898E-06	1101765.125	2.84671896224609E-05
1	198	83.3346507896002	1.20986938476563	1.21002197265625	1.09710693359375E-06	1.32752336412523E-06	1102920.75	2.85781534330454E-05
1	199	83.435358789346	1.19979858398438	1.1993408203125	1.08734130859375E-06	1.30409273424448E-06	1103003.125	2.86881495412672E-05
1	200	83.5360667890917	1.18972778320313	1.1895751953125	1.0784912109375E-06	1.28294641399407E-06	1102999.375	2.87972070509568E-05
1	201	83.6367747888374	1.17965698242188	1.17950439453125	1.0693359375E-06	1.261286342924E-06	1103025.125	2.89053587039234E-05
1	202	83.7374827885832	1.16958618164063	1.16943359375	1.05926513671875E-06	1.23874019664072E-06	1104004.75	2.90125426545274E-05
1	203	83.8381907883289	1.15951538085938	1.1590576171875	1.04949951171875E-06	1.21643040529307E-06	1104390.875	2.91187279799487E-05
1	204	83.9388987880747	1.14944458007813	1.14959716796875	1.0394287109375E-06	1.19492426620127E-06	1105989.5	2.92239128611982E-05
1	205	84.0396067878204	1.13937377929688	1.13983154296875	1.0284423828125E-06	1.17225113172026E-06	1108308.625	2.93280390906148E-05
1	206	84.1403147875661	1.12930297851563	1.12945556640625	1.01654052734375E-06	1.14813735763164E-06	1111077.75	2.94310120807495E-05
1	207	84.2410227873119	1.11923217773438	1.11907958984375	1.0040283203125E-06	1.12358748083352E-06	1114589.75	2.95327554340474E-05
1	208	84.3417307870576	1.10916137695313	1.1090087890625	9.89379882812499E-07	1.09723089281033E-06	1120913.125	2.96331309073139E-05
1	209	84.4424387868033	1.09909057617188	1.0992431640625	9.722900390625E-07	1.06878314909409E-06	1130571.375	2.97319093078841E-05
1	210	84.5431467865491	1.08901977539063	1.08917236328125	9.53369140625E-07	1.03838328868733E-06	1142445.625	2.98288741760189E-05
1	211	84.6438547862948	1.07894897460938	1.07879638671875	9.3109130859375E-07	1.00445788575598E-06	1158636.5	2.99237635772442E-05
1	212	84.7445627860405	1.06887817382813	1.0687255859375	9.0606689453125E-07	9.6833684892772E-07	1179521.75	3.00162719213404E-05
1	213	84.8452707857863	1.05880737304688	1.058349609375	8.79821777343751E-07	9.31159036099416E-07	1202913.625	3.01061991194729E-05
1	214	84.945978785532	1.04873657226563	1.04827880859375	8.52050781249999E-07	8.93186722805694E-07	1230300.875	3.01934051094577E-05
1	215	85.0466867852778	1.03866577148438	1.03851318359375	8.26110839843749E-07	8.57926977460011E-07	1257111.25	3.02779080811888E-05
1	216	85.1473947850235	1.02859497070313	1.02874755859375	8.026123046875E-07	8.25685447125579E-07	1281749	3.03599208564265E-05
1	217	85.2481027847692	1.01852416992188	1.01837158203125	7.82165527343751E-07	7.96535118752217E-07	1301989.875	3.043971992156E-05
1	218	85.348810784515	1.00845336914063	1.00830078125	7.647705078125E-07	7.71118720876984E-07	1318435.75	3.05176145047881E-05
1	219	85.4495187842607	0.998382568359375	0.99853515625	7.5103759765625E-07	7.49937441923976E-07	1329540.875	3.05939429381397E-05
1	220	85.5502267840064	0.988311767578125	0.98876953125	7.3883056640625E-07	7.30533088244556E-07	1338290	3.06689616991207E-05
1	221	85.6509347837522	0.978240966796875	0.9783935546875	7.2784423828125E-07	7.12118094270409E-07	1344234.875	3.07428163068835E-05
1	222	85.7516427834979	0.968170166015625	0.96832275390625	7.171630859375E-07	6.94445304816327E-07	1350212.75	3.08155758830253E-05
1	223	85.8523507832437	0.958099365234375	0.958251953125	7.04345703125001E-07	6.74940622502618E-07	1360485.375	3.08871567540336E-05
1	224	85.9530587829894	0.948028564453125	0.94757080078125	6.8817138671875E-07	6.52091102892882E-07	1376940.125	3.09572751575615E-05
1	225	86.0537667827351	0.937957763671875	0.93841552734375	6.6680908203125E-07	6.25743950877222E-07	1407322.75	3.10255054500885E-05
1	226	86.1544747824809	0.927886962890625	0.92803955078125	6.3812255859375E-07	5.92202923144214E-07	1454328.125	3.10912109853234E-05
1	227	86.2551827822266	0.917816162109375	0.91766357421875	6.0150146484375E-07	5.51975972484797E-07	1525621.625	3.11536314256955E-05
1	228	86.3558907819723	0.907745361328125	0.9075927734375	5.572509765625E-07	5.05756986513006E-07	1628696.625	3.12119809677824E-05
1	229	86.4565987817181	0.897674560546875	0.89813232421875	5.0537109375E-07	4.53890095286624E-07	1777174	3.12654883600771E-05
1	230	86.5573067814638	0.887603759765625	0.887451171875	4.51049804687501E-07	4.00284676516094E-07	1967523.75	3.13136479235254E-05
1	231	86.6580147812095	0.877532958984375	0.877685546875	3.9825439453125E-07	3.49542119693069E-07	2203831.5	3.13564123644028E-05
1	232	86.7587227809553	0.867462158203125	0.86761474609375	3.52783203125E-07	3.0607989742748E-07	2459342.75	3.13942291541025E-05
1	233	86.859430780701	0.857391357421875	0.85784912109375	3.16772460937501E-07	2.71742976565292E-07	2708092.5	3.14279459416866E-05
1	234	86.9601387804468	0.847320556640625	0.8477783203125	2.947998046875E-07	2.49924880790786E-07	2875776.5	3.14587414322887E-05
1	235	87.0608467801925	0.837249755859375	0.83770751953125	2.82897949218749E-07	2.36985727042338E-07	2961165.25	3.14878307108302E-05
1	236	87.1615547799382	0.827178955078125	0.8270263671875	2.789306640625E-07	2.3068301402418E-07	2964989.25	3.15161196340341E-05
1	237	87.262262779684	0.817108154296875	0.81787109375	2.777099609375E-07	2.27130939833842E-07	2945055.25	3.15441502607428E-05
1	238	87.3629707794297	0.807037353515625	0.8074951171875	2.7496337890625E-07	2.22031587782112E-07	2936737	3.15719771606382E-05
1	239	87.4636787791754	0.796966552734375	0.797119140625	2.67639160156249E-07	2.13340300092568E-07	2978335.25	3.15993020194583E-05
1	240	87.5643867789212	0.786895751953125	0.7867431640625	2.50854492187499E-07	1.97358062337116E-07	3136253	3.1625408155378E-05
1	241	87.6650947786669	0.776824951171875	0.77728271484375	2.215576171875E-07	1.72212907045832E-07	3508264.5	3.16491968987975E-05
1	242	87.7658027784126	0.766754150390625	0.76751708984375	1.7578125E-07	1.34915097760313E-07	4366319.5	3.16692057822365E-05
1	243	87.8665107781584	0.756683349609375	0.7562255859375	1.0955810546875E-07	8.2850640126253E-08	6902507	3.16835721605457E-05
1	244	87.9672187779041	0.746612548828125	0.746551513671875	2.22778320312506E-08	1.66315476946011E-08	33510960	3.16902114718687E-05
1	245	88.0679267776499	0.736541748046875	0.736480712890625	-8.63647460937506E-08	-6.36059667158406E-08	-8527562	3.16869845846668E-05
1	246	88.1686347773956	0.726470947265625	0.726409912109375	-2.1026611328125E-07	-1.52739389136514E-07	-3454717	3.16720470436849E-05
1	247	88.2693427771413	0.716400146484375	0.716339111328125	-3.39355468749999E-07	-2.43093580820641E-07	-2110881.25	3.16443729388993E-05
1	248	88.3700507768871	0.706329345703125	0.706268310546875	-4.5928955078125E-07	-3.24381659311257E-07	-1537740.875	3.16041550831869E-05
1	249	88.4707587766328	0.696258544921875	0.696197509765625	-5.5877685546875E-07	-3.89019049862327E-07	-1245931.25	3.15528923238162E-05
1	250	88.5714667763785	0.686187744140625	0.686187744140625	-6.2713623046875E-07	-4.30333187750875E-07	-1094160.625	3.14931785396766E-05
1	251	88.6721747761243	0.676116943359375	0.67608642578125	-6.6192626953125E-07	-4.47519369117799E-07	-1021392.375	3.14282697218005E-05
1	252	88.77288277587	0.666046142578125	0.665985107421875	-6.65893554687499E-07	-4.43475187239528E-07	-1000137.5	3.13614073093049E-05
1	253	88.8735907756158	0.655975341796875	0.65594482421875	-6.4544677734375E-07	-4.23377485958554E-07	-1016264.75	3.12953743559774E-05
1	254	88.9742987753615	0.645904541015625	0.6458740234375	-6.085205078125E-07	-3.93027590916972E-07	-1061384.125	3.12322335958015E-05
1	255	89.0750067751072	0.635833740234375	0.63580322265625	-5.62438964843751E-07	-3.57600498546162E-07	-1130439.5	3.1173272873275E-05
1	256	89.175714774853	0.625762939453125	0.625762939453125	-5.13916015625E-07	-3.21589595841942E-07	-1217636.625	3.11190706270281E-05
1	257	89.2764227745987	0.615692138671875	0.61566162109375	-4.64782714843751E-07	-2.86148889472315E-07	-1324622.5	3.10697905661073E-05
1	258	89.3771307743444	0.605621337890625	0.6055908203125	-4.1656494140625E-07	-2.5226790967281E-07	-1453772.875	3.10254108626395E-05
1	259	89.4778387740902	0.595550537109375	0.5955810546875	-3.7261962890625E-07	-2.21925176902005E-07	-1598362.125	3.09856732201297E-05
1	260	89.5785467738359	0.585479736328125	0.585479736328125	-3.3233642578125E-07	-1.94576230683197E-07	-1761708	3.09501738229301E-05
1	261	89.6792547735816	0.575408935546875	0.575408935546875	-2.9571533203125E-07	-1.70157235857005E-07	-1945820.5	3.091854887316E-05
1	262	89.7799627733274	0.565338134765625	0.56536865234375	-2.6123046875E-07	-1.47691523011417E-07	-2164252.25	3.0890507332515E-05
1	263	89.8806707730731	0.555267333984375	0.5552978515625	-2.30712890625E-07	-1.28114365338661E-07	-2406878.25	3.08657363348175E-05
1	264	89.9813787728189	0.545196533203125	0.545196533203125	-2.032470703125E-07	-1.10809594389139E-07	-2682432.5	3.08438829961233E-05
1	265	90.0820867725646	0.535125732421875	0.53515625	-1.7730712890625E-07	-9.48870209072084E-08	-3018244.5	3.08247217617463E-05
1	266	90.1827947723103	0.525054931640625	0.5250244140625	-1.5380859375E-07	-8.07532600788363E-08	-3413492.25	3.08080489048734E-05
1	267	90.2835027720561	0.514984130859375	0.5150146484375	-1.31835937499999E-07	-6.78974387824383E-08	-3906481.75	3.07936643366702E-05
1	268	90.3842107718018	0.504913330078125	0.5048828125	-1.11083984375E-07	-5.6084395794187E-08	-4545055	3.07814334519207E-05
1	269	90.4849187715475	0.494842529296875	0.494842529296875	-9.21630859374994E-08	-4.56062139164715E-08	-5369205.5	3.07711998175364E-05
1	270	90.5856267712933	0.484771728515625	0.484771728515625	-7.44628906250003E-08	-3.60975036528544E-08	-6510246	3.07628070004284E-05
1	271	90.686334771039	0.474700927734375	0.4747314453125	-5.79833984375E-08	-2.75265410465408E-08	-8187369	3.0756138585275E-05
1	272	90.7870427707848	0.464630126953125	0.46466064453125	-4.21142578125006E-08	-1.95688372173208E-08	-11033334	3.07510999846272E-05
1	273	90.8877507705305	0.454559326171875	0.454559326171875	-2.83813476562506E-08	-1.29010055971435E-08	-16016129	3.07475493173115E-05
1	274	90.9884587702762	0.444488525390625	0.444580078125	-1.52587890625E-08	-6.78375311480295E-09	-29136002	3.0745351978112E-05
1	275	91.089166770022	0.434417724609375	0.434478759765625	-3.35693359374972E-09	-1.45851630772853E-09	-129427280	3.07444133795798E-05
1	276	91.1898747697677	0.424346923828125	0.424346923828125	8.23974609374945E-09	3.4965108586249E-09	51500000	3.07446607621387E-05
1	277	91.2905827695134	0.414276123046875	0.414276123046875	1.80053710937503E-08	7.4591950394165E-09	23008474	3.07459813484456E-05
1	278	91.3912907692592	0.404205322265625	0.4041748046875	2.77709960937497E-08	1.12243370153919E-08	14553846	3.07482878270093E-05
1	279	91.4919987690049	0.394134521484375	0.3941650390625	3.75366210937506E-08	1.47956233931268E-08	10500814	3.07515765598509E-05
1	280	91.5927067687506	0.384063720703125	0.384124755859375	4.57763671875E-08	1.7583836608992E-08	8391333	3.07557711494155E-05
1	281	91.6934147684964	0.373992919921875	0.374053955078125	5.4931640625E-08	2.05473966730096E-08	6809444.5	3.07608424918726E-05
1	282	91.7941227682421	0.363922119140625	0.363983154296875	6.28662109374997E-08	2.28822401027173E-08	5789806	3.07667723973282E-05
1	283	91.8948307679879	0.353851318359375	0.353851318359375	7.04956054687497E-08	2.49449616518405E-08	5019480.5	3.07734881062061E-05
1	284	91.9955387677336	0.343780517578125	0.343841552734375	7.781982421875E-08	2.67576876211706E-08	4418431.5	3.0780956876697E-05
1	285	92.0962467674793	0.333709716796875	0.333770751953125	8.544921875E-08	2.85204482253221E-08	3906071.5	3.0789178708801E-05
1	286	92.1969547672251	0.323638916015625	0.323699951171875	9.21630859374994E-08	2.98331848114231E-08	3512251.75	3.07981208607089E-05
1	287	92.2976627669708	0.313568115234375	0.313629150390625	9.82666015624995E-08	3.08192689146836E-08	3191615	3.08077105728444E-05
1	288	92.3983707667165	0.303497314453125	0.30352783203125	1.04675292968751E-07	3.1771861586094E-08	2899708.5	3.08179296553135E-05
1	289	92.4990787664623	0.293426513671875	0.293426513671875	1.1016845703125E-07	3.23263478207991E-08	2663435	3.0828745366307E-05
1	290	92.599786766208	0.283355712890625	0.283355712890625	1.15966796875E-07	3.28598517285172E-08	2443421.25	3.08401322399732E-05
1	291	92.7004947659537	0.273284912109375	0.273284912109375	1.20849609375E-07	3.302637452407E-08	2261363.75	3.08520575345028E-05
1	292	92.8012027656995	0.263214111328125	0.263275146484375	1.251220703125E-07	3.29415321687065E-08	2104146.25	3.0864444852341E-05
1	293	92.9019107654452	0.253143310546875	0.253204345703125	1.2847900390625E-07	3.25314424287626E-08	1970783.875	3.08772141579539E-05
1	294	93.002618765191	0.243072509765625	0.2431640625	1.3153076171875E-07	3.1983553583359E-08	1848724	3.08903072436806E-05
1	295	93.1033267649367	0.233001708984375	0.233001708984375	1.33361816406249E-07	3.1073529527248E-08	1747139.75	3.09036440739874E-05
1	296	93.2040347646824	0.222930908203125	0.222991943359375	1.3458251953125E-07	3.00108169426494E-08	1656916.125	3.09171373373829E-05
1	297	93.3047427644282	0.212860107421875	0.212860107421875	1.3427734375E-07	2.8582290312329E-08	1585227.25	3.09306742565241E-05
1	298	93.4054507641739	0.202789306640625	0.202850341796875	1.3275146484375E-07	2.69286797305313E-08	1528046	3.09441202261951E-05
1	299	93.5061587639196	0.192718505859375	0.192779541015625	1.28784179687499E-07	2.48269547142854E-08	1496919.375	3.09572897094768E-05
1	300	93.6068667636654	0.182647705078125	0.182708740234375	1.21459960937501E-07	2.2191796844595E-08	1504271.375	3.09698916680645E-05
1	301	93.7075747634111	0.172576904296875	0.172637939453125	1.0986328125E-07	1.89665705363495E-08	1571388.875	3.09815404762048E-05
1	302	93.8082827631569	0.162506103515625	0.16253662109375	9.18579101562497E-08	1.49302739060886E-08	1769435.25	3.09916977130342E-05
1	303	93.9089907629026	0.152435302734375	0.1524658203125	6.59179687499997E-08	1.00502370870004E-08	2312963	3.09996430587489E-05
1	304	94.0096987626483	0.142364501953125	0.1424560546875	2.83813476562506E-08	4.04309474788533E-09	5019355	3.10043906210922E-05
1	305	94.1104067623941	0.132293701171875	0.132415771484375	-2.71606445312503E-08	-3.59649754422264E-09	-4875281	3.10044524667319E-05
1	306	94.2111147621398	0.122222900390625	0.122314453125	-1.02844238281249E-07	-1.25793357952375E-08	-1189317.625	3.09979041048791E-05
1	307	94.3118227618855	0.112152099609375	0.112274169921875	-2.06909179687501E-07	-2.32305570335711E-08	-542625.375	3.09823080897331E-05
1	308	94.4125307616313	0.102081298828125	0.102142333984375	-3.45458984374999E-07	-3.52859856889154E-08	-295671.375	3.09544921037741E-05
1	309	94.513238761377	0.092010498046875	0.092132568359375	-5.2215576171875E-07	-4.81075481673088E-08	-176446.53125	3.09108072542585E-05
1	310	94.6139467611227	0.081939697265625	0.08209228515625	-7.37915039062501E-07	-6.05771290906887E-08	-111248.96875	3.08473572658841E-05
1	311	94.7146547608685	0.071868896484375	0.071929931640625	-9.86328124999999E-07	-7.09465126647046E-08	-72926.9765625	3.0760533263674E-05
1	312	94.8153627606142	0.061798095703125	0.061859130859375	-1.251220703125E-06	-7.73994202063477E-08	-49439.02734375	3.06478650600184E-05
1	313	94.91607076036	0.051727294921875	0.051788330078125	-1.51153564453125E-06	-7.82799034482196E-08	-34262.0625	3.05087487504352E-05
1	314	95.0167787601057	0.041656494140625	0.0417938232421875	-1.74163818359375E-06	-7.27897173646852E-08	-23996.84765625	3.03449378407095E-05
1	315	95.1174867598514	0.031585693359375	0.0317230224609375	-1.9207763671875E-06	-6.09328338896375E-08	-16515.728515625	3.01605214190204E-05
1	316	95.2181947595972	0.021514892578125	0.0216583251953125	-2.03155517578125E-06	-4.40000818002773E-08	-10660.958984375	2.99615057883784E-05
1	317	95.3189027593429	0.011444091796875	0.01158447265625	-2.07489013671875E-06	-2.40365078951754E-08	-5583.17431640625	2.97547285299515E-05
1	318	95.4196107590886	0.001373291015625	0.00152587890625	-2.06085205078125E-06	-3.14461057193682E-09	-740.411682128906	2.95464778901078E-05
1	319	95.5203187588344	-0.008697509765625	-0.008563232421875	-2.005615234375E-06	1.71745497823395E-08	4269.62890625	2.93417142529506E-05
1	320	95.6210267585801	-0.018768310546875	-0.0185943603515625	-1.9256591796875E-06	3.58063978467271E-08	9656.1015625	2.91437590931309E-05
1	321	95.7217347583259	-0.028839111328125	-0.028668212890625	-1.8353271484375E-06	5.26155510272019E-08	15620.2197265625	2.89543786493596E-05
1	322	95.8224427580716	-0.038909912109375	-0.0387298583984375	-1.7431640625E-06	6.75124951499129E-08	22218.13671875	2.87741877400549E-05
1	323	95.9231507578173	-0.048980712890625	-0.048797607421875	-1.6546630859375E-06	8.074359669763E-08	29490.962890625	2.86030935967574E-05
1	324	96.0238587575631	-0.059051513671875	-0.058929443359375	-1.573486328125E-06	9.27246759374611E-08	37451.51171875	2.84405432466883E-05
1	325	96.1245667573088	-0.069122314453125	-0.06903076171875	-1.4990234375E-06	1.03478726032336E-07	46050.4921875	2.82858309219591E-05
1	326	96.2252747570545	-0.079193115234375	-0.079071044921875	-1.43341064453125E-06	1.13341272367506E-07	55162.87109375	2.81381708191475E-05
1	327	96.3259827568003	-0.089263916015625	-0.089111328125	-1.37359619140625E-06	1.22402980196057E-07	64874.47265625	2.7996826247545E-05
1	328	96.426690756546	-0.099334716796875	-0.099212646484375	-1.32171630859375E-06	1.31130960312476E-07	75063.5	2.78611059911782E-05
1	329	96.5273987562917	-0.109405517578125	-0.1092529296875	-1.2750244140625E-06	1.39300141199783E-07	85686.9375	2.77303497568937E-05
1	330	96.6281067560375	-0.119476318359375	-0.119384765625	-1.234130859375E-06	1.47336422173794E-07	96735.90625	2.76040045719128E-05
1	331	96.7288147557832	-0.129547119140625	-0.129364013671875	-1.19720458984375E-06	1.5487519533508E-07	108055.0625	2.74815774901072E-05
1	332	96.829522755529	-0.139617919921875	-0.13946533203125	-1.16485595703125E-06	1.62457013175299E-07	119727.5390625	2.73626374109881E-05
1	333	96.9302307552747	-0.149688720703125	-0.14947509765625	-1.136474609375E-06	1.69874653010993E-07	131525.25	2.72467568720458E-05
1	334	97.0309387550204	-0.159759521484375	-0.15960693359375	-1.11053466796875E-06	1.77249035004934E-07	143720.8125	2.7133610274177E-05
1	335	97.1316467547662	-0.169830322265625	-0.169677734375	-1.08856201171875E-06	1.847047172987E-07	155873.296875	2.70228774752468E-05
1	336	97.2323547545119	-0.179901123046875	-0.179718017578125	-1.06842041015625E-06	1.92014397271123E-07	168209.09375	2.69142637989717E-05
1	337	97.3330627542576	-0.189971923828125	-0.189788818359375	-1.05133056640625E-06	1.99530774125378E-07	180522.5	2.6807527319761E-05
1	338	97.4337707540034	-0.200042724609375	-0.199859619140625	-1.03668212890625E-06	2.07190879564223E-07	192787.765625	2.67023860942572E-05
1	339	97.5344787537491	-0.189971923828125	-0.18975830078125	-9.27734375E-07	1.76045290345428E-07	204539.484375	2.66034712694818E-05
2	340	97.6351867534948	-0.179901123046875	-0.1796875	-8.53881835937501E-07	1.5343189829764E-07	210436.03125	2.65137587120989E-05
2	341	97.7358947532406	-0.169830322265625	-0.169647216796875	-7.94372558593751E-07	1.34763084247425E-07	213561.28125	2.64307636825833E-05
2	342	97.8366027529863	-0.159759521484375	-0.1595458984375	-7.4493408203125E-07	1.18851176011958E-07	214174.515625	2.63532529061195E-05
2	343	97.9373107527321	-0.149688720703125	-0.149505615234375	-7.01904296875E-07	1.04938635558938E-07	213000	2.62803987425286E-05
2	344	98.0380187524778	-0.139617919921875	-0.139434814453125	-6.6375732421875E-07	9.25508771842942E-08	210068.96875	2.62116318481276E-05
2	345	98.1387267522235	-0.129547119140625	-0.12939453125	-6.28662109375E-07	8.13454406056735E-08	205825.234375	2.61465538642369E-05
2	346	98.2394347519693	-0.119476318359375	-0.11932373046875	-5.9661865234375E-07	7.11907617301222E-08	200000	2.6084855562658E-05
2	347	98.340142751715	-0.109405517578125	-0.109283447265625	-5.657958984375E-07	6.1832125197725E-08	193149.953125	2.60263241216308E-05
2	348	98.4408507514607	-0.099334716796875	-0.09918212890625	-5.3680419921875E-07	5.32413828580047E-08	184764.078125	2.59708031080663E-05
2	349	98.5415587512065	-0.089263916015625	-0.089111328125	-5.078125E-07	4.52518449378658E-08	175480.765625	2.5918203391484E-05
2	350	98.6422667509522	-0.079193115234375	-0.079071044921875	-4.78210449218749E-07	3.78125974975774E-08	165347.796875	2.58685522567248E-05
2	351	98.742974750698	-0.069122314453125	-0.069061279296875	-4.46472167968751E-07	3.08339380694633E-08	154682.171875	2.58219915849622E-05
2	352	98.8436827504437	-0.059051513671875	-0.058990478515625	-4.11376953125001E-07	2.42673223738166E-08	143397.640625	2.57787942246068E-05
2	353	98.9443907501894	-0.048980712890625	-0.048797607421875	-3.7078857421875E-07	1.8093594178481E-08	131604.9375	2.57394094660413E-05
2	354	99.0450987499352	-0.038909912109375	-0.0387359619140625	-3.2012939453125E-07	1.24005197221777E-08	121000.96875	2.5704619474709E-05
2	355	99.1458067496809	-0.028839111328125	-0.0286651611328125	-2.5665283203125E-07	7.35699501319687E-09	111688.4609375	2.56755756709026E-05
2	356	99.2465147494266	-0.018768310546875	-0.018603515625	-1.751708984375E-07	3.25879434548426E-09	106202.0859375	2.56538314715726E-05
2	357	99.3472227491724	-0.008697509765625	-0.0085601806640625	-6.74438476562497E-08	5.77331460416275E-10	126923.0859375	2.56416151387384E-05
2	358	99.4479307489181	0.001373291015625	0.0015106201171875	7.23266601562494E-08	1.09258102565235E-10	20886.076171875	2.56418607023079E-05
2	359	99.5486387486638	0.011444091796875	0.0115875244140625	2.49633789062501E-07	2.89263768493697E-09	46418.09375	2.56580733548617E-05
2	360	99.6493467484096	0.021514892578125	0.021649169921875	4.6539306640625E-07	1.00753734244563E-08	46518.03515625	2.56940766121261E-05
2	361	99.7500547481553	0.031585693359375	0.031732177734375	7.15026855468751E-07	2.26893597243816E-08	44379.00390625	2.57535157288658E-05
2	362	99.8507627479011	0.041656494140625	0.0417938232421875	9.87548828125E-07	4.12734380006441E-08	42320.76953125	2.58392483374337E-05
2	363	99.9514707476468	0.051727294921875	0.051849365234375	1.26068115234375E-06	6.53655121141128E-08	41128.05859375	2.59524549619528E-05
2	364	100.052178747393	0.061798095703125	0.061859130859375	1.51092529296875E-06	9.3464521455644E-08	40941.2265625	2.60920169239398E-05
2	365	100.152886747138	0.071868896484375	0.07196044921875	1.71539306640625E-06	1.23440457855395E-07	41949.83203125	2.62544745055493E-05
2	366	100.253594746884	0.081939697265625	0.082000732421875	1.8597412109375E-06	1.52500135186528E-07	44092.55078125	2.64344962488394E-05
2	367	100.35430274663	0.092010498046875	0.092071533203125	1.93511962890625E-06	1.78169429432273E-07	47579.24609375	2.66255829046713E-05
2	368	100.455010746375	0.102081298828125	0.1021728515625	1.94915771484375E-06	1.99150989033114E-07	52418.9765625	2.6821171559277E-05
2	369	100.555718746121	0.112152099609375	0.112213134765625	1.91680908203125E-06	2.15091148447755E-07	58541.63671875	2.70158398052445E-05
2	370	100.656426745867	0.122222900390625	0.12237548828125	1.85394287109375E-06	2.26877162390338E-07	66008.2265625	2.72057113761548E-05
2	371	100.757134745613	0.132293701171875	0.13238525390625	1.77581787109375E-06	2.35092102229828E-07	74548.890625	2.73884852504125E-05
2	372	100.857842745358	0.142364501953125	0.142486572265625	1.6925048828125E-06	2.41159199276808E-07	84186.8046875	2.75631282420363E-05
2	373	100.958550745104	0.152435302734375	0.15252685546875	1.611328125E-06	2.45770820583857E-07	94659.09375	2.77294893749058E-05
2	374	101.05925874485	0.162506103515625	0.16259765625	1.534423828125E-06	2.49493695037017E-07	105966.59375	2.78878906101454E-05
2	375	101.159966744596	0.172576904296875	0.172576904296875	1.46484375E-06	2.52798201927362E-07	117812.5	2.80389158433536E-05
2	376	101.260674744341	0.182647705078125	0.182708740234375	1.40167236328125E-06	2.56097791861976E-07	130350.5390625	2.81832562905038E-05
2	377	101.361382744087	0.192718505859375	0.192779541015625	1.34521484375E-06	2.59329908658401E-07	143307.625	2.83215740637388E-05
2	378	101.462090743833	0.202789306640625	0.202880859375	1.295166015625E-06	2.62764388025971E-07	156644.6875	2.84545276372228E-05
2	379	101.562798743579	0.212860107421875	0.21295166015625	1.2506103515625E-06	2.66319545971783E-07	170278.1875	2.85827172774589E-05
2	380	101.663506743324	0.222930908203125	0.222991943359375	1.2109375E-06	2.70029318016896E-07	184148.1875	2.87066650344059E-05
2	381	101.76421474307	0.233001708984375	0.233001708984375	1.175537109375E-06	2.7390217383072E-07	198208.71875	2.88268347503617E-05
2	382	101.864922742816	0.243072509765625	0.24310302734375	1.1431884765625E-06	2.77912562296478E-07	212653.5	2.89435920421965E-05
2	383	101.965630742562	0.253143310546875	0.253173828125	1.11419677734375E-06	2.8208543767505E-07	227225.421875	2.90572606900241E-05
2	384	102.066338742307	0.263214111328125	0.263275146484375	1.08795166015625E-06	2.86430633877899E-07	241991.578125	2.91681462840643E-05
2	385	102.167046742053	0.273284912109375	0.27337646484375	1.06414794921875E-06	2.90912993250458E-07	256897.0625	2.92765143967699E-05
2	386	102.267754741799	0.283355712890625	0.28338623046875	1.04339599609375E-06	2.95684060347412E-07	271599.875	2.93826360575622E-05
2	387	102.368462741544	0.293426513671875	0.293426513671875	1.0235595703125E-06	3.00339507930403E-07	286672.625	2.94867168122437E-05
2	388	102.46917074129	0.303497314453125	0.303497314453125	1.00555419921875E-06	3.05182993542985E-07	301820.9375	2.95888912660303E-05
2	389	102.569878741036	0.313568115234375	0.31365966796875	9.89379882812499E-07	3.10328545083394E-07	317026.53125	2.96893431368517E-05
2	390	102.670586740782	0.323638916015625	0.323638916015625	9.7381591796875E-07	3.15164726316652E-07	332340.96875	2.97881979349768E-05
2	391	102.771294740527	0.333709716796875	0.333740234375	9.600830078125E-07	3.20418308774606E-07	347616.03125	2.98855775326956E-05
2	392	102.872002740273	0.343780517578125	0.343780517578125	9.47265625E-07	3.25651456023479E-07	362918.8125	2.99816201732028E-05
2	393	102.972710740019	0.353851318359375	0.353912353515625	9.3505859375E-07	3.30928770608807E-07	378492.1875	3.00764022540534E-05
2	394	103.073418739765	0.363922119140625	0.363983154296875	9.2437744140625E-07	3.3645781627456E-07	393760.3125	3.01700329146115E-05
2	395	103.17412673951	0.373992919921875	0.374053955078125	9.1400146484375E-07	3.41885851184998E-07	409248.78125	3.02626031043474E-05
2	396	103.274834739256	0.384063720703125	0.38409423828125	9.0545654296875E-07	3.47780655829411E-07	424199.53125	3.03542201436358E-05
2	397	103.375542739002	0.394134521484375	0.39422607421875	8.97216796875E-07	3.53706241185137E-07	439387.78125	3.04449913528515E-05
2	398	103.476250738748	0.404205322265625	0.404266357421875	8.892822265625E-07	3.59506884706207E-07	454598.5	3.05349494738039E-05
2	399	103.576958738493	0.414276123046875	0.414306640625	8.82873535156251E-07	3.65780351785361E-07	469270.65625	3.0624185455963E-05
2	400	103.677666738239	0.424346923828125	0.42437744140625	8.76770019531251E-07	3.72081416344372E-07	484023.6875	3.07127884298097E-05
2	401	103.778374737985	0.434417724609375	0.4344482421875	8.7158203125E-07	3.78657261990156E-07	498459.40625	3.08008238789625E-05
2	402	103.879082737731	0.444488525390625	0.444549560546875	8.6669921875E-07	3.85290746862665E-07	512922.53125	3.08883536490612E-05
2	403	103.979790737476	0.454559326171875	0.454559326171875	8.624267578125E-07	3.92024134043822E-07	527070.0625	3.09754250338301E-05
2	404	104.080498737222	0.464630126953125	0.46466064453125	8.58154296874999E-07	3.9875052948446E-07	541465.125	3.10620598611422E-05
2	405	104.181206736968	0.474700927734375	0.474761962890625	8.544921875E-07	4.056803675212E-07	555607.1875	3.11483017867431E-05
2	406	104.281914736713	0.484771728515625	0.48480224609375	8.514404296875E-07	4.12780224223752E-07	569390.6875	3.12342017423362E-05
2	407	104.382622736459	0.494842529296875	0.494873046875	8.4808349609375E-07	4.19693634512441E-07	583519.25	3.13197779178154E-05
2	408	104.483330736205	0.504913330078125	0.50494384765625	8.45947265625E-07	4.27155839588522E-07	596897.5625	3.14050812448841E-05
2	409	104.584038735951	0.514984130859375	0.5150146484375	8.441162109375E-07	4.34732214671385E-07	610122.9375	3.14901808451395E-05
2	410	104.684746735696	0.525054931640625	0.5250244140625	8.428955078125E-07	4.42540709855166E-07	622882	3.15751276502851E-05
2	411	104.785454735442	0.535125732421875	0.535125732421875	8.4259033203125E-07	4.50891775471973E-07	635096	3.16599980578758E-05
2	412	104.886162735188	0.545196533203125	0.545196533203125	8.4228515625E-07	4.592109519308E-07	647282.625	3.1744839361636E-05
2	413	104.986870734934	0.555267333984375	0.555267333984375	8.4381103515625E-07	4.68540690690133E-07	658047.0625	3.18297425110359E-05
2	414	105.087578734679	0.565338134765625	0.565338134765625	8.45947265625E-07	4.78246249713266E-07	668290.0625	3.19148275593761E-05
2	415	105.188286734425	0.575408935546875	0.575439453125	8.49304199218751E-07	4.8872311708692E-07	677542.25	3.20001890941057E-05
2	416	105.288994734171	0.585479736328125	0.58551025390625	8.544921875E-07	5.0031394493999E-07	685214.3125	3.20859835483134E-05
2	417	105.389702733917	0.595550537109375	0.595550537109375	8.6212158203125E-07	5.13436987148452E-07	690796.5	3.21724219247699E-05
2	418	105.490410733662	0.605621337890625	0.605621337890625	8.72802734375E-07	5.28587975168193E-07	693881.125	3.22597807098646E-05
2	419	105.591118733408	0.615692138671875	0.61572265625	8.8714599609375E-07	5.46235867204814E-07	694048.875	3.23484018736053E-05
2	420	105.691826733154	0.625762939453125	0.625762939453125	9.08203125E-07	5.68319819649332E-07	689012.125	3.24388056469616E-05
2	421	105.7925347329	0.635833740234375	0.63580322265625	9.35974121093749E-07	5.95095343669527E-07	679295.75	3.25316686939914E-05
2	422	105.893242732645	0.645904541015625	0.6458740234375	9.7503662109375E-07	6.29750843472721E-07	662410	3.2627893233439E-05
2	423	105.993950732391	0.655975341796875	0.655975341796875	1.0284423828125E-06	6.74632872232905E-07	637833.8125	3.27287780237384E-05
2	424	106.094658732137	0.666046142578125	0.665985107421875	1.1004638671875E-06	7.32892488031212E-07	605185.8125	3.28359747072682E-05
2	425	106.195366731882	0.676116943359375	0.67608642578125	1.19171142578125E-06	8.05699869488308E-07	567324	3.29513968608808E-05
2	426	106.296074731628	0.686187744140625	0.686126708984375	1.3031005859375E-06	8.94092124781309E-07	526533.9375	3.30770199070685E-05
2	427	106.396782731374	0.696258544921875	0.69622802734375	1.42791748046875E-06	9.94156152955838E-07	487582.8125	3.32145391439553E-05
2	428	106.49749073112	0.706329345703125	0.706298828125	1.55853271484375E-06	1.10078974557837E-06	453181.9375	3.33649186359253E-05
2	429	106.598198730865	0.716400146484375	0.71630859375	1.68121337890625E-06	1.20426761895942E-06	426066.4375	3.35280528815929E-05
2	430	106.698906730611	0.726470947265625	0.72637939453125	1.7852783203125E-06	1.2967893781024E-06	406871.8125	3.37026031047571E-05
2	431	106.799614730357	0.736541748046875	0.736480712890625	1.8609619140625E-06	1.37056258608936E-06	395752.71875	3.38862082571723E-05
2	432	106.900322730103	0.746612548828125	0.746490478515625	1.9049072265625E-06	1.42199507990881E-06	391877.59375	3.40758342645131E-05
2	433	107.001030729848	0.756683349609375	0.75714111328125	1.920166015625E-06	1.45383660310472E-06	394310.25	3.4268439776497E-05
2	434	107.101738729594	0.766754150390625	0.76690673828125	1.9134521484375E-06	1.46743923323811E-06	400797.46875	3.44614782079589E-05
2	435	107.20244672934	0.776824951171875	0.77667236328125	1.8927001953125E-06	1.47000798733643E-06	410351.5	3.46531342074741E-05
2	436	107.303154729086	0.786895751953125	0.7867431640625	1.8658447265625E-06	1.46794047850562E-06	421655.25	3.48423927789554E-05
2	437	107.403862728831	0.796966552734375	0.79681396484375	1.8377685546875E-06	1.46435968417791E-06	433576.875	3.50288828485645E-05
2	438	107.504570728577	0.807037353515625	0.8074951171875	1.81304931640625E-06	1.46402840073279E-06	445379.5625	3.52127171936445E-05
2	439	107.605278728323	0.817108154296875	0.81756591796875	1.79443359375E-06	1.46706770465244E-06	455612.28125	3.53943687514402E-05
2	440	107.705986728069	0.827178955078125	0.82733154296875	1.78314208984375E-06	1.47524963267642E-06	463974	3.55745141860098E-05
2	441	107.806694727814	0.837249755859375	0.8380126953125	1.77978515625E-06	1.49148252148734E-06	470850.5	3.57539211108815E-05
2	442	107.90740272756	0.847320556640625	0.84747314453125	1.785888671875E-06	1.51349263433076E-06	474538.65625	3.59334662789479E-05
2	443	108.008110727306	0.857391357421875	0.85723876953125	1.79901123046875E-06	1.54218218995084E-06	476505.53125	3.6113979149377E-05
2	444	108.108818727051	0.867462158203125	0.8673095703125	1.81854248046875E-06	1.57723923166486E-06	476925.6875	3.62961400242057E-05
2	445	108.209526726797	0.877532958984375	0.87738037109375	1.8408203125E-06	1.61509956342343E-06	476624.6875	3.64804036507849E-05
2	446	108.310234726543	0.887603759765625	0.88775634765625	1.86126708984375E-06	1.65235167060018E-06	476963.4375	3.66668173228391E-05
2	447	108.410942726289	0.897674560546875	0.89752197265625	1.876220703125E-06	1.68394922184234E-06	478366.96875	3.68550136045087E-05
2	448	108.511650726034	0.907745361328125	0.90789794921875	1.883544921875E-06	1.71006649907213E-06	482015.5625	3.70443340216298E-05
2	449	108.61235872578	0.917816162109375	0.91796875	1.88262939453125E-06	1.72819488852838E-06	487599.28125	3.72339745808858E-05
2	450	108.713066725526	0.927886962890625	0.92742919921875	1.87530517578125E-06	1.73921273471933E-06	494548.4375	3.74232040485367E-05
2	451	108.813774725272	0.937957763671875	0.93780517578125	1.86370849609375E-06	1.74779540884629E-06	503193.0625	3.76114767277613E-05
2	452	108.914482725017	0.948028564453125	0.9478759765625	1.8499755859375E-06	1.75354739440081E-06	512372.15625	3.77984761144035E-05
2	453	109.015190724763	0.958099365234375	0.95855712890625	1.83624267578125E-06	1.76014350472542E-06	522020.96875	3.79840930690989E-05
2	454	109.115898724509	0.968170166015625	0.968017578125	1.8243408203125E-06	1.76599394308141E-06	530612.25	3.81684185413178E-05
2	455	109.216606724255	0.978240966796875	0.97808837890625	1.81488037109375E-06	1.77511333276925E-06	538927.1875	3.83516671718098E-05
2	456	109.317314724	0.988311767578125	0.9881591796875	1.80938720703125E-06	1.78796256022906E-06	546129.1875	3.85341627406888E-05
2	457	109.418022723746	0.998382568359375	0.99884033203125	1.8072509765625E-06	1.80515507963719E-06	552684.9375	3.8716276321793E-05
2	458	109.518730723492	1.00845336914063	1.00830078125	1.8084716796875E-06	1.82348344424099E-06	557543.0625	3.88983426091727E-05
2	459	109.619438723238	1.01852416992188	1.01806640625	1.81243896484375E-06	1.84518319201743E-06	561710.75	3.90806671930477E-05
2	460	109.720146722983	1.02859497070313	1.02874755859375	1.81884765625E-06	1.87113505489833E-06	565604.0625	3.92635192838497E-05
2	461	109.820854722729	1.03866577148438	1.0382080078125	1.826171875E-06	1.89594618404954E-06	568516.0625	3.94470589526463E-05
2	462	109.921562722475	1.04873657226563	1.048583984375	1.83197021484375E-06	1.92097468243446E-06	572380.5	3.96312607335858E-05
2	463	110.02227072222	1.05880737304688	1.0589599609375	1.83502197265625E-06	1.94321478375059E-06	577083	3.98159099859186E-05
2	464	110.122978721966	1.06887817382813	1.06903076171875	1.8359375E-06	1.9626736502687E-06	582280.5625	4.00007556891069E-05
2	465	110.223686721712	1.07894897460938	1.0791015625	1.83319091796875E-06	1.97819917957531E-06	588646.625	4.0185510442825E-05
2	466	110.324394721458	1.08901977539063	1.0888671875	1.8267822265625E-06	1.98912312043831E-06	596057.5	4.03698068112135E-05
2	467	110.425102721203	1.09909057617188	1.09893798828125	1.81854248046875E-06	1.99846522264124E-06	604296.0625	4.05533646699041E-05
2	468	110.525810720949	1.10916137695313	1.109619140625	1.80908203125E-06	2.00739191313914E-06	613360.375	4.07360275858082E-05
2	469	110.626518720695	1.11923217773438	1.1187744140625	1.79962158203125E-06	2.01337047656125E-06	621672.0625	4.09177409892436E-05
2	470	110.727226720441	1.12930297851563	1.1297607421875	1.7901611328125E-06	2.02245360014786E-06	631094.5	4.10985012422316E-05
2	471	110.827934720186	1.13937377929688	1.138916015625	1.7816162109375E-06	2.02911132873851E-06	639260	4.12783556384966E-05
2	472	110.928642719932	1.14944458007813	1.1492919921875	1.77337646484375E-06	2.03812737709086E-06	648081.25	4.14573623856995E-05
2	473	111.029350719678	1.15951538085938	1.15936279296875	1.766357421875E-06	2.04784896595811E-06	656358	4.16356015193742E-05
2	474	111.130058719424	1.16958618164063	1.16973876953125	1.76055908203125E-06	2.05939409170242E-06	664413.25	4.18131967308E-05
2	475	111.230766719169	1.17965698242188	1.17950439453125	1.75567626953125E-06	2.07082780434575E-06	671823.4375	4.19902535213623E-05
2	476	111.331474718915	1.18972778320313	1.1895751953125	1.75201416015625E-06	2.08415258384775E-06	678975.8125	4.21668773924466E-05
2	477	111.432182718661	1.19979858398438	1.199951171875	1.74896240234375E-06	2.0986694835301E-06	686093.1875	4.23431665694807E-05
2	478	111.532890718407	1.20986938476563	1.209716796875	1.7474365234375E-06	2.11390329241112E-06	692280.8125	4.25192265538499E-05
2	479	111.633598718152	1.21994018554688	1.21978759765625	1.74713134765625E-06	2.1311291220627E-06	698166	4.26951919507701E-05
2	480	111.734306717898	1.23001098632813	1.2298583984375	1.74774169921875E-06	2.14947476706584E-06	703684.3125	4.28711718996055E-05
2	481	111.835014717644	1.24008178710938	1.2396240234375	1.75018310546875E-06	2.16956891563314E-06	708282.5	4.30473046435509E-05
2	482	111.935722717389	1.25015258789063	1.2506103515625	1.75384521484375E-06	2.19337698581512E-06	713067.6875	4.32237466156948E-05
2	483	112.036430717135	1.26022338867188	1.26007080078125	1.75872802734375E-06	2.21612185669073E-06	716467.125	4.34006215073168E-05
2	484	112.137138716881	1.27029418945313	1.2701416015625	1.76483154296875E-06	2.24158588935097E-06	719695.6875	4.35780457337387E-05
2	485	112.237846716627	1.28036499023438	1.280517578125	1.7724609375E-06	2.26966744776291E-06	722451.8125	4.37561611761339E-05
2	486	112.338554716372	1.29043579101563	1.29058837890625	1.7816162109375E-06	2.29933311857167E-06	724391.9375	4.39351242675912E-05
2	487	112.439262716118	1.30050659179688	1.30035400390625	1.79290771484375E-06	2.33141463468201E-06	725276.625	4.41151169070508E-05
2	488	112.539970715864	1.31057739257813	1.31103515625	1.80419921875E-06	2.36536857300962E-06	726657.625	4.42962445958983E-05
2	489	112.64067871561	1.32064819335938	1.32049560546875	1.8170166015625E-06	2.39936252910411E-06	726738.3125	4.44785873696674E-05
2	490	112.741386715355	1.33071899414063	1.33056640625	1.832275390625E-06	2.43796398535778E-06	726182.5625	4.46623416792136E-05
2	491	112.842094715101	1.34078979492188	1.34063720703125	1.8487548828125E-06	2.4785094865365E-06	725156.8125	4.48476966994349E-05
2	492	112.942802714847	1.35086059570313	1.35101318359375	1.86737060546875E-06	2.52284212365339E-06	723484.25	4.50348197773565E-05
2	493	113.043510714593	1.36093139648438	1.36077880859375	1.88934326171875E-06	2.5709782676131E-06	720239.0625	4.52239837613888E-05
2	494	113.144218714338	1.37100219726563	1.37176513671875	1.915283203125E-06	2.62731850853015E-06	716220.5625	4.54155633633491E-05
2	495	113.244926714084	1.38107299804688	1.380615234375	1.94549560546875E-06	2.68598091679451E-06	709647.0625	4.56099696748424E-05
2	496	113.34563471383	1.39114379882813	1.39129638671875	1.9805908203125E-06	2.75558863904735E-06	702465.375	4.58076647191774E-05
2	497	113.446342713576	1.40121459960938	1.4013671875	2.022705078125E-06	2.834552560671E-06	692818.375	4.60092451248784E-05
2	498	113.547050713321	1.41128540039063	1.4105224609375	2.0721435546875E-06	2.92280515168386E-06	680706.875	4.62154384877067E-05
2	499	113.647758713067	1.42135620117188	1.4208984375	2.13043212890625E-06	3.02712760458235E-06	666953.1875	4.64270524389576E-05
2	500	113.748466712813	1.43142700195313	1.43157958984375	2.19879150390625E-06	3.14774501930515E-06	651075.6875	4.66450474050362E-05
2	501	113.849174712558	1.44149780273438	1.441650390625	2.2802734375E-06	3.28735677612713E-06	632227	4.68705875391606E-05
2	502	113.949882712304	1.45156860351563	1.4520263671875	2.3760986328125E-06	3.45015769198653E-06	611096.875	4.71050516352989E-05
2	503	114.05059071205	1.46163940429688	1.4617919921875	2.48809814453125E-06	3.63708181794209E-06	587513.8125	4.73499858344439E-05
2	504	114.151298711796	1.47171020507813	1.4715576171875	2.620849609375E-06	3.85673092750949E-06	561481.1875	4.76072418678086E-05
2	505	114.252006711541	1.48178100585938	1.48162841796875	2.77862548828125E-06	4.11689052270958E-06	533223.5	4.78791262139566E-05
2	506	114.352714711287	1.49185180664063	1.49169921875	2.96173095703125E-06	4.41801148554077E-06	503657.9375	4.81681745441165E-05
2	507	114.453422711033	1.50192260742188	1.50177001953125	3.16864013671875E-06	4.75856859338819E-06	473947.8125	4.84768643218558E-05
2	508	114.554130710779	1.49185180664063	1.49139404296875	2.7740478515625E-06	4.13719817515812E-06	537623.8125	4.87761026306543E-05
2	509	114.654838710524	1.48178100585938	1.48162841796875	2.48199462890625E-06	3.67739380635612E-06	596950.6875	4.90407655888703E-05
2	510	114.75554671027	1.47171020507813	1.47216796875	2.25372314453125E-06	3.31785895468784E-06	653216	4.92792278237175E-05
2	511	114.856254710016	1.46163940429688	1.46148681640625	2.07122802734375E-06	3.02707235277921E-06	705613.6875	4.94970081490465E-05
2	512	114.956962709762	1.45156860351563	1.451416015625	1.92352294921875E-06	2.79183177553932E-06	754561.375	4.96981592732482E-05
2	513	115.057670709507	1.44149780273438	1.441650390625	1.80267333984375E-06	2.59882472164463E-06	799729.125	4.98857880302239E-05
2	514	115.158378709253	1.43142700195313	1.4312744140625	1.70379638671875E-06	2.43860017690167E-06	840050.1875	5.00623500556685E-05
2	515	115.259086708999	1.42135620117188	1.4208984375	1.62139892578125E-06	2.30384307542408E-06	876341.125	5.02297880302649E-05
2	516	115.359794708745	1.41128540039063	1.41082763671875	1.553955078125E-06	2.19236267184897E-06	907894.75	5.03896808368154E-05
2	517	115.46050270849	1.40121459960938	1.4007568359375	1.49658203125E-06	2.0963473161828E-06	935970.6875	5.05432872159872E-05
2	518	115.561210708236	1.39114379882813	1.3909912109375	1.44775390625E-06	2.01381294573366E-06	960792.5625	5.06915457663126E-05
2	519	115.661918707982	1.38107299804688	1.3812255859375	1.4056396484375E-06	1.94150538845861E-06	982631.375	5.08352277392987E-05
2	520	115.762626707727	1.37100219726563	1.37115478515625	1.36932373046875E-06	1.87755483693763E-06	1001337.1875	5.09749552293215E-05
2	521	115.863334707473	1.36093139648438	1.36138916015625	1.33697509765625E-06	1.82014332494873E-06	1018260.6875	5.11112302774563E-05
2	522	115.964042707219	1.35086059570313	1.3507080078125	1.30859375E-06	1.76752803326963E-06	1032182.875	5.12444457854144E-05
2	523	116.064750706965	1.34078979492188	1.34063720703125	1.28173828125E-06	1.71834597040288E-06	1045952.375	5.13748782395851E-05
2	524	116.16545870671	1.33071899414063	1.33087158203125	1.25732421875E-06	1.67333712397522E-06	1058495.125	5.15027313667815E-05
2	525	116.266166706456	1.32064819335938	1.32110595703125	1.2347412109375E-06	1.63122388130432E-06	1069945.625	5.16282161697745E-05
2	526	116.366874706202	1.31057739257813	1.3104248046875	1.21368408203125E-06	1.59044168412947E-06	1079708.375	5.17515036335681E-05
2	527	116.467582705948	1.30050659179688	1.30126953125	1.1932373046875E-06	1.55272334723122E-06	1090537.125	5.18727028975263E-05
2	528	116.568290705693	1.29043579101563	1.290283203125	1.17523193359375E-06	1.51638198531145E-06	1097896.75	5.19919631187804E-05
2	529	116.668998705439	1.28036499023438	1.28021240234375	1.1578369140625E-06	1.48227718455018E-06	1105693.25	5.21094443683978E-05
2	530	116.769706705185	1.27029418945313	1.2701416015625	1.142578125E-06	1.451235903005E-06	1111645.375	5.22252776136156E-05
2	531	116.870414704931	1.26022338867188	1.259765625	1.12823486328125E-06	1.42131148095359E-06	1116581	5.23396229255013E-05
2	532	116.971122704676	1.25015258789063	1.25	1.1151123046875E-06	1.39389032938197E-06	1120963.375	5.24525821674615E-05
2	533	117.071830704422	1.24008178710938	1.240234375	1.10321044921875E-06	1.36823939556052E-06	1124204.75	5.25642863067333E-05
2	534	117.172538704168	1.23001098632813	1.23016357421875	1.0919189453125E-06	1.34323886413767E-06	1126607.125	5.26748190168291E-05
2	535	117.273246703914	1.21994018554688	1.219482421875	1.08123779296875E-06	1.31855040308437E-06	1127857.75	5.27842457813676E-05
2	536	117.373954703659	1.20986938476563	1.2103271484375	1.070556640625E-06	1.29572379137244E-06	1130558.75	5.28925957041793E-05
2	537	117.474662703405	1.19979858398438	1.1993408203125	1.060791015625E-06	1.27224996049335E-06	1130610	5.29999197169673E-05
2	538	117.575370703151	1.18972778320313	1.1895751953125	1.0504150390625E-06	1.24954760849505E-06	1132481.125	5.31062287336681E-05
2	539	117.676078702896	1.17965698242188	1.1798095703125	1.0406494140625E-06	1.22776816624537E-06	1133724.375	5.3211519116303E-05
2	540	117.776786702642	1.16958618164063	1.1700439453125	1.0302734375E-06	1.20546519610798E-06	1135663.5	5.33157981408294E-05
2	541	117.877494702388	1.15951538085938	1.15936279296875	1.02020263671875E-06	1.18278489935619E-06	1136404.5	5.34190476173535E-05
2	542	117.978202702134	1.14944458007813	1.1492919921875	1.00982666015625E-06	1.16058561161481E-06	1138108.25	5.3521271183854E-05
2	543	118.078910701879	1.13937377929688	1.138916015625	9.9853515625E-07	1.1372476365068E-06	1140586.875	5.36223997187335E-05
2	544	118.179618701625	1.12930297851563	1.12884521484375	9.869384765625E-07	1.11410065528617E-06	1143784.875	5.37223750143312E-05
2	545	118.280326701371	1.11923217773438	1.119384765625	9.735107421875E-07	1.08973313217575E-06	1149843.25	5.38210915692616E-05
2	546	118.381034701117	1.10916137695313	1.10870361328125	9.58862304687499E-07	1.06309414604766E-06	1156269.875	5.39183929504361E-05
2	547	118.481742700862	1.09909057617188	1.0992431640625	9.4329833984375E-07	1.03691422737029E-06	1165318.75	5.4014177294448E-05
2	548	118.582450700608	1.08901977539063	1.08856201171875	9.246826171875E-07	1.00657427992701E-06	1177227.75	5.41082372365054E-05
2	549	118.683158700354	1.07894897460938	1.07940673828125	9.02709960937501E-07	9.74391127783747E-07	1195740.375	5.42002526344731E-05
2	550	118.7838667001	1.06887817382813	1.06903076171875	8.78295898437501E-07	9.38925268201274E-07	1217164.75	5.42899324500468E-05
2	551	118.884574699845	1.05880737304688	1.0589599609375	8.52355957031251E-07	9.02610793218628E-07	1242391.75	5.43770765943918E-05
2	552	118.985282699591	1.04873657226563	1.0491943359375	8.2550048828125E-07	8.66110440256307E-07	1270979.625	5.44615650142077E-05
2	553	119.085990699337	1.03866577148438	1.03851318359375	7.99560546875E-07	8.30354167646874E-07	1298855	5.45433940715156E-05
2	554	119.186698699083	1.02859497070313	1.0284423828125	7.7545166015625E-07	7.97507368588413E-07	1326249.5	5.46227020095102E-05
2	555	119.287406698828	1.01852416992188	1.0186767578125	7.54699707031251E-07	7.68795018757373E-07	1349777.625	5.46997507626656E-05
2	556	119.388114698574	1.00845336914063	1.00860595703125	7.373046875E-07	7.43649877676944E-07	1367963.625	5.47748786630109E-05
2	557	119.48882269832	0.998382568359375	0.99853515625	7.22656250000001E-07	7.2159764386015E-07	1381756.75	5.48483949387446E-05
2	558	119.589530698065	0.988311767578125	0.9881591796875	7.1136474609375E-07	7.02941633790033E-07	1389103.375	5.49206015421078E-05
2	559	119.690238697811	0.978240966796875	0.97808837890625	7.0037841796875E-07	6.85031977809558E-07	1396514.25	5.49916912859771E-05
2	560	119.790946697557	0.968170166015625	0.96832275390625	6.89697265625E-07	6.6784951968657E-07	1403982.375	5.50616859982256E-05
2	561	119.891654697303	0.958099365234375	0.95794677734375	6.78100585937499E-07	6.49584251277702E-07	1412691.375	5.51305602130014E-05
2	562	119.992362697048	0.948028564453125	0.9478759765625	6.6436767578125E-07	6.29738110546896E-07	1426734.125	5.5198157497216E-05
2	563	120.093070696794	0.937957763671875	0.938720703125	6.44836425781251E-07	6.0532130419233E-07	1455750.125	5.52640813111793E-05
2	564	120.19377869654	0.927886962890625	0.92803955078125	6.195068359375E-07	5.74926843910362E-07	1498029.625	5.53277459403034E-05
2	565	120.294486696286	0.917816162109375	0.91827392578125	5.8746337890625E-07	5.39452287284803E-07	1563116.875	5.53885220142547E-05
2	566	120.395194696031	0.907745361328125	0.908203125	5.474853515625E-07	4.97227915730036E-07	1658862.875	5.54456710233353E-05
2	567	120.495902695777	0.897674560546875	0.8978271484375	5.01098632812499E-07	4.4989994307798E-07	1791717.5	5.54984726477414E-05
2	568	120.596610695523	0.887603759765625	0.88775634765625	4.51049804687501E-07	4.00422322854865E-07	1968200.25	5.55464175704401E-05
2	569	120.697318695269	0.877532958984375	0.87738037109375	4.01611328125E-07	3.52365873368399E-07	2184650.5	5.55893529963214E-05
2	570	120.798026695014	0.867462158203125	0.8673095703125	3.56445312500001E-07	3.09148418864424E-07	2433219.25	5.56275226699654E-05
2	571	120.89873469476	0.857391357421875	0.8575439453125	3.19824218750001E-07	2.74263328492452E-07	2681297.75	5.56615741515998E-05
2	572	120.999442694506	0.847320556640625	0.84747314453125	2.94189453125E-07	2.49317650968806E-07	2880705.5	5.56924933334813E-05
2	573	121.100150694252	0.837249755859375	0.8380126953125	2.7740478515625E-07	2.32468721605983E-07	3020902.25	5.5721277021803E-05
2	574	121.200858693997	0.827178955078125	0.82794189453125	2.6824951171875E-07	2.22094996615851E-07	3086462	5.57487510377541E-05
2	575	121.301566693743	0.817108154296875	0.81756591796875	2.6214599609375E-07	2.14321630664926E-07	3118742.75	5.5775457440177E-05
2	576	121.402274693489	0.807037353515625	0.806884765625	2.55737304687501E-07	2.0635052067064E-07	3155131.5	5.5801538110245E-05
2	577	121.502982693234	0.796966552734375	0.79742431640625	2.45056152343751E-07	1.95413733194982E-07	3254047.25	5.5826752941357E-05
2	578	121.60369069298	0.786895751953125	0.7867431640625	2.26440429687499E-07	1.78150457941229E-07	3474393.75	5.58504943910521E-05
2	579	121.704398692726	0.776824951171875	0.77667236328125	1.971435546875E-07	1.53115948364757E-07	3939628.5	5.5871823860798E-05
2	580	121.805106692472	0.766754150390625	0.76690673828125	1.51977539062501E-07	1.16552591578056E-07	5046185	5.58894025743939E-05
2	581	121.905814692217	0.756683349609375	0.7568359375	8.81958007812503E-08	6.67497488393565E-08	8581315	5.59014988539275E-05
2	582	122.006522691963	0.746612548828125	0.746551513671875	3.35693359374972E-09	2.50612375296555E-09	222390928	5.59061081730761E-05
2	583	122.107230691709	0.736541748046875	0.736419677734375	-1.02844238281249E-07	-7.57365157255663E-08	-7160534.5	5.59010986762587E-05
2	584	122.207938691455	0.726470947265625	0.7264404296875	-2.24609375E-07	-1.63165324806869E-07	-3234239.25	5.5884611356305E-05
2	585	122.3086466912	0.716400146484375	0.71636962890625	-3.53088378906249E-07	-2.52941788403405E-07	-2028867.75	5.58555184397846E-05
2	586	122.409354690946	0.706329345703125	0.706329345703125	-4.7576904296875E-07	-3.36049623683721E-07	-1484605.5	5.58137835469097E-05
2	587	122.510062690692	0.696258544921875	0.696197509765625	-5.7952880859375E-07	-4.03466486886828E-07	-1201316.5	5.57606472284533E-05
2	588	122.610770690438	0.686187744140625	0.6861572265625	-6.53076171875E-07	-4.48112928097544E-07	-1050654.25	5.56985796720255E-05
2	589	122.711478690183	0.676116943359375	0.676055908203125	-6.9427490234375E-07	-4.69368643507551E-07	-973758.25	5.56307350052521E-05
2	590	122.812186689929	0.666046142578125	0.666015625	-7.01904296875E-07	-4.67479225108036E-07	-948869.5625	5.5560431064805E-05
2	591	122.912894689675	0.655975341796875	0.655975341796875	-6.84509277343751E-07	-4.49021172244102E-07	-958314.8125	5.54906182514969E-05
2	592	123.013602689421	0.645904541015625	0.64593505859375	-6.500244140625E-07	-4.19873543933136E-07	-993708.9375	5.54234211449511E-05
2	593	123.114310689166	0.635833740234375	0.63580322265625	-6.0455322265625E-07	-3.84376846795931E-07	-1051691.125	5.5360247642966E-05
2	594	123.215018688912	0.625762939453125	0.625732421875	-5.54504394531249E-07	-3.4697134765338E-07	-1128453.5	5.53018835489638E-05
2	595	123.315726688658	0.615692138671875	0.615692138671875	-5.04150390624999E-07	-3.10401418346373E-07	-1221247	5.52485762455035E-05
2	596	123.416434688403	0.605621337890625	0.605560302734375	-4.55322265624999E-07	-2.75725085430167E-07	-1329959.75	5.52002638869453E-05
2	597	123.517142688149	0.595550537109375	0.595489501953125	-4.09851074218751E-07	-2.44061993726064E-07	-1452941.25	5.51566990907304E-05
2	598	123.617850687895	0.585479736328125	0.58544921875	-3.6773681640625E-07	-2.15291237282145E-07	-1592033.25	5.51175435248297E-05
2	599	123.718558687641	0.575408935546875	0.57537841796875	-3.2958984375E-07	-1.89638868164366E-07	-1745740.875	5.50824297533836E-05
2	600	123.819266687386	0.565338134765625	0.56536865234375	-2.94189453125E-07	-1.66325492045871E-07	-1921784.25	5.50510194443632E-05
2	601	123.919974687132	0.555267333984375	0.555267333984375	-2.62451171875E-07	-1.45730552958412E-07	-2115697.75	5.50229924556334E-05
2	602	124.020682686878	0.545196533203125	0.545196533203125	-2.3345947265625E-07	-1.27281282402691E-07	-2335294.25	5.49980213691015E-05
2	603	124.121390686624	0.535125732421875	0.53515625	-2.06298828125E-07	-1.10402105235607E-07	-2594083	5.49758769921027E-05
2	604	124.222098686369	0.525054931640625	0.525054931640625	-1.82495117187501E-07	-9.5819956413834E-08	-2877090.25	5.49563010281418E-05
2	605	124.322806686115	0.514984130859375	0.5150146484375	-1.59912109375E-07	-8.23570758257119E-08	-3220610.75	5.49390570085961E-05
2	606	124.423514685861	0.504913330078125	0.504913330078125	-1.39465332031249E-07	-7.04179043964359E-08	-3620350.25	5.49239848623984E-05
2	607	124.524222685607	0.494842529296875	0.49481201171875	-1.2054443359375E-07	-5.96468296976127E-08	-4104810.25	5.49108917766716E-05
2	608	124.624930685352	0.484771728515625	0.484771728515625	-1.02844238281249E-07	-4.985597712448E-08	-4713650	5.48996431462001E-05
2	609	124.725638685098	0.474700927734375	0.474700927734375	-8.63647460937506E-08	-4.09974241222244E-08	-5496466.5	5.48901152797043E-05
2	610	124.826346684844	0.464630126953125	0.46466064453125	-7.14111328125003E-08	-3.31819407506373E-08	-6506838	5.48821699339896E-05
2	611	124.92705468459	0.454559326171875	0.45458984375	-5.70678710937494E-08	-2.59424730586488E-08	-7965775.5	5.48757016076706E-05
2	612	125.027762684335	0.444488525390625	0.444488525390625	-4.39453125000003E-08	-1.95331875119109E-08	-10114583	5.48706157132983E-05
2	613	125.128470684081	0.434417724609375	0.434417724609375	-3.17382812500003E-08	-1.37876723371733E-08	-13687500	5.48668031115085E-05
2	614	125.229178683827	0.424346923828125	0.424346923828125	-1.95312500000003E-08	-8.28802537711226E-09	-21726564	5.48642237845343E-05
2	615	125.329886683572	0.414276123046875	0.414306640625	-8.85009765625028E-09	-3.66665409146094E-09	-46813792	5.48627940588631E-05
2	616	125.430594683318	0.404205322265625	0.40423583984375	1.83105468749972E-09	7.40177918956419E-10	220766672	5.48624411749188E-05
2	617	125.531302683064	0.394134521484375	0.3941650390625	1.15966796875006E-08	4.57100535200539E-09	33989476	5.48631142009981E-05
2	618	125.63201068281	0.384063720703125	0.384124755859375	2.10571289062503E-08	8.08856359668653E-09	18242030	5.48647585674189E-05
2	619	125.732718682555	0.373992919921875	0.37408447265625	3.02124023437503E-08	1.13019904546263E-08	12381819	5.48673415323719E-05
2	620	125.833426682301	0.363922119140625	0.36395263671875	3.84521484374997E-08	1.39947600175105E-08	9465080	5.48707976122387E-05
2	621	125.934134682047	0.353851318359375	0.3538818359375	4.63867187499994E-08	1.64154165815944E-08	7628947.5	5.4875072237337E-05
2	622	126.034842681793	0.343780517578125	0.34381103515625	5.340576171875E-08	1.83614901061446E-08	6437714.5	5.48800962860696E-05
2	623	126.135550681538	0.333709716796875	0.333740234375	6.07299804687503E-08	2.02680379146614E-08	5495477.5	5.48858442925848E-05
2	624	126.236258681284	0.323638916015625	0.32373046875	6.77490234374994E-08	2.193242210069E-08	4778378.5	5.48923126189038E-05
2	625	126.33696668103	0.313568115234375	0.313629150390625	7.38525390624995E-08	2.31623094038014E-08	4246694	5.48994430573657E-05
2	626	126.437674680776	0.303497314453125	0.303558349609375	7.99560546874995E-08	2.42713280584894E-08	3796565	5.4907188314246E-05
2	627	126.538382680521	0.293426513671875	0.29345703125	8.60595703124994E-08	2.52547849299845E-08	3409929.25	5.49155483895447E-05
2	628	126.639090680267	0.283355712890625	0.283416748046875	9.06372070312494E-08	2.56881023119604E-08	3126936	5.4924443247728E-05
2	629	126.739798680013	0.273284912109375	0.2733154296875	9.58251953125003E-08	2.61905039877774E-08	2852229.25	5.49338328710292E-05
2	630	126.840506679759	0.263214111328125	0.263275146484375	1.00097656250001E-07	2.6353223603337E-08	2630183	5.4943699069554E-05
2	631	126.941214679504	0.253143310546875	0.253143310546875	1.04370117187499E-07	2.64205972655418E-08	2425438.5	5.49539945495781E-05
2	632	127.04192267925	0.243072509765625	0.24310302734375	1.07421874999999E-07	2.61145807201046E-08	2263068.25	5.49646611034404E-05
2	633	127.142630678996	0.233001708984375	0.233062744140625	1.09252929687501E-07	2.5462787434094E-08	2133240.25	5.49755714018829E-05
2	634	127.243338678741	0.222930908203125	0.222930908203125	1.1138916015625E-07	2.48320848328376E-08	2001370	5.49866817891598E-05
2	635	127.344046678487	0.212860107421875	0.21295166015625	1.1138916015625E-07	2.3720506447944E-08	1911780.875	5.4997897677822E-05
2	636	127.444754678233	0.202789306640625	0.20281982421875	1.0955810546875E-07	2.22205542854681E-08	1851253.5	5.50090226170141E-05
2	637	127.545462677979	0.192718505859375	0.192779541015625	1.06201171875001E-07	2.04734131870055E-08	1815229.875	5.50198892597109E-05
2	638	127.646170677724	0.182647705078125	0.1827392578125	9.94873046874997E-08	1.81802359833227E-08	1836809.875	5.50302465853747E-05
2	639	127.74687867747	0.172576904296875	0.172637939453125	8.78906250000006E-08	1.51732564290796E-08	1964236.125	5.50396798644215E-05
2	640	127.847586677216	0.162506103515625	0.162567138671875	7.08007812499994E-08	1.15098801600766E-08	2296120.75	5.50476725038607E-05
2	641	127.948294676962	0.152435302734375	0.152496337890625	4.57763671875E-08	6.98072843974273E-09	3331333.25	5.50535405636765E-05
2	642	128.049002676707	0.142364501953125	0.142425537109375	8.54492187500056E-09	1.21701515531925E-09	16667857	5.50562763237394E-05
2	643	128.149710676453	0.132293701171875	0.132354736328125	-4.425048828125E-08	-5.85676174225114E-09	-2991034.5	5.50544791622087E-05
2	644	128.250418676199	0.122222900390625	0.122283935546875	-1.18408203125001E-07	-1.44794212175725E-08	-1032731.9375	5.50462864339352E-05
2	645	128.351126675945	0.112152099609375	0.112213134765625	-2.2125244140625E-07	-2.48274290015615E-08	-507172.4375	5.5029184295563E-05
2	646	128.45183467569	0.102081298828125	0.102081298828125	-3.558349609375E-07	-3.63240921785746E-08	-286878.21875	5.50001277588308E-05
2	647	128.552542675436	0.092010498046875	0.092132568359375	-5.316162109375E-07	-4.89791638358383E-08	-173306.546875	5.49554388271645E-05
2	648	128.653250675182	0.081939697265625	0.08203125	-7.45239257812499E-07	-6.11329014077455E-08	-110073.71875	5.48911448277067E-05
2	649	128.753958674928	0.071868896484375	0.071929931640625	-9.93957519531249E-07	-7.1495300346669E-08	-72367.2109375	5.48035677638836E-05
2	650	128.854666674673	0.061798095703125	0.0618896484375	-1.260986328125E-06	-7.80419995294324E-08	-49080.34765625	5.46900228073355E-05
2	651	128.955374674419	0.051727294921875	0.05181884765625	-1.5264892578125E-06	-7.91009142631083E-08	-33946.421875	5.45496623090003E-05
2	652	129.056082674165	0.041656494140625	0.0417938232421875	-1.76300048828125E-06	-7.36825285230225E-08	-23706.076171875	5.43840251339134E-05
2	653	129.15679067391	0.031585693359375	0.0317291259765625	-1.9451904296875E-06	-6.17191915353033E-08	-16311.5771484375	5.41973022336606E-05
2	654	129.257498673656	0.021514892578125	0.0216522216796875	-2.06390380859375E-06	-4.46881038840274E-08	-10490.90625	5.39954271516763E-05
2	655	129.358206673402	0.011444091796875	0.01158447265625	-2.115478515625E-06	-2.45067042214941E-08	-5476.05322265625	5.37849809916224E-05
2	656	129.458914673148	0.001373291015625	0.0015106201171875	-2.10357666015625E-06	-3.17770521007787E-09	-718.119812011719	5.35725339432247E-05
2	657	129.559622672893	-0.008697509765625	-0.00855712890625	-2.05108642578125E-06	1.75514092148887E-08	4171.99853515625	5.33633283339441E-05
2	658	129.660330672639	-0.018768310546875	-0.0186187744140625	-1.97174072265625E-06	3.6711391260269E-08	9442.810546875	5.31607620359864E-05
2	659	129.761038672385	-0.028839111328125	-0.0286712646484375	-1.88079833984375E-06	5.39248681263871E-08	15244.19921875	5.29667740920559E-05
2	660	129.861746672131	-0.038909912109375	-0.03873291015625	-1.78741455078125E-06	6.92317598804948E-08	21669.796875	5.27820629940834E-05
2	661	129.962454671876	-0.048980712890625	-0.0488006591796875	-1.697998046875E-06	8.2863415684642E-08	28740.115234375	5.26065596204717E-05
2	662	130.063162671622	-0.059051513671875	-0.0589599609375	-1.61529541015625E-06	9.52377519070069E-08	36501.0390625	5.24397219123784E-05
2	663	130.163870671368	-0.069122314453125	-0.069000244140625	-1.54022216796875E-06	1.06275699351954E-07	44798.890625	5.22808295499999E-05
2	664	130.264578671114	-0.079193115234375	-0.0791015625	-1.4739990234375E-06	1.16595622046134E-07	53664.59765625	5.21290494361892E-05
2	665	130.365286670859	-0.089263916015625	-0.089202880859375	-1.4141845703125E-06	1.26149330981207E-07	63077.25390625	5.19836175953969E-05
2	666	130.465994670605	-0.099334716796875	-0.099212646484375	-1.36138916015625E-06	1.35067011797219E-07	72876.0390625	5.18438573635649E-05
2	667	130.566702670351	-0.109405517578125	-0.109283447265625	-1.3153076171875E-06	1.43741345937087E-07	83085.8515625	5.1709073886741E-05
2	668	130.667410670097	-0.119476318359375	-0.11932373046875	-1.2738037109375E-06	1.51995010355677E-07	93675.1328125	5.157870327821E-05
2	669	130.768118669842	-0.129547119140625	-0.129364013671875	-1.23809814453125E-06	1.60165342322216E-07	104486.078125	5.1452218031045E-05
2	670	130.868826669588	-0.139617919921875	-0.13946533203125	-1.20574951171875E-06	1.68160255498151E-07	115666.921875	5.13291633978952E-05
2	671	130.969534669334	-0.149688720703125	-0.1495361328125	-1.177978515625E-06	1.76150336983483E-07	126943.015625	5.1209131925134E-05
2	672	131.070242669079	-0.159759521484375	-0.159576416015625	-1.15325927734375E-06	1.84032984407168E-07	138369.9375	5.10917452629656E-05
2	673	131.170950668825	-0.169830322265625	-0.169647216796875	-1.1322021484375E-06	1.9207493551221E-07	149838.28125	5.0976661441382E-05
2	674	131.271658668571	-0.179901123046875	-0.179718017578125	-1.1138916015625E-06	2.00186391907664E-07	161342.46875	5.08635639562272E-05
2	675	131.372366668317	-0.189971923828125	-0.189788818359375	-1.09832763671875E-06	2.08450302352503E-07	172798	5.0752169045154E-05
2	676	131.473074668062	-0.200042724609375	-0.199798583984375	-1.08551025390625E-06	2.16883407233581E-07	184059.609375	5.0642203859752E-05
2	677	131.573782667808	-0.189971923828125	-0.189788818359375	-9.71374511718751E-07	1.84356011345699E-07	195381.734375	5.05386306031141E-05
