Potential,Current,Normalized_Potential,Normalized_Current
1.50497436523438,6.35986328124999e-07,1.43508911132813,0.09067177166724663
1.49993896484375,6.97021484374999e-07,1.4300537109375,0.09937347720153136
1.49490356445313,6.82983398437501e-07,1.42501831054688,0.09737208492864616
1.4898681640625,6.65893554687501e-07,1.41998291015625,0.09493560737904644
1.48483276367188,6.5032958984375e-07,1.41494750976563,0.09271667246780368
1.47979736328125,6.3507080078125e-07,1.409912109375,0.0905412460842325
1.47476196289063,6.21337890625e-07,1.40487670898438,0.08858336233901845
1.4697265625,6.09130859375e-07,1.39984130859375,0.0868430212321615
1.46469116210938,5.9814453125e-07,1.39480590820313,0.08527671423599026
1.45965576171875,5.89599609375001e-07,1.3897705078125,0.08405847546119054
1.45462036132813,5.80444335937501e-07,1.38473510742188,0.08275321963104783
1.4495849609375,5.7342529296875e-07,1.37969970703125,0.08175252349460495
1.44454956054688,5.6610107421875e-07,1.37466430664063,0.08070831883049079
1.43951416015625,5.60302734375e-07,1.36962890625,0.07988165680473373
1.43447875976563,5.54809570312501e-07,1.36459350585938,0.07909850330664825
1.429443359375,5.50537109375e-07,1.35955810546875,0.07848938391924817
1.42440795898438,5.462646484375e-07,1.35452270507813,0.07788026453184824
1.41937255859375,5.4290771484375e-07,1.3494873046875,0.07740167072746258
1.41433715820313,5.40771484375e-07,1.34445190429688,0.07709711103376261
1.4093017578125,5.38024902343749e-07,1.33941650390625,0.07670553428471967
1.40426635742188,5.37109375e-07,1.33438110351563,0.07657500870170554
1.39923095703125,5.35888671875e-07,1.329345703125,0.07640097459101984
1.39419555664063,5.34973144531249e-07,1.32431030273438,0.07627044900800542
1.38916015625,5.34973144531251e-07,1.31927490234375,0.07627044900800571
1.38412475585938,5.34667968749999e-07,1.31423950195313,0.076226940480334
1.37908935546875,5.3436279296875e-07,1.3092041015625,0.07618343195266274
1.37405395507813,5.352783203125e-07,1.30416870117188,0.07631395753567699
1.3690185546875,5.36193847656251e-07,1.29913330078125,0.07644448311869141
1.36398315429688,5.3741455078125e-07,1.29409790039063,0.07661851722937696
1.35894775390625,5.389404296875e-07,1.2890625,0.07683605986773408
1.35391235351563,5.40771484375e-07,1.28402709960938,0.07709711103376261
1.348876953125,5.4351806640625e-07,1.27899169921875,0.07748868778280543
1.34384155273438,5.45654296875001e-07,1.27395629882813,0.07779324747650554
1.33880615234375,5.4779052734375e-07,1.2689208984375,0.07809780717020537
1.33377075195313,5.511474609375e-07,1.26388549804688,0.07857640097459102
1.3287353515625,5.5389404296875e-07,1.25885009765625,0.07896797772363383
1.32369995117188,5.56335449218751e-07,1.25381469726563,0.07931604594500538
1.31866455078125,5.59387207031249e-07,1.248779296875,0.07975113122171933
1.31362915039063,5.62133789062501e-07,1.24374389648438,0.08014270797076242
1.30859375,5.65795898437499e-07,1.23870849609375,0.0806648103028192
1.30355834960938,5.6884765625e-07,1.23367309570313,0.08109989557953359
1.29852294921875,5.7220458984375e-07,1.2286376953125,0.08157848938391925
1.29348754882813,5.75561523437501e-07,1.22360229492188,0.08205708318830505
1.2884521484375,5.7861328125e-07,1.21856689453125,0.08249216846501915
1.28341674804688,5.82275390624999e-07,1.21353149414063,0.0830142707970761
1.27838134765625,5.85327148437501e-07,1.20849609375,0.08344935607379061
1.27334594726563,5.91125488281249e-07,1.20346069335938,0.08427601809954738
1.268310546875,5.93872070312501e-07,1.19842529296875,0.08466759484859047
1.26327514648438,5.9844970703125e-07,1.19338989257813,0.08532022276366168
1.25823974609375,6.04248046875e-07,1.1883544921875,0.08614688478941873
1.25320434570313,6.09436035156249e-07,1.18331909179688,0.08688652975983278
1.2481689453125,6.1614990234375e-07,1.17828369140625,0.08784371736860425
1.24313354492188,6.23168945312501e-07,1.17324829101563,0.08884441350504713
1.23809814453125,6.3018798828125e-07,1.168212890625,0.08984510964148974
1.23306274414063,6.39648437500001e-07,1.16317749023438,0.09119387399930402
1.22802734375,6.488037109375e-07,1.15814208984375,0.09249912982944658
1.22299194335938,6.6070556640625e-07,1.15310668945313,0.0941959624086321
1.21795654296875,6.72607421875e-07,1.1480712890625,0.09589279498781762
1.21292114257813,6.86950683593751e-07,1.14303588867188,0.09793769578837468
1.2078857421875,7.02819824218749e-07,1.13800048828125,0.1002001392272884
1.20285034179688,7.21130371093749e-07,1.13296508789063,0.10281065088757382
1.19781494140625,7.4310302734375e-07,1.1279296875,0.10594326487991647
1.19277954101563,7.67822265625001e-07,1.12289428710938,0.10946745562130192
1.187744140625,7.9620361328125e-07,1.11785888671875,0.11351374869474416
1.18270874023438,8.30078125e-07,1.11282348632813,0.11834319526627218
1.17767333984375,8.685302734375e-07,1.1077880859375,0.12382526975287156
1.17263793945313,9.13391113281251e-07,1.10275268554688,0.13022102332057098
1.1676025390625,9.65270996093749e-07,1.09771728515625,0.13761747302471272
1.16256713867188,1.026611328125e-06,1.09268188476563,0.146362687086669
1.15753173828125,1.0980224609375e-06,1.087646484375,0.1565436825617821
1.15249633789063,1.18011474609375e-06,1.08261108398438,0.16824747650539507
1.1474609375,1.27410888671875e-06,1.07757568359375,0.18164810302819354
1.14242553710938,1.3836669921875e-06,1.07254028320313,0.1972676644622346
1.13739013671875,1.50634765625e-06,1.0675048828125,0.2147580925861469
1.13235473632813,1.64520263671875e-06,1.06246948242188,0.23455447267664464
1.1273193359375,1.80084228515625e-06,1.05743408203125,0.2567438217890707
1.12228393554688,1.97357177734375e-06,1.05239868164063,0.28136964845109647
1.11724853515625,2.16033935546875e-06,1.04736328125,0.3079968673860077
1.11221313476563,2.3602294921875e-06,1.04232788085938,0.33649495301079013
1.107177734375,2.5714111328125e-06,1.03729248046875,0.3666028541594153
1.10214233398438,2.79083251953125e-06,1.03225708007813,0.39788548555516884
1.09710693359375,3.01116943359375e-06,1.0272216796875,0.4292986425339366
1.09207153320313,3.22723388671875e-06,1.02218627929688,0.4601026801253046
1.0870361328125,3.43353271484375e-06,1.01715087890625,0.48951444483118695
1.08200073242188,3.62152099609375e-06,1.01211547851563,0.5163156978767839
1.07696533203125,3.78448486328125e-06,1.007080078125,0.539549251653324
1.07192993164063,3.91510009765625e-06,1.00204467773438,0.5581709014966934
1.06689453125,4.00909423828125e-06,0.99700927734375,0.5715715280194917
1.06185913085938,4.0606689453125e-06,0.9919738769531301,0.5789244691959625
1.05682373046875,4.0679931640625e-06,0.9869384765625,0.5799686738600767
1.05178833007813,4.0283203125e-06,0.9819030761718801,0.5743125652627915
1.0467529296875,3.948974609375e-06,0.97686767578125,0.5630003480682213
1.04171752929688,3.83087158203125e-06,0.9718322753906301,0.5461625478593805
1.03668212890625,3.68011474609375e-06,0.966796875,0.5246693351896973
1.03164672851563,3.5028076171875e-06,0.9617614746093801,0.49939088061260006
1.026611328125,3.30810546875e-06,0.95672607421875,0.47163243995823184
1.02157592773438,3.1024169921875e-06,0.9516906738281301,0.44230769230769235
1.01654052734375,2.890625e-06,0.9466552734375,0.4121127741037243
1.01150512695313,2.68096923828125e-06,0.9416198730468801,0.3822224155934563
1.0064697265625,2.47833251953125e-06,0.93658447265625,0.3533327532196311
1.00143432617188,2.2857666015625e-06,0.9315490722656301,0.3258788722589627
0.99639892578125,2.10662841796875e-06,0.926513671875,0.3003393665158371
0.991363525390625,1.94183349609375e-06,0.921478271484375,0.2768447615732684
0.986328125,1.79290771484375e-06,0.91644287109375,0.2556126000696136
0.981292724609375,1.65985107421875e-06,0.911407470703125,0.23664288200487296
0.97625732421875,1.541748046875e-06,0.9063720703125,0.21980508179603203
0.971221923828125,1.43829345703125e-06,0.901336669921875,0.20505569091541942
0.9661865234375,1.3494873046875e-06,0.89630126953125,0.19239470936303518
0.961151123046875,1.2713623046875e-06,0.891265869140625,0.18125652627915073
0.95611572265625,1.20452880859375e-06,0.88623046875,0.17172815871910896
0.951080322265625,1.148681640625e-06,0.881195068359375,0.16376609815523843
0.946044921875,1.1004638671875e-06,0.87615966796875,0.1568917507831535
0.941009521484375,1.05987548828125e-06,0.871124267578125,0.15110511660285417
0.93597412109375,1.025390625e-06,0.8660888671875,0.1461886529759833
0.930938720703125,9.9700927734375e-07,0.861053466796875,0.1421423599025409
0.9259033203125,9.74426269531249e-07,0.85601806640625,0.1389227288548554
0.920867919921875,9.5672607421875e-07,0.850982666015625,0.13639923424991302
0.91583251953125,9.41162109374999e-07,0.845947265625,0.13418029933867023
0.910797119140625,9.295654296875e-07,0.840911865234375,0.1325269752871563
0.90576171875,9.197998046875e-07,0.83587646484375,0.13113470240167074
0.900726318359375,9.1217041015625e-07,0.830841064453125,0.13004698920988514
0.89569091796875,9.05456542968749e-07,0.8258056640625,0.1290898016011137
0.890655517578125,9.0179443359375e-07,0.820770263671875,0.12856769926905673
0.8856201171875,8.98132324218751e-07,0.81573486328125,0.1280455969369998
0.880584716796875,8.9691162109375e-07,0.810699462890625,0.12787156282631396
0.87554931640625,8.9752197265625e-07,0.8056640625,0.1279585798816568
0.870513916015625,8.99963378906249e-07,0.800628662109375,0.12830664810302805
0.865478515625,9.0484619140625e-07,0.79559326171875,0.12900278454577097
0.860443115234375,9.1278076171875e-07,0.790557861328125,0.13013400626522797
0.85540771484375,9.228515625e-07,0.7855224609375,0.13156978767838498
0.850372314453125,9.3658447265625e-07,0.780487060546875,0.13352767142359903
0.8453369140625,9.5489501953125e-07,0.77545166015625,0.13613818308388445
0.840301513671875,9.7808837890625e-07,0.770416259765625,0.13944483118691264
0.83526611328125,1.0064697265625e-06,0.765380859375,0.14349112426035504
0.830230712890625,1.0430908203125e-06,0.760345458984375,0.14871214758092588
0.8251953125,1.0845947265625e-06,0.75531005859375,0.1546293073442395
0.820159912109375,1.136474609375e-06,0.750274658203125,0.1620257570483815
0.81512451171875,1.19659423828125e-06,0.7452392578125,0.17059693699965195
0.810089111328125,1.26739501953125e-06,0.740203857421875,0.1806909154194222
0.8050537109375,1.34857177734375e-06,0.73516845703125,0.1922641837800209
0.800018310546875,1.44378662109375e-06,0.730133056640625,0.20583884441350506
0.79498291015625,1.54754638671875e-06,0.72509765625,0.22063174382178907
0.789947509765625,1.66473388671875e-06,0.720062255859375,0.23733901844761576
0.784912109375,1.79351806640625e-06,0.71502685546875,0.25569961712495654
0.779876708984375,1.93115234375e-06,0.709991455078125,0.2753219631047686
0.77484130859375,2.07489013671875e-06,0.7049560546875,0.29581447963800905
0.769805908203125,2.22503662109375e-06,0.699920654296875,0.3172206752523495
0.7647705078125,2.37548828125e-06,0.69488525390625,0.33867037939436134
0.759735107421875,2.5201416015625e-06,0.689849853515625,0.3592934215106161
0.75469970703125,2.657470703125e-06,0.684814453125,0.3788722589627567
0.749664306640625,2.781982421875e-06,0.679779052734375,0.3966237382526976
0.74462890625,2.8839111328125e-06,0.67474365234375,0.41115558649495304
0.739593505859375,2.9608154296875e-06,0.669708251953125,0.42211973546815174
0.73455810546875,3.01025390625e-06,0.6646728515625,0.42916811695092244
0.729522705078125,3.03009033203125e-06,0.659637451171875,0.43199617124956496
0.7244873046875,3.01727294921875e-06,0.65460205078125,0.43016881308736515
0.719451904296875,2.97332763671875e-06,0.649566650390625,0.42390358510268017
0.71441650390625,2.9010009765625e-06,0.64453125,0.4135920640445528
0.709381103515625,2.80303955078125e-06,0.639495849609375,0.3996258266620258
0.704345703125,2.6837158203125e-06,0.63446044921875,0.38261399234249915
0.699310302734375,2.54852294921875e-06,0.629425048828125,0.3633397145840585
0.69427490234375,2.403564453125e-06,0.6243896484375,0.34267316394013225
0.689239501953125,2.254638671875e-06,0.619354248046875,0.32144100243647755
0.6842041015625,2.1038818359375e-06,0.61431884765625,0.2999477897667943
0.679168701171875,1.9580078125e-06,0.609283447265625,0.2791507135398538
0.67413330078125,1.8182373046875e-06,0.604248046875,0.2592238078663418
0.669097900390625,1.68792724609375e-06,0.599212646484375,0.24064566655064393
0.6640625,1.56707763671875e-06,0.59417724609375,0.2234162895927602
0.659027099609375,1.45782470703125e-06,0.589141845703125,0.20784023668639054
0.65399169921875,1.36077880859375e-06,0.5841064453125,0.19400452488687783
0.648956298828125,1.2738037109375e-06,0.579071044921875,0.1816045945005221
0.6439208984375,1.19720458984375e-06,0.57403564453125,0.17068395405499479
0.638885498046875,1.13067626953125e-06,0.569000244140625,0.16119909502262444
0.63385009765625,1.0736083984375e-06,0.56396484375,0.15306300034806825
0.628814697265625,1.02264404296875e-06,0.558929443359375,0.1457970762269405
0.623779296875,9.7991943359375e-07,0.55389404296875,0.13970588235294118
0.618743896484375,9.429931640625e-07,0.548858642578125,0.13444135050469894
0.61370849609375,9.1064453125e-07,0.5438232421875,0.129829446571528
0.608673095703125,8.83178710937499e-07,0.538787841796875,0.12591367908109977
0.6036376953125,8.59680175781251e-07,0.53375244140625,0.12256352245040042
0.598602294921875,8.3953857421875e-07,0.528717041015625,0.11969195962408632
0.59356689453125,8.23364257812501e-07,0.523681640625,0.11738600765750101
0.588531494140625,8.0841064453125e-07,0.518646240234375,0.11525408980160112
0.58349609375,7.95593261718751e-07,0.51361083984375,0.11342673163940148
0.578460693359375,7.843017578125e-07,0.508575439453125,0.11181691611555866
0.57342529296875,7.7545166015625e-07,0.5035400390625,0.11055516881308737
0.568389892578125,7.66906738281251e-07,0.498504638671875,0.10933693003828766
0.5633544921875,7.5958251953125e-07,0.49346923828125,0.10829272537417334
0.558319091796875,7.537841796875e-07,0.488433837890625,0.1074660633484163
0.55328369140625,7.4798583984375e-07,0.4833984375,0.10663940132265926
0.548248291015625,7.42187499999999e-07,0.478363037109375,0.10581273929690205
0.543212890625,7.3822021484375e-07,0.47332763671875,0.1052471284371737
0.538177490234375,7.342529296875e-07,0.468292236328125,0.10468151757744519
0.53314208984375,7.305908203125e-07,0.4632568359375,0.1041594152453881
0.528106689453125,7.28454589843751e-07,0.458221435546875,0.10385485555168829
0.5230712890625,7.2479248046875e-07,0.45318603515625,0.10333275321963105
0.518035888671875,7.232666015625e-07,0.448150634765625,0.10311521058127393
0.51300048828125,7.21130371093751e-07,0.443115234375,0.10281065088757411
0.507965087890625,7.2052001953125e-07,0.438079833984375,0.10272363383223111
0.5029296875,7.1990966796875e-07,0.43304443359375,0.10263661677688828
0.497894287109375,7.1868896484375e-07,0.428009033203125,0.10246258266620259
0.49285888671875,7.19299316406249e-07,0.4229736328125,0.10254959972154527
0.487823486328125,7.19604492187499e-07,0.417938232421875,0.1025931082492167
0.4827880859375,7.1990966796875e-07,0.41290283203125,0.10263661677688828
0.477752685546875,7.2052001953125e-07,0.407867431640625,0.10272363383223111
0.47271728515625,7.2021484375e-07,0.40283203125,0.1026801253045597
0.467681884765625,7.20520019531251e-07,0.397796630859375,0.10272363383223126
0.462646484375,7.2021484375e-07,0.39276123046875,0.1026801253045597
0.457611083984375,7.2021484375e-07,0.387725830078125,0.1026801253045597
0.45257568359375,7.19299316406249e-07,0.3826904296875,0.10254959972154527
0.447540283203125,7.16857910156249e-07,0.377655029296875,0.10220153150017389
0.4425048828125,7.15026855468749e-07,0.37261962890625,0.10194048033414536
0.437469482421875,7.13500976562501e-07,0.367584228515625,0.10172293769578852
0.43243408203125,7.11669921875001e-07,0.362548828125,0.10146188652975997
0.427398681640625,7.08923339843749e-07,0.357513427734375,0.10107030978071688
0.42236328125,7.061767578125e-07,0.35247802734375,0.10067873303167421
0.417327880859375,7.049560546875e-07,0.347442626953125,0.10050469892098851
0.41229248046875,7.0220947265625e-07,0.3424072265625,0.1001131221719457
0.407257080078125,7.00988769531249e-07,0.337371826171875,0.09993908806125987
0.4022216796875,7.0037841796875e-07,0.33233642578125,0.09985207100591717
0.397186279296875,6.99462890624999e-07,0.327301025390625,0.09972154542290275
0.39215087890625,6.99462890624999e-07,0.322265625,0.09972154542290275
0.387115478515625,6.9915771484375e-07,0.317230224609375,0.09967803689523147
0.382080078125,6.99462890625001e-07,0.31219482421875,0.09972154542290304
0.377044677734375,7.00988769531249e-07,0.307159423828125,0.09993908806125987
0.37200927734375,7.0220947265625e-07,0.3021240234375,0.1001131221719457
0.366973876953125,7.03125e-07,0.297088623046875,0.10024364775495999
0.3619384765625,7.0556640625e-07,0.29205322265625,0.10059171597633138
0.356903076171875,7.07397460937499e-07,0.287017822265625,0.10085276714235977
0.35186767578125,7.10754394531249e-07,0.281982421875,0.10133136094674543
0.346832275390625,7.122802734375e-07,0.276947021484375,0.10154890358510268
0.341796875,7.159423828125e-07,0.27191162109375,0.10207100591715977
0.336761474609375,7.19299316406249e-07,0.266876220703125,0.10254959972154527
0.33172607421875,7.22656250000001e-07,0.2618408203125,0.10302819352593123
0.326690673828125,7.26928710937499e-07,0.256805419921875,0.10363731291333086
0.3216552734375,7.3089599609375e-07,0.25177001953125,0.10420292377305952
0.316619873046875,7.36083984375001e-07,0.246734619140625,0.10494256874347388
0.31158447265625,7.39135742187501e-07,0.24169921875,0.1053776540201881
0.306549072265625,7.4462890625e-07,0.236663818359375,0.10616080751827359
0.301513671875,7.4981689453125e-07,0.23162841796875,0.10690045248868779
0.296478271484375,7.55615234375e-07,0.226593017578125,0.10772711451444485
0.29144287109375,7.6202392578125e-07,0.2215576171875,0.10864079359554472
0.286407470703125,7.68432617187501e-07,0.216522216796875,0.10955447267664477
0.2813720703125,7.75756835937501e-07,0.21148681640625,0.11059867734075894
0.276336669921875,7.83386230468751e-07,0.206451416015625,0.11168639053254453
0.27130126953125,7.91320800781251e-07,0.201416015625,0.11281761225200154
0.266265869140625,8.00170898437499e-07,0.196380615234375,0.11407935955447253
0.26123046875,8.099365234375e-07,0.19134521484375,0.11547163243995824
0.256195068359375,8.209228515625e-07,0.186309814453125,0.11703793943612949
0.25115966796875,8.3282470703125e-07,0.1812744140625,0.118734772015315
0.246124267578125,8.465576171875e-07,0.176239013671875,0.12069265576052907
0.2410888671875,8.62731933593751e-07,0.17120361328125,0.12299860772711466
0.236053466796875,8.8043212890625e-07,0.166168212890625,0.1255221023320571
0.23101806640625,9.0087890625e-07,0.1611328125,0.1284371736860425
0.225982666015625,9.2437744140625e-07,0.156097412109375,0.13178733031674209
0.220947265625,9.521484375e-07,0.15106201171875,0.13574660633484162
0.215911865234375,9.8297119140625e-07,0.146026611328125,0.14014096762965544
0.21087646484375,1.02020263671875e-06,0.1409912109375,0.1454490080055691
0.205841064453125,1.0626220703125e-06,0.135955810546875,0.15149669335189697
0.2008056640625,1.1114501953125e-06,0.13092041015625,0.15845805777932476
0.195770263671875,1.16943359375e-06,0.125885009765625,0.16672467803689525
0.19073486328125,1.23687744140625e-06,0.120849609375,0.17634006265227983
0.185699462890625,1.3165283203125e-06,0.115814208984375,0.18769578837452142
0.1806640625,1.4093017578125e-06,0.11077880859375,0.20092238078663419
0.175628662109375,1.51763916015625e-06,0.105743408203125,0.21636790810998957
0.17059326171875,1.64337158203125e-06,0.1007080078125,0.2342934215106161
0.165557861328125,1.79107666015625e-06,0.095672607421875,0.25535154890358513
0.1605224609375,1.9598388671875e-06,0.09063720703125,0.27941176470588236
0.155487060546875,2.1527099609375e-06,0.085601806640625,0.3069091541942221
0.15045166015625,2.37396240234375e-06,0.08056640625,0.3384528367560042
0.145416259765625,2.623291015625e-06,0.075531005859375,0.37399930386355723
