Potential - OCP 0.0012550204407935 V
Time (s)	WE(1).Potential (V)
4.87978198767973	0.0021514892578125
4.97978198742726	0.00214538574218751
5.07978198717478	0.00214233398437499
5.17978198692231	0.00213623046875
5.27978198666983	0.00213012695312501
5.37978198641736	0.00212707519531249
5.47978198616488	0.0021209716796875
5.5797819859124	0.00211486816406251
5.67978198565993	0.0021087646484375
5.77978198540745	0.0021026611328125
5.87978198515498	0.00209960937500001
5.9797819849025	0.0020904541015625
6.07978198465003	0.00208740234375
6.17978198439755	0.00208129882812499
6.27978198414507	0.0020751953125
6.3797819838926	0.00206909179687501
6.47978198364012	0.00206298828125
6.57978198338765	0.002056884765625
6.67978198313517	0.00205383300781251
6.7797819828827	0.002044677734375
6.87978198263022	0.0020416259765625
6.97978198237774	0.00203552246093749
7.07978198212527	0.0020294189453125
7.17978198187279	0.00202331542968751
7.27978198162032	0.00202026367187499
7.37978198136784	0.00201416015625
7.47978198111537	0.00200805664062501
7.57978198086289	0.00200500488281249
7.67978198061041	0.0019989013671875
7.77978198035794	0.00198974609374999
7.87978198010546	0.001983642578125
7.97978197985299	0.0019805908203125
8.07978197960051	0.00197448730468749
8.17978197934804	0.001971435546875
8.27978197909556	0.00196533203125
8.37978197884308	0.00196228027343751
8.47978197859061	0.00195922851562499
8.57978197833813	0.001953125
8.67978197808566	0.0019500732421875
8.77978197783318	0.00194702148437501
8.87978197758071	0.00194091796875
8.97978197732823	0.0019378662109375
9.07978197707575	0.001934814453125
9.17978197682328	0.00193176269531251
9.2797819765708	0.00192871093749999
9.37978197631833	0.0019256591796875
9.47978197606585	0.0019195556640625
9.57978197581338	0.0019195556640625
9.6797819755609	0.00191345214843749
9.77978197530842	0.001910400390625
9.87978197505595	0.0019073486328125
9.97978197480347	0.001904296875
10.079781974551	0.00189819335937499
10.1797819742985	0.00189819335937499
10.279781974046	0.0018951416015625
10.3797819737936	0.00189208984375
10.4797819735411	0.00188598632812501
10.5797819732886	0.00188598632812501
10.6797819730361	0.00188293457031249
10.7797819727837	0.0018798828125
10.8797819725312	0.001873779296875
10.9797819722787	0.00187072753906251
11.0797819720262	0.00186767578124999
11.1797819717738	0.0018646240234375
11.2797819715213	0.001861572265625
11.3797819712688	0.0018585205078125
11.4797819710163	0.00185546875000001
11.5797819707639	0.00185241699218749
11.6797819705114	0.001849365234375
11.7797819702589	0.00184326171875
11.8797819700064	0.00184020996093751
11.979781969754	0.00183715820312499
12.0797819695015	0.0018341064453125
12.179781969249	0.0018310546875
12.2797819689965	0.00182495117187501
12.3797819687441	0.00182495117187501
12.4797819684916	0.00181884765625
12.5797819682391	0.0018157958984375
12.6797819679866	0.001812744140625
12.7797819677342	0.00180969238281251
12.8797819674817	0.0018035888671875
12.9797819672292	0.0017974853515625
13.0797819669767	0.00179443359375001
13.1797819667242	0.00179138183593749
13.2797819664718	0.001788330078125
13.3797819662193	0.0017822265625
13.4797819659668	0.00177917480468751
13.5797819657143	0.00177612304687499
13.6797819654619	0.00177001953125
13.7797819652094	0.0017669677734375
13.8797819649569	0.00176086425781249
13.9797819647044	0.0017578125
14.079781964452	0.001751708984375
14.1797819641995	0.00174865722656251
14.279781963947	0.0017425537109375
14.3797819636945	0.001739501953125
14.4797819634421	0.00173339843750001
14.5797819631896	0.00173034667968749
14.6797819629371	0.001727294921875
14.7797819626846	0.00172119140625
14.8797819624322	0.00171813964843751
14.9797819621797	0.0017120361328125
15.0797819619272	0.001708984375
15.1797819616747	0.0017059326171875
15.2797819614223	0.00169982910156249
15.3797819611698	0.00169677734375
15.4797819609173	0.0016937255859375
15.5797819606648	0.001690673828125
15.6797819604124	0.00168457031249999
15.7797819601599	0.0016815185546875
15.8797819599074	0.001678466796875
15.9797819596549	0.0016754150390625
16.0797819594025	0.00166931152343749
16.17978195915	0.001666259765625
16.2797819588975	0.0016632080078125
16.379781958645	0.00166015625
16.4797819583926	0.00165710449218751
16.5797819581401	0.00165405273437499
16.6797819578876	0.0016510009765625
16.7797819576351	0.00164794921875
16.8797819573826	0.0016448974609375
16.9797819571302	0.00164184570312501
17.0797819568777	0.00163879394531249
17.1797819566252	0.0016357421875
17.2797819563727	0.0016326904296875
17.3797819561203	0.001629638671875
17.4797819558678	0.00162658691406251
17.5797819556153	0.00162353515624999
17.6797819553628	0.0016204833984375
17.7797819551104	0.001617431640625
17.8797819548579	0.0016143798828125
17.9797819546054	0.00161132812500001
18.0797819543529	0.00161132812500001
18.1797819541005	0.001605224609375
18.279781953848	0.001605224609375
18.3797819535955	0.0016021728515625
18.479781953343	0.00159606933593751
18.5797819530906	0.00159301757812499
18.6797819528381	0.0015899658203125
18.7797819525856	0.0015899658203125
18.8797819523331	0.0015838623046875
18.9797819520807	0.00158081054687501
19.0797819518282	0.00157775878906249
19.1797819515757	0.00157470703125
19.2797819513232	0.0015716552734375
19.3797819510708	0.001568603515625
19.4797819508183	0.00156555175781251
19.5797819505658	0.00156249999999999
19.6797819503133	0.0015594482421875
19.7797819500609	0.001556396484375
19.8797819498084	0.00155029296875001
19.9797819495559	0.00154724121093749
20.0797819493034	0.001544189453125
20.1797819490509	0.0015411376953125
20.2797819487985	0.0015380859375
20.379781948546	0.00153503417968751
20.4797819482935	0.00153198242187499
20.579781948041	0.0015289306640625
20.6797819477886	0.00152587890625
20.7797819475361	0.0015228271484375
20.8797819472836	0.00151977539062501
20.9797819470311	0.00151672363281249
21.0797819467787	0.001513671875
21.1797819465262	0.001507568359375
21.2797819462737	0.00150451660156251
21.3797819460212	0.00150146484374999
21.4797819457688	0.0014984130859375
21.5797819455163	0.001495361328125
21.6797819452638	0.0014923095703125
21.7797819450113	0.00148925781250001
21.8797819447589	0.00148620605468749
21.9797819445064	0.001483154296875
22.0797819442539	0.0014801025390625
22.1797819440014	0.00147705078125
22.279781943749	0.00147399902343751
22.3797819434965	0.00147094726562499
22.479781943244	0.0014678955078125
22.5797819429915	0.00146484375
22.6797819427391	0.0014617919921875
22.7797819424866	0.00145874023437501
22.8797819422341	0.00145568847656249
22.9797819419816	0.00145263671875
23.0797819417292	0.0014495849609375
23.1797819414767	0.001446533203125
23.2797819412242	0.001446533203125
23.3797819409717	0.00144348144531251
23.4797819407192	0.00144042968749999
23.5797819404668	0.0014373779296875
23.6797819402143	0.001434326171875
23.7797819399618	0.0014312744140625
23.8797819397093	0.00142822265625001
23.9797819394569	0.00142517089843749
24.0797819392044	0.00142517089843749
24.1797819389519	0.001422119140625
24.2797819386994	0.001422119140625
24.379781938447	0.0014190673828125
24.4797819381945	0.001416015625
24.579781937942	0.00141296386718751
24.6797819376895	0.00140991210937499
24.7797819374371	0.0014068603515625
24.8797819371846	0.00140380859375
24.9797819369321	0.0014007568359375
25.0797819366796	0.00139770507812501
25.1797819364272	0.00139770507812501
25.2797819361747	0.00139770507812501
25.3797819359222	0.00139465332031249
25.4797819356697	0.0013916015625
25.5797819354173	0.0013885498046875
25.6797819351648	0.001385498046875
25.7797819349123	0.001385498046875
25.8797819346598	0.00138244628906251
25.9797819344074	0.00137939453124999
26.0797819341549	0.00137939453124999
26.1797819339024	0.0013763427734375
26.2797819336499	0.001373291015625
26.3797819333975	0.001373291015625
26.479781933145	0.001373291015625
26.5797819328925	0.0013702392578125
26.67978193264	0.0013702392578125
26.7797819323876	0.00136413574218749
26.8797819321351	0.001361083984375
26.9797819318826	0.001361083984375
27.0797819316301	0.0013580322265625
27.1797819313776	0.00135498046875
27.2797819311252	0.00135498046875
27.3797819308727	0.00135192871093751
27.4797819306202	0.00135192871093751
27.5797819303677	0.00134887695312499
27.6797819301153	0.0013458251953125
27.7797819298628	0.0013458251953125
27.8797819296103	0.0013427734375
27.9797819293578	0.0013397216796875
28.0797819291054	0.0013397216796875
28.1797819288529	0.00133666992187501
28.2797819286004	0.00133361816406249
28.3797819283479	0.00133056640625
28.4797819280955	0.00133056640625
28.579781927843	0.0013275146484375
28.6797819275905	0.0013275146484375
28.779781927338	0.001324462890625
28.8797819270856	0.00132141113281251
28.9797819268331	0.00132141113281251
29.0797819265806	0.00131835937499999
29.1797819263281	0.0013153076171875
29.2797819260757	0.0013153076171875
29.3797819258232	0.001312255859375
29.4797819255707	0.0013092041015625
29.5797819253182	0.0013092041015625
29.6797819250658	0.00130615234375001
29.7797819248133	0.00130310058593749
29.8797819245608	0.00130310058593749
29.9797819243083	0.001300048828125
30.0797819240559	0.0012969970703125
30.1797819238034	0.0012969970703125
30.2797819235509	0.0012939453125
30.3797819232984	0.00129089355468751
30.4797819230459	0.00129089355468751
30.5797819227935	0.00128784179687499
30.679781922541	0.0012847900390625
30.7797819222885	0.0012847900390625
30.879781922036	0.00128173828125
30.9797819217836	0.0012786865234375
31.0797819215311	0.0012786865234375
31.1797819212786	0.00127563476562501
31.2797819210261	0.00127258300781249
31.3797819207737	0.00127258300781249
31.4797819205212	0.00126953125
31.5797819202687	0.0012664794921875
31.6797819200162	0.0012664794921875
31.7797819197638	0.001263427734375
31.8797819195113	0.00126037597656251
31.9797819192588	0.00126037597656251
32.0797819190063	0.00125732421874999
32.1797819187539	0.00125732421874999
32.2797819185014	0.0012542724609375
32.3797819182489	0.001251220703125
32.4797819179964	0.0012481689453125
32.579781917744	0.0012481689453125
32.6797819174915	0.00124511718750001
32.779781917239	0.00124206542968749
32.8797819169865	0.00124206542968749
32.9797819167341	0.001239013671875
33.0797819164816	0.001239013671875
33.1797819162291	0.0012359619140625
33.2797819159766	0.00123291015625
33.3797819157242	0.00123291015625
33.4797819154717	0.00122985839843751
33.5797819152192	0.00122680664062499
33.6797819149667	0.00122680664062499
33.7797819147142	0.0012237548828125
33.8797819144618	0.001220703125
33.9797819142093	0.001220703125
34.0797819139568	0.0012176513671875
34.1797819137043	0.0012176513671875
34.2797819134519	0.0012176513671875
34.3797819131994	0.00121459960937501
34.4797819129469	0.00121154785156249
34.5797819126944	0.00120849609375
34.679781912442	0.00120849609375
34.7797819121895	0.0012054443359375
