Potential - Start -0.2 V, Upper Vertex 1.5 V, Lower Vertex -0.2 V, Stop -0.19 V; Scan - # end cross 5, Rate 0.1 Vps, Step 0.01 V 
Scan	Index	Time (s)	Potential applied (V)	WE(1).Potential (V)	WE(1).Current (A)	WE(1).Power (W)	WE(1).Resistance (Ω)	WE(1).Charge (C)
1	1	38.7010649022892	-0.189971923828125	-0.18975830078125	-2.06604003906249E-07	3.92048242758847E-08	918463.8125	0
1	2	38.8017729020349	-0.179901123046875	-0.179718017578125	-1.73339843750001E-07	3.1152293189507E-08	1036795.8125	-1.9131691786356E-08
1	3	38.9024809017807	-0.169830322265625	-0.169769287109375	-1.47705078125E-07	2.50757867803486E-08	1149380.125	-3.52975888517904E-08
1	4	39.0031889015264	-0.159759521484375	-0.15966796875	-1.25732421874999E-07	2.00754382007062E-08	1269903	-4.90662586116741E-08
1	5	39.1038969012722	-0.149688720703125	-0.14959716796875	-1.0711669921875E-07	1.60243551761141E-08	1396581.25	-6.07911445626996E-08
1	6	39.2046049010179	-0.139617919921875	-0.139495849609375	-9.002685546875E-08	1.25583721199973E-08	1549491.625	-7.07181087022946E-08
1	7	39.3053129007636	-0.129547119140625	-0.129425048828125	-7.41577148437506E-08	9.5978656133866E-09	1745267.625	-7.89854581739746E-08
1	8	39.4060209005094	-0.119476318359375	-0.119384765625	-5.98144531249997E-08	7.14093451037456E-09	1995918.375	-8.57314930158282E-08
1	9	39.5067289002551	-0.109405517578125	-0.10931396484375	-4.57763671875E-08	5.00399632841209E-09	2388000	-9.10484132532474E-08
1	10	39.6074369000008	-0.099334716796875	-0.099273681640625	-3.14331054687506E-08	3.1204798744966E-09	3158252.75	-9.49362188862324E-08
1	11	39.7081448997466	-0.089263916015625	-0.089111328125	-1.73950195312494E-08	1.55009327595934E-09	5122807	-9.73949099147831E-08
1	12	39.8088528994923	-0.079193115234375	-0.07916259765625	-2.13623046874945E-09	1.69109545811175E-10	37057144	-9.83783863262033E-08
1	13	39.909560899238	-0.069122314453125	-0.06903076171875	1.52587890625E-08	-1.05332575994765E-09	-4524000.5	-9.77176171090832E-08
1	14	40.0102688989838	-0.059051513671875	-0.058929443359375	3.44848632812506E-08	-2.03217376260056E-09	-1708849.625	-9.52128260678364E-08
1	15	40.1109768987295	-0.048980712890625	-0.048846435546875	5.92041015625003E-08	-2.89190937863282E-09	-825051.5625	-9.04952059954667E-08
1	16	40.2116848984753	-0.038909912109375	-0.03876953125	9.03320312499997E-08	-3.50213058553095E-09	-429189.21875	-8.29654638323518E-08
1	17	40.312392898221	-0.028839111328125	-0.0287322998046875	1.3153076171875E-07	-3.77918096816643E-09	-218445.484375	-7.17937851391071E-08
1	18	40.4131008979667	-0.018768310546875	-0.018634033203125	1.86767578124999E-07	-3.48023321272706E-09	-99771.234375	-5.57661934408316E-08
1	19	40.5138088977125	-0.008697509765625	-0.00856628417968749	2.62451171875E-07	-2.2482311567984E-09	-32639.5390625	-3.31462324254517E-08
1	20	40.6145168974582	0.001373291015625	0.00145874023437501	3.65295410156249E-07	5.32871080594077E-10	3993.31665039063	-1.53668378022331E-09
1	21	40.7152248972039	0.011444091796875	0.0115234375	5.01708984375E-07	5.78141223783746E-09	22968.369140625	4.21204546796616E-08
1	22	40.8159328969497	0.021514892578125	0.021600341796875	6.787109375E-07	1.46603875705864E-08	31825.5390625	1.01559322729372E-07
1	23	40.9166408966954	0.031585693359375	0.0316925048828125	8.99353027343749E-07	2.85027486057743E-08	35239.2265625	1.81021150069682E-07
1	24	41.0173488964411	0.041656494140625	0.041729736328125	1.15875244140625E-06	4.8354433346276E-08	36012.64453125	2.84654987581234E-07
1	25	41.1180568961869	0.051727294921875	0.0517578125	1.44195556640625E-06	7.46324673173149E-08	35894.1796875	4.1561102648302E-07
1	26	41.2187648959326	0.061798095703125	0.06182861328125	1.72515869140625E-06	1.06664167276449E-07	35839.37890625	5.75087881315994E-07
1	27	41.3194728956784	0.071868896484375	0.071929931640625	1.98089599609375E-06	1.42485717447016E-07	36311.81640625	7.61702608542691E-07
1	28	41.4201808954241	0.081939697265625	0.082061767578125	2.18353271484375E-06	1.7918453920629E-07	37582.11328125	9.71398208093888E-07
1	29	41.5208888951698	0.092010498046875	0.092041015625	2.315673828125E-06	2.13136971183303E-07	39746.96875	1.19795129194245E-06
1	30	41.6215968949156	0.102081298828125	0.10211181640625	2.376708984375E-06	2.42690049390148E-07	42963.53515625	1.4342315353133E-06
1	31	41.7223048946613	0.112152099609375	0.112213134765625	2.37579345703125E-06	2.66595236553258E-07	47231.85546875	1.67353903179901E-06
1	32	41.823012894407	0.122222900390625	0.122222900390625	2.33154296875E-06	2.84967939023772E-07	52421.46875	1.91057210940926E-06
1	33	41.9237208941528	0.132293701171875	0.13226318359375	2.2601318359375E-06	2.98932235409666E-07	58520.1171875	2.14178135138354E-06
1	34	42.0244288938985	0.142364501953125	0.142364501953125	2.17529296875E-06	3.09684480725991E-07	65446.1328125	2.36512278206646E-06
1	35	42.1251368936443	0.152435302734375	0.152496337890625	2.0880126953125E-06	3.18414294042668E-07	73034.203125	2.57979718298884E-06
1	36	42.22584489339	0.162506103515625	0.162567138671875	2.00225830078125E-06	3.25501389397687E-07	81191.890625	2.78575885204191E-06
1	37	42.3265528931357	0.172576904296875	0.172576904296875	1.9219970703125E-06	3.31692291410945E-07	89790.4140625	2.98336067316995E-06
1	38	42.4272608928815	0.182647705078125	0.182708740234375	1.849365234375E-06	3.37895187385584E-07	98795.3828125	3.17326384902117E-06
1	39	42.5279688926272	0.192718505859375	0.1927490234375	1.78314208984375E-06	3.43698872029563E-07	108095.1640625	3.35617505697883E-06
1	40	42.6286768923729	0.202789306640625	0.20281982421875	1.7242431640625E-06	3.49710688851701E-07	117628.3203125	3.53278596776363E-06
1	41	42.7293848921187	0.212860107421875	0.212921142578125	1.67144775390625E-06	3.55886555780671E-07	127387.2578125	3.70377256331267E-06
1	42	42.8300928918644	0.222930908203125	0.222930908203125	1.624755859375E-06	3.62208282922438E-07	137208.875	3.86974988941802E-06
1	43	42.9308008916101	0.233001708984375	0.23297119140625	1.58294677734375E-06	3.68781002180185E-07	147175.625	4.03127023673733E-06
1	44	43.0315088913559	0.243072509765625	0.24310302734375	1.5447998046875E-06	3.75545482711459E-07	157368.640625	4.18876470575924E-06
1	45	43.1322168911016	0.253143310546875	0.25311279296875	1.51153564453125E-06	3.82589007585921E-07	167454.0625	4.34266348747769E-06
1	46	43.2329248908474	0.263214111328125	0.26318359375	1.48101806640625E-06	3.89779643228394E-07	177704.515625	4.49335084340419E-06
1	47	43.3336328905931	0.273284912109375	0.2733154296875	1.453857421875E-06	3.97361674231433E-07	187993.28125	4.64113327325322E-06
1	48	43.4343408903388	0.283355712890625	0.2833251953125	1.42913818359375E-06	4.04910849738371E-07	198248.984375	4.78630363431876E-06
1	49	43.5350488900846	0.293426513671875	0.293426513671875	1.40625E-06	4.12631038670952E-07	208658.84375	4.92907702209777E-06
1	50	43.6357568898303	0.303497314453125	0.303466796875	1.3861083984375E-06	4.20637860543138E-07	218934.390625	5.06968308400246E-06
1	51	43.736464889576	0.313568115234375	0.313629150390625	1.36749267578125E-06	4.28885527981038E-07	229346.140625	5.20833827977185E-06
1	52	43.8371728893218	0.323638916015625	0.323638916015625	1.35040283203125E-06	4.37042899648077E-07	239661.015625	5.34519494976848E-06
1	53	43.9378808890675	0.333709716796875	0.33367919921875	1.3348388671875E-06	4.45407977167633E-07	249977.140625	5.48040770809166E-06
1	54	44.0385888888133	0.343780517578125	0.343780517578125	1.32049560546875E-06	4.5396066639114E-07	260342.046875	5.6141143431887E-06
1	55	44.139296888559	0.353851318359375	0.3538818359375	1.3079833984375E-06	4.62871554418598E-07	270555.3125	5.74646855966421E-06
1	56	44.2400048883047	0.363922119140625	0.363922119140625	1.29608154296875E-06	4.71672763069364E-07	280786.4375	5.87759404879762E-06
1	57	44.3407128880505	0.373992919921875	0.3740234375	1.285400390625E-06	4.8076987013701E-07	290978.15625	6.00758176005911E-06
1	58	44.4414208877962	0.384063720703125	0.384033203125	1.27655029296875E-06	4.90237709982466E-07	300836.71875	6.13658630754799E-06
1	59	44.5421288875419	0.394134521484375	0.394073486328125	1.268310546875E-06	4.99807526921359E-07	310707.4375	6.26473001830163E-06
1	60	44.6428368872877	0.404205322265625	0.404205322265625	1.2603759765625E-06	5.09450671870582E-07	320702.1875	6.39205973129719E-06
1	61	44.7435448870334	0.414276123046875	0.414276123046875	1.2542724609375E-06	5.19615127814177E-07	330291.96875	6.51868231216213E-06
1	62	44.8442528867791	0.424346923828125	0.42431640625	1.248779296875E-06	5.2987752496847E-07	339784.9375	6.64472099742852E-06
1	63	44.9449608865249	0.434417724609375	0.43438720703125	1.243896484375E-06	5.40332734999538E-07	349214.9375	6.77023717798875E-06
1	64	45.0456688862706	0.444488525390625	0.444549560546875	1.24053955078125E-06	5.5148132105387E-07	358351.78125	6.89533862896496E-06
1	65	45.1463768860164	0.454559326171875	0.454559326171875	1.2384033203125E-06	5.62927766623034E-07	367052.71875	7.02016313880449E-06
1	66	45.2470848857621	0.464630126953125	0.464599609375	1.23565673828125E-06	5.74085618154641E-07	375994.09375	7.14474208507454E-06
1	67	45.3477928855078	0.474700927734375	0.474700927734375	1.2335205078125E-06	5.85553323162458E-07	384834.25	7.26907501302776E-06
1	68	45.4485008852536	0.484771728515625	0.484771728515625	1.23199462890625E-06	5.97236123667244E-07	393485.28125	7.39322331355652E-06
1	69	45.5492088849993	0.494842529296875	0.49481201171875	1.23199462890625E-06	6.09605706358707E-07	401634.90625	7.51729521653033E-06
1	70	45.649916884745	0.504913330078125	0.50494384765625	1.23138427734375E-06	6.21779861376126E-07	410061.96875	7.64133619668428E-06
1	71	45.7506248844908	0.514984130859375	0.514923095703125	1.2322998046875E-06	6.3453956045123E-07	417855.40625	7.76539218350081E-06
1	72	45.8513328842365	0.525054931640625	0.5250244140625	1.23291015625E-06	6.47307899726002E-07	425841.59375	7.88952547736699E-06
1	73	45.9520408839822	0.535125732421875	0.53509521484375	1.23382568359375E-06	6.60214197978348E-07	433687.875	8.01373607828282E-06
1	74	46.052748883728	0.545196533203125	0.545135498046875	1.2353515625E-06	6.73433987685712E-07	441279.65625	8.13806855148869E-06
1	75	46.1534568834737	0.555267333984375	0.555267333984375	1.23779296875E-06	6.87305998781085E-07	448594.6875	8.26260111352894E-06
1	76	46.2541648832195	0.565338134765625	0.5653076171875	1.24053955078125E-06	7.01286467119644E-07	455694.96875	8.38739561004331E-06
1	77	46.3548728829652	0.575408935546875	0.57537841796875	1.24298095703125E-06	7.15184398814017E-07	462902.03125	8.51245022204239E-06
1	78	46.4555808827109	0.585479736328125	0.585418701171875	1.24603271484375E-06	7.29450789549446E-07	469826.125	8.63778222992551E-06
1	79	46.5562888824567	0.595550537109375	0.595489501953125	1.24969482421875E-06	7.44180169931496E-07	476507.9375	8.76345166034298E-06
1	80	46.6569968822024	0.605621337890625	0.605560302734375	1.25335693359375E-06	7.5898321938439E-07	483150.71875	8.88949034560937E-06
1	81	46.7577048819481	0.615692138671875	0.615631103515625	1.25732421875E-06	7.74047919094301E-07	489635.90625	9.01591374713462E-06
1	82	46.8584128816939	0.625762939453125	0.625701904296875	1.26129150390625E-06	7.8919248380771E-07	496080.34375	9.14273641683394E-06
1	83	46.9591208814396	0.635833740234375	0.635833740234375	1.265869140625E-06	8.04882233751414E-07	502290.28125	9.2699883680325E-06
1	84	47.0598288811854	0.645904541015625	0.645843505859375	1.2713623046875E-06	8.21101082237874E-07	507993.28125	9.39774872676935E-06
1	85	47.1605368809311	0.655975341796875	0.65594482421875	1.2774658203125E-06	8.37947084164625E-07	513473.5	9.52609207161004E-06
1	86	47.2612448806768	0.666046142578125	0.665985107421875	1.28448486328125E-06	8.55447751746397E-07	518484.21875	9.65509661909891E-06
1	87	47.3619528804226	0.676116943359375	0.676025390625	1.2921142578125E-06	8.73502017384453E-07	523193.21875	9.78483876679093E-06
1	88	47.4626608801683	0.686187744140625	0.686126708984375	1.302490234375E-06	8.93673302471143E-07	526780.6875	9.91548768070061E-06
1	89	47.563368879914	0.696258544921875	0.696197509765625	1.3134765625E-06	9.14439112875698E-07	530041.8125	1.00472116173478E-05
1	90	47.6640768796598	0.706329345703125	0.706298828125	1.3262939453125E-06	9.3675987500319E-07	532535.6875	1.01801342680119E-05
1	91	47.7647848794055	0.716400146484375	0.716339111328125	1.33941650390625E-06	9.5947643785621E-07	534814.3125	1.03143638625625E-05
1	92	47.8654928791512	0.726470947265625	0.726409912109375	1.3519287109375E-06	9.8205430276721E-07	537313.8125	1.04498840300948E-05
1	93	47.966200878897	0.736541748046875	0.736480712890625	1.36260986328125E-06	1.00353588550206E-06	540492.75	1.05865719888243E-05
1	94	48.0669088786427	0.746612548828125	0.74658203125	1.37115478515625E-06	1.02367948784376E-06	544491.4375	1.07242276499164E-05
1	95	48.1676168783885	0.756683349609375	0.7574462890625	1.3763427734375E-06	1.04250568710995E-06	550332.625	1.08625754364766E-05
1	96	48.2683248781342	0.766754150390625	0.76690673828125	1.3787841796875E-06	1.05739889022516E-06	556219.5625	1.1001307029801E-05
1	97	48.3690328778799	0.776824951171875	0.77667236328125	1.38031005859375E-06	1.07204857613397E-06	562679.6875	1.11402387119597E-05
1	98	48.4697408776257	0.786895751953125	0.7867431640625	1.3800048828125E-06	1.08570941392827E-06	570101.75	1.12792313302634E-05
1	99	48.5704488773714	0.796966552734375	0.79742431640625	1.37969970703125E-06	1.1002060773535E-06	577969.5	1.14181930257473E-05
1	100	48.6711568771171	0.807037353515625	0.80718994140625	1.37939453125E-06	1.11343331354874E-06	585177	1.1557124707906E-05
1	101	48.7718648768629	0.817108154296875	0.8172607421875	1.37908935546875E-06	1.1270756203885E-06	592609	1.16960254672449E-05
1	102	48.8725728766086	0.827178955078125	0.82763671875	1.37939453125E-06	1.14163754005858E-06	600000	1.18349262265838E-05
1	103	48.9732808763544	0.837249755859375	0.83770751953125	1.38092041015625E-06	1.15680734324997E-06	606629.875	1.19739188448875E-05
1	104	49.0739888761001	0.847320556640625	0.84747314453125	1.38275146484375E-06	1.1718447012754E-06	612889	1.21130806292058E-05
1	105	49.1746968758458	0.857391357421875	0.85784912109375	1.3848876953125E-06	1.18802472570678E-06	619435.875	1.22524425023585E-05
1	106	49.2754048755916	0.867462158203125	0.86761474609375	1.38824462890625E-06	1.20446156870457E-06	624972.5	1.23920808619005E-05
1	107	49.3761128753373	0.877532958984375	0.877685546875	1.3909912109375E-06	1.22085282328044E-06	630978.5	1.25320266306517E-05
1	108	49.476820875083	0.887603759765625	0.88775634765625	1.39434814453125E-06	1.23784138850169E-06	636682	1.26722798086121E-05
1	109	49.5775288748288	0.897674560546875	0.89752197265625	1.39739990234375E-06	1.25419705909735E-06	642280	1.28128549476969E-05
1	110	49.6782368745745	0.907745361328125	0.9075927734375	1.40106201171875E-06	1.27159364637919E-06	647789.1875	1.29537693283055E-05
1	111	49.7789448743202	0.917816162109375	0.91827392578125	1.4044189453125E-06	1.28964120449382E-06	653846.1875	1.30950365928584E-05
1	112	49.879652874066	0.927886962890625	0.92803955078125	1.40777587890625E-06	1.3064716313238E-06	659223.9375	1.32366412799456E-05
1	113	49.9803608738117	0.937957763671875	0.9381103515625	1.4105224609375E-06	1.32322566059884E-06	665080.0625	1.33785542857368E-05
1	114	50.0810688735575	0.948028564453125	0.9478759765625	1.41387939453125E-06	1.34018227981869E-06	670408	1.35207737912424E-05
1	115	50.1817768733032	0.958099365234375	0.958251953125	1.4166259765625E-06	1.35748462071206E-06	676432.5625	1.36633016154519E-05
1	116	50.2824848730489	0.968170166015625	0.968017578125	1.41937255859375E-06	1.37397762500768E-06	682003.875	1.38061050165561E-05
1	117	50.3831928727947	0.978240966796875	0.97869873046875	1.422119140625E-06	1.39182611746946E-06	688197.4375	1.39491858135443E-05
1	118	50.4839008725404	0.988311767578125	0.98846435546875	1.42486572265625E-06	1.40842894325033E-06	693724.5625	1.40925430969219E-05
1	119	50.5846088722861	0.998382568359375	0.99884033203125	1.42791748046875E-06	1.42626151955483E-06	699508.4375	1.4236191418604E-05
1	120	50.6853168720319	1.00845336914063	1.00830078125	1.43096923828125E-06	1.44284729231003E-06	704627.875	1.438014805899E-05
1	121	50.7860248717776	1.01852416992188	1.01837158203125	1.43402099609375E-06	1.46036620662926E-06	710151.125	1.45244121085852E-05
1	122	50.8867328715233	1.02859497070313	1.0284423828125	1.43829345703125E-06	1.47920195558982E-06	715043.5	1.46690445035347E-05
1	123	50.9874408712691	1.03866577148438	1.038818359375	1.441650390625E-06	1.4976128568378E-06	720575.75	1.48140607052483E-05
1	124	51.0881488710148	1.04873657226563	1.048583984375	1.4453125E-06	1.51553149407846E-06	725506.75	1.49594307004008E-05
1	125	51.1888568707606	1.05880737304688	1.058349609375	1.44927978515625E-06	1.53384462464601E-06	730259.0625	1.51051854118123E-05
1	126	51.2895648705063	1.06887817382813	1.0687255859375	1.45263671875E-06	1.55246993926994E-06	735714.3125	1.52513084685779E-05
1	127	51.390272870252	1.07894897460938	1.07940673828125	1.456298828125E-06	1.57193881022977E-06	741198.6875	1.53977853187826E-05
1	128	51.4909808699978	1.08901977539063	1.0888671875	1.45904541015625E-06	1.588706709299E-06	746287.375	1.55445850396063E-05
1	129	51.5916888697435	1.09909057617188	1.099853515625	1.4617919921875E-06	1.60775698532234E-06	752400.875	1.569165942783E-05
1	130	51.6923968694892	1.10916137695313	1.1090087890625	1.46453857421875E-06	1.62418609761517E-06	757241.125	1.58390121214325E-05
1	131	51.793104869235	1.11923217773438	1.11907958984375	1.4678955078125E-06	1.64269181368581E-06	762370.0625	1.59866722242441E-05
1	132	51.8938128689807	1.12930297851563	1.129150390625	1.47125244140625E-06	1.66126517342491E-06	767475.625	1.61346706590848E-05
1	133	51.9945208687265	1.13937377929688	1.1395263671875	1.47430419921875E-06	1.6800084949864E-06	772924.875	1.62829910550499E-05
1	134	52.0952288684722	1.14944458007813	1.14990234375	1.4776611328125E-06	1.69916586401087E-06	778190.875	1.64316334121395E-05
1	135	52.1959368682179	1.15951538085938	1.15936279296875	1.48101806640625E-06	1.71703720752703E-06	782814.8125	1.65806159202475E-05
1	136	52.2966448679637	1.16958618164063	1.16973876953125	1.48468017578125E-06	1.73668797742721E-06	787872.5625	1.67299494933104E-05
1	137	52.3973528677094	1.17965698242188	1.18011474609375	1.48956298828125E-06	1.75785521605576E-06	792255.75	1.68797159858514E-05
1	138	52.4980608674551	1.18972778320313	1.1895751953125	1.49383544921875E-06	1.77702952441905E-06	796322.8125	1.7029940863722E-05
1	139	52.5987688672009	1.19979858398438	1.1993408203125	1.4990234375E-06	1.79783990006399E-06	800081.5	1.71806441358058E-05
1	140	52.6994768669466	1.20986938476563	1.209716796875	1.50543212890625E-06	1.82114649760479E-06	803567.8125	1.73319294844987E-05
1	141	52.8001848666923	1.21994018554688	1.22039794921875	1.5118408203125E-06	1.84504733624635E-06	807226.5	1.74838623934193E-05
1	142	52.9008928664381	1.23001098632813	1.2298583984375	1.5185546875E-06	1.86760723863699E-06	809887.5	1.76364537765039E-05
1	143	53.0016008661838	1.24008178710938	1.24053955078125	1.5264892578125E-06	1.89367017355835E-06	812674.9375	1.77897836692864E-05
1	144	53.1023088659296	1.25015258789063	1.25030517578125	1.5350341796875E-06	1.91926119441632E-06	814512.9375	1.79439448402263E-05
1	145	53.2030168656753	1.26022338867188	1.2603759765625	1.5447998046875E-06	1.9470285224088E-06	815883.125	1.80990264198044E-05
1	146	53.303724865421	1.27029418945313	1.2701416015625	1.55548095703125E-06	1.97568101611978E-06	816558.75	1.82551375473849E-05
1	147	53.4044328651668	1.28036499023438	1.280517578125	1.56646728515625E-06	2.00588897314447E-06	817455.6875	1.84123400686076E-05
1	148	53.5051408649125	1.29043579101563	1.29058837890625	1.57958984375E-06	2.03860031433578E-06	817040.1875	1.85707576747518E-05
1	149	53.6058488646582	1.30050659179688	1.30035400390625	1.593017578125E-06	2.07148673325719E-06	816283.5625	1.87305104191182E-05
1	150	53.706556864404	1.31057739257813	1.31072998046875	1.60675048828125E-06	2.10601592698367E-06	815764.5	1.88916310435161E-05
1	151	53.8072648641497	1.32064819335938	1.32080078125	1.62139892578125E-06	2.14154488276108E-06	814605.75	1.90541813935852E-05
1	152	53.9079728638955	1.33071899414063	1.33087158203125	1.63818359375E-06	2.18021205000696E-06	812406.875	1.92183142644353E-05
1	153	54.0086808636412	1.34078979492188	1.3409423828125	1.6552734375E-06	2.21962636715034E-06	810103.25	1.9384153347346E-05
1	154	54.1093888633869	1.35086059570313	1.35101318359375	1.6729736328125E-06	2.2602093849855E-06	807552	1.95517441170523E-05
1	155	54.2100968631327	1.36093139648438	1.361083984375	1.69158935546875E-06	2.30239515985886E-06	804618.4375	1.97211629711092E-05
1	156	54.3108048628784	1.37100219726563	1.3714599609375	1.71142578125E-06	2.34715184888046E-06	801355.25	1.98925190488808E-05
1	157	54.4115128626241	1.38107299804688	1.38092041015625	1.7315673828125E-06	2.39115661315736E-06	797497.375	2.00658869289327E-05
1	158	54.5122208623699	1.39114379882813	1.39068603515625	1.7529296875E-06	2.43777481045981E-06	793349.625	2.02413448278094E-05
1	159	54.6129288621156	1.40121459960938	1.4013671875	1.77490234375E-06	2.48728997576109E-06	789546.0625	2.04189855139703E-05
1	160	54.7136368618613	1.41128540039063	1.41143798828125	1.79718017578125E-06	2.5366084628331E-06	785362.5625	2.05988544621505E-05
1	161	54.8143448616071	1.42135620117188	1.42181396484375	1.8206787109375E-06	2.58866634794686E-06	780925.25	2.0781028069905E-05
1	162	54.9150528613528	1.43142700195313	1.43096923828125	1.84539794921875E-06	2.6407076347823E-06	775425.8125	2.09656300285133E-05
1	163	55.0157608610986	1.44149780273438	1.44134521484375	1.87042236328125E-06	2.69592419499531E-06	770598.8125	2.11527367355302E-05
1	164	55.1164688608443	1.45156860351563	1.451416015625	1.89788818359375E-06	2.75462525678449E-06	764753.1875	2.13424864341505E-05
1	165	55.21717686059	1.46163940429688	1.46148681640625	1.9281005859375E-06	2.8178935735923E-06	757993.0625	2.15351392398588E-05
1	166	55.3178848603358	1.47171020507813	1.4715576171875	1.96319580078125E-06	2.88895557787328E-06	749572.5625	2.17310825973982E-05
1	167	55.4185928600815	1.48178100585938	1.48223876953125	2.00714111328125E-06	2.97506244351098E-06	738482.5625	2.19310040847631E-05
1	168	55.5193008598272	1.49185180664063	1.49200439453125	2.0648193359375E-06	3.08071935251064E-06	722583.5625	2.21360442083096E-05
1	169	55.620008859573	1.50192260742188	1.50177001953125	2.1392822265625E-06	3.21270977110544E-06	701997.1875	2.23477363761049E-05
1	170	55.7207168593187	1.49185180664063	1.49169921875	1.90277099609375E-06	2.83836197922938E-06	783961.5625	2.25512703764252E-05
1	171	55.8214248590645	1.48178100585938	1.48193359375	1.73797607421875E-06	2.57556507676782E-06	852677.8125	2.27345972234616E-05
1	172	55.9221328588102	1.47171020507813	1.4715576171875	1.61346435546875E-06	2.37430572269659E-06	912048.4375	2.2903355784365E-05
1	173	56.0228408585559	1.46163940429688	1.46148681640625	1.51611328125E-06	2.21577943193552E-06	963969.4375	2.30609421123518E-05
1	174	56.1235488583017	1.45156860351563	1.45111083984375	1.43768310546875E-06	2.08623737307789E-06	1009339.875	2.32096772379009E-05
1	175	56.2242568580474	1.44149780273438	1.44134521484375	1.37481689453125E-06	1.98158568309736E-06	1048390.6875	2.33512982958928E-05
1	176	56.3249648577931	1.43142700195313	1.4312744140625	1.32354736328125E-06	1.89435934316862E-06	1081392.75	2.34871713473694E-05
1	177	56.4256728575389	1.42135620117188	1.4215087890625	1.27960205078125E-06	1.8189654156231E-06	1110899.125	2.36182513617678E-05
1	178	56.5263808572846	1.41128540039063	1.4111328125	1.24267578125E-06	1.75358047727059E-06	1135560	2.37452568399021E-05
1	179	56.6270888570303	1.40121459960938	1.4013671875	1.21002197265625E-06	1.69568511410034E-06	1158133.625	2.38687607634347E-05
1	180	56.7277968567761	1.39114379882813	1.3909912109375	1.18194580078125E-06	1.64407617830875E-06	1176865.5	2.39892051467905E-05
1	181	56.8285048565218	1.38107299804688	1.38031005859375	1.156005859375E-06	1.59564649493404E-06	1194033.75	2.4106930140988E-05
1	182	56.9292128562676	1.37100219726563	1.37115478515625	1.13311767578125E-06	1.55367968091014E-06	1210072.75	2.42221976805013E-05
1	183	57.0299208560133	1.36093139648438	1.36077880859375	1.1126708984375E-06	1.51409881254949E-06	1222984.125	2.43352824327303E-05
1	184	57.130628855759	1.35086059570313	1.35101318359375	1.09283447265625E-06	1.47643368109129E-06	1236247	2.4446337192785E-05
1	185	57.2313368555048	1.34078979492188	1.34063720703125	1.0748291015625E-06	1.44095588439086E-06	1247302.625	2.45554874709342E-05
1	186	57.3320448552505	1.33071899414063	1.33026123046875	1.058349609375E-06	1.40788131375302E-06	1256920.5	2.46629024331924E-05
1	187	57.4327528549962	1.32064819335938	1.32049560546875	1.04248046875E-06	1.37659083065955E-06	1266686.25	2.4768687580945E-05
1	188	57.533460854742	1.31057739257813	1.31103515625	1.0284423828125E-06	1.3483241900758E-06	1274777.375	2.48729666054714E-05
1	189	57.6341688544877	1.30050659179688	1.30096435546875	1.0150146484375E-06	1.32049785861454E-06	1281719.875	2.49758631980512E-05
1	190	57.7348768542334	1.29043579101563	1.290283203125	1.00189208984375E-06	1.29272450521967E-06	1287846.5	2.50774228334194E-05
1	191	57.8355848539792	1.28036499023438	1.28021240234375	9.8907470703125E-07	1.26622569496249E-06	1294353.625	2.51776746154064E-05
1	192	57.9362928537249	1.27029418945313	1.27044677734375	9.77478027343751E-07	1.24183372918196E-06	1299719.125	2.52766985795461E-05
1	193	58.0370008534707	1.26022338867188	1.26068115234375	9.66491699218749E-07	1.21843788747356E-06	1304389	2.53745856753085E-05
1	194	58.1377088532164	1.25015258789063	1.25	9.5672607421875E-07	1.19590754366072E-06	1306539.125	2.54714268521639E-05
1	195	58.2384168529621	1.24008178710938	1.240234375	9.46960449218751E-07	1.17445290470641E-06	1309700.375	2.55672857747413E-05
1	196	58.3391248527079	1.23001098632813	1.2298583984375	9.3719482421875E-07	1.15261684641155E-06	1312276.25	2.56621606240515E-05
1	197	58.4398328524536	1.21994018554688	1.219482421875	9.27734375E-07	1.13135570245504E-06	1314473.75	2.57560677709989E-05
1	198	58.5405408521993	1.20986938476563	1.21002197265625	9.1888427734375E-07	1.11187011953007E-06	1316838.25	2.58490526903188E-05
1	199	58.6412488519451	1.19979858398438	1.199951171875	9.1094970703125E-07	1.09309507934086E-06	1317253	2.5941191779566E-05
1	200	58.7419568516908	1.18972778320313	1.18927001953125	9.02709960937501E-07	1.0735658406702E-06	1317444.25	2.60325159615604E-05
1	201	58.8426648514366	1.17965698242188	1.1798095703125	8.95080566406251E-07	1.05602453004394E-06	1318104.375	2.61230416072067E-05
1	202	58.9433728511823	1.16958618164063	1.16973876953125	8.8653564453125E-07	1.03701506759535E-06	1319449.25	2.62127541645896E-05
1	203	59.044080850928	1.15951538085938	1.15966796875	8.78295898437501E-07	1.01853152045805E-06	1320361.375	2.63016208918998E-05
1	204	59.1447888506738	1.14944458007813	1.14990234375	8.70666503906251E-07	1.00118143109285E-06	1320715	2.63896872638725E-05
1	205	59.2454968504195	1.13937377929688	1.13922119140625	8.6212158203125E-07	9.82147184913629E-07	1321416	2.64769405475818E-05
1	206	59.3462048501652	1.12930297851563	1.12884521484375	8.53881835937501E-07	9.63900447459309E-07	1322015.75	2.65633480012184E-05
1	207	59.446912849911	1.11923217773438	1.1187744140625	8.453369140625E-07	9.45741305713454E-07	1323465.75	2.66489096247824E-05
1	208	59.5476208496567	1.10916137695313	1.1090087890625	8.3648681640625E-07	9.27671180761536E-07	1325793.625	2.67335963144433E-05
1	209	59.6483288494024	1.09909057617188	1.09954833984375	8.282470703125E-07	9.1069767904628E-07	1327560.875	2.68174226221163E-05
1	210	59.7490368491482	1.08901977539063	1.0882568359375	8.18481445312499E-07	8.90717956281151E-07	1329604.875	2.69003430730663E-05
1	211	59.8497448488939	1.07894897460938	1.0791015625	8.099365234375E-07	8.74003774242738E-07	1332328.5	2.69823394773994E-05
1	212	59.9504528486397	1.06887817382813	1.06842041015625	8.00476074218751E-07	8.5524499127132E-07	1334731.25	2.70634300250094E-05
1	213	60.0511608483854	1.05880737304688	1.05926513671875	7.91015625E-07	8.37895299810043E-07	1339120.375	2.71435674221721E-05
1	214	60.1518688481311	1.04873657226563	1.048583984375	7.8155517578125E-07	8.19526235318335E-07	1341663.375	2.72227534878766E-05
1	215	60.2525768478769	1.03866577148438	1.03851318359375	7.72705078124999E-07	8.02464398930169E-07	1343996.875	2.73010173259536E-05
1	216	60.3532848476226	1.02859497070313	1.02813720703125	7.6324462890625E-07	7.8472015729858E-07	1347061.25	2.73783571174135E-05
1	217	60.4539928473683	1.01852416992188	1.01837158203125	7.54699707031251E-07	7.68564689224149E-07	1349373.25	2.74547928711399E-05
1	218	60.5547008471141	1.00845336914063	1.00830078125	7.4615478515625E-07	7.52348398691538E-07	1351329.375	2.75303664238891E-05
1	219	60.6554088468598	0.998382568359375	0.99884033203125	7.37915039062501E-07	7.37059281163965E-07	1353598.125	2.76050959655549E-05
1	220	60.7561168466056	0.988311767578125	0.98876953125	7.293701171875E-07	7.21178878393403E-07	1355648.625	2.76789796771482E-05
1	221	60.8568248463513	0.978240966796875	0.9783935546875	7.21130371093751E-07	7.05549268786854E-07	1356750	2.77520175586687E-05
1	222	60.957532846097	0.968170166015625	0.9686279296875	7.1258544921875E-07	6.90230137934122E-07	1359314.875	2.78242114291061E-05
1	223	61.0582408458428	0.958099365234375	0.95794677734375	7.04040527343749E-07	6.74433351832704E-07	1360641.5	2.78955430985661E-05
1	224	61.1589488455885	0.948028564453125	0.94818115234375	6.9580078125E-07	6.59745126085909E-07	1362719.375	2.79660307569429E-05
1	225	61.2596568453342	0.937957763671875	0.93841552734375	6.878662109375E-07	6.45504314888967E-07	1364241.375	2.80357035080669E-05
1	226	61.36036484508	0.927886962890625	0.927734375	6.7962646484375E-07	6.3051282950255E-07	1365065.125	2.81045631709276E-05
1	227	61.4610728448257	0.917816162109375	0.91827392578125	6.7169189453125E-07	6.16797137809044E-07	1367106	2.81726079265354E-05
1	228	61.5617808445714	0.907745361328125	0.90728759765625	6.6436767578125E-07	6.0277250213403E-07	1365640.875	2.82398832496256E-05
1	229	61.6624888443172	0.897674560546875	0.8978271484375	6.56738281249999E-07	5.89637465964188E-07	1367100.375	2.83064055111026E-05
1	230	61.7631968440629	0.887603759765625	0.88775634765625	6.4971923828125E-07	5.76792331230536E-07	1366369.25	2.83721910818713E-05
1	231	61.8639048438087	0.877532958984375	0.877685546875	6.4239501953125E-07	5.63820776733337E-07	1366270.875	2.84372545138467E-05
1	232	61.9646128435544	0.867462158203125	0.867919921875	6.35681152343751E-07	5.5172034763018E-07	1365338.5	2.85016103589442E-05
1	233	62.0653208433001	0.857391357421875	0.85784912109375	6.29272460937499E-07	5.39820803169277E-07	1363239.625	2.85653059108881E-05
1	234	62.1660288430459	0.847320556640625	0.84747314453125	6.23168945312499E-07	5.28118960119173E-07	1359941.25	2.86283720924985E-05
1	235	62.2667368427916	0.837249755859375	0.8367919921875	6.1614990234375E-07	5.15589249516779E-07	1358098.125	2.86907761619659E-05
1	236	62.3674448425373	0.827178955078125	0.82763671875	6.1004638671875E-07	5.04896775055386E-07	1356678.375	2.87525199382799E-05
1	237	62.4681528422831	0.817108154296875	0.816650390625	6.024169921875E-07	4.91964101456688E-07	1355623.125	2.88135724986205E-05
1	238	62.5688608420288	0.807037353515625	0.806884765625	5.9478759765625E-07	4.79925063245901E-07	1356593.125	2.88738574454328E-05
1	239	62.6695688417745	0.796966552734375	0.79742431640625	5.859375E-07	4.67240795387625E-07	1360937.625	2.89333111140877E-05
1	240	62.7702768415203	0.786895751953125	0.78765869140625	5.767822265625E-07	4.54307524933029E-07	1365608.5	2.89918589260196E-05
1	241	62.870984841266	0.776824951171875	0.7769775390625	5.65185546875E-07	4.3913647118643E-07	1374730	2.90493608190445E-05
1	242	62.9716928410118	0.766754150390625	0.76690673828125	5.51757812500001E-07	4.23146786943107E-07	1389933.625	2.91056039714022E-05
1	243	63.0724008407575	0.756683349609375	0.7568359375	5.35888671875E-07	4.05579783091525E-07	1412300.75	2.91603719233535E-05
1	244	63.1731088405032	0.746612548828125	0.74652099609375	5.19409179687499E-07	3.87749850006003E-07	1437250.25	2.92135100607993E-05
1	245	63.273816840249	0.736541748046875	0.736480712890625	5.0048828125E-07	3.68599955891113E-07	1471524.375	2.92648655886296E-05
1	246	63.3745248399947	0.726470947265625	0.726348876953125	4.82177734375E-07	3.50229242940259E-07	1506392.5	2.93143475573743E-05
1	247	63.4752328397404	0.716400146484375	0.716278076171875	4.65087890625E-07	3.33132248897527E-07	1540091.875	2.93620450975141E-05
1	248	63.5759408394862	0.706329345703125	0.706298828125	4.49218749999999E-07	3.17282655259987E-07	1572282.625	2.94080837193178E-05
1	249	63.6766488392319	0.696258544921875	0.6961669921875	4.3670654296875E-07	3.04020659314119E-07	1594130	2.94526944344398E-05
1	250	63.7773568389777	0.686187744140625	0.68609619140625	4.2724609375E-07	2.93131904527399E-07	1605857.25	2.9496197385015E-05
1	251	63.8780648387234	0.676116943359375	0.675994873046875	4.20532226562501E-07	2.84277632545127E-07	1607474.625	2.95388872473268E-05
1	252	63.9787728384691	0.666046142578125	0.666015625	4.15649414062499E-07	2.76828984624444E-07	1602349.5	2.95809913950507E-05
1	253	64.0794808382149	0.655975341796875	0.65594482421875	4.1229248046875E-07	2.70441120164833E-07	1590969.625	2.96226826321799E-05
1	254	64.1801888379606	0.645904541015625	0.6458740234375	4.09545898437499E-07	2.64515051640046E-07	1577049.25	2.96640646411106E-05
1	255	64.2808968377063	0.635833740234375	0.63580322265625	4.0771484375E-07	2.59226396792656E-07	1559431.25	2.97052174573764E-05
1	256	64.3816048374521	0.625762939453125	0.625640869140625	4.0618896484375E-07	2.54128394772124E-07	1540270.5	2.97462011076277E-05
1	257	64.4823128371978	0.615692138671875	0.615631103515625	4.05273437500001E-07	2.49498924631553E-07	1519051.25	2.97870610665996E-05
1	258	64.5830208369435	0.605621337890625	0.6055908203125	4.0435791015625E-07	2.44875423049962E-07	1497660.375	2.98278282571118E-05
1	259	64.6837288366893	0.595550537109375	0.595489501953125	4.0252685546875E-07	2.39700511883711E-07	1479378.375	2.98684590234188E-05
1	260	64.784436836435	0.585479736328125	0.58544921875	4.01916503906249E-07	2.35301683915168E-07	1456644	2.99089660984464E-05
1	261	64.8851448361808	0.575408935546875	0.575408935546875	4.00695800781251E-07	2.30563941272521E-07	1436024.375	2.99493804050144E-05
1	262	64.9858528359265	0.565338134765625	0.5653076171875	3.98864746093749E-07	2.25481272764227E-07	1417291.625	2.99896419164725E-05
1	263	65.0865608356722	0.555267333984375	0.555206298828125	3.9794921875E-07	2.20943903173065E-07	1395168.75	3.00297651847359E-05
1	264	65.187268835418	0.545196533203125	0.545166015625	3.9642333984375E-07	2.1611653266973E-07	1375211.75	3.00697647617199E-05
1	265	65.2879768351637	0.535125732421875	0.53509521484375	3.9520263671875E-07	2.1147103268504E-07	1353976.875	3.01096260955092E-05
1	266	65.3886848349094	0.525054931640625	0.5250244140625	3.94287109374999E-07	2.07010359076776E-07	1331579	3.01493801089237E-05
1	267	65.4893928346552	0.514984130859375	0.514984130859375	3.91845703125E-07	2.0179432169698E-07	1314252.375	3.01889649563236E-05
1	268	65.5901008344009	0.504913330078125	0.504852294921875	3.90014648437501E-07	1.96899776483406E-07	1294444.5	3.0228335162974E-05
1	269	65.6908088341467	0.494842529296875	0.494781494140625	3.8909912109375E-07	1.92519038932915E-07	1271607.875	3.02675653074402E-05
1	270	65.7915168338924	0.484771728515625	0.4847412109375	3.86657714843749E-07	1.8742892393675E-07	1253670.125	3.03066281048814E-05
1	271	65.8922248336381	0.474700927734375	0.474609375	3.85437011718751E-07	1.82932012648962E-07	1231354	3.03455071843928E-05
1	272	65.9929328333839	0.464630126953125	0.464569091796875	3.82385253906251E-07	1.77644366772256E-07	1214924.125	3.03841698041651E-05
1	273	66.0936408331296	0.454559326171875	0.45458984375	3.80859375000001E-07	1.73134807823772E-07	1193589.75	3.04226014122833E-05
1	274	66.1943488328753	0.444488525390625	0.44451904296875	3.7872314453125E-07	1.6834964355894E-07	1173730.875	3.04608493024716E-05
1	275	66.2950568326211	0.434417724609375	0.434417724609375	3.765869140625E-07	1.63596027391577E-07	1153565.625	3.04988825519104E-05
1	276	66.3957648323668	0.424346923828125	0.42431640625	3.74755859375001E-07	1.59015058898149E-07	1132247.625	3.05367175315041E-05
1	277	66.4964728321125	0.414276123046875	0.414306640625	3.72314453125E-07	1.54252347783768E-07	1112786.875	3.05743342323694E-05
1	278	66.5971808318583	0.404205322265625	0.404205322265625	3.704833984375E-07	1.49751357980676E-07	1091021.5	3.06117362924851E-05
1	279	66.697888831604	0.394134521484375	0.3941650390625	3.68652343750001E-07	1.45309869026278E-07	1069205.375	3.06489564536605E-05
1	280	66.7985968313498	0.384063720703125	0.38409423828125	3.66821289062499E-07	1.40893931188657E-07	1047088.25	3.06859874399379E-05
1	281	66.8993048310955	0.373992919921875	0.3740234375	3.64990234375E-07	1.36514898940732E-07	1024749.1875	3.07228401652537E-05
1	282	67.0000128308412	0.363922119140625	0.363922119140625	3.631591796875E-07	1.3216164518326E-07	1002100.875	3.07595037156716E-05
1	283	67.100720830587	0.353851318359375	0.3538818359375	3.60717773437499E-07	1.27651460957168E-07	981049.125	3.07959526253399E-05
1	284	67.2014288303327	0.343780517578125	0.343841552734375	3.5888671875E-07	1.23400170082277E-07	958078.25	3.08321905322373E-05
1	285	67.3021368300784	0.333709716796875	0.333709716796875	3.56445312500001E-07	1.18949259331202E-07	936215.8125	3.08682101604063E-05
1	286	67.4028448298242	0.323638916015625	0.323638916015625	3.5400390625E-07	1.1456943838084E-07	914224.125	3.09039824060164E-05
1	287	67.5035528295699	0.313568115234375	0.3135986328125	3.51562499999999E-07	1.10249509077676E-07	892013.9375	3.09395109070465E-05
1	288	67.6042608293156	0.303497314453125	0.303466796875	3.4820556640625E-07	1.05668824801342E-07	871516.25	3.0974748369772E-05
1	289	67.7049688290614	0.293426513671875	0.29339599609375	3.4515380859375E-07	1.01266742547068E-07	850044.1875	3.10096620523836E-05
1	290	67.8056768288071	0.283355712890625	0.283355712890625	3.4149169921875E-07	9.67636211157696E-08	829758.6875	3.10442374029662E-05
1	291	67.9063848285529	0.273284912109375	0.2733154296875	3.38134765625001E-07	9.24174443639458E-08	808303.25	3.10784562316258E-05
1	292	68.0070928282986	0.263214111328125	0.26318359375	3.33557128906251E-07	8.77867663007237E-08	789021.0625	3.11122785205953E-05
1	293	68.1078008280443	0.253143310546875	0.25311279296875	3.2928466796875E-07	8.33461584193174E-08	768674.6875	3.11456569761503E-05
1	294	68.2085088277901	0.243072509765625	0.24310302734375	3.2470703125E-07	7.8937262060208E-08	748684.1875	3.11785879603121E-05
1	295	68.3092168275358	0.233001708984375	0.2330322265625	3.18298339843751E-07	7.41737693488176E-08	732118.875	3.12109659716953E-05
1	296	68.4099248272815	0.222930908203125	0.222930908203125	3.11889648437499E-07	6.95298396635735E-08	714775	3.12427000608295E-05
1	297	68.5106328270273	0.212860107421875	0.21282958984375	3.033447265625E-07	6.45607300953088E-08	701609.6875	3.12736774503719E-05
1	298	68.611340826773	0.202789306640625	0.202850341796875	2.9296875E-07	5.94288067645721E-08	692395.875	3.13037053274456E-05
1	299	68.7120488265188	0.192718505859375	0.192779541015625	2.79541015625E-07	5.38897886315226E-08	689628.8125	3.1332532671513E-05
1	300	68.8127568262645	0.182647705078125	0.1827392578125	2.6214599609375E-07	4.79043649193045E-08	697089.6875	3.13598102366086E-05
1	301	68.9134648260102	0.172576904296875	0.172607421875	2.392578125E-07	4.12976746133609E-08	721428.5625	3.13850578095298E-05
1	302	69.014172825756	0.162506103515625	0.162506103515625	2.0721435546875E-07	3.36735972439328E-08	784241.5	3.14075368805788E-05
1	303	69.1148808255017	0.152435302734375	0.1524658203125	1.63879394531249E-07	2.49860061529716E-08	930353.8125	3.14262251777109E-05
1	304	69.2155888252474	0.142364501953125	0.142425537109375	1.03759765625E-07	1.47780392367736E-08	1372647.125	3.14397002512123E-05
1	305	69.3162968249932	0.132293701171875	0.13232421875	2.13623046875E-08	2.82675016727296E-09	6194286	3.14460012305062E-05
1	306	69.4170048247389	0.122222900390625	0.122283935546875	-9.09423828125006E-08	-1.11207922870449E-08	-1344630.875	3.1442497856915E-05
1	307	69.5177128244846	0.112152099609375	0.1121826171875	-2.3956298828125E-07	-2.68748028275922E-08	-468280.28125	3.14258541038726E-05
1	308	69.6184208242304	0.102081298828125	0.102142333984375	-4.315185546875E-07	-4.40763123776833E-08	-236704.390625	3.13920645567123E-05
1	309	69.7191288239761	0.092010498046875	0.09210205078125	-6.66198730468751E-07	-6.13582713526739E-08	-138250.109375	3.13367891067173E-05
1	310	69.8198368237219	0.081939697265625	0.082000732421875	-9.37805175781251E-07	-7.69007115763998E-08	-87438.984375	3.12560223392211E-05
1	311	69.9205448234676	0.071868896484375	0.0718994140625	-1.23016357421875E-06	-8.84480400031862E-08	-58447.03515625	3.11468538711779E-05
1	312	70.0212528232133	0.061798095703125	0.061859130859375	-1.51580810546875E-06	-9.37665731726156E-08	-40809.34375	3.10085852106567E-05
1	313	70.1219608229591	0.051727294921875	0.05181884765625	-1.7669677734375E-06	-9.1562235127185E-08	-29326.423828125	3.08432827296201E-05
1	314	70.2226688227048	0.041656494140625	0.0417694091796875	-1.9573974609375E-06	-8.17593317492538E-08	-21339.2578125	3.06557485600933E-05
1	315	70.3233768224505	0.031585693359375	0.031658935546875	-2.0751953125E-06	-6.569847244009E-08	-15255.8837890625	3.04526893160073E-05
1	316	70.4240848221963	0.021514892578125	0.0216064453125	-2.11883544921875E-06	-4.57805029441261E-08	-10197.3212890625	3.02415046462556E-05
1	317	70.524792821942	0.011444091796875	0.0115325927734375	-2.103271484375E-06	-2.42561739582925E-08	-5483.16845703125	3.0028904802748E-05
1	318	70.6255008216878	0.001373291015625	0.00147094726562499	-2.0458984375E-06	-3.00940850017639E-09	-718.973815917969	2.98199774988461E-05
1	319	70.7262088214335	-0.008697509765625	-0.0086029052734375	-1.96380615234375E-06	1.68944378486913E-08	4380.72998046875	2.96180714940419E-05
1	320	70.8269168211792	-0.018768310546875	-0.01866455078125	-1.87225341796875E-06	3.49447688563487E-08	9969.0302734375	2.942491119029E-05
1	321	70.927624820925	-0.028839111328125	-0.028729248046875	-1.78009033203125E-06	5.11406561543026E-08	16139.208984375	2.92410004476551E-05
1	322	71.0283328206707	-0.038909912109375	-0.0387664794921875	-1.6912841796875E-06	6.55651390957246E-08	22921.328125	2.9066202841932E-05
1	323	71.1290408204164	-0.048980712890625	-0.0488250732421875	-1.610107421875E-06	7.86136098440693E-08	30324.111328125	2.88999654003419E-05
1	324	71.2297488201622	-0.059051513671875	-0.058990478515625	-1.53717041015625E-06	9.06784194398824E-08	38376.015625	2.87414877675474E-05
1	325	71.3304568199079	-0.069122314453125	-0.069091796875	-1.47186279296875E-06	1.0169364372814E-07	46941.73828125	2.85899695882108E-05
1	326	71.4311648196536	-0.079193115234375	-0.079132080078125	-1.41387939453125E-06	1.11883210252017E-07	55968.05859375	2.84446614386979E-05
1	327	71.5318728193994	-0.089263916015625	-0.0892333984375	-1.3629150390625E-06	1.21617532045093E-07	65472.4609375	2.83048393612262E-05
1	328	71.6325808191451	-0.099334716796875	-0.099212646484375	-1.31744384765625E-06	1.3070707893803E-07	75306.9296875	2.81698721664725E-05
1	329	71.7332888188909	-0.109405517578125	-0.10931396484375	-1.278076171875E-06	1.39711573865497E-07	85530.0859375	2.80391777778277E-05
1	330	71.8339968186366	-0.119476318359375	-0.119384765625	-1.24298095703125E-06	1.48392985011014E-07	96047.140625	2.79122323263437E-05
1	331	71.9347048183823	-0.129547119140625	-0.12945556640625	-1.212158203125E-06	1.56920620497658E-07	106797.5859375	2.77886065305211E-05
1	332	72.0354128181281	-0.139617919921875	-0.1395263671875	-1.185302734375E-06	1.6538098179808E-07	117713.6953125	2.76678838417865E-05
1	333	72.1361208178738	-0.149688720703125	-0.149566650390625	-1.1614990234375E-06	1.73721517171543E-07	128770.3671875	2.75497131951852E-05
1	334	72.2368288176195	-0.159759521484375	-0.159637451171875	-1.1407470703125E-06	1.82105949875222E-07	139941.15625	2.74337853625184E-05
1	335	72.3375368173653	-0.169830322265625	-0.169677734375	-1.1224365234375E-06	1.90452482229375E-07	151169.109375	2.73198256763862E-05
1	336	72.438244817111	-0.179901123046875	-0.17974853515625	-1.107177734375E-06	1.99013570068018E-07	162348.40625	2.720755583141E-05
1	337	72.5389528168567	-0.189971923828125	-0.18975830078125	-1.09375E-06	2.07548140451763E-07	173493.296875	2.70967302640202E-05
1	338	72.6396608166025	-0.200042724609375	-0.19989013671875	-1.0833740234375E-06	2.16555761767268E-07	184507.0625	2.69871034106473E-05
1	339	72.7403688163482	-0.189971923828125	-0.1898193359375	-9.4573974609375E-07	1.79519688003893E-07	200709.90625	2.68849289568607E-05
2	340	72.841076816094	-0.179901123046875	-0.17974853515625	-8.55102539062499E-07	1.53703425098684E-07	210207	2.67942486971151E-05
2	341	72.9417848158397	-0.169830322265625	-0.169708251953125	-7.830810546875E-07	1.32895308979641E-07	216718.640625	2.67117611656431E-05
2	342	73.0424928155854	-0.159759521484375	-0.159637451171875	-7.232666015625E-07	1.15460430549774E-07	220717.3125	2.66359093075152E-05
2	343	73.1432008153312	-0.149688720703125	-0.14959716796875	-6.7108154296875E-07	1.00391893909091E-07	222919.515625	2.65656981355278E-05
2	344	73.2439088150769	-0.139617919921875	-0.139556884765625	-6.2530517578125E-07	8.72656400474625E-08	223182.046875	2.65004200628027E-05
2	345	73.3446168148226	-0.129547119140625	-0.12945556640625	-5.8258056640625E-07	7.54182920559288E-08	222210.59375	2.64395985141164E-05
2	346	73.4453248145684	-0.119476318359375	-0.119384765625	-5.4443359375E-07	6.49970743893391E-08	219282.515625	2.63828496827045E-05
2	347	73.5460328143141	-0.109405517578125	-0.109283447265625	-5.08728027343749E-07	5.55955530501251E-08	214817.046875	2.63298188656336E-05
2	348	73.6467408140599	-0.099334716796875	-0.099273681640625	-4.7454833984375E-07	4.71101593291223E-08	209196.140625	2.62803059740691E-05
2	349	73.7474488138056	-0.089263916015625	-0.089263916015625	-4.425048828125E-07	3.94997172747935E-08	201724.140625	2.62341291090706E-05
2	350	73.8481568135513	-0.079193115234375	-0.079132080078125	-4.1015625E-07	3.24565156972767E-08	192931.546875	2.61911936831893E-05
2	351	73.9488648132971	-0.069122314453125	-0.06903076171875	-3.765869140625E-07	2.59960817317051E-08	183306.328125	2.61515779129695E-05
2	352	74.0495728130428	-0.059051513671875	-0.058990478515625	-3.4149169921875E-07	2.0144758750007E-08	172743.515625	2.61154200416058E-05
2	353	74.1502808127885	-0.048980712890625	-0.048828125	-3.0242919921875E-07	1.47670498051866E-08	161453.078125	2.60829965554876E-05
2	354	74.2509888125343	-0.038909912109375	-0.0387542724609375	-2.5604248046875E-07	9.92273996303084E-09	151358.765625	2.60548749793088E-05
2	355	74.35169681228	-0.028839111328125	-0.0287017822265625	-2.01416015625E-07	5.78099879078309E-09	142500	2.60318392975023E-05
2	356	74.4524048120257	-0.018768310546875	-0.01866455078125	-1.312255859375E-07	2.44926634529463E-09	142232.5625	2.60150900430745E-05
2	357	74.5531128117715	-0.008697509765625	-0.00859375	-4.05883789062506E-08	3.4880640042978E-10	211729.328125	2.60064389294712E-05
2	358	74.6538208115172	0.001373291015625	0.00146484375	7.781982421875E-08	1.1399387683797E-10	18823.53125	2.60083143075462E-05
2	359	74.754528811263	0.011444091796875	0.01151123046875	2.31018066406249E-07	2.65930233389611E-09	49828.2734375	2.60238648479572E-05
2	360	74.8552368110087	0.021514892578125	0.021624755859375	4.25109863281251E-07	9.19289622203223E-09	50868.62890625	2.60569031524938E-05
2	361	74.9559448107544	0.031585693359375	0.0316864013671875	6.6375732421875E-07	2.10320809657105E-08	47737.93359375	2.61117329500848E-05
2	362	75.0566528105002	0.041656494140625	0.0417327880859375	9.3963623046875E-07	3.92136385585218E-08	44413.7734375	2.61924687947612E-05
2	363	75.1573608102459	0.051727294921875	0.05181884765625	1.23779296875E-06	6.4141005395868E-08	41863.90625	2.63021120190388E-05
2	364	75.2580688099916	0.061798095703125	0.0618896484375	1.53411865234375E-06	9.49460599031227E-08	40342.15234375	2.6441688532941E-05
2	365	75.3587768097374	0.071868896484375	0.0718994140625	1.79901123046875E-06	1.29347853317086E-07	39966.07421875	2.66095248662168E-05
2	366	75.4594848094831	0.081939697265625	0.08203125	2.00714111328125E-06	1.64648298550674E-07	40869.69921875	2.6801180865732E-05
2	367	75.5601928092289	0.092010498046875	0.092041015625	2.1429443359375E-06	1.97238776422637E-07	42950.7265625	2.7010153644369E-05
2	368	75.6609008089746	0.102081298828125	0.102081298828125	2.2052001953125E-06	2.25109701545989E-07	46291.171875	2.72290999419056E-05
2	369	75.7616088087203	0.112152099609375	0.112213134765625	2.2064208984375E-06	2.47589383661762E-07	50857.54296875	2.74512422038242E-05
2	370	75.8623168084661	0.122222900390625	0.122283935546875	2.16339111328125E-06	2.64547963979567E-07	56524.1953125	2.7671279895003E-05
2	371	75.9630248082118	0.132293701171875	0.13232421875	2.09381103515625E-06	2.77061900533226E-07	63197.78515625	2.78856477962108E-05
2	372	76.0637328079575	0.142364501953125	0.1424560546875	2.01202392578125E-06	2.86625009948693E-07	70802.3671875	2.80923923128285E-05
2	373	76.1644408077033	0.152435302734375	0.15240478515625	1.92626953125E-06	2.93572696818956E-07	79119.140625	2.82907021755818E-05
2	374	76.265148807449	0.162506103515625	0.162506103515625	1.844482421875E-06	2.99739639331165E-07	88103.90625	2.84805737464922E-05
2	375	76.3658568071947	0.172576904296875	0.172576904296875	1.767578125E-06	3.05043158732587E-07	97634.671875	2.86624563159421E-05
2	376	76.4665648069405	0.182647705078125	0.1826171875	1.697998046875E-06	3.10083606791522E-07	107548.53125	2.88369610643713E-05
2	377	76.5672728066862	0.192718505859375	0.1927490234375	1.6357421875E-06	3.15287707053358E-07	117835.828125	2.90048283204669E-05
2	378	76.667980806432	0.202789306640625	0.202850341796875	1.57989501953125E-06	3.20482229199115E-07	128394.828125	2.91667493002024E-05
2	379	76.7686888061777	0.212860107421875	0.212921142578125	1.53076171875E-06	3.25931523548206E-07	139094.90625	2.93233824777417E-05
2	380	76.8693968059234	0.222930908203125	0.22296142578125	1.48773193359375E-06	3.31706814904464E-07	149866.671875	2.94753754133126E-05
2	381	76.9701048056692	0.233001708984375	0.2330322265625	1.44866943359375E-06	3.37586669729717E-07	160859.484375	2.96232356049586E-05
2	382	77.0708128054149	0.243072509765625	0.2430419921875	1.41387939453125E-06	3.43632052590692E-07	171897.265625	2.97673759632744E-05
2	383	77.1715208051606	0.253143310546875	0.25311279296875	1.3836669921875E-06	3.50223814393757E-07	182928.984375	2.99082439596532E-05
2	384	77.2722288049064	0.263214111328125	0.26318359375	1.3555908203125E-06	3.56769277232161E-07	194146.78125	3.00461761071347E-05
2	385	77.3729368046521	0.273284912109375	0.273284912109375	1.33026123046875E-06	3.63540294756604E-07	205437.03125	3.01814197882777E-05
2	386	77.4736448043978	0.283355712890625	0.2833251953125	1.30859375E-06	3.70757561540813E-07	216511.203125	3.03142969642067E-05
2	387	77.5743528041436	0.293426513671875	0.29339599609375	1.2884521484375E-06	3.78026697944733E-07	227711.984375	3.04450677504065E-05
2	388	77.6750608038893	0.303497314453125	0.303497314453125	1.2701416015625E-06	3.85484554499271E-07	238947.640625	3.05739049508702E-05
2	389	77.7757688036351	0.313568115234375	0.3135986328125	1.2530517578125E-06	3.92955314509891E-07	250267.890625	3.07009577227291E-05
2	390	77.8764768033808	0.323638916015625	0.3236083984375	1.23809814453125E-06	4.00658933585873E-07	261375.40625	3.08263952319976E-05
2	391	77.9771848031265	0.333709716796875	0.333740234375	1.224365234375E-06	4.08619911240748E-07	272582.28125	3.09503921016585E-05
2	392	78.0778928028723	0.343780517578125	0.343780517578125	1.21185302734375E-06	4.16611470654971E-07	283681.6875	3.10730647470336E-05
2	393	78.178600802618	0.353851318359375	0.35382080078125	1.2005615234375E-06	4.24783650032623E-07	294712.75	3.11945404973812E-05
2	394	78.2793088023637	0.363922119140625	0.36395263671875	1.19049072265625E-06	4.33282224321374E-07	305716.5	3.13149394060019E-05
2	395	78.3800168021095	0.373992919921875	0.37396240234375	1.18194580078125E-06	4.42003283751546E-07	316395.5625	3.14343997160904E-05
2	396	78.4807248018552	0.384063720703125	0.384033203125	1.17340087890625E-06	4.50624895620422E-07	327282.1875	3.15530014631804E-05
2	397	78.581432801601	0.394134521484375	0.394134521484375	1.1663818359375E-06	4.59711344547031E-07	337912.09375	3.16708174068481E-05
2	398	78.6821408013467	0.404205322265625	0.404205322265625	1.1602783203125E-06	4.68990663193836E-07	348369.28125	3.17879748763517E-05
2	399	78.7828488010924	0.414276123046875	0.41424560546875	1.15478515625E-06	4.78364654554753E-07	358720.96875	3.19045466312673E-05
2	400	78.8835568008382	0.424346923828125	0.4244384765625	1.1505126953125E-06	4.88321802549763E-07	368912.5	3.2020627259044E-05
2	401	78.9842648005839	0.434417724609375	0.4344482421875	1.14715576171875E-06	4.98379790769832E-07	378717.75	3.21363258990459E-05
2	402	79.0849728003296	0.444488525390625	0.444488525390625	1.14349365234375E-06	5.08269806687167E-07	388711	3.22516680171248E-05
2	403	79.1856808000754	0.454559326171875	0.454559326171875	1.14105224609375E-06	5.1867590400434E-07	398368.5625	3.23667045449838E-05
2	404	79.2863887998211	0.464630126953125	0.464630126953125	1.13861083984375E-06	5.29032888607617E-07	408067.53125	3.2481493690284E-05
2	405	79.3870967995668	0.474700927734375	0.47467041015625	1.136474609375E-06	5.39450866199331E-07	417669.1875	3.25960536429193E-05
2	406	79.4878047993126	0.484771728515625	0.48480224609375	1.13555908203125E-06	5.50521576769825E-07	426928.25	3.27104608004447E-05
2	407	79.5885127990583	0.494842529296875	0.494842529296875	1.13494873046875E-06	5.61620879580005E-07	436004.34375	3.28247879224364E-05
2	408	79.6892207988041	0.504913330078125	0.504913330078125	1.13372802734375E-06	5.72434373680153E-07	445356.65625	3.29390277329367E-05
2	409	79.7899287985498	0.514984130859375	0.514984130859375	1.13433837890625E-06	5.84166286898835E-07	453995.15625	3.30532311636489E-05
2	410	79.8906367982955	0.525054931640625	0.52508544921875	1.13433837890625E-06	5.95624555899121E-07	462900.1875	3.31674709741492E-05
2	411	79.9913447980413	0.535125732421875	0.53509521484375	1.13555908203125E-06	6.07632216542697E-07	471217.4375	3.32817689923104E-05
2	412	80.092052797787	0.545196533203125	0.545135498046875	1.13739013671875E-06	6.20031698872481E-07	479286.3125	3.33962198055815E-05
2	413	80.1927607975327	0.555267333984375	0.55523681640625	1.138916015625E-06	6.32368085007329E-07	487513.40625	3.35108416038565E-05
2	414	80.2934687972785	0.565338134765625	0.5653076171875	1.14105224609375E-06	6.45045474811923E-07	495426.625	3.36256453010719E-05
2	415	80.3941767970242	0.575408935546875	0.57537841796875	1.14410400390625E-06	6.58292719890596E-07	502907.46875	3.37407145707402E-05
2	416	80.49488479677	0.585479736328125	0.58544921875	1.1474609375E-06	6.71780071570538E-07	510212.78125	3.38561039825436E-05
2	417	80.5955927965157	0.595550537109375	0.59552001953125	1.151123046875E-06	6.85516795329022E-07	517338.3125	3.39718462782912E-05
2	418	80.6963007962614	0.605621337890625	0.6055908203125	1.15509033203125E-06	6.99512099799904E-07	524280.0625	3.40879741997924E-05
2	419	80.7970087960072	0.615692138671875	0.61566162109375	1.15997314453125E-06	7.1415087177229E-07	530755.125	3.4204545954708E-05
2	420	80.8977167957529	0.625762939453125	0.625701904296875	1.1651611328125E-06	7.29043506453309E-07	537008.9375	3.43216270266566E-05
2	421	80.9984247954986	0.635833740234375	0.63580322265625	1.17156982421875E-06	7.44887870496314E-07	542693.4375	3.44392901752144E-05
2	422	81.0991327952444	0.645904541015625	0.6458740234375	1.1785888671875E-06	7.61219894229725E-07	548006.25	3.45576299878303E-05
2	423	81.1998407949901	0.655975341796875	0.65594482421875	1.18682861328125E-06	7.78494097630755E-07	552687.0625	3.46767374139745E-05
2	424	81.3005487947358	0.666046142578125	0.66595458984375	1.1962890625E-06	7.9667421459817E-07	556683.6875	3.47967361449264E-05
2	425	81.4012567944816	0.676116943359375	0.676055908203125	1.207275390625E-06	8.16185604435304E-07	559984.875	3.49177644238807E-05
2	426	81.5019647942273	0.686187744140625	0.686065673828125	1.21978759765625E-06	8.36854383123864E-07	562446.875	3.50399786839262E-05
2	427	81.6026727939731	0.696258544921875	0.6961669921875	1.2335205078125E-06	8.58736257214332E-07	564374.0625	3.51635135302786E-05
2	428	81.7033807937188	0.706329345703125	0.706268310546875	1.24908447265625E-06	8.82188771811343E-07	565428.8125	3.52885217580479E-05
2	429	81.8040887934645	0.716400146484375	0.71636962890625	1.26373291015625E-06	9.05299884834676E-07	566867.9375	3.54150506609585E-05
2	430	81.9047967932103	0.726470947265625	0.72637939453125	1.278076171875E-06	9.28368194763607E-07	568338.125	3.55430420313496E-05
2	431	82.005504792956	0.736541748046875	0.736419677734375	1.290283203125E-06	9.5018992851692E-07	570742.6875	3.56723685399629E-05
2	432	82.1062127927017	0.746612548828125	0.746490478515625	1.29913330078125E-06	9.69790562521666E-07	574606.5625	3.58027573383879E-05
2	433	82.2069207924475	0.756683349609375	0.75714111328125	1.30462646484375E-06	9.87786279438296E-07	580350.9375	3.59338664566167E-05
2	434	82.3076287921932	0.766754150390625	0.76690673828125	1.3079833984375E-06	1.00310126072145E-06	586327.625	3.60654230462387E-05
2	435	82.408336791939	0.776824951171875	0.77728271484375	1.30828857421875E-06	1.01691011877847E-06	594121.75	3.61971615348011E-05
2	436	82.5090447916847	0.786895751953125	0.7867431640625	1.30828857421875E-06	1.02928709111438E-06	601352.9375	3.63289145752788E-05
2	437	82.6097527914304	0.796966552734375	0.797119140625	1.3067626953125E-06	1.04164553249575E-06	609995.3125	3.64605948561803E-05
2	438	82.7104607911762	0.807037353515625	0.8074951171875	1.30523681640625E-06	1.05397236893623E-06	618657.9375	3.6592118703993E-05
2	439	82.8111687909219	0.817108154296875	0.81695556640625	1.30340576171875E-06	1.06482457340462E-06	626785.3125	3.67234752047807E-05
2	440	82.9118767906676	0.827178955078125	0.82733154296875	1.3018798828125E-06	1.07708626728709E-06	635489.9375	3.68546607205644E-05
2	441	83.0125847904134	0.837249755859375	0.83740234375	1.30126953125E-06	1.08968617951177E-06	643527.1875	3.69857407349627E-05
2	442	83.1132927901591	0.847320556640625	0.8477783203125	1.30126953125E-06	1.10318808310694E-06	651500.9375	3.71167880075518E-05
2	443	83.2140007899048	0.857391357421875	0.85784912109375	1.30126953125E-06	1.11629299226479E-06	659240.125	3.72478352801409E-05
2	444	83.3147087896506	0.867462158203125	0.86761474609375	1.302490234375E-06	1.13005967250501E-06	666120	3.73789480363484E-05
2	445	83.4154167893963	0.877532958984375	0.87738037109375	1.30401611328125E-06	1.14411818685767E-06	672829.375	3.75101953977719E-05
2	446	83.5161247891421	0.887603759765625	0.88775634765625	1.3067626953125E-06	1.16008686745772E-06	679355.4375	3.7641657399945E-05
2	447	83.6168327888878	0.897674560546875	0.8978271484375	1.30859375E-06	1.17489094009215E-06	686100.75	3.77733522327617E-05
2	448	83.7175407886335	0.907745361328125	0.90850830078125	1.31256103515625E-06	1.1924726095458E-06	692164.625	3.7905338103883E-05
2	449	83.8182487883793	0.917816162109375	0.91766357421875	1.31591796875E-06	1.20756999422156E-06	697356.1875	3.80376914108638E-05
2	450	83.918956788125	0.927886962890625	0.92803955078125	1.31927490234375E-06	1.22433925753285E-06	703446.75	3.81703830498736E-05
2	451	84.0196647878707	0.937957763671875	0.9381103515625	1.32354736328125E-06	1.2416334129739E-06	708784.9375	3.83034603146371E-05
2	452	84.1203727876165	0.948028564453125	0.948486328125	1.32781982421875E-06	1.25941892292758E-06	714318.5625	3.84369668608997E-05
2	453	84.2210807873622	0.958099365234375	0.95794677734375	1.331787109375E-06	1.27578118735983E-06	719294.25	3.85708881367464E-05
2	454	84.3217887871079	0.968170166015625	0.96771240234375	1.3360595703125E-06	1.2929214108226E-06	724303.375	3.87052277801558E-05
2	455	84.4224967868537	0.978240966796875	0.9783935546875	1.34063720703125E-06	1.31167075778649E-06	729797.4375	3.8840007619001E-05
2	456	84.5232047865994	0.988311767578125	0.98846435546875	1.34521484375E-06	1.32969694277563E-06	734800.375	3.89752531191334E-05
2	457	84.6239127863452	0.998382568359375	0.99822998046875	1.3494873046875E-06	1.34709864596516E-06	739710.5	3.91109424526803E-05
2	458	84.7246207860909	1.00845336914063	1.00830078125	1.3543701171875E-06	1.36561243380129E-06	744479.5	3.92470901715569E-05
2	459	84.8253287858366	1.01852416992188	1.01837158203125	1.3592529296875E-06	1.38422456075205E-06	749214.1875	3.93837326555513E-05
2	460	84.9260367855824	1.02859497070313	1.0284423828125	1.36383056640625E-06	1.40262113745848E-06	754083.75	3.95208517147694E-05
2	461	85.0267447853281	1.03866577148438	1.038818359375	1.36871337890625E-06	1.42184455853567E-06	758974.375	3.96584437112324E-05
2	462	85.1274527850738	1.04873657226563	1.048583984375	1.373291015625E-06	1.44001091939572E-06	763555.5625	3.97965159208979E-05
2	463	85.2281607848196	1.05880737304688	1.0589599609375	1.37664794921875E-06	1.45781496030395E-06	769230.8125	3.99349883082323E-05
2	464	85.3288687845653	1.06887817382813	1.0687255859375	1.38092041015625E-06	1.47582488807529E-06	773922.6875	4.00738426833414E-05
2	465	85.4295767843111	1.07894897460938	1.07879638671875	1.38427734375E-06	1.49335335208889E-06	779321	4.02130790462252E-05
2	466	85.5302847840568	1.08901977539063	1.0888671875	1.38671875E-06	1.50995253989095E-06	785211.25	4.03526100853924E-05
2	467	85.6309927838025	1.09909057617188	1.0992431640625	1.38946533203125E-06	1.52736026848288E-06	791126.75	4.04924030590337E-05
2	468	85.7317007835483	1.10916137695313	1.10870361328125	1.39129638671875E-06	1.5425353012688E-06	796885.3125	4.06324252253398E-05
2	469	85.832408783294	1.11923217773438	1.119384765625	1.3934326171875E-06	1.55978727889305E-06	803328.9375	4.07726474804804E-05
2	470	85.9331167830397	1.12930297851563	1.12945556640625	1.395263671875E-06	1.57588829097222E-06	809492.5625	4.09130698244553E-05
2	471	86.0338247827855	1.13937377929688	1.1395263671875	1.3970947265625E-06	1.59202625127364E-06	815640	4.10536777053494E-05
2	472	86.1345327825312	1.14944458007813	1.14959716796875	1.39862060546875E-06	1.60785032221611E-06	821950.6875	4.11944529332686E-05
2	473	86.2352407822769	1.15951538085938	1.15997314453125	1.400146484375E-06	1.62413221005409E-06	828465.625	4.13353809562977E-05
2	474	86.3359487820227	1.16958618164063	1.16943359375	1.40289306640625E-06	1.64059031249053E-06	833587.125	4.14765236200765E-05
2	475	86.4366567817684	1.17965698242188	1.17950439453125	1.405029296875E-06	1.65723815825913E-06	839487.4375	4.16179136664141E-05
2	476	86.5373647815142	1.18972778320313	1.18896484375	1.40716552734375E-06	1.67307041465392E-06	844936	4.17595183535013E-05
2	477	86.6380727812599	1.19979858398438	1.1993408203125	1.409912109375E-06	1.69096517765865E-06	850649.375	4.19013704231475E-05
2	478	86.7387807810056	1.20986938476563	1.209716796875	1.41326904296875E-06	1.70965529378009E-06	855970.625	4.20435280830134E-05
2	479	86.8394887807514	1.21994018554688	1.2200927734375	1.4178466796875E-06	1.7299043975072E-06	860525.1875	4.21860859205481E-05
2	480	86.9401967804971	1.23001098632813	1.2298583984375	1.422119140625E-06	1.74900515048648E-06	864806.875	4.2329091229476E-05
2	481	87.0409047802428	1.24008178710938	1.240234375	1.42669677734375E-06	1.76943831320386E-06	869304.875	4.24725403718185E-05
2	482	87.1416127799886	1.25015258789063	1.2493896484375	1.4324951171875E-06	1.78974448772351E-06	872177.25	4.26165133831091E-05
2	483	87.2423207797343	1.26022338867188	1.26007080078125	1.439208984375E-06	1.81350515049417E-06	875530.125	4.27611157647334E-05
2	484	87.3430287794801	1.27029418945313	1.270751953125	1.44683837890625E-06	1.83857275715127E-06	878295.6875	4.29064384661615E-05
2	485	87.4437367792258	1.28036499023438	1.28082275390625	1.455078125E-06	1.8636970935404E-06	880243.3125	4.30525615229271E-05
2	486	87.5444447789715	1.29043579101563	1.29058837890625	1.46484375E-06	1.89051036159071E-06	881041.6875	4.31995904364157E-05
2	487	87.6451527787173	1.30050659179688	1.30035400390625	1.475830078125E-06	1.91910135072249E-06	881100.125	4.33476670878008E-05
2	488	87.745860778463	1.31057739257813	1.31072998046875	1.488037109375E-06	1.95041479855718E-06	880844.9375	4.34969078924041E-05
2	489	87.8465687782087	1.32064819335938	1.32080078125	1.50146484375E-06	1.98313591681654E-06	879674.8125	4.3647440179484E-05
2	490	87.9472767779545	1.33071899414063	1.33087158203125	1.51641845703125E-06	2.01815805667138E-06	877641.4375	4.37994058302138E-05
2	491	88.0479847777002	1.34078979492188	1.34033203125	1.5325927734375E-06	2.05418314180861E-06	874552	4.39529358118307E-05
2	492	88.1486927774459	1.35086059570313	1.35101318359375	1.55029296875E-06	2.09446625376586E-06	871456.6875	4.41081683675293E-05
2	493	88.2494007771917	1.36093139648438	1.361083984375	1.56890869140625E-06	2.13541648008686E-06	867535.5625	4.42652344645467E-05
2	494	88.3501087769374	1.37100219726563	1.370849609375	1.58935546875E-06	2.17876731767319E-06	862519.25	4.44242650701199E-05
2	495	88.4508167766832	1.38107299804688	1.3812255859375	1.6107177734375E-06	2.22476455746801E-06	857521.8125	4.45854020654224E-05
2	496	88.5515247764289	1.39114379882813	1.3909912109375	1.632080078125E-06	2.27020905185782E-06	852281.25	4.47486891061999E-05
2	497	88.6522327761746	1.40121459960938	1.4013671875	1.65496826171875E-06	2.31921808335755E-06	846763.8125	4.49142062279861E-05
2	498	88.7529407759204	1.41128540039063	1.4111328125	1.6796875E-06	2.37026210925251E-06	840116.3125	4.50821171398275E-05
2	499	88.8536487756661	1.42135620117188	1.4215087890625	1.70440673828125E-06	2.42282908402558E-06	834019.6875	4.52525200671516E-05
2	500	88.9543567754118	1.43142700195313	1.4312744140625	1.7303466796875E-06	2.47660091190482E-06	827160.5	4.54254732176196E-05
2	501	89.0550647751576	1.44149780273438	1.44134521484375	1.7578125E-06	2.53361463364854E-06	819965.3125	4.56011184724048E-05
2	502	89.1557727749033	1.45156860351563	1.451416015625	1.78497314453125E-06	2.59073840425117E-06	813130.5	4.57795104011893E-05
2	503	89.256480774649	1.46163940429688	1.46148681640625	1.81488037109375E-06	2.65242374553054E-06	805280	4.59607799712103E-05
2	504	89.3571887743948	1.47171020507813	1.47186279296875	1.84661865234375E-06	2.71796920969791E-06	797058.375	4.61451490991749E-05
2	505	89.4578967741405	1.48178100585938	1.48223876953125	1.88568115234375E-06	2.79502955891076E-06	786049.5625	4.63330870843492E-05
2	506	89.5586047738863	1.49185180664063	1.49200439453125	1.9354248046875E-06	2.88766227640735E-06	770892.5	4.65254925074987E-05
2	507	89.659312773632	1.50192260742188	1.5020751953125	2.003173828125E-06	3.00891747428977E-06	749847.6875	4.67238169221673E-05
2	508	89.7600207733777	1.49185180664063	1.49169921875	1.781005859375E-06	2.6567249733489E-06	837560	4.69143669761252E-05
2	509	89.8607287731235	1.48178100585938	1.48193359375	1.6290283203125E-06	2.41411157730909E-06	909704.0625	4.70860759378411E-05
2	510	89.9614367728692	1.47171020507813	1.4715576171875	1.51519775390625E-06	2.22970083996188E-06	971198.4375	4.72444007755257E-05
2	511	90.0621447726149	1.46163940429688	1.461181640625	1.427001953125E-06	2.08510914490034E-06	1023952.0625	4.73925501864869E-05
2	512	90.1628527723607	1.45156860351563	1.45111083984375	1.35711669921875E-06	1.96932660401217E-06	1069260.25	4.7532743337797E-05
2	513	90.2635607721064	1.44149780273438	1.4410400390625	1.30157470703125E-06	1.87562125120166E-06	1107151.25	4.76666173199192E-05
2	514	90.3642687718522	1.43142700195313	1.4312744140625	1.2554931640625E-06	1.79695518909284E-06	1140009.75	4.77953763038386E-05
2	515	90.4649767715979	1.42135620117188	1.4208984375	1.21673583984375E-06	1.72885791016597E-06	1167795.375	4.79198643006384E-05
2	516	90.5656847713436	1.41128540039063	1.41082763671875	1.18316650390625E-06	1.66924394306989E-06	1192416.875	4.80407070426736E-05
2	517	90.6663927710894	1.40121459960938	1.40106201171875	1.15386962890625E-06	1.6166428622455E-06	1214229.125	4.81583883811254E-05
2	518	90.7671007708351	1.39114379882813	1.3909912109375	1.12762451171875E-06	1.56851581323281E-06	1233558.875	4.82732684758957E-05
2	519	90.8678087705808	1.38107299804688	1.3812255859375	1.1041259765625E-06	1.52504708239576E-06	1250967.375	4.83856456412468E-05
2	520	90.9685167703266	1.37100219726563	1.37115478515625	1.08245849609375E-06	1.48421804624377E-06	1266704.375	4.84957490698434E-05
2	521	91.0692247700723	1.36093139648438	1.36077880859375	1.06231689453125E-06	1.44557827752578E-06	1280953.75	4.86037497466896E-05
2	522	91.169932769818	1.35086059570313	1.35101318359375	1.04461669921875E-06	1.41129078201629E-06	1293310	4.8709840484662E-05
2	523	91.2706407695638	1.34078979492188	1.34033203125	1.02630615234375E-06	1.37559095492179E-06	1305976.875	4.88141195091885E-05
2	524	91.3713487693095	1.33071899414063	1.33026123046875	1.0101318359375E-06	1.34373908622365E-06	1316918.5	4.8916663217824E-05
2	525	91.4720567690553	1.32064819335938	1.32080078125	9.93957519531249E-07	1.31281990434218E-06	1328830.125	4.90175771119539E-05
2	526	91.572764768801	1.31057739257813	1.31072998046875	9.78698730468749E-07	1.28280976241513E-06	1339257.875	4.91169084853027E-05
2	527	91.6734727685467	1.30050659179688	1.300048828125	9.6435546875E-07	1.25370911518985E-06	1348101.375	4.92147482873406E-05
2	528	91.7741807682925	1.29043579101563	1.290283203125	9.5062255859375E-07	1.22657229439938E-06	1357303.5	4.93111765536014E-05
2	529	91.8748887680382	1.28036499023438	1.280517578125	9.37499999999999E-07	1.20048514418158E-06	1365885.5	4.94062514917459E-05
2	530	91.9755967677839	1.27029418945313	1.26983642578125	9.25598144531251E-07	1.17535819299519E-06	1371909.125	4.95000640512444E-05
2	531	92.0763047675297	1.26022338867188	1.259765625	9.13391113281251E-07	1.15065870431863E-06	1379218.25	4.95926651638001E-05
2	532	92.1770127672754	1.25015258789063	1.25	9.02709960937501E-07	1.12838745280897E-06	1384719.5	4.9684113037074E-05
2	533	92.2777207670212	1.24008178710938	1.23992919921875	8.9111328125E-07	1.10491737359553E-06	1391438.375	4.97744404128753E-05
2	534	92.3784287667669	1.23001098632813	1.2298583984375	8.8043212890625E-07	1.08280676158756E-06	1396880.5	4.98636436532252E-05
2	535	92.4791367665126	1.21994018554688	1.2200927734375	8.70666503906251E-07	1.06229390439694E-06	1401332	4.99518173455726E-05
2	536	92.5798447662584	1.20986938476563	1.2103271484375	8.6029052734375E-07	1.04123296296166E-06	1406881.875	5.00389796798117E-05
2	537	92.6805527660041	1.19979858398438	1.19964599609375	8.50830078125001E-07	1.02069486729306E-06	1409971.25	5.01251415698789E-05
2	538	92.7812607657498	1.18972778320313	1.190185546875	8.41064453125E-07	1.00102272426739E-06	1415094.375	5.02103357575834E-05
2	539	92.8819687654956	1.17965698242188	1.17950439453125	8.3160400390625E-07	9.80880599854572E-07	1418348.625	5.02945586049464E-05
2	540	92.9826767652413	1.16958618164063	1.16943359375	8.221435546875E-07	9.61442310654093E-07	1422420.25	5.03778319398407E-05
2	541	93.083384764987	1.15951538085938	1.15936279296875	8.12683105468751E-07	9.42194503750216E-07	1426586.625	5.04601521242876E-05
2	542	93.1840927647328	1.14944458007813	1.14990234375	8.03222656249999E-07	9.23627567317453E-07	1431611	5.0541519158287E-05
2	543	93.2848007644785	1.13937377929688	1.1395263671875	7.9376220703125E-07	9.04512944543967E-07	1435601.75	5.06219330418389E-05
2	544	93.3855087642243	1.12930297851563	1.12945556640625	7.843017578125E-07	8.8583396973263E-07	1440077.875	5.07013974129222E-05
2	545	93.48621676397	1.11923217773438	1.11907958984375	7.74536132812501E-07	8.66767550178338E-07	1444838.5	5.0779890443664E-05
2	546	93.5869247637157	1.10916137695313	1.1090087890625	7.6507568359375E-07	8.48475622206024E-07	1449541.375	5.08574157720432E-05
2	547	93.6876327634615	1.09909057617188	1.09893798828125	7.54394531249999E-07	8.29032785532036E-07	1456715.25	5.09339261043351E-05
2	548	93.7883407632072	1.08901977539063	1.0888671875	7.4432373046875E-07	8.10469657608337E-07	1462894.75	5.10093923367094E-05
2	549	93.8890487629529	1.07894897460938	1.0791015625	7.3394775390625E-07	7.92004129834822E-07	1470270.375	5.10838290210813E-05
2	550	93.9897567626987	1.06887817382813	1.0687255859375	7.2296142578125E-07	7.72647354096989E-07	1478260.875	5.11571925017051E-05
2	551	94.0904647624444	1.05880737304688	1.05865478515625	7.12890625E-07	7.54705013150669E-07	1485017.125	5.12294936925173E-05
2	552	94.1911727621901	1.04873657226563	1.048583984375	7.0220947265625E-07	7.3632554631331E-07	1493263.875	5.1300747145433E-05
2	553	94.2918807619359	1.03866577148438	1.038818359375	6.91833496093749E-07	7.18689307177556E-07	1501544	5.13709455844946E-05
2	554	94.3925887616816	1.02859497070313	1.02874755859375	6.817626953125E-07	7.01361670962797E-07	1508952.625	5.1440110837575E-05
2	555	94.4932967614274	1.01852416992188	1.0186767578125	6.7291259765625E-07	6.85480415540951E-07	1513832.25	5.1508322940208E-05
2	556	94.5940047611731	1.00845336914063	1.00860595703125	6.6375732421875E-07	6.69469557124103E-07	1519540.25	5.1575629186118E-05
2	557	94.6947127609188	0.998382568359375	0.99822998046875	6.55212402343749E-07	6.54052655590931E-07	1523521.25	5.16420441272203E-05
2	558	94.7954207606646	0.988311767578125	0.98876953125	6.4697265625E-07	6.39706854599353E-07	1528301.875	5.17076150572393E-05
2	559	94.8961287604103	0.978240966796875	0.9783935546875	6.396484375E-07	6.2582790860688E-07	1529580.25	5.17724038218148E-05
2	560	94.996836760156	0.968170166015625	0.96832275390625	6.32629394531251E-07	6.12589417414711E-07	1530631.875	5.18364649906289E-05
2	561	95.0975447599018	0.958099365234375	0.958251953125	6.256103515625E-07	5.99492295805248E-07	1531707.375	5.18998240295332E-05
2	562	95.1982527596475	0.948028564453125	0.94818115234375	6.195068359375E-07	5.87404656471335E-07	1530542	5.19625209562946E-05
2	563	95.2989607593933	0.937957763671875	0.93841552734375	6.1309814453125E-07	5.75340777686506E-07	1530612.375	5.20245885127224E-05
2	564	95.399668759139	0.927886962890625	0.927734375	6.0699462890625E-07	5.63129731290246E-07	1528406.25	5.20860230608378E-05
2	565	95.5003767588847	0.917816162109375	0.9185791015625	6.011962890625E-07	5.52246376628318E-07	1527918.75	5.21468609804288E-05
2	566	95.6010847586305	0.907745361328125	0.9075927734375	5.9478759765625E-07	5.39824895895435E-07	1525910.75	5.22070840816014E-05
2	567	95.7017927583762	0.897674560546875	0.89752197265625	5.8929443359375E-07	5.28904706698086E-07	1523045.125	5.22667069162708E-05
2	568	95.8025007581219	0.887603759765625	0.88775634765625	5.8349609375E-07	5.18002366334258E-07	1521443.5	5.23257622262463E-05
2	569	95.9032087578677	0.877532958984375	0.8782958984375	5.7647705078125E-07	5.06317405779555E-07	1523557.5	5.23841699759942E-05
2	570	96.0039167576134	0.867462158203125	0.86761474609375	5.7037353515625E-07	4.94864480060642E-07	1521134.375	5.24419192515779E-05
2	571	96.1046247573591	0.857391357421875	0.858154296875	5.63964843750001E-07	4.8396884722024E-07	1521645.125	5.24990391568281E-05
2	572	96.2053327571049	0.847320556640625	0.84747314453125	5.56640625E-07	4.71737962470797E-07	1522478.125	5.25554642081261E-05
2	573	96.3060407568506	0.837249755859375	0.83709716796875	5.4901123046875E-07	4.59575716149629E-07	1524736.125	5.26111398357898E-05
2	574	96.4067487565964	0.827178955078125	0.82733154296875	5.41076660156251E-07	4.47649767920666E-07	1529046.875	5.26660296600312E-05
2	575	96.5074567563421	0.817108154296875	0.81695556640625	5.322265625E-07	4.34805428994878E-07	1534977.125	5.27200754731894E-05
2	576	96.6081647560878	0.807037353515625	0.80718994140625	5.2337646484375E-07	4.22464211169427E-07	1542274.125	5.2773226343561E-05
2	577	96.7088727558336	0.796966552734375	0.79681396484375	5.1239013671875E-07	4.08279589692029E-07	1555092.375	5.28253840457182E-05
2	578	96.8095807555793	0.786895751953125	0.787353515625	5.01708984375E-07	3.95022340171636E-07	1569343	5.28764467162546E-05
2	579	96.910288755325	0.776824951171875	0.77667236328125	4.8858642578125E-07	3.79471572387047E-07	1589631.5	5.29263124917634E-05
2	580	97.0109967550708	0.766754150390625	0.7666015625	4.75463867187501E-07	3.64491341997564E-07	1612323.5	5.29748576809652E-05
2	581	97.1117047548165	0.756683349609375	0.75714111328125	4.595947265625E-07	3.47978044601405E-07	1647410.5	5.30219404026866E-05
2	582	97.2124127545623	0.746612548828125	0.746551513671875	4.41894531250001E-07	3.29897005713065E-07	1689433.75	5.30673351022415E-05
2	583	97.313120754308	0.736541748046875	0.7364501953125	4.2388916015625E-07	3.12173256133974E-07	1737365	5.31109290022869E-05
2	584	97.4138287540537	0.726470947265625	0.72637939453125	4.05273437500001E-07	2.94382260790371E-07	1792319.375	5.31526820850559E-05
2	585	97.5145367537995	0.716400146484375	0.71636962890625	3.8787841796875E-07	2.77864302233866E-07	1846892.25	5.31926198164001E-05
2	586	97.6152447535452	0.706329345703125	0.70623779296875	3.72314453125E-07	2.62942535300681E-07	1896885.25	5.32308986294083E-05
2	587	97.7159527532909	0.696258544921875	0.696136474609375	3.59497070312501E-07	2.5025900640685E-07	1936417.75	5.32677477167454E-05
2	588	97.8166607530367	0.686187744140625	0.686065673828125	3.5125732421875E-07	2.40985571053898E-07	1953171.25	5.33035381522495E-05
2	589	97.9173687527824	0.676116943359375	0.67608642578125	3.448486328125E-07	2.33147474659745E-07	1960531.125	5.33385900780559E-05
2	590	98.0180767525281	0.666046142578125	0.666015625	3.4149169921875E-07	2.27438803790392E-07	1950312.75	5.33731472387444E-05
2	591	98.1187847522739	0.655975341796875	0.6558837890625	3.39355468749999E-07	2.22577753561382E-07	1932733.875	5.34074315510225E-05
2	592	98.2194927520196	0.645904541015625	0.64593505859375	3.39355468749999E-07	2.19201595541563E-07	1903417.25	5.34416067239363E-05
2	593	98.3202007517654	0.635833740234375	0.635772705078125	3.3905029296875E-07	2.1555891294156E-07	1875157.625	5.34757673449349E-05
2	594	98.4209087515111	0.625762939453125	0.625732421875	3.39660644531251E-07	2.12536662047569E-07	1842228.25	5.35099425178487E-05
2	595	98.5216167512568	0.615692138671875	0.615692138671875	3.4027099609375E-07	2.09502175607668E-07	1809417.125	5.35441795364022E-05
2	596	98.6223247510026	0.605621337890625	0.605560302734375	3.40881347656249E-07	2.06424203952338E-07	1776454.875	5.35784784005955E-05
2	597	98.7230327507483	0.595550537109375	0.595489501953125	3.41796875E-07	2.03536444587371E-07	1742232.25	5.36128573003225E-05
2	598	98.823740750494	0.585479736328125	0.585418701171875	3.42712402343751E-07	2.00630239532984E-07	1708192.5	5.36473235115409E-05
2	599	98.9244487502398	0.575408935546875	0.57537841796875	3.43017578125E-07	1.97364911969089E-07	1677402.125	5.3681851568399E-05
2	600	99.0251567499855	0.565338134765625	0.5653076171875	3.43933105468749E-07	1.94427997257662E-07	1643655.75	5.37164451088756E-05
2	601	99.1258647497312	0.555267333984375	0.55523681640625	3.4454345703125E-07	1.91303215046901E-07	1611514.625	5.37511114089284E-05
2	602	99.226572749477	0.545196533203125	0.545166015625	3.4515380859375E-07	1.88166126235956E-07	1579487.125	5.37858395546209E-05
2	603	99.3272807492227	0.535125732421875	0.53509521484375	3.4515380859375E-07	1.84690151172617E-07	1550309.5	5.38206004421227E-05
2	604	99.4279887489685	0.525054931640625	0.525054931640625	3.4515380859375E-07	1.81224706352623E-07	1521220.125	5.38553576916456E-05
2	605	99.5286967487142	0.514984130859375	0.51495361328125	3.45764160156251E-07	1.78052502519677E-07	1489320.375	5.38901513209566E-05
2	606	99.6294047484599	0.504913330078125	0.5048828125	3.45764160156251E-07	1.74570388367101E-07	1460194.125	5.39249704161193E-05
2	607	99.7301127482057	0.494842529296875	0.494781494140625	3.45458984374999E-07	1.70926711007269E-07	1432243.875	5.39597785973456E-05
2	608	99.8308207479514	0.484771728515625	0.4847412109375	3.4515380859375E-07	1.67310275855925E-07	1404420.875	5.39945503987838E-05
2	609	99.9315287476971	0.474700927734375	0.4747314453125	3.44238281250001E-07	1.6342072228781E-07	1379078.125	5.4029263992561E-05
2	610	100.032236747443	0.464630126953125	0.46453857421875	3.436279296875E-07	1.59628427809366E-07	1351865	5.40639011887833E-05
2	611	100.132944747189	0.454559326171875	0.45452880859375	3.42712402343751E-07	1.55772653442909E-07	1326269	5.40984619874507E-05
2	612	100.233652746934	0.444488525390625	0.44451904296875	3.4149169921875E-07	1.51799568470778E-07	1301698	5.41329136467539E-05
2	613	100.33436074668	0.434417724609375	0.434417724609375	3.4027099609375E-07	1.47819747553513E-07	1276681.625	5.41672452527564E-05
2	614	100.435068746426	0.424346923828125	0.424346923828125	3.39355468749999E-07	1.44004445701285E-07	1250449.625	5.42014677193947E-05
2	615	100.535776746172	0.414276123046875	0.414337158203125	3.3843994140625E-07	1.40228252121233E-07	1224256.125	5.4235595598584E-05
2	616	100.636484745917	0.404205322265625	0.4041748046875	3.375244140625E-07	1.36418861984566E-07	1197468.375	5.42696325283032E-05
2	617	100.737192745663	0.394134521484375	0.3941650390625	3.36608886718751E-07	1.32679446096517E-07	1170988.25	5.43035785085522E-05
2	618	100.837900745409	0.384063720703125	0.384002685546875	3.35693359375E-07	1.28907146290658E-07	1143909.125	5.4337433539331E-05
2	619	100.938608745155	0.373992919921875	0.37396240234375	3.35083007812501E-07	1.25308446285999E-07	1116029.125	5.4371208534576E-05
2	620	101.0393167449	0.363922119140625	0.36395263671875	3.3416748046875E-07	1.21621141602191E-07	1089132.375	5.44049071322661E-05
2	621	101.140024744646	0.353851318359375	0.353851318359375	3.3233642578125E-07	1.17597679150094E-07	1064738.375	5.44384674867615E-05
2	622	101.240732744392	0.343780517578125	0.34381103515625	3.314208984375E-07	1.13946157398459E-07	1037384.9375	5.44718932360411E-05
2	623	101.341440744137	0.333709716796875	0.333709716796875	3.2989501953125E-07	1.10089175109351E-07	1011563.375	5.45051916560624E-05
2	624	101.442148743883	0.323638916015625	0.323638916015625	3.2806396484375E-07	1.06174262270997E-07	986511.6875	5.45383227290586E-05
2	625	101.542856743629	0.313568115234375	0.313568115234375	3.2623291015625E-07	1.02296240811484E-07	961178.6875	5.45712682651356E-05
2	626	101.643564743375	0.303497314453125	0.303436279296875	3.2379150390625E-07	9.82500836244071E-08	937134.8125	5.4603999160463E-05
2	627	101.74427274312	0.293426513671875	0.293365478515625	3.21044921874999E-07	9.41834983336776E-08	913783.25	5.46364717592951E-05
2	628	101.844980742866	0.283355712890625	0.283355712890625	3.1890869140625E-07	9.03646011352066E-08	888516.75	5.46686933375895E-05
2	629	101.945688742612	0.273284912109375	0.273284912109375	3.155517578125E-07	8.62355307162943E-08	866054.1875	5.47006420674734E-05
2	630	102.046396742358	0.263214111328125	0.26318359375	3.125E-07	8.22448740223081E-08	842187.5	5.47322670172434E-05
2	631	102.147104742103	0.253143310546875	0.253143310546875	3.0853271484375E-07	7.810299251787E-08	820474.75	5.47635390830692E-05
2	632	102.247812741849	0.243072509765625	0.243072509765625	3.04260253906249E-07	7.39573025043683E-08	798896.6875	5.47943964193109E-05
2	633	102.348520741595	0.233001708984375	0.2330322265625	2.9876708984375E-07	6.96223594331968E-08	779979.625	5.48247589904349E-05
2	634	102.449228741341	0.222930908203125	0.22296142578125	2.91748046875E-07	6.50485603159723E-08	764225.9375	5.48544958292041E-05
2	635	102.549936741086	0.212860107421875	0.212890625	2.838134765625E-07	6.04212289090356E-08	750107.5	5.48834759683814E-05
2	636	102.650644740832	0.202789306640625	0.202850341796875	2.7313232421875E-07	5.54049819356806E-08	742681.5625	5.49115211470053E-05
2	637	102.751352740578	0.192718505859375	0.19281005859375	2.60314941406251E-07	5.0191339084904E-08	740679.9375	5.49383839825168E-05
2	638	102.852060740324	0.182647705078125	0.18267822265625	2.43225097656249E-07	4.44319283587902E-08	751066.5	5.49637370568234E-05
2	639	102.952768740069	0.172576904296875	0.172607421875	2.2003173828125E-07	3.79791096349891E-08	784466	5.49870637769345E-05
2	640	103.053476739815	0.162506103515625	0.162567138671875	1.88293457031249E-07	3.06103267178059E-08	863371.1875	5.50076256331522E-05
2	641	103.154184739561	0.152435302734375	0.1524658203125	1.446533203125E-07	2.20546851892323E-08	1054008.5	5.50243894394953E-05
2	642	103.254892739306	0.142364501953125	0.142425537109375	8.48388671875006E-08	1.20832215344535E-08	1678777	5.50359472981654E-05
2	643	103.355600739052	0.132293701171875	0.132354736328125	1.83105468749972E-09	2.42348752177435E-10	72283336	5.50403092347551E-05
2	644	103.456308738798	0.122222900390625	0.12225341796875	-1.0986328125E-07	-1.34311610722193E-08	-1112777.75	5.50348704564385E-05
2	645	103.557016738544	0.112152099609375	0.1121826171875	-2.60009765624999E-07	-2.91685751108162E-08	-431455.40625	5.5016247642925E-05
2	646	103.657724738289	0.102081298828125	0.10211181640625	-4.52575683593751E-07	-4.6213322946187E-08	-225623.734375	5.49803662579507E-05
2	647	103.758432738035	0.092010498046875	0.092041015625	-6.903076171875E-07	-6.35366106394031E-08	-133333.328125	5.49228170712013E-05
2	648	103.859140737781	0.081939697265625	0.082061767578125	-9.65270996093751E-07	-7.92118370895878E-08	-85014.234375	5.4839449148858E-05
2	649	103.959848737527	0.071868896484375	0.071929931640625	-1.26220703125E-06	-9.07904649238844E-08	-56987.4296875	5.47272866242565E-05
2	650	104.060556737272	0.061798095703125	0.06182861328125	-1.55303955078125E-06	-9.60222763524143E-08	-39811.359375	5.45855291420594E-05
2	651	104.161264737018	0.051727294921875	0.051788330078125	-1.81060791015625E-06	-9.37683566348824E-08	-28602.732421875	5.44161557627376E-05
2	652	104.261972736764	0.041656494140625	0.041748046875	-2.00653076171875E-06	-8.37687323951286E-08	-20806.0859375	5.42239467904437E-05
2	653	104.36268073651	0.031585693359375	0.031683349609375	-2.12921142578125E-06	-6.74605473705014E-08	-14880.3203125	5.40156979695894E-05
2	654	104.463388736255	0.021514892578125	0.0216033935546875	-2.17620849609375E-06	-4.70134899899222E-08	-9927.0791015625	5.37989035365172E-05
2	655	104.564096736001	0.011444091796875	0.011529541015625	-2.16217041015625E-06	-2.49288323317387E-08	-5332.39208984375	5.35804465471301E-05
2	656	104.664804735747	0.001373291015625	0.00145263671875	-2.10479736328125E-06	-3.0575055820492E-09	-690.155151367188	5.33655875187833E-05
2	657	104.765512735493	-0.008697509765625	-0.00859680175781249	-2.0233154296875E-06	1.73940417624863E-08	4248.869140625	5.31577206857037E-05
2	658	104.866220735238	-0.018768310546875	-0.018658447265625	-1.93084716796875E-06	3.60266092513939E-08	9663.3486328125	5.29586141055916E-05
2	659	104.966928734984	-0.028839111328125	-0.0287200927734375	-1.8365478515625E-06	5.27458219323762E-08	15638.0859375	5.27689117006958E-05
2	660	105.06763673473	-0.038909912109375	-0.0387908935546875	-1.746826171875E-06	6.77609435228987E-08	22206.5	5.25884715898428E-05
2	661	105.168344734475	-0.048980712890625	-0.0488494873046875	-1.6644287109375E-06	8.13064815474718E-08	29349.1015625	5.24167007824872E-05
2	662	105.269052734221	-0.059051513671875	-0.058990478515625	-1.5899658203125E-06	9.37928419375567E-08	37101.7265625	5.22528316651005E-05
2	663	105.369760733967	-0.069122314453125	-0.069061279296875	-1.52374267578125E-06	1.05231613645174E-07	45323.453125	5.20960420544725E-05
2	664	105.470468733713	-0.079193115234375	-0.07916259765625	-1.46575927734375E-06	1.16033312735908E-07	54007.91015625	5.19455097673927E-05
2	665	105.571176733458	-0.089263916015625	-0.08917236328125	-1.4141845703125E-06	1.26106186826291E-07	63055.67578125	5.18004926561844E-05
2	666	105.671884733204	-0.099334716796875	-0.099273681640625	-1.36932373046875E-06	1.35937810341602E-07	72498.328125	5.16603322466835E-05
2	667	105.77259273295	-0.109405517578125	-0.10931396484375	-1.329345703125E-06	1.45316050748079E-07	82231.40625	5.15244428243022E-05
2	668	105.873300732696	-0.119476318359375	-0.119415283203125	-1.2945556640625E-06	1.54589727685561E-07	92244.2265625	5.13923187099863E-05
2	669	105.974008732441	-0.129547119140625	-0.129425048828125	-1.26434326171875E-06	1.63637693617602E-07	102365.4375	5.12634687765967E-05
2	670	106.074716732187	-0.139617919921875	-0.139495849609375	-1.23809814453125E-06	1.72709547996419E-07	112669.46875	5.11374601046555E-05
2	671	106.175424731933	-0.149688720703125	-0.149627685546875	-1.21429443359375E-06	1.81692072942496E-07	123221.9140625	5.10139725520276E-05
2	672	106.276132731679	-0.159759521484375	-0.15966796875	-1.19476318359375E-06	1.90765405250204E-07	133639.84375	5.08926677866839E-05
2	673	106.376840731424	-0.169830322265625	-0.1697998046875	-1.1773681640625E-06	1.9991688304799E-07	144219.796875	5.07732220285106E-05
2	674	106.47754873117	-0.179901123046875	-0.17974853515625	-1.1627197265625E-06	2.08997164463653E-07	154593.171875	5.06553878949489E-05
2	675	106.578256730916	-0.189971923828125	-0.18988037109375	-1.1505126953125E-06	2.1845976050372E-07	165039.796875	5.05389070895035E-05
2	676	106.678964730662	-0.200042724609375	-0.199920654296875	-1.14105224609375E-06	2.28119901635182E-07	175207.28125	5.04235176777001E-05
2	677	106.779672730407	-0.189971923828125	-0.189788818359375	-9.991455078125E-07	1.89626646829311E-07	189951.125	5.03157498314977E-05
