Potential - Start -0.2 V, Upper Vertex 1.5 V, Lower Vertex -0.2 V, Stop -0.19 V; Scan - # end cross 5, Rate 0.1 Vps, Step 0.01 V 
Scan	Index	Time (s)	Potential applied (V)	WE(1).Potential (V)	WE(1).Current (A)	WE(1).Power (W)	WE(1).Resistance (Ω)	WE(1).Charge (C)
1	1	58.3734318526213	-0.189971923828125	-0.189788818359375	-2.178955078125E-07	4.13541307864307E-08	871008.4375	0
1	2	58.474139852367	-0.179901123046875	-0.179718017578125	-1.87072753906251E-07	3.36203420658876E-08	960685.1875	-2.03917718266666E-08
1	3	58.5748478521127	-0.169830322265625	-0.169708251953125	-1.62353515624999E-07	2.7552731651781E-08	1045300.75	-3.79867799438216E-08
1	4	58.6755558518585	-0.159759521484375	-0.159637451171875	-1.40380859375E-07	2.24100435985974E-08	1137173.875	-5.32306678735495E-08
1	5	58.7762638516042	-0.149688720703125	-0.1495361328125	-1.2054443359375E-07	1.80257480053569E-08	1240506.375	-6.63693029423484E-08
1	6	58.8769718513499	-0.139617919921875	-0.13946533203125	-1.019287109375E-07	1.42155203164407E-08	1368263.5	-7.75717126089148E-08
1	7	58.9776798510957	-0.129547119140625	-0.1295166015625	-8.392333984375E-08	1.08694653278008E-08	1543272.75	-8.69301075567819E-08
1	8	59.0783878508414	-0.119476318359375	-0.119354248046875	-6.62231445312494E-08	7.90401344374914E-09	1802304.125	-9.44905806932184E-08
1	9	59.1790958505871	-0.109405517578125	-0.10931396484375	-4.730224609375E-08	5.17079579154256E-09	2310967.75	-1.00207039110956E-07
1	10	59.2798038503329	-0.099334716796875	-0.099334716796875	-2.68554687500006E-08	2.66768029888453E-09	3698863.5	-1.03941175666478E-07
1	11	59.3805118500786	-0.089263916015625	-0.08917236328125	-3.35693359374972E-09	2.99345687126973E-10	26563638	-1.05462490296304E-07
1	12	59.4812198498244	-0.079193115234375	-0.07916259765625	2.50244140624994E-08	-1.98099758819126E-09	-3163414.75	-1.04371444820117E-07
1	13	59.5819278495701	-0.069122314453125	-0.069061279296875	6.07299804687503E-08	-4.19408996421566E-09	-1137185.875	-1.00053370033493E-07
1	14	59.6826358493158	-0.059051513671875	-0.058990478515625	1.068115234375E-07	-6.30086249842066E-09	-552285.75	-9.16169895504026E-08
1	15	59.7833438490616	-0.048980712890625	-0.048858642578125	1.68762207031251E-07	-8.24549228894966E-09	-289511.78125	-7.77407507257522E-08
1	16	59.8840518488073	-0.038909912109375	-0.0387359619140625	2.5054931640625E-07	-9.70526858878884E-09	-154604.15625	-5.66267353008243E-08
1	17	59.984759848553	-0.028839111328125	-0.028717041015625	3.5980224609375E-07	-1.03324557798601E-08	-79813.3984375	-2.58930938912272E-08
1	18	60.0854678482988	-0.018768310546875	-0.0187042236328125	5.023193359375E-07	-9.39549327227951E-09	-37235.7265625	1.75181753547804E-08
1	19	60.1861758480445	-0.008697509765625	-0.00856628417968749	6.82373046875E-07	-5.84540149617396E-09	-12553.66796875	7.71721744285969E-08
1	20	60.2868838477903	0.001373291015625	0.00148620605468749	8.990478515625E-07	1.33617039654865E-09	1653.08898925781	1.56803039885745E-07
1	21	60.387591847536	0.011444091796875	0.01153564453125	1.143798828125E-06	1.31944570824771E-08	10085.37890625	2.59668553326264E-07
1	22	60.4882998472817	0.021514892578125	0.021624755859375	1.39923095703125E-06	3.02580254185614E-08	15454.744140625	3.87720263006486E-07
1	23	60.5890078470275	0.031585693359375	0.0316680908203125	1.63970947265625E-06	5.19264666820618E-08	19313.232421875	5.40743087640294E-07
1	24	60.6897158467732	0.041656494140625	0.04171142578125	1.84295654296875E-06	7.68723467103882E-08	22632.88671875	7.16109241238883E-07
1	25	60.7904238465189	0.051727294921875	0.051788330078125	1.98883056640625E-06	1.02998207296423E-07	26039.58984375	9.0905501792804E-07
1	26	60.8911318462647	0.061798095703125	0.06182861328125	2.0709228515625E-06	1.28042287883545E-07	29855.5859375	1.11347981146537E-06
1	27	60.9918398460104	0.071868896484375	0.071929931640625	2.0947265625E-06	1.5067354297571E-07	34338.578125	1.32323691559577E-06
1	28	61.0925478457561	0.081939697265625	0.08203125	2.07366943359375E-06	1.70105678876098E-07	39558.5	1.53313237660768E-06
1	29	61.1932558455019	0.092010498046875	0.092041015625	2.02178955078125E-06	1.86087547149327E-07	45524.53125	1.73935507064016E-06
1	30	61.2939638452476	0.102081298828125	0.102142333984375	1.95343017578125E-06	1.9952791774358E-07	52288.703125	1.93952337212977E-06
1	31	61.3946718449934	0.112152099609375	0.1121826171875	1.87896728515625E-06	2.10787462151529E-07	59704.40234375	2.13249995795195E-06
1	32	61.4953798447391	0.122222900390625	0.122222900390625	1.8035888671875E-06	2.20439858367172E-07	67766.5	2.31793137572822E-06
1	33	61.5960878444848	0.132293701171875	0.132354736328125	1.732177734375E-06	2.29261914341805E-07	76409.4453125	2.49597133006318E-06
1	34	61.6967958442306	0.142364501953125	0.142425537109375	1.66656494140625E-06	2.37361405197589E-07	85460.5390625	2.66711163021682E-06
1	35	61.7975038439763	0.152435302734375	0.1524658203125	1.6070556640625E-06	2.45021055889083E-07	94872.765625	2.83195140582393E-06
1	36	61.898211843722	0.162506103515625	0.1624755859375	1.5533447265625E-06	2.52380573328992E-07	104597.2578125	2.99109024126665E-06
1	37	61.9989198434678	0.172576904296875	0.172607421875	1.5057373046875E-06	2.59901412391628E-07	114633.1640625	3.14512726617977E-06
1	38	62.0996278432135	0.182647705078125	0.1826171875	1.46240234375E-06	2.67059789393898E-07	124874.7890625	3.29458498526947E-06
1	39	62.2003358429592	0.192718505859375	0.19281005859375	1.42425537109375E-06	2.7461075546853E-07	135376.046875	3.43993974638579E-06
1	40	62.301043842705	0.202789306640625	0.202850341796875	1.390380859375E-06	2.82039223975517E-07	145895.53125	3.58166789737879E-06
1	41	62.4017518424507	0.212860107421875	0.212890625	1.3592529296875E-06	2.89372195538817E-07	156623.265625	3.72012300431379E-06
1	42	62.5024598421965	0.222930908203125	0.222930908203125	1.331787109375E-06	2.96896502050004E-07	167392.3125	3.85562771043624E-06
1	43	62.6031678419422	0.233001708984375	0.233001708984375	1.30706787109375E-06	3.0454901889243E-07	178262.90625	3.98850443161791E-06
1	44	62.7038758416879	0.243072509765625	0.24310302734375	1.2847900390625E-06	3.12336339902686E-07	189216.15625	4.11901510233292E-06
1	45	62.8045838414337	0.253143310546875	0.253204345703125	1.26434326171875E-06	3.20137218068339E-07	200265.5	4.24737390858354E-06
1	46	62.9052918411794	0.263214111328125	0.263214111328125	1.2457275390625E-06	3.27893047824546E-07	211293.484375	4.37376593254157E-06
1	47	63.0059998409251	0.273284912109375	0.27325439453125	1.2286376953125E-06	3.35730646838783E-07	222404.375	4.49836034022155E-06
1	48	63.1067078406709	0.283355712890625	0.2833251953125	1.21368408203125E-06	3.43867270657938E-07	233442.296875	4.62134084955323E-06
1	49	63.2074158404166	0.293426513671875	0.29345703125	1.19964599609375E-06	3.52044565943288E-07	244619.6875	4.74286161988857E-06
1	50	63.3081238401624	0.303497314453125	0.303497314453125	1.18682861328125E-06	3.6019929439135E-07	255721.265625	4.86303042634972E-06
1	51	63.4088318399081	0.313568115234375	0.3135986328125	1.17523193359375E-06	3.68551098972603E-07	266839.78125	4.98196959597408E-06
1	52	63.5095398396538	0.323638916015625	0.323638916015625	1.16485595703125E-06	3.76992716155655E-07	277836	5.09980236529373E-06
1	53	63.6102478393996	0.333709716796875	0.33367919921875	1.1553955078125E-06	3.85531421898122E-07	288800.84375	5.21663605468348E-06
1	54	63.7109558391453	0.343780517578125	0.34375	1.1468505859375E-06	3.94229857647588E-07	299733.90625	5.33256343260291E-06
1	55	63.811663838891	0.353851318359375	0.353851318359375	1.138916015625E-06	4.03006936267047E-07	310691.3125	5.44766089660698E-06
1	56	63.9123718386368	0.363922119140625	0.36395263671875	1.13189697265625E-06	4.11956875723263E-07	321542.1875	5.56200529899797E-06
1	57	64.0130798383825	0.373992919921875	0.37396240234375	1.12548828125E-06	4.2089027374459E-07	332266.84375	5.67567394682555E-06
1	58	64.1137878381282	0.384063720703125	0.384002685546875	1.12060546875E-06	4.3031550944761E-07	342674.28125	5.78877370571718E-06
1	59	64.214495837874	0.394134521484375	0.394073486328125	1.11572265625E-06	4.39676711039283E-07	353200.21875	5.90138188272249E-06
1	60	64.3152038376197	0.404205322265625	0.404205322265625	1.11236572265625E-06	4.49624138809668E-07	363374.5	6.01357487539644E-06
1	61	64.4159118373655	0.414276123046875	0.414306640625	1.10870361328125E-06	4.59343254988198E-07	373685.65625	6.12541452937876E-06
1	62	64.5166198371112	0.424346923828125	0.424407958984375	1.10565185546875E-06	4.6924742491683E-07	383853.1875	6.23691630607937E-06
1	63	64.6173278368569	0.434417724609375	0.4344482421875	1.10382080078125E-06	4.79552966226038E-07	393585.875	6.34817206446314E-06
1	64	64.7180358366027	0.444488525390625	0.444549560546875	1.102294921875E-06	4.90024660848576E-07	403294.59375	6.45925865683239E-06
1	65	64.8187438363484	0.454559326171875	0.454498291015625	1.10137939453125E-06	5.00575026762817E-07	412662.8125	6.5702224674169E-06
1	66	64.9194518360941	0.464630126953125	0.464569091796875	1.10107421875E-06	5.11525058755069E-07	421923.5	6.68112488710904E-06
1	67	65.0201598358399	0.474700927734375	0.474700927734375	1.10107421875E-06	5.22680920767016E-07	431125.28125	6.79201184539124E-06
1	68	65.1208678355856	0.484771728515625	0.48480224609375	1.1016845703125E-06	5.34099172000424E-07	440055.40625	6.90292972649331E-06
1	69	65.2215758353314	0.494842529296875	0.49481201171875	1.1029052734375E-06	5.45730756584817E-07	448644.1875	7.01393946656026E-06
1	70	65.3222838350771	0.504913330078125	0.504913330078125	1.1053466796875E-06	5.58104261472181E-07	456791.84375	7.12513383405167E-06
1	71	65.4229918348228	0.514984130859375	0.514923095703125	1.10809326171875E-06	5.705828129976E-07	464692.9375	7.23658922652248E-06
1	72	65.5236998345686	0.525054931640625	0.5250244140625	1.11114501953125E-06	5.83378266583168E-07	472507.5625	7.34833702153992E-06
1	73	65.6244078343143	0.535125732421875	0.53509521484375	1.11572265625E-06	5.97017844938819E-07	479595.1875	7.4604686233215E-06
1	74	65.72511583406	0.545196533203125	0.545196533203125	1.12030029296875E-06	6.10783786214597E-07	486652.15625	7.57306133891689E-06
1	75	65.8258238338058	0.555267333984375	0.555206298828125	1.12701416015625E-06	6.25725363079255E-07	492634.71875	7.68622248870088E-06
1	76	65.9265318335515	0.565338134765625	0.565338134765625	1.13525390625E-06	6.41802330392238E-07	497983.875	7.80013670009794E-06
1	77	66.0272398332972	0.575408935546875	0.575408935546875	1.1444091796875E-06	6.58503211070638E-07	502800.03125	7.9149267548928E-06
1	78	66.127947833043	0.585479736328125	0.585479736328125	1.1578369140625E-06	6.77890056977049E-07	505666.84375	8.03085458755959E-06
1	79	66.2286558327887	0.595550537109375	0.595428466796875	1.17401123046875E-06	6.9903973098917E-07	507174.40625	8.14827217254788E-06
1	80	66.3293638325345	0.605621337890625	0.605621337890625	1.1962890625E-06	7.24498192994361E-07	506250	8.26762607175624E-06
1	81	66.4300718322802	0.615692138671875	0.61566162109375	1.22589111328125E-06	7.54734116981126E-07	502215.59375	8.3895929492428E-06
1	82	66.5307798320259	0.625762939453125	0.625701904296875	1.2664794921875E-06	7.92438584085176E-07	494048.21875	8.51509321364574E-06
1	83	66.6314878317717	0.635833740234375	0.635772705078125	1.3214111328125E-06	8.40117138523055E-07	481131.65625	8.64540379552636E-06
1	84	66.7321958315174	0.645904541015625	0.645843505859375	1.3934326171875E-06	8.99939436749264E-07	463491.03125	8.78210721566575E-06
1	85	66.8329038312631	0.655975341796875	0.65594482421875	1.484375E-06	9.73668079495837E-07	441899.6875	8.92701609700453E-06
1	86	66.9336118310089	0.666046142578125	0.665985107421875	1.59271240234375E-06	1.06072275229963E-06	418145.25	9.08196034288267E-06
1	87	67.0343198307546	0.676116943359375	0.67608642578125	1.71051025390625E-06	1.15645275400311E-06	395254.25	9.2482905529323E-06
1	88	67.1350278305003	0.686187744140625	0.68609619140625	1.82769775390625E-06	1.25397639294533E-06	375388.21875	9.42645328905201E-06
1	89	67.2357358302461	0.696258544921875	0.696136474609375	1.93023681640625E-06	1.34370816340379E-06	360648.21875	9.61568093771348E-06
1	90	67.3364438299918	0.706329345703125	0.706298828125	2.00927734375E-06	1.41915018048167E-06	351518.84375	9.81405082711717E-06
1	91	67.4371518297376	0.716400146484375	0.71630859375	2.059326171875E-06	1.47511298109748E-06	347836.40625	1.00189217846491E-05
1	92	67.5378598294833	0.726470947265625	0.72637939453125	2.081298828125E-06	1.51181257024291E-06	349002.9375	1.02274179880624E-05
1	93	67.638567829229	0.736541748046875	0.7364501953125	2.0806884765625E-06	1.53232326738362E-06	353945.46875	1.04369910332025E-05
1	94	67.7392758289748	0.746612548828125	0.7464599609375	2.0635986328125E-06	1.54039378230664E-06	361727.28125	1.06456727735349E-05
1	95	67.8399838287205	0.756683349609375	0.75714111328125	2.03765869140625E-06	1.54279507569299E-06	371574.09375	1.0852187187993E-05
1	96	67.9406918284662	0.766754150390625	0.76690673828125	2.0086669921875E-06	1.5404602891067E-06	381798.84375	1.10559358290629E-05
1	97	68.041399828212	0.776824951171875	0.7769775390625	1.97967529296875E-06	1.53816324655054E-06	392477.25	1.12567649921402E-05
1	98	68.1421078279577	0.786895751953125	0.78704833984375	1.95281982421875E-06	1.53696350935206E-06	403031.75	1.14547819975996E-05
1	99	68.2428158277035	0.796966552734375	0.797119140625	1.9305419921875E-06	1.53887185661006E-06	412899.15625	1.16503242679755E-05
1	100	68.3435238274492	0.807037353515625	0.8074951171875	1.91314697265625E-06	1.54485678649507E-06	422076.90625	1.18438692879863E-05
1	101	68.4442318271949	0.817108154296875	0.8172607421875	1.90155029296875E-06	1.55406235080591E-06	429786.5625	1.20359545690008E-05
1	102	68.5449398269407	0.827178955078125	0.82763671875	1.8951416015625E-06	1.56848875576543E-06	436715	1.22271330837975E-05
1	103	68.6456478266864	0.837249755859375	0.83709716796875	1.8927001953125E-06	1.5843739902266E-06	442276.6875	1.24178668556851E-05
1	104	68.7463558264321	0.847320556640625	0.84716796875	1.89300537109375E-06	1.60369347668166E-06	447525.40625	1.26084914882085E-05
1	105	68.8470638261779	0.857391357421875	0.8575439453125	1.8951416015625E-06	1.62516710133787E-06	452496	1.27992398120114E-05
1	106	68.9477718259236	0.867462158203125	0.86761474609375	1.89697265625E-06	1.64584150752489E-06	457368.09375	1.29901882246486E-05
1	107	69.0484798256693	0.877532958984375	0.87799072265625	1.8975830078125E-06	1.66606025686633E-06	462689	1.31812594190706E-05
1	108	69.1491878254151	0.887603759765625	0.88775634765625	1.89666748046875E-06	1.68377857789892E-06	468061.15625	1.33723151520826E-05
1	109	69.2498958251608	0.897674560546875	0.89813232421875	1.89422607421875E-06	1.70126554621675E-06	474142.125	1.35632017190801E-05
1	110	69.3506038249066	0.907745361328125	0.90789794921875	1.8914794921875E-06	1.71727026554436E-06	479993.5625	1.37538272610982E-05
1	111	69.4513118246523	0.917816162109375	0.91766357421875	1.888427734375E-06	1.73294131400326E-06	485940.53125	1.3944160855317E-05
1	112	69.552019824398	0.927886962890625	0.927734375	1.888427734375E-06	1.75195930296468E-06	491273.4375	1.41343407449313E-05
1	113	69.6527278241438	0.937957763671875	0.93780517578125	1.890869140625E-06	1.77326683115098E-06	495965.15625	1.43246434163302E-05
1	114	69.7534358238895	0.948028564453125	0.9478759765625	1.89788818359375E-06	1.79896267127333E-06	499437.21875	1.45154217534582E-05
1	115	69.8541438236352	0.958099365234375	0.95794677734375	1.91009521484375E-06	1.8297694168723E-06	501517.84375	1.47071696119383E-05
1	116	69.954851823381	0.968170166015625	0.96832275390625	1.93023681640625E-06	1.86909221611131E-06	501660.09375	1.49005454659346E-05
1	117	70.0555598231267	0.978240966796875	0.9783935546875	1.95831298828125E-06	1.91600065591047E-06	499610.4375	1.50963496707845E-05
1	118	70.1562678228725	0.988311767578125	0.98846435546875	1.99432373046875E-06	1.97131771528802E-06	495638.90625	1.52953798533417E-05
1	119	70.2569758226182	0.998382568359375	0.99822998046875	2.0361328125E-06	2.03252875508042E-06	490257.78125	1.54983299580636E-05
1	120	70.3576838223639	1.00845336914063	1.00830078125	2.0806884765625E-06	2.09795962291537E-06	484599.625	1.57056292664493E-05
1	121	70.4583918221097	1.01852416992188	1.01837158203125	2.1240234375E-06	2.16304511013732E-06	479454.03125	1.59173523570644E-05
1	122	70.5590998218554	1.02859497070313	1.029052734375	2.159423828125E-06	2.22216090151051E-06	476540.4375	1.61330408445792E-05
1	123	70.6598078216011	1.03866577148438	1.038818359375	2.18414306640625E-06	2.26892802857037E-06	475618.25	1.6351757949451E-05
1	124	70.7605158213469	1.04873657226563	1.04827880859375	2.19696044921875E-06	2.30302703130292E-06	477149.625	1.65723631653236E-05
1	125	70.8612238210926	1.05880737304688	1.0589599609375	2.19818115234375E-06	2.32778575082193E-06	481743.71875	1.67936759680742E-05
1	126	70.9619318208383	1.06887817382813	1.06842041015625	2.19085693359375E-06	2.34075605476392E-06	487672.40625	1.70146813616157E-05
1	127	71.0626398205841	1.07894897460938	1.07940673828125	2.17803955078125E-06	2.35099059864297E-06	495586.40625	1.72346735780593E-05
1	128	71.1633478203298	1.08901977539063	1.0888671875	2.161865234375E-06	2.35398420045385E-06	503670.25	1.74532051460119E-05
1	129	71.2640558200756	1.09909057617188	1.09893798828125	2.14630126953125E-06	2.35865195463703E-06	512014.78125	1.76701378222788E-05
1	130	71.3647638198213	1.10916137695313	1.10870361328125	2.1295166015625E-06	2.36100277106743E-06	520636.28125	1.78854425030295E-05
1	131	71.465471819567	1.11923217773438	1.119384765625	2.1148681640625E-06	2.36735104408581E-06	529292.9375	1.80991646629991E-05
1	132	71.5661798193128	1.12930297851563	1.129150390625	2.1014404296875E-06	2.37284234572144E-06	537322.0625	1.83114734682022E-05
1	133	71.6668878190585	1.13937377929688	1.13983154296875	2.08984375E-06	2.38206985159195E-06	545414.75	1.85225198947592E-05
1	134	71.7675958188042	1.14944458007813	1.1492919921875	2.080078125E-06	2.39061705542554E-06	552523.5	1.87324931175681E-05
1	135	71.86830381855	1.15951538085938	1.15966796875	2.07183837890625E-06	2.40264444073546E-06	559729	1.89415586646646E-05
1	136	71.9690118182957	1.16958618164063	1.16973876953125	2.06512451171875E-06	2.41565612668637E-06	566425.3125	1.91498711501481E-05
1	137	72.0697198180414	1.17965698242188	1.17950439453125	2.06024169921875E-06	2.43006411437818E-06	572507.75	1.9357599740033E-05
1	138	72.1704278177872	1.18972778320313	1.1895751953125	2.05657958984375E-06	2.44645593738824E-06	578424.125	1.95648972294293E-05
1	139	72.2711358175329	1.19979858398438	1.199951171875	2.0550537109375E-06	2.46596414399392E-06	583902.5625	1.97719346033409E-05
1	140	72.3718438172787	1.20986938476563	1.2103271484375	2.0538330078125E-06	2.48580977313395E-06	589301.625	1.99788337340578E-05
1	141	72.4725518170244	1.21994018554688	1.22039794921875	2.054443359375E-06	2.50723837780242E-06	594028.5625	2.01857019419549E-05
1	142	72.5732598167701	1.23001098632813	1.2298583984375	2.05535888671875E-06	2.52780046139378E-06	598366.75	2.03926465474069E-05
1	143	72.6739678165159	1.24008178710938	1.240234375	2.05780029296875E-06	2.55215445577051E-06	602699.125	2.05997621378629E-05
1	144	72.7746758162616	1.25015258789063	1.25	2.060546875E-06	2.57568353845272E-06	606635.0625	2.08071360248141E-05
1	145	72.8753838160073	1.26022338867188	1.26007080078125	2.064208984375E-06	2.60104934568517E-06	610437.625	2.10148336918792E-05
1	146	72.9760918157531	1.27029418945313	1.2701416015625	2.06878662109375E-06	2.62765206571203E-06	613954.875	2.12229479075177E-05
1	147	73.0767998154988	1.28036499023438	1.28082275390625	2.073974609375E-06	2.65639391727746E-06	617569.125	2.14315514313057E-05
1	148	73.1775078152446	1.29043579101563	1.290283203125	2.07977294921875E-06	2.68349594989559E-06	620396.1875	2.16407097468618E-05
1	149	73.2782158149903	1.30050659179688	1.3006591796875	2.08648681640625E-06	2.7138082714373E-06	623372.8125	2.18504974327516E-05
1	150	73.378923814736	1.31057739257813	1.31103515625	2.0941162109375E-06	2.74545982392738E-06	626056.5625	2.20610072574345E-05
1	151	73.4796318144818	1.32064819335938	1.32080078125	2.10357666015625E-06	2.77840558737807E-06	627883.375	2.22723774641054E-05
1	152	73.5803398142275	1.33071899414063	1.33056640625	2.1148681640625E-06	2.81397228718561E-06	629148.6875	2.24847935896832E-05
1	153	73.6810478139732	1.34078979492188	1.34124755859375	2.12799072265625E-06	2.8541624033096E-06	630288.25	2.26984393520979E-05
1	154	73.781755813719	1.35086059570313	1.3507080078125	2.1429443359375E-06	2.89449212687032E-06	630304.75	2.29134966502897E-05
1	155	73.8824638134647	1.36093139648438	1.36077880859375	2.16217041015625E-06	2.94223559649254E-06	629357.8125	2.31302765314467E-05
1	156	73.9831718132104	1.37100219726563	1.37115478515625	2.18505859375E-06	2.99605335385422E-06	627514	2.33491773542482E-05
1	157	74.0838798129562	1.38107299804688	1.3812255859375	2.2119140625E-06	3.05515231957543E-06	624448.125	2.35705829254584E-05
1	158	74.1845878127019	1.39114379882813	1.3909912109375	2.24334716796875E-06	3.12047609440924E-06	620051.6875	2.37949225265766E-05
1	159	74.2852958124477	1.40121459960938	1.40106201171875	2.27996826171875E-06	3.19437685902813E-06	614509.4375	2.4022689103731E-05
1	160	74.3860038121934	1.41128540039063	1.4111328125	2.32269287109375E-06	3.27762813867594E-06	607541.75	2.42544520006049E-05
1	161	74.4867118119391	1.42135620117188	1.4208984375	2.374267578125E-06	3.37359301738616E-06	598457.625	2.44909624598222E-05
1	162	74.5874198116849	1.43142700195313	1.43157958984375	2.4365234375E-06	3.48807702721388E-06	587550.125	2.47332063736394E-05
1	163	74.6881278114306	1.44149780273438	1.44134521484375	2.51373291015625E-06	3.62315677193692E-06	573388.375	2.49824715865543E-05
1	164	74.7888358111763	1.45156860351563	1.4520263671875	2.6068115234375E-06	3.78515892407449E-06	557012.4375	2.52403115155175E-05
1	165	74.8895438109221	1.46163940429688	1.46209716796875	2.71575927734375E-06	3.97070380131481E-06	538375.125	2.55083232332254E-05
1	166	74.9902518106678	1.47171020507813	1.47186279296875	2.840576171875E-06	4.18093850385048E-06	518156.4375	2.5788107450353E-05
1	167	75.0909598104136	1.48178100585938	1.48193359375	2.9791259765625E-06	4.41486645286204E-06	497439.0625	2.60811521002324E-05
1	168	75.1916678101593	1.49185180664063	1.49139404296875	3.1317138671875E-06	4.67061954623205E-06	476222.96875	2.63888578047045E-05
1	169	75.292375809905	1.50192260742188	1.5020751953125	3.292236328125E-06	4.94518644700292E-06	456247.6875	2.6712328690337E-05
1	170	75.3930838096508	1.49185180664063	1.49200439453125	2.89520263671875E-06	4.31965509051224E-06	515336.78125	2.70238906523446E-05
1	171	75.4937918093965	1.48178100585938	1.48162841796875	2.60650634765625E-06	3.86187366530066E-06	568434.625	2.7300924557494E-05
1	172	75.5944998091422	1.47171020507813	1.47125244140625	2.3797607421875E-06	3.50122854797519E-06	618235.5	2.75520033028442E-05
1	173	75.695207808888	1.46163940429688	1.46148681640625	2.19573974609375E-06	3.20904450745729E-06	665601.125	2.77823983196868E-05
1	174	75.7959158086337	1.45156860351563	1.45172119140625	2.04315185546875E-06	2.96608686767286E-06	710530.25	2.79958421742776E-05
1	175	75.8966238083794	1.44149780273438	1.44195556640625	1.915283203125E-06	2.76175296676229E-06	752868.125	2.81951652141288E-05
1	176	75.9973318081252	1.43142700195313	1.4312744140625	1.8072509765625E-06	2.58667205343954E-06	791962.1875	2.83826102531748E-05
1	177	76.0980398078709	1.42135620117188	1.42181396484375	1.71600341796875E-06	2.43983754444344E-06	828561.3125	2.85600199276814E-05
1	178	76.1987478076167	1.41128540039063	1.4117431640625	1.63787841796875E-06	2.31226363212045E-06	861934.0625	2.87289021798642E-05
1	179	76.2994558073624	1.40121459960938	1.4013671875	1.57135009765625E-06	2.20203833123378E-06	891823.6875	2.88904993794858E-05
1	180	76.4001638071081	1.39114379882813	1.3916015625	1.51336669921875E-06	2.10600342143152E-06	919540.25	2.90458265226334E-05
1	181	76.5008718068539	1.38107299804688	1.38092041015625	1.4642333984375E-06	2.02198975784995E-06	943101.3125	2.91957603621995E-05
1	182	76.6015798065996	1.37100219726563	1.37115478515625	1.42120361328125E-06	1.94869016922894E-06	964784.1875	2.93410539597971E-05
1	183	76.7022878063453	1.36093139648438	1.361083984375	1.383056640625E-06	1.88245621757233E-06	984112.9375	2.9482260288205E-05
1	184	76.8029958060911	1.35086059570313	1.3507080078125	1.35009765625E-06	1.82358758138434E-06	1000452.125	2.96198850264773E-05
1	185	76.9037038058368	1.34078979492188	1.3409423828125	1.3214111328125E-06	1.77193612671545E-06	1014780.625	2.97544065688271E-05
1	186	77.0044118055825	1.33071899414063	1.3311767578125	1.2957763671875E-06	1.72490729255514E-06	1027319.875	2.9886192351114E-05
1	187	77.1051198053283	1.32064819335938	1.32080078125	1.27288818359375E-06	1.68123176536028E-06	1037640.8125	3.00155352306319E-05
1	188	77.205827805074	1.31057739257813	1.31103515625	1.25274658203125E-06	1.64239474997885E-06	1046528.6875	3.01427098747808E-05
1	189	77.3065358048198	1.30050659179688	1.300048828125	1.23443603515625E-06	1.60482704814058E-06	1053152	3.02679509331938E-05
1	190	77.4072438045655	1.29043579101563	1.290283203125	1.21856689453125E-06	1.57229624164756E-06	1058853.125	3.03914694086416E-05
1	191	77.5079518043112	1.28036499023438	1.28021240234375	1.20361328125E-06	1.54088058934576E-06	1063641	3.05134344671387E-05
1	192	77.608659804057	1.27029418945313	1.270751953125	1.18988037109375E-06	1.5120427860893E-06	1067966.25	3.06339570670389E-05
1	193	77.7093678038027	1.26022338867188	1.259765625	1.1767578125E-06	1.48243896092026E-06	1070539.5	3.07531263388228E-05
1	194	77.8100758035484	1.25015258789063	1.25	1.1639404296875E-06	1.45492549563642E-06	1073938.125	3.08709895762149E-05
1	195	77.9107838032942	1.24008178710938	1.23992919921875	1.15234375E-06	1.4288247029981E-06	1076006.375	3.09876231767703E-05
1	196	78.0114918030399	1.23001098632813	1.2298583984375	1.14044189453125E-06	1.40258202918631E-06	1078405.125	3.11030744342133E-05
1	197	78.1121998027857	1.21994018554688	1.21978759765625	1.12945556640625E-06	1.37769586672221E-06	1079978.375	3.12173724523745E-05
1	198	78.2129078025314	1.20986938476563	1.209716796875	1.1187744140625E-06	1.35340019369323E-06	1081287.5	3.13305827148724E-05
1	199	78.3136158022771	1.19979858398438	1.1993408203125	1.1083984375E-06	1.32934746943647E-06	1082048.375	3.14427270495798E-05
1	200	78.4143238020229	1.18972778320313	1.18988037109375	1.097412109375E-06	1.30578916923696E-06	1084260.25	3.15537981805392E-05
1	201	78.5150318017686	1.17965698242188	1.17919921875	1.0870361328125E-06	1.28183216929756E-06	1084783.875	3.16637961077504E-05
1	202	78.6157398015143	1.16958618164063	1.16943359375	1.0760498046875E-06	1.25836879760755E-06	1086783.875	3.17727171932347E-05
1	203	78.7164478012601	1.15951538085938	1.15936279296875	1.06536865234375E-06	1.23514882943709E-06	1088226.875	3.18805432470981E-05
1	204	78.8171558010058	1.14944458007813	1.14959716796875	1.05438232421875E-06	1.21211496661999E-06	1090303.875	3.19872815452982E-05
1	205	78.9178638007515	1.13937377929688	1.13983154296875	1.04248046875E-06	1.18825209938223E-06	1093384.125	3.20928666042164E-05
1	206	79.0185718004973	1.12930297851563	1.129150390625	1.0296630859375E-06	1.16264448024594E-06	1096621.25	3.21972074743826E-05
1	207	79.119279800243	1.11923217773438	1.119384765625	1.01593017578125E-06	1.13721671368694E-06	1101832.375	3.23002132063266E-05
1	208	79.2199877999888	1.10916137695313	1.10870361328125	1.00006103515625E-06	1.10877124370745E-06	1108635.875	3.24017273669597E-05
1	209	79.3206957997345	1.09909057617188	1.0992431640625	9.82055664062501E-07	1.07951802874595E-06	1119328.75	3.25015316775534E-05
1	210	79.4214037994802	1.08901977539063	1.0888671875	9.5977783203125E-07	1.04507057585579E-06	1134499.25	3.25993132719304E-05
1	211	79.522111799226	1.07894897460938	1.0784912109375	9.33227539062501E-07	1.00647764611494E-06	1155657.375	3.26946319546551E-05
1	212	79.6228197989717	1.06887817382813	1.0687255859375	8.9996337890625E-07	9.61813839239767E-07	1187521.25	3.27869420289062E-05
1	213	79.7235277987174	1.05880737304688	1.0589599609375	8.6029052734375E-07	9.11013216864376E-07	1230933	3.28755777445622E-05
1	214	79.8242357984632	1.04873657226563	1.04888916015625	8.1207275390625E-07	8.51774302645936E-07	1291619.75	3.29597860400099E-05
1	215	79.9249437982089	1.03866577148438	1.03851318359375	7.5653076171875E-07	7.85667168656801E-07	1372730.875	3.30387738358695E-05
1	216	80.0256517979547	1.02859497070313	1.0284423828125	6.9610595703125E-07	7.15904832304659E-07	1477422.25	3.31119190377649E-05
1	217	80.1263597977004	1.01852416992188	1.0186767578125	6.35986328125E-07	6.47864510483487E-07	1601727.375	3.317899609101E-05
1	218	80.2270677974461	1.00845336914063	1.00860595703125	5.8013916015625E-07	5.85131829211605E-07	1738558.625	3.3240230550291E-05
1	219	80.3277757971919	0.998382568359375	0.99853515625	5.352783203125E-07	5.34494233761507E-07	1865450.375	3.32963973050937E-05
1	220	80.4284837969376	0.988311767578125	0.98876953125	5.04455566406251E-07	4.98790257097426E-07	1960072.625	3.33487514581066E-05
1	221	80.5291917966833	0.978240966796875	0.9783935546875	4.86145019531251E-07	4.75641115826875E-07	2012555.125	3.33986317855306E-05
1	222	80.6298997964291	0.968170166015625	0.968017578125	4.78210449218749E-07	4.62916119658985E-07	2024250.25	3.34471915266477E-05
1	223	80.7306077961748	0.958099365234375	0.95855712890625	4.77294921875E-07	4.57514460094899E-07	2008312	3.34953037963714E-05
1	224	80.8313157959205	0.948028564453125	0.9478759765625	4.79736328125E-07	4.54730553656191E-07	1975826.875	3.3543496101629E-05
1	225	80.9320237956663	0.937957763671875	0.9381103515625	4.82788085937499E-07	4.52908523129736E-07	1943110	3.35919612552971E-05
1	226	81.032731795412	0.927886962890625	0.92803955078125	4.85839843749999E-07	4.50878587798798E-07	1910175.875	3.36407356371637E-05
1	227	81.1334397951578	0.917816162109375	0.91796875	4.8736572265625E-07	4.47386469204503E-07	1883531.75	3.36897428496741E-05
1	228	81.2341477949035	0.907745361328125	0.90789794921875	4.864501953125E-07	4.41647131310674E-07	1866374	3.37387791660149E-05
1	229	81.3348557946492	0.897674560546875	0.89813232421875	4.81567382812501E-07	4.32511228609656E-07	1865019	3.37875208060723E-05
1	230	81.435563794395	0.887603759765625	0.887451171875	4.73937988281251E-07	4.20596819594721E-07	1872504.875	3.38356330757961E-05
1	231	81.5362717941407	0.877532958984375	0.8770751953125	4.6234130859375E-07	4.05508075118632E-07	1897029.75	3.3882781281136E-05
1	232	81.6369797938864	0.867462158203125	0.867919921875	4.4891357421875E-07	3.89621021668063E-07	1933378.625	3.3928663469851E-05
1	233	81.7376877936322	0.857391357421875	0.85723876953125	4.33349609375E-07	3.71484077277273E-07	1978169	3.39730904670432E-05
1	234	81.8383957933779	0.847320556640625	0.84747314453125	4.193115234375E-07	3.55355240344579E-07	2021106.375	3.40160258929245E-05
1	235	81.9391037931236	0.837249755859375	0.83740234375	4.06494140624999E-07	3.40399139986403E-07	2060060.125	3.40576079906896E-05
1	236	82.0398117928694	0.827178955078125	0.82763671875	3.9642333984375E-07	3.28094500900988E-07	2087759.875	3.40980368491728E-05
1	237	82.1405197926151	0.817108154296875	0.81756591796875	3.887939453125E-07	3.17864646603994E-07	2102825.75	3.41375780408271E-05
1	238	82.2412277923609	0.807037353515625	0.80718994140625	3.8299560546875E-07	3.09150209432119E-07	2107569.75	3.41764389304444E-05
1	239	82.3419357921066	0.796966552734375	0.79681396484375	3.765869140625E-07	3.0006970064278E-07	2115883.25	3.42146886396222E-05
1	240	82.4426437918523	0.786895751953125	0.78704833984375	3.68347167968749E-07	2.89907006845169E-07	2136702.75	3.42521998391021E-05
1	241	82.5433517915981	0.776824951171875	0.7769775390625	3.558349609375E-07	2.76475759619643E-07	2183533.5	3.42886633006856E-05
1	242	82.6440597913438	0.766754150390625	0.7666015625	3.375244140625E-07	2.58746723602599E-07	2271247.75	3.43235769832972E-05
1	243	82.7447677910895	0.756683349609375	0.7574462890625	3.094482421875E-07	2.3439042706741E-07	2447731.75	3.43561550835148E-05
1	244	82.8454757908353	0.746612548828125	0.746551513671875	2.6824951171875E-07	2.00262064709023E-07	2783049	3.43852443620563E-05
1	245	82.946183790581	0.736541748046875	0.736419677734375	2.105712890625E-07	1.5506883244143E-07	3497246.5	3.44093532476109E-05
1	246	83.0468917903268	0.726470947265625	0.72637939453125	1.34887695312499E-07	9.79796368483221E-08	5385068.5	3.44267500622664E-05
1	247	83.1475997900725	0.716400146484375	0.716339111328125	3.814697265625E-08	2.73261679950565E-08	18778400	3.44354630215093E-05
1	248	83.2483077898182	0.706329345703125	0.706298828125	-7.69042968749994E-08	-5.43174110134714E-08	-9184127	3.44335130648687E-05
1	249	83.349015789564	0.696258544921875	0.6961669921875	-2.01416015625E-07	-1.40219185595925E-07	-3456363.75	3.4419495932525E-05
1	250	83.4497237893097	0.686187744140625	0.686065673828125	-3.24401855468751E-07	-2.22560970541963E-07	-2114863.75	3.4393018722767E-05
1	251	83.5504317890554	0.676116943359375	0.676055908203125	-4.3182373046875E-07	-2.91936970597817E-07	-1565583.125	3.43549399985932E-05
1	252	83.6511397888012	0.666046142578125	0.666015625	-5.1422119140625E-07	-3.42479353321323E-07	-1295192.875	3.43073043040931E-05
1	253	83.7518477885469	0.655975341796875	0.655914306640625	-5.63964843750001E-07	-3.69912584119447E-07	-1163041.125	3.42530111083761E-05
1	254	83.8525557882926	0.645904541015625	0.6458740234375	-5.8258056640625E-07	-3.76273618485357E-07	-1108643.375	3.41952800226863E-05
1	255	83.9532637880384	0.635833740234375	0.635711669921875	-5.7586669921875E-07	-3.66085174619002E-07	-1103921.625	3.41369486704934E-05
1	256	84.0539717877841	0.625762939453125	0.625701904296875	-5.5084228515625E-07	-3.4466307852199E-07	-1135900.25	3.40802143909968E-05
1	257	84.1546797875299	0.615692138671875	0.615631103515625	-5.1544189453125E-07	-3.17322047749258E-07	-1194375.5	3.4026521461783E-05
1	258	84.2553877872756	0.605621337890625	0.6055908203125	-4.7454833984375E-07	-2.873821074445E-07	-1276141.5	3.39766702381894E-05
1	259	84.3560957870213	0.595550537109375	0.595550537109375	-4.3182373046875E-07	-2.57172843021181E-07	-1379152	3.39310317940544E-05
1	260	84.4568037867671	0.585479736328125	0.585540771484375	-3.91235351562499E-07	-2.29084250236156E-07	-1496645.875	3.3889587939484E-05
1	261	84.5575117865128	0.575408935546875	0.575408935546875	-3.509521484375E-07	-2.0194100613935E-07	-1639565.25	3.38522149831988E-05
1	262	84.6582197862585	0.565338134765625	0.5653076171875	-3.125E-07	-1.76658630834936E-07	-1808984.375	3.38188074238133E-05
1	263	84.7589277860043	0.555267333984375	0.555206298828125	-2.75268554687499E-07	-1.52830835986606E-07	-2016962.375	3.37892124662176E-05
1	264	84.85963578575	0.545196533203125	0.545166015625	-2.40478515625001E-07	-1.31100705402787E-07	-2267005.25	3.37632409355137E-05
1	265	84.9603437854958	0.535125732421875	0.535125732421875	-2.0721435546875E-07	-1.10885736148703E-07	-2582474.25	3.3740700018825E-05
1	266	85.0610517852415	0.525054931640625	0.52508544921875	-1.76086425781249E-07	-9.24604179886046E-08	-2981976	3.37213969032746E-05
1	267	85.1617597849872	0.514984130859375	0.514984130859375	-1.4923095703125E-07	-7.6851577546222E-08	-3450920.25	3.37050150847062E-05
1	268	85.262467784733	0.504913330078125	0.5048828125	-1.26953125E-07	-6.40964543663358E-08	-3976923	3.36911107297055E-05
1	269	85.3631757844787	0.494842529296875	0.49481201171875	-1.07421874999999E-07	-5.31536308301384E-08	-4606250.5	3.36793091264553E-05
1	270	85.4638837842244	0.484771728515625	0.484771728515625	-9.09423828125006E-08	-4.40862955031207E-08	-5330537	3.36693192366511E-05
1	271	85.5645917839702	0.474700927734375	0.474700927734375	-7.62939453125E-08	-3.62168073309022E-08	-6222000	3.36608973157126E-05
1	272	85.6652997837159	0.464630126953125	0.46466064453125	-6.31713867187495E-08	-2.93532558259813E-08	-7355556	3.3653876016615E-05
1	273	85.7660077834616	0.454559326171875	0.454559326171875	-5.15747070312503E-08	-2.34437624868633E-08	-8813610	3.36480989062693E-05
1	274	85.8667157832074	0.444488525390625	0.44451904296875	-4.119873046875E-08	-1.83136190656796E-08	-10789630	3.3643427741481E-05
1	275	85.9674237829531	0.434417724609375	0.434417724609375	-3.204345703125E-08	-1.39202454008114E-08	-13557143	3.36397388309706E-05
1	276	86.0681317826989	0.424346923828125	0.424285888671875	-2.34985351562494E-08	-9.97009674819083E-09	-18055844	3.36369412252679E-05
1	277	86.1688397824446	0.414276123046875	0.414215087890625	-1.58691406249994E-08	-6.57323750985483E-09	-26101924	3.36349585268181E-05
1	278	86.2695477821903	0.404205322265625	0.40423583984375	-8.85009765625028E-09	-3.57752671931166E-09	-45675864	3.36337143380661E-05
1	279	86.3702557819361	0.394134521484375	0.3941650390625	-2.13623046874945E-09	-8.42027281233726E-10	-184514304	3.36331613652874E-05
1	280	86.4709637816818	0.384063720703125	0.384033203125	3.96728515625056E-09	1.52356927074493E-09	96800000	3.36332523147576E-05
1	281	86.5716717814275	0.373992919921875	0.37396240234375	8.85009765625028E-09	3.30960370220623E-09	42255172	3.36338998749852E-05
1	282	86.6723797811733	0.363922119140625	0.3638916015625	1.43432617187494E-08	5.21939247377645E-09	25370212	3.36350676661823E-05
1	283	86.773087780919	0.353851318359375	0.353851318359375	1.89208984374994E-08	6.69518485096887E-09	18701612	3.36367411364336E-05
1	284	86.8737957806648	0.343780517578125	0.343780517578125	2.31933593749997E-08	7.9734245872487E-09	14822369	3.36388620780781E-05
1	285	86.9745037804105	0.333709716796875	0.333740234375	2.68554687500006E-08	8.96275054174112E-09	12427273	3.36413831973914E-05
1	286	87.0752117801562	0.323638916015625	0.3236083984375	3.0517578125E-08	9.87574377830924E-09	10604001	3.36442717525642E-05
1	287	87.175919779902	0.313568115234375	0.3135986328125	3.32641601562503E-08	1.0431594255067E-08	9427524	3.36474840878509E-05
1	288	87.2766277796477	0.303497314453125	0.303497314453125	3.57055664062494E-08	1.08365432183177E-08	8500000	3.36509547196329E-05
1	289	87.3773357793934	0.293426513671875	0.293487548828125	3.814697265625E-08	1.11956612869335E-08	7693600	3.36546763719525E-05
1	290	87.4780437791392	0.283355712890625	0.28326416015625	4.05883789062506E-08	1.14972333875585E-08	6978947.5	3.36586381308734E-05
1	291	87.5787517788849	0.273284912109375	0.27325439453125	4.21142578125006E-08	1.15079057394496E-08	6488406	3.36628036166076E-05
1	292	87.6794597786306	0.263214111328125	0.263153076171875	4.33349609374994E-08	1.14037277398893E-08	6072535.5	3.36671073455364E-05
1	293	87.7801677783764	0.253143310546875	0.25311279296875	4.39453125000003E-08	1.11231210908613E-08	5759722	3.36715020239353E-05
1	294	87.8808757781221	0.243072509765625	0.24310302734375	4.48608398437494E-08	1.09058060360212E-08	5419047.5	3.36759730998892E-05
1	295	87.9815837778679	0.233001708984375	0.23297119140625	4.45556640624997E-08	1.03801855999563E-08	5228767.5	3.36804769176524E-05
1	296	88.0822917776136	0.222930908203125	0.222930908203125	4.425048828125E-08	9.86480142017854E-09	5037931	3.36849479936063E-05
1	297	88.1829997773593	0.212860107421875	0.21282958984375	4.30297851562497E-08	9.15801123824167E-09	4946099.5	3.36893426720053E-05
1	298	88.2837077771051	0.202789306640625	0.202789306640625	4.15039062499997E-08	8.41654834715655E-09	4886029.5	3.36935991072096E-05
1	299	88.3844157768508	0.192718505859375	0.1927490234375	3.93676757812503E-08	7.58808038625602E-09	4896124.5	3.36976700054947E-05
1	300	88.4851237765965	0.182647705078125	0.18267822265625	3.57055664062494E-08	6.52262910350032E-09	5116239.5	3.37014498654753E-05
1	301	88.5858317763423	0.172576904296875	0.172607421875	2.92968749999997E-08	5.05685804341738E-09	5891667	3.37047240464017E-05
1	302	88.686539776088	0.162506103515625	0.162506103515625	2.10571289062503E-08	3.42191186497587E-09	7717392	3.37072597176302E-05
1	303	88.7872477758337	0.152435302734375	0.1524658203125	1.00708007812506E-08	1.53545276493361E-09	15139395	3.37088276864961E-05
1	304	88.8879557755795	0.142364501953125	0.14239501953125	-5.79833984375028E-09	-8.25654655756125E-10	-24557896	3.37090423272457E-05
1	305	88.9886637753252	0.132293701171875	0.132354736328125	-2.83813476562506E-08	-3.75640585303927E-09	-4663441	3.37073215632699E-05
1	306	89.089371775071	0.122222900390625	0.122222900390625	-5.98144531249997E-08	-7.31069604853474E-09	-2043367.375	3.37028795911465E-05
1	307	89.1900797748167	0.112152099609375	0.1121826171875	-1.03149414062501E-07	-1.15715712567521E-08	-1087574	3.36946759489365E-05
1	308	89.2907877745624	0.102081298828125	0.102142333984375	-1.64184570312501E-07	-1.67701958986299E-08	-622118.9375	3.36812117893714E-05
1	309	89.3914957743082	0.092010498046875	0.092071533203125	-2.47802734374999E-07	-2.28155752068915E-08	-371551.75	3.36604680342134E-05
1	310	89.4922037740539	0.081939697265625	0.08197021484375	-3.60717773437499E-07	-2.95681132911341E-08	-227241.96875	3.36298253387213E-05
1	311	89.5929117737996	0.071868896484375	0.071929931640625	-5.0994873046875E-07	-3.66805785745328E-08	-141053.265625	3.3585984056117E-05
1	312	89.6936197735454	0.061798095703125	0.06182861328125	-6.97021484375E-07	-4.30958699837447E-08	-88704.03125	3.35252079821657E-05
1	313	89.7943277732911	0.051727294921875	0.05181884765625	-9.2041015625E-07	-4.7694591387426E-08	-56299.73828125	3.34437645506114E-05
1	314	89.8950357730369	0.041656494140625	0.041741943359375	-1.1700439453125E-06	-4.88399081177704E-08	-35675.5390625	3.3338503271807E-05
1	315	89.9957437727826	0.031585693359375	0.031683349609375	-1.42822265625E-06	-4.52508750470315E-08	-22183.759765625	3.32076706399675E-05
1	316	90.0964517725283	0.021514892578125	0.021612548828125	-1.6668701171875E-06	-3.60253125109011E-08	-12965.947265625	3.30518196278717E-05
1	317	90.1971597722741	0.011444091796875	0.011517333984375	-1.86370849609375E-06	-2.14649524821198E-08	-6179.79345703125	3.28740388795268E-05
1	318	90.2978677720198	0.001373291015625	0.0014801025390625	-1.99981689453125E-06	-2.95993385357463E-09	-740.119079589844	3.26794979628175E-05
1	319	90.3985757717655	-0.008697509765625	-0.00859680175781249	-2.0697021484375E-06	1.77928196620769E-08	4153.64208984375	3.24745815305505E-05
1	320	90.4992837715113	-0.018768310546875	-0.0186676025390625	-2.08038330078125E-06	3.88357683789309E-08	8973.15625	3.22656051139347E-05
1	321	90.599991771257	-0.028839111328125	-0.0286956787109375	-2.04742431640625E-06	5.87522279715813E-08	14015.501953125	3.20577564707492E-05
1	322	90.7006997710027	-0.038909912109375	-0.0387939453125	-1.9866943359375E-06	7.70717107911878E-08	19526.880859375	3.18546190101188E-05
1	323	90.8014077707485	-0.048980712890625	-0.048870849609375	-1.91162109375E-06	9.34225425908153E-08	25565.13671875	3.16583245876245E-05
1	324	90.9021157704942	-0.059051513671875	-0.058929443359375	-1.83135986328125E-06	1.07921010794598E-07	32177.97265625	3.14698518195655E-05
1	325	91.00282377024	-0.069122314453125	-0.069091796875	-1.7535400390625E-06	1.21155224519498E-07	39401.32421875	3.12893353111576E-05
1	326	91.1035317699857	-0.079193115234375	-0.079132080078125	-1.680908203125E-06	1.33013756453693E-07	47076.98046875	3.11164003505837E-05
1	327	91.2042397697314	-0.089263916015625	-0.089202880859375	-1.614990234375E-06	1.44061772289206E-07	55234.31640625	3.09504357574042E-05
1	328	91.3049477694772	-0.099334716796875	-0.0992431640625	-1.5557861328125E-06	1.54401135432636E-07	63789.72265625	3.07907757814974E-05
1	329	91.4056557692229	-0.109405517578125	-0.10931396484375	-1.5045166015625E-06	1.64464680096899E-07	72657.203125	3.06366782751866E-05
1	330	91.5063637689686	-0.119476318359375	-0.119415283203125	-1.45965576171875E-06	1.74305213818116E-07	81810.578125	3.04874192806892E-05
1	331	91.6070717687144	-0.129547119140625	-0.129425048828125	-1.41998291015625E-06	1.83781352802725E-07	91145.5	3.03424185403856E-05
1	332	91.7077797684601	-0.139617919921875	-0.13946533203125	-1.3861083984375E-06	1.93314065199957E-07	100616.46875	3.02011194435181E-05
1	333	91.8084877682059	-0.149688720703125	-0.14959716796875	-1.35711669921875E-06	2.0302080372403E-07	110231.625	3.00629872072022E-05
1	334	91.9091957679516	-0.159759521484375	-0.159637451171875	-1.33209228515625E-06	2.12651798392471E-07	119839.640625	2.99275761790341E-05
1	335	92.0099037676973	-0.169830322265625	-0.169708251953125	-1.31103515625E-06	2.2249348319292E-07	129446	2.9794482543366E-05
1	336	92.1106117674431	-0.179901123046875	-0.179718017578125	-1.29364013671875E-06	2.32490435791988E-07	138924.28125	2.96633279504022E-05
1	337	92.2113197671888	-0.189971923828125	-0.18975830078125	-1.2786865234375E-06	2.42641363001894E-07	148400.96875	2.95338013529545E-05
1	338	92.3120277669345	-0.200042724609375	-0.19989013671875	-1.2677001953125E-06	2.53400770588996E-07	157679.34375	2.94055789709091E-05
1	339	92.4127357666803	-0.189971923828125	-0.1898193359375	-1.121826171875E-06	2.1294428620422E-07	169205.671875	2.92852582788328E-05
2	340	92.513443766426	-0.179901123046875	-0.17974853515625	-1.02081298828125E-06	1.83489632377132E-07	176083.703125	2.91773667413509E-05
2	341	92.6141517661717	-0.169830322265625	-0.16961669921875	-9.39331054687501E-07	1.59326219772993E-07	180571.8125	2.90786665573251E-05
2	342	92.7148597659175	-0.159759521484375	-0.15960693359375	-8.6944580078125E-07	1.38769578938991E-07	183573.1875	2.89875861199107E-05
2	343	92.8155677656632	-0.149688720703125	-0.1495361328125	-8.0841064453125E-07	1.20886596732817E-07	184975.46875	2.89030995190842E-05
2	344	92.916275765409	-0.139617919921875	-0.139495849609375	-7.5347900390625E-07	1.05107190506715E-07	185135.6875	2.88244518742431E-05
2	345	93.0169837651547	-0.129547119140625	-0.12945556640625	-7.03125E-07	9.10234447815128E-08	184114.578125	2.87511065835133E-05
2	346	93.1176917649004	-0.119476318359375	-0.119384765625	-6.5643310546875E-07	7.83681102234368E-08	181868.90625	2.86826470983215E-05
2	347	93.2183997646462	-0.109405517578125	-0.109283447265625	-6.10961914062499E-07	6.67680168930929E-08	178871.140625	2.86188296740875E-05
2	348	93.3191077643919	-0.099334716796875	-0.099273681640625	-5.65490722656251E-07	5.61383473041133E-08	175553.15625	2.85595906461822E-05
2	349	93.4198157641376	-0.089263916015625	-0.0892333984375	-5.2001953125E-07	4.64031089109085E-08	171596.25	2.85049300146056E-05
2	350	93.5205237638834	-0.079193115234375	-0.079132080078125	-4.7027587890625E-07	3.72139083992806E-08	168267.359375	2.84550642390968E-05
2	351	93.6212317636291	-0.069122314453125	-0.069122314453125	-4.150390625E-07	2.86884596079062E-08	166544.125	2.84104862657841E-05
2	352	93.7219397633748	-0.059051513671875	-0.0589599609375	-3.5064697265625E-07	2.06741308517167E-08	168146.21875	2.83719309663866E-05
2	353	93.8226477631206	-0.048980712890625	-0.048846435546875	-2.70690917968749E-07	1.32222863769016E-08	180450.953125	2.83406443486456E-05
2	354	93.9233557628663	-0.038909912109375	-0.0387786865234375	-1.71813964843751E-07	6.66271970928278E-09	225701.59375	2.83183617284521E-05
2	355	94.0240637626121	-0.028839111328125	-0.028717041015625	-4.60815429687497E-08	1.32332556024295E-09	623178.8125	2.830738958437E-05
2	356	94.1247717623578	-0.018768310546875	-0.0186492919921875	1.13830566406251E-07	-2.12285944378721E-09	-163833.78125	2.8310802008491E-05
2	357	94.2254797621035	-0.008697509765625	-0.008587646484375	3.1005859375E-07	-2.66267363713268E-09	-27696.849609375	2.83321460301522E-05
2	358	94.3261877618493	0.001373291015625	0.0014617919921875	5.4290771484375E-07	7.93618115668693E-10	2692.52416992188	2.83750960079487E-05
2	359	94.426895761595	0.011444091796875	0.011517333984375	8.0413818359375E-07	9.2615275448793E-09	14322.5810546875	2.8442926122807E-05
2	360	94.5276037613407	0.021514892578125	0.02159423828125	1.0748291015625E-06	2.32101147190633E-08	20090.85546875	2.8537539037643E-05
2	361	94.6283117610865	0.031585693359375	0.031683349609375	1.33087158203125E-06	4.21664658745158E-08	23806.46484375	2.86586746369721E-05
2	362	94.7290197608322	0.041656494140625	0.04176025390625	1.54937744140625E-06	6.47023981059647E-08	26952.92578125	2.88037081190851E-05
2	363	94.829727760578	0.051727294921875	0.051788330078125	1.70806884765625E-06	8.8458030234051E-08	30319.814453125	2.89677336695604E-05
2	364	94.9304357603237	0.061798095703125	0.0618896484375	1.8017578125E-06	1.11510153999461E-07	34349.59375	2.91444666800089E-05
2	365	95.0311437600694	0.071868896484375	0.071868896484375	1.834716796875E-06	1.31859067664664E-07	39171.65625	2.93275770673063E-05
2	366	95.1318517598152	0.081939697265625	0.082000732421875	1.82098388671875E-06	1.49322005427166E-07	45031.00390625	2.95116569759557E-05
2	367	95.2325597595609	0.092010498046875	0.092071533203125	1.776123046875E-06	1.63530373242793E-07	51838.48828125	2.96927864837926E-05
2	368	95.3332677593066	0.102081298828125	0.10211181640625	1.712646484375E-06	1.74881435555108E-07	59622.2421875	2.98684590234188E-05
2	369	95.4339757590524	0.112152099609375	0.112152099609375	1.6424560546875E-06	1.84204893116657E-07	68283.1640625	3.0037401302252E-05
2	370	95.5346837587981	0.122222900390625	0.1221923828125	1.57257080078125E-06	1.92156178968617E-07	77702.3125	3.01992913591675E-05
2	371	95.6353917585438	0.132293701171875	0.13232421875	1.50543212890625E-06	1.99205132389579E-07	87897.828125	3.03542819892755E-05
2	372	95.7360997582896	0.142364501953125	0.14239501953125	1.444091796875E-06	2.05631465632905E-07	98605.25	3.05028006550856E-05
2	373	95.8368077580353	0.152435302734375	0.15252685546875	1.387939453125E-06	2.11698036878261E-07	109894.4609375	3.06454057863448E-05
2	374	95.9375157577811	0.162506103515625	0.16259765625	1.337890625E-06	2.17537873936635E-07	121532.8515625	3.07826630887575E-05
2	375	96.0382237575268	0.172576904296875	0.172607421875	1.29425048828125E-06	2.23397222498534E-07	133364.78125	3.09152019326575E-05
2	376	96.1389317572725	0.182647705078125	0.1826171875	1.25518798828125E-06	2.29218898084582E-07	145489.921875	3.10435752908234E-05
2	377	96.2396397570183	0.192718505859375	0.1927490234375	1.220703125E-06	2.3528933468242E-07	157900	3.11682451865636E-05
2	378	96.340347756764	0.202789306640625	0.202850341796875	1.19049072265625E-06	2.41491449060049E-07	170392.203125	3.12896590912715E-05
2	379	96.4410557565097	0.212860107421875	0.212890625	1.1639404296875E-06	2.47792002028291E-07	182905.09375	3.1408213544637E-05
2	380	96.5417637562555	0.222930908203125	0.22296142578125	1.14013671875E-06	2.54206497629639E-07	195556.75	3.15242323267739E-05
2	381	96.6424717560012	0.233001708984375	0.233001708984375	1.1187744140625E-06	2.60676358720957E-07	208265.140625	3.16379810101353E-05
2	382	96.743179755747	0.243072509765625	0.24310302734375	1.099853515625E-06	2.67377714635586E-07	221032.1875	3.17496960633434E-05
2	383	96.8438877554927	0.253143310546875	0.253143310546875	1.082763671875E-06	2.74094389851598E-07	233793.6875	3.18595994031057E-05
2	384	96.9445957552384	0.263214111328125	0.263275146484375	1.068115234375E-06	2.81208201613481E-07	246485.71875	3.19679056701716E-05
2	385	97.0453037549842	0.273284912109375	0.2733154296875	1.0540771484375E-06	2.88095520772913E-07	259293.59375	3.20747676596511E-05
2	386	97.1460117547299	0.283355712890625	0.283355712890625	1.041259765625E-06	2.95046902465401E-07	272127.78125	3.21802726830356E-05
2	387	97.2467197544756	0.293426513671875	0.293426513671875	1.0302734375E-06	3.02309530297862E-07	284804.5	3.22845844493713E-05
2	388	97.3474277542214	0.303497314453125	0.303436279296875	1.02081298828125E-06	3.09751698068794E-07	297249.625	3.23878630297258E-05
2	389	97.4481357539671	0.313568115234375	0.313629150390625	1.01165771484375E-06	3.17285326900674E-07	310015.09375	3.2490206649527E-05
2	390	97.5488437537128	0.323638916015625	0.323638916015625	1.00372314453125E-06	3.24843853150014E-07	322438.4375	3.25916917063296E-05
2	391	97.6495517534586	0.333709716796875	0.333770751953125	9.967041015625E-07	3.32670680336378E-07	334874.46875	3.26924200635403E-05
2	392	97.7502597532043	0.343780517578125	0.34381103515625	9.89990234375E-07	3.40369552986886E-07	347287.3125	3.27924572047777E-05
2	393	97.8509677529501	0.353851318359375	0.353851318359375	9.844970703125E-07	3.48365603031198E-07	359423.4375	3.28918795275968E-05
2	394	97.9516757526958	0.363922119140625	0.3638916015625	9.7991943359375E-07	3.56584422434025E-07	371348.5	3.29907961713616E-05
2	395	98.0523837524415	0.373992919921875	0.3740234375	9.7564697265625E-07	3.64914825468077E-07	383359.4375	3.30892689817119E-05
2	396	98.1530917521873	0.384063720703125	0.384124755859375	9.716796875E-07	3.73246223261958E-07	395320.34375	3.31873234244995E-05
2	397	98.253799751933	0.394134521484375	0.394134521484375	9.686279296875E-07	3.8176969496817E-07	406899.84375	3.32850249833427E-05
2	398	98.3545077516787	0.404205322265625	0.404266357421875	9.66491699218749E-07	3.90720089171737E-07	418282.28125	3.33824682456907E-05
2	399	98.4552157514245	0.414276123046875	0.414276123046875	9.6466064453125E-07	3.99635894154926E-07	429452.6875	3.34797077812254E-05
2	400	98.5559237511702	0.424346923828125	0.424346923828125	9.63134765625E-07	4.08703272114508E-07	440589.34375	3.35767799697351E-05
2	401	98.6566317509159	0.434417724609375	0.43438720703125	9.619140625E-07	4.17843125433137E-07	451586.3125	3.367371391505E-05
2	402	98.7573397506617	0.444488525390625	0.4444580078125	9.6099853515625E-07	4.27123467261481E-07	462496.0625	3.37705423589796E-05
2	403	98.8580477504074	0.454559326171875	0.45458984375	9.60693359375001E-07	4.36721450114419E-07	473189.34375	3.38673053192906E-05
2	404	98.9587557501532	0.464630126953125	0.46466064453125	9.6038818359375E-07	4.46254603048146E-07	483825.84375	3.39640391757712E-05
2	405	99.0594637498989	0.474700927734375	0.474700927734375	9.6099853515625E-07	4.56186882047405E-07	493966.375	3.4060787584167E-05
2	406	99.1601717496446	0.484771728515625	0.484710693359375	9.613037109375E-07	4.65954201445129E-07	504222.21875	3.41575832862873E-05
2	407	99.2608797493904	0.494842529296875	0.49481201171875	9.6221923828125E-07	4.76117634207185E-07	514240.40625	3.42544408340473E-05
2	408	99.3615877491361	0.504913330078125	0.5048828125	9.6466064453125E-07	4.87040608732059E-07	523378.65625	3.43514693668112E-05
2	409	99.4622957488818	0.514984130859375	0.51495361328125	9.66796875000001E-07	4.97855523917679E-07	532638.875	3.44487234542612E-05
2	410	99.5630037486276	0.525054931640625	0.525054931640625	9.69848632812501E-07	5.09223809785908E-07	541378.1875	3.45462431141641E-05
2	411	99.6637117483733	0.535125732421875	0.53509521484375	9.74121093749999E-07	5.21247557117022E-07	549310.75	3.46441302099265E-05
2	412	99.7644197481191	0.545196533203125	0.545166015625	9.783935546875E-07	5.33386923962098E-07	557205.25	3.47424465871882E-05
2	413	99.8651277478648	0.555267333984375	0.55523681640625	9.844970703125E-07	5.46629053133074E-07	563980.125	3.4841286833398E-05
2	414	99.9658357476105	0.565338134765625	0.565338134765625	9.9212646484375E-07	5.60886860512255E-07	569824.6875	3.49408146576025E-05
2	415	100.066543747356	0.575408935546875	0.575408935546875	1.0015869140625E-06	5.76322008782881E-07	574497.3125	3.5041208320763E-05
2	416	100.167251747102	0.585479736328125	0.58544921875	1.0137939453125E-06	5.93524873693241E-07	577483.4375	3.51426897395868E-05
2	417	100.267959746848	0.595550537109375	0.595489501953125	1.03057861328125E-06	6.13698716733779E-07	577820.5625	3.52456336258911E-05
2	418	100.368667746593	0.605621337890625	0.6055908203125	1.0528564453125E-06	6.37600180652953E-07	575188.4375	3.53505420207512E-05
2	419	100.469375746339	0.615692138671875	0.61566162109375	1.082763671875E-06	6.6661601749729E-07	568602	3.545807703631E-05
2	420	100.570083746085	0.625762939453125	0.625732421875	1.1236572265625E-06	7.03108696598065E-07	556871.3125	3.55691809090786E-05
2	421	100.670791745831	0.635833740234375	0.6357421875	1.17889404296875E-06	7.49472633287951E-07	539270.0625	3.56851232936606E-05
2	422	100.771499745576	0.645904541015625	0.645904541015625	1.25213623046875E-06	8.08760432846611E-07	515842.09375	3.58075340045616E-05
2	423	100.872207745322	0.655975341796875	0.6558837890625	1.34429931640625E-06	8.81704124822136E-07	487900.09375	3.59382756869309E-05
2	424	100.972915745068	0.666046142578125	0.665985107421875	1.45416259765625E-06	9.68450649452279E-07	457985.3125	3.60791891580448E-05
2	425	101.073623744814	0.676116943359375	0.67608642578125	1.57318115234375E-06	1.06360641893843E-06	429757.53125	3.62316277460195E-05
2	426	101.174331744559	0.686187744140625	0.686065673828125	1.69097900390625E-06	1.16012256512477E-06	405721	3.63959916285239E-05
2	427	101.275039744305	0.696258544921875	0.696136474609375	1.7950439453125E-06	1.24959547065373E-06	387810.28125	3.65715277439449E-05
2	428	101.375747744051	0.706329345703125	0.70623779296875	1.876220703125E-06	1.3250579513624E-06	376415.125	3.67563916370273E-05
2	429	101.476455743797	0.716400146484375	0.716339111328125	1.9281005859375E-06	1.38117388814862E-06	371525.8125	3.69479530490935E-05
2	430	101.577163743542	0.726470947265625	0.726348876953125	1.9512939453125E-06	1.41732004976802E-06	372239.625	3.71432979591191E-05
2	431	101.677871743288	0.736541748046875	0.7364501953125	1.95159912109375E-06	1.43725549150986E-06	377357.34375	3.73398215742782E-05
2	432	101.778579743034	0.746612548828125	0.7464599609375	1.93572998046875E-06	1.444944814466E-06	385621.96875	3.75355666619726E-05
2	433	101.87928774278	0.756683349609375	0.75653076171875	1.91009521484375E-06	1.44504565469106E-06	396069.6875	3.77292199118529E-05
2	434	101.979995742525	0.766754150390625	0.76690673828125	1.88079833984375E-06	1.44239686505898E-06	407755.96875	3.7920104659861E-05
2	435	102.080703742271	0.776824951171875	0.7769775390625	1.85211181640625E-06	1.43904924243543E-06	419509	3.81080717488658E-05
2	436	102.181411742017	0.786895751953125	0.78704833984375	1.824951171875E-06	1.43632473736943E-06	431270.90625	3.82932266802527E-05
2	437	102.282119741762	0.796966552734375	0.7965087890625	1.8017578125E-06	1.43511590522394E-06	442073.1875	3.84758459404111E-05
2	438	102.382827741508	0.807037353515625	0.80657958984375	1.783447265625E-06	1.43849217693059E-06	452258.71875	3.86563770007342E-05
2	439	102.483535741254	0.817108154296875	0.8172607421875	1.77032470703125E-06	1.44681678193592E-06	461644.5625	3.88353219022974E-05
2	440	102.584243741	0.827178955078125	0.82733154296875	1.761474609375E-06	1.45732349210448E-06	469681.25	3.90131608583033E-05
2	441	102.684951740745	0.837249755859375	0.83770751953125	1.75689697265625E-06	1.47176581322128E-06	476810.84375	3.91903267882299E-05
2	442	102.785659740491	0.847320556640625	0.84716796875	1.7547607421875E-06	1.48657704812649E-06	482782.625	3.93671507481486E-05
2	443	102.886367740237	0.857391357421875	0.85723876953125	1.754150390625E-06	1.50372568441526E-06	488691.71875	3.95438401028514E-05
2	444	102.987075739983	0.867462158203125	0.86761474609375	1.75323486328125E-06	1.52113238982565E-06	494865.09375	3.97204494220205E-05
2	445	103.087783739728	0.877532958984375	0.877685546875	1.75201416015625E-06	1.53771748045983E-06	500958.03125	3.98969532398041E-05
2	446	103.188491739474	0.887603759765625	0.887451171875	1.74957275390625E-06	1.55266036472312E-06	507238.8125	4.00732715206686E-05
2	447	103.28919973922	0.897674560546875	0.8978271484375	1.74652099609375E-06	1.56807391249458E-06	514066.0625	4.02493169531226E-05
2	448	103.389907738966	0.907745361328125	0.90728759765625	1.7431640625E-06	1.58155114604597E-06	520483.1875	4.0425034967484E-05
2	449	103.490615738711	0.917816162109375	0.91796875	1.7401123046875E-06	1.59736862315185E-06	527534.25	4.06004328397103E-05
2	450	103.591323738457	0.927886962890625	0.9283447265625	1.73980712890625E-06	1.61514071805868E-06	533590.625	4.07756597269326E-05
2	451	103.692031738203	0.937957763671875	0.93841552734375	1.74346923828125E-06	1.63609854553215E-06	538246.125	4.0951057599159E-05
2	452	103.792739737949	0.948028564453125	0.94818115234375	1.75079345703125E-06	1.66006930157891E-06	541572.25	4.11270048061851E-05
2	453	103.893447737694	0.958099365234375	0.958251953125	1.763916015625E-06	1.69027589436155E-06	543252.625	4.13039851991925E-05
2	454	103.99415573744	0.968170166015625	0.96771240234375	1.783447265625E-06	1.72586408098141E-06	542607.8125	4.14826099586207E-05
2	455	104.094863737186	0.978240966796875	0.97808837890625	1.8121337890625E-06	1.77242691279389E-06	539744.0625	4.16636612499133E-05
2	456	104.195571736931	0.988311767578125	0.98846435546875	1.8475341796875E-06	1.82622159172752E-06	535018.1875	4.18479394284077E-05
2	457	104.296279736677	0.998382568359375	0.99822998046875	1.88995361328125E-06	1.88660828825959E-06	528177	4.20361393480562E-05
2	458	104.396987736423	1.00845336914063	1.00860595703125	1.9342041015625E-06	1.95084953702462E-06	521457.90625	4.22287012042943E-05
2	459	104.497695736169	1.01852416992188	1.0186767578125	1.97662353515625E-06	2.01354032469681E-06	515362.0625	4.24256249971222E-05
2	460	104.598403735914	1.02859497070313	1.02813720703125	2.01202392578125E-06	2.06863660423551E-06	510996.5	4.26264705311041E-05
2	461	104.69911173566	1.03866577148438	1.03851318359375	2.03704833984375E-06	2.11550150197581E-06	509812.75	4.28303574153688E-05
2	462	104.799819735406	1.04873657226563	1.04827880859375	2.04925537109375E-06	2.14819078792061E-06	511541.34375	4.30361178587191E-05
2	463	104.900527735152	1.05880737304688	1.0589599609375	2.052001953125E-06	2.17298793359078E-06	516061.875	4.32426350016613E-05
2	464	105.001235734897	1.06887817382813	1.06903076171875	2.044677734375E-06	2.18582340494322E-06	522835.8125	4.34489193139598E-05
2	465	105.101943734643	1.07894897460938	1.0791015625	2.03277587890625E-06	2.1935716176813E-06	530851.1875	4.36542322859168E-05
2	466	105.202651734389	1.08901977539063	1.08917236328125	2.0166015625E-06	2.19642652155017E-06	540102.9375	4.38581373600755E-05
2	467	105.303359734135	1.09909057617188	1.0992431640625	1.99981689453125E-06	2.19828484659956E-06	549671.9375	4.40603798779193E-05
2	468	105.40406773388	1.10916137695313	1.1083984375	1.9830322265625E-06	2.19798994294251E-06	558941.1875	4.42609307356179E-05
2	469	105.504775733626	1.11923217773438	1.11907958984375	1.96807861328125E-06	2.20243646253948E-06	568615.3125	4.44598845206201E-05
2	470	105.605483733372	1.12930297851563	1.12945556640625	1.9537353515625E-06	2.20665720007673E-06	578100.5625	4.46573649242055E-05
2	471	105.706191733118	1.13937377929688	1.1395263671875	1.9415283203125E-06	2.21242271436495E-06	586922.3125	4.48535065515898E-05
2	472	105.806899732863	1.14944458007813	1.14959716796875	1.93084716796875E-06	2.2196961708687E-06	595384.875	4.50484949396923E-05
2	473	105.907607732609	1.15951538085938	1.15966796875	1.92169189453125E-06	2.22852440856514E-06	603462	4.52424865216017E-05
2	474	106.008315732355	1.16958618164063	1.16973876953125	1.91436767578125E-06	2.23931010623346E-06	611031.4375	4.5435648644343E-05
2	475	106.1090237321	1.17965698242188	1.17950439453125	1.9085693359375E-06	2.25116582441842E-06	618004.5	4.56281486549415E-05
2	476	106.209731731846	1.18972778320313	1.18988037109375	1.90460205078125E-06	2.26624842980527E-06	624739.625	4.5820157538401E-05
2	477	106.310439731592	1.19979858398438	1.1993408203125	1.90155029296875E-06	2.28060685003584E-06	630717.375	4.60118098999374E-05
2	478	106.411147731338	1.20986938476563	1.209716796875	1.9000244140625E-06	2.29849138122518E-06	636684.875	4.62032367067877E-05
2	479	106.511855731083	1.21994018554688	1.21978759765625	1.9000244140625E-06	2.31762624025578E-06	641985.25	4.63945834781043E-05
2	480	106.612563730829	1.23001098632813	1.23016357421875	1.9012451171875E-06	2.33884225053771E-06	647030.5625	4.65859920950606E-05
2	481	106.713271730575	1.24008178710938	1.23992919921875	1.90338134765625E-06	2.36005803344597E-06	651435	4.67775716970209E-05
2	482	106.813979730321	1.25015258789063	1.24969482421875	1.90673828125E-06	2.38284087572538E-06	655409.75	4.69694241473917E-05
2	483	106.914687730066	1.26022338867188	1.2603759765625	1.91131591796875E-06	2.40897657022288E-06	659428.4375	4.71616804134101E-05
2	484	107.015395729812	1.27029418945313	1.27044677734375	1.91650390625E-06	2.43481622419495E-06	662898.125	4.73544278065674E-05
2	485	107.116103729558	1.28036499023438	1.28021240234375	1.9232177734375E-06	2.46212721322081E-06	665661.6875	4.75477718282491E-05
2	486	107.216811729304	1.29043579101563	1.2908935546875	1.9305419921875E-06	2.49212416747469E-06	668669	4.77418252557982E-05
2	487	107.317519729049	1.30050659179688	1.3006591796875	1.93939208984375E-06	2.52248787546705E-06	670653.0625	4.79366899526212E-05
2	488	107.418227728795	1.31057739257813	1.3104248046875	1.9488525390625E-06	2.55382474279031E-06	672408.375	4.81324786960613E-05
2	489	107.518935728541	1.32064819335938	1.32049560546875	1.9598388671875E-06	2.5879585336952E-06	673777.6875	4.83292969875038E-05
2	490	107.619643728287	1.33071899414063	1.33087158203125	1.97235107421875E-06	2.62494609160058E-06	674764	4.85272976220585E-05
2	491	107.720351728032	1.34078979492188	1.34033203125	1.986083984375E-06	2.66201209342398E-06	674861.6875	4.87266224808991E-05
2	492	107.821059727778	1.35086059570313	1.3507080078125	2.00225830078125E-06	2.70446616923437E-06	674592.3125	4.8927449824987E-05
2	493	107.921767727524	1.36093139648438	1.36077880859375	2.02117919921875E-06	2.75037768915354E-06	673259.875	4.91300452267751E-05
2	494	108.022475727269	1.37100219726563	1.37115478515625	2.044677734375E-06	2.8035697141604E-06	670597	4.93347797601018E-05
2	495	108.123183727015	1.38107299804688	1.38153076171875	2.07305908203125E-06	2.86399472315679E-06	666421.3125	4.95421227242332E-05
2	496	108.223891726761	1.39114379882813	1.3909912109375	2.1051025390625E-06	2.92817912850296E-06	660771.25	4.97525106766261E-05
2	497	108.324599726507	1.40121459960938	1.40167236328125	2.14324951171875E-06	3.00413353215845E-06	653994	4.99664311064407E-05
2	498	108.425307726252	1.41128540039063	1.4117431640625	2.1875E-06	3.08818835037528E-06	645368.3125	5.01845024700742E-05
2	499	108.526015725998	1.42135620117188	1.42120361328125	2.23846435546875E-06	3.18131355925289E-06	634901.1875	5.04073686897755E-05
2	500	108.626723725744	1.43142700195313	1.43157958984375	2.2991943359375E-06	3.29147951561026E-06	622644.0625	5.06358555867337E-05
2	501	108.72743172549	1.44149780273438	1.44134521484375	2.37213134765625E-06	3.41906024914351E-06	607616.125	5.08710763824638E-05
2	502	108.828139725235	1.45156860351563	1.45172119140625	2.46063232421875E-06	3.57215185431414E-06	589978.9375	5.1114424422849E-05
2	503	108.928847724981	1.46163940429688	1.46148681640625	2.56561279296875E-06	3.74960904991894E-06	569644.375	5.13675186084583E-05
2	504	109.029555724727	1.47171020507813	1.47186279296875	2.68646240234375E-06	3.95410370401805E-06	547881.4375	5.16319814778399E-05
2	505	109.130263724473	1.48178100585938	1.48162841796875	2.8216552734375E-06	4.18064473706181E-06	525091.9375	5.19093373441137E-05
2	506	109.230971724218	1.49185180664063	1.49169921875	2.97027587890625E-06	4.43075805378612E-06	502209	5.22009831911419E-05
2	507	109.331679723964	1.50192260742188	1.50177001953125	3.12896728515625E-06	4.6989889597171E-06	479957.09375	5.25081050000153E-05
2	508	109.43238772371	1.49185180664063	1.49200439453125	2.75360107421875E-06	4.10838447351125E-06	541837.5625	5.28043165104464E-05
2	509	109.533095723456	1.48178100585938	1.48162841796875	2.4810791015625E-06	3.67603729500843E-06	597171	5.30679026269354E-05
2	510	109.633803723201	1.47171020507813	1.47186279296875	2.26806640625E-06	3.33828234033717E-06	648950.5	5.33070415258408E-05
2	511	109.734511722947	1.46163940429688	1.46209716796875	2.0953369140625E-06	3.06358606394497E-06	697786.1875	5.35267572558951E-05
2	512	109.835219722693	1.45156860351563	1.451416015625	1.9525146484375E-06	2.8339109121589E-06	743357.3125	5.373058229452E-05
2	513	109.935927722438	1.44149780273438	1.441650390625	1.83349609375E-06	2.6432603590365E-06	786284.9375	5.3921223297948E-05
2	514	110.036635722184	1.43142700195313	1.43157958984375	1.7333984375E-06	2.48149785875285E-06	825880.25	5.41008303116541E-05
2	515	110.13734372193	1.42135620117188	1.42059326171875	1.64825439453125E-06	2.34149911193526E-06	861877.4375	5.42711095476989E-05
2	516	110.238051721676	1.41128540039063	1.4111328125	1.57623291015625E-06	2.2242738850764E-06	895256.5625	5.44334761798382E-05
2	517	110.338759721421	1.40121459960938	1.40106201171875	1.51458740234375E-06	2.12203076443984E-06	925045.375	5.45891089132056E-05
2	518	110.439467721167	1.39114379882813	1.3909912109375	1.46148681640625E-06	2.03291529032867E-06	951764.4375	5.47389681742061E-05
2	519	110.540175720913	1.38107299804688	1.3812255859375	1.41571044921875E-06	1.9554154278012E-06	975641.375	5.48838470422197E-05
2	520	110.640883720659	1.37100219726563	1.370849609375	1.3763427734375E-06	1.88675892331958E-06	996008.875	5.50244367332198E-05
2	521	110.741591720404	1.36093139648438	1.36077880859375	1.3421630859375E-06	1.8263870060764E-06	1013870	5.51613229617942E-05
2	522	110.84229972015	1.35086059570313	1.3507080078125	1.31317138671875E-06	1.77371100562596E-06	1028584.75	5.52950295968913E-05
2	523	110.943007719896	1.34078979492188	1.3409423828125	1.2872314453125E-06	1.72610316440114E-06	1041726	5.54259713680949E-05
2	524	111.043715719642	1.33071899414063	1.33026123046875	1.26434326171875E-06	1.68190683780267E-06	1052136.125	5.5554453865625E-05
2	525	111.144423719387	1.32064819335938	1.32080078125	1.2445068359375E-06	1.64374557698466E-06	1061304.5	5.56807826797012E-05
2	526	111.245131719133	1.31057739257813	1.31072998046875	1.2274169921875E-06	1.60881222655007E-06	1067876.625	5.58052561245859E-05
2	527	111.345839718879	1.30050659179688	1.3006591796875	1.21124267578125E-06	1.5754138757984E-06	1073822.125	5.59280524612404E-05
2	528	111.446547718625	1.29043579101563	1.29119873046875	1.19720458984375E-06	1.54582903633127E-06	1078511.375	5.60493281227536E-05
2	529	111.54725571837	1.28036499023438	1.280517578125	1.18408203125E-06	1.51623771671439E-06	1081443.375	5.61692359042354E-05
2	530	111.647963718116	1.27029418945313	1.2701416015625	1.170654296875E-06	1.48689673551416E-06	1084984.375	5.62878049095161E-05
2	531	111.748671717862	1.26022338867188	1.26007080078125	1.1578369140625E-06	1.45895648984151E-06	1088297.375	5.64050533284899E-05
2	532	111.849379717607	1.25015258789063	1.25030517578125	1.1456298828125E-06	1.43238696637127E-06	1091369.25	5.65210430067964E-05
2	533	111.950087717353	1.24008178710938	1.2396240234375	1.13372802734375E-06	1.40539646054094E-06	1093405.125	5.66358176001813E-05
2	534	112.050795717099	1.23001098632813	1.2298583984375	1.1224365234375E-06	1.38043799324805E-06	1095704.25	5.67494244023692E-05
2	535	112.151503716845	1.21994018554688	1.219482421875	1.11053466796875E-06	1.35427751501993E-06	1098103.875	5.686186341336E-05
2	536	112.25221171659	1.20986938476563	1.209716796875	1.0986328125E-06	1.32903448957222E-06	1101111.125	5.69731018913444E-05
2	537	112.352919716336	1.19979858398438	1.19964599609375	1.08795166015625E-06	1.30515684304555E-06	1102664.75	5.7083205319941E-05
2	538	112.453627716082	1.18972778320313	1.190185546875	1.07635498046875E-06	1.28106205465883E-06	1105755.625	5.71921882510651E-05
2	539	112.554335715828	1.17965698242188	1.1798095703125	1.06414794921875E-06	1.25549183849216E-06	1108689.5	5.72999706491828E-05
2	540	112.655043715573	1.16958618164063	1.16943359375	1.05255126953125E-06	1.23088886994083E-06	1111046.625	5.7406556152273E-05
2	541	112.755751715319	1.15951538085938	1.15936279296875	1.0400390625E-06	1.20578249607206E-06	1114730.125	5.75119265704416E-05
2	542	112.856459715065	1.14944458007813	1.14898681640625	1.02752685546875E-06	1.18061484499776E-06	1118206.125	5.76160346099641E-05
2	543	112.957167714811	1.13937377929688	1.13922119140625	1.014404296875E-06	1.15563079816638E-06	1123044.625	5.7718854804989E-05
2	544	113.057875714556	1.12930297851563	1.12945556640625	9.9945068359375E-07	1.12883515157591E-06	1130076.375	5.78202598262578E-05
2	545	113.158583714302	1.11923217773438	1.11907958984375	9.8419189453125E-07	1.1013889889E-06	1137054.375	5.79201441723853E-05
2	546	113.259291714048	1.10916137695313	1.10870361328125	9.66491699218749E-07	1.0715529015215E-06	1147142.375	5.80183696001768E-05
2	547	113.359999713794	1.09909057617188	1.09893798828125	9.46960449218751E-07	1.04065077266569E-06	1160489.875	5.81147214688826E-05
2	548	113.460707713539	1.08901977539063	1.0894775390625	9.2315673828125E-07	1.00575857686636E-06	1180165.25	5.82088869123254E-05
2	549	113.561415713285	1.07894897460938	1.07879638671875	8.95080566406251E-07	9.65609615377616E-07	1205250.625	5.83004439249635E-05
2	550	113.662123713031	1.06887817382813	1.06903076171875	8.6090087890625E-07	9.20329512155149E-07	1241758.25	5.83888649998698E-05
2	551	113.762831712776	1.05880737304688	1.058349609375	8.2000732421875E-07	8.67854396346956E-07	1290658.75	5.84735025768168E-05
2	552	113.863539712522	1.04873657226563	1.048583984375	7.708740234375E-07	8.08326149126515E-07	1360253.375	5.8553610870149E-05
2	553	113.964247712268	1.03866577148438	1.03851318359375	7.1563720703125E-07	7.43198654618027E-07	1451172.75	5.86284622841049E-05
2	554	114.064955712014	1.02859497070313	1.02874755859375	6.5582275390625E-07	6.7467607323124E-07	1568636.5	5.86975220357999E-05
2	555	114.165663711759	1.01852416992188	1.0186767578125	5.9539794921875E-07	6.06518028689607E-07	1710917.5	5.87605245527811E-05
2	556	114.266371711505	1.00845336914063	1.00830078125	5.4046630859375E-07	5.44952627024031E-07	1865612.625	5.88177208555862E-05
2	557	114.367079711251	0.998382568359375	0.99853515625	4.9591064453125E-07	4.95184167448315E-07	2013538.5	5.8869907661574E-05
2	558	114.467787710997	0.988311767578125	0.98846435546875	4.64477539062499E-07	4.59119462448143E-07	2128121	5.89182673138566E-05
2	559	114.568495710742	0.978240966796875	0.97808837890625	4.4525146484375E-07	4.35495280726172E-07	2196710	5.89640731050167E-05
2	560	114.669203710488	0.968170166015625	0.96832275390625	4.37011718749999E-07	4.23168387442274E-07	2215782	5.90085001022089E-05
2	561	114.769911710234	0.958099365234375	0.95855712890625	4.345703125E-07	4.16560453686543E-07	2205758.5	5.90523886785377E-05
2	562	114.87061970998	0.948028564453125	0.948486328125	4.35791015625001E-07	4.13341808780388E-07	2176470.5	5.90962154092267E-05
2	563	114.971327709725	0.937957763671875	0.9381103515625	4.3792724609375E-07	4.10824071650495E-07	2142160.25	5.91402094869409E-05
2	564	115.072035709471	0.927886962890625	0.92803955078125	4.40368652343751E-07	4.08679511565424E-07	2107415.25	5.91844363952987E-05
2	565	115.172743709217	0.917816162109375	0.91827392578125	4.41894531250001E-07	4.05780212986429E-07	2078038.75	5.92288597545121E-05
2	566	115.273451708963	0.907745361328125	0.90789794921875	4.41589355468749E-07	4.0091805431075E-07	2055977.875	5.9273348597344E-05
2	567	115.374159708708	0.897674560546875	0.89752197265625	4.376220703125E-07	3.92775405089196E-07	2050906.625	5.93176191614475E-05
2	568	115.474867708454	0.887603759765625	0.88775634765625	4.3060302734375E-07	3.82270570753462E-07	2061658.375	5.93613367527723E-05
2	569	115.5755757082	0.877532958984375	0.87738037109375	4.21142578125E-07	3.69502231478691E-07	2083333.375	5.94042248849291E-05
2	570	115.676283707945	0.867462158203125	0.86761474609375	4.1046142578125E-07	3.56122370703815E-07	2113754.75	5.94461016589776E-05
2	571	115.776991707691	0.857391357421875	0.8575439453125	3.97338867187499E-07	3.40735539339221E-07	2158218.25	5.94867779000197E-05
2	572	115.877699707437	0.847320556640625	0.8477783203125	3.8482666015625E-07	3.2624768664391E-07	2203013.5	5.95261626585852E-05
2	573	115.978407707183	0.837249755859375	0.83740234375	3.7353515625E-07	3.12799215862469E-07	2241830	5.95643505221233E-05
2	574	116.079115706928	0.827178955078125	0.82733154296875	3.64074707031251E-07	3.01210491215897E-07	2272422.5	5.96014906477649E-05
2	575	116.179823706674	0.817108154296875	0.81756591796875	3.5552978515625E-07	2.90669021296708E-07	2299570.75	5.96377249166835E-05
2	576	116.28053170642	0.807037353515625	0.80718994140625	3.4942626953125E-07	2.82053377986813E-07	2310043.75	5.96732243138831E-05
2	577	116.381239706166	0.796966552734375	0.797119140625	3.4210205078125E-07	2.72696098591041E-07	2330062.5	5.97080434090458E-05
2	578	116.481947705911	0.786895751953125	0.7867431640625	3.326416015625E-07	2.61703519299772E-07	2365137.5	5.97420184931252E-05
2	579	116.582655705657	0.776824951171875	0.77728271484375	3.18298339843751E-07	2.47407797360211E-07	2441994.25	5.97747966821771E-05
2	580	116.683363705403	0.766754150390625	0.76690673828125	2.98461914062501E-07	2.28892446330065E-07	2569529.75	5.98058541072533E-05
2	581	116.784071705149	0.756683349609375	0.7568359375	2.69165039062499E-07	2.03713781843362E-07	2811791.25	5.98344377067406E-05
2	582	116.884779704894	0.746612548828125	0.746551513671875	2.2613525390625E-07	1.68821600254887E-07	3301349.75	5.98593760514632E-05
2	583	116.98548770464	0.736541748046875	0.7364501953125	1.678466796875E-07	1.23610718105738E-07	4387636.5	5.98792139498983E-05
2	584	117.086195704386	0.726470947265625	0.726348876953125	9.09423828125006E-08	6.60558967524594E-08	7986913	5.98922451899853E-05
2	585	117.186903704132	0.716400146484375	0.71636962890625	-6.40869140624972E-09	-4.5909920309839E-09	-111780952	5.98965016251896E-05
2	586	117.287611703877	0.706329345703125	0.70623779296875	-1.19628906249999E-07	-8.44864587179472E-08	-5903571.5	5.989015699015E-05
2	587	117.388319703623	0.696258544921875	0.696258544921875	-2.42919921875E-07	-1.6913507749905E-07	-2866206	5.9871901612496E-05
2	588	117.489027703369	0.686187744140625	0.686126708984375	-3.64074707031251E-07	-2.49801388463311E-07	-1884576.75	5.98413353145588E-05
2	589	117.589735703114	0.676116943359375	0.676025390625	-4.69970703125E-07	-3.1771213571119E-07	-1438441.625	5.97993384872098E-05
2	590	117.69044370286	0.666046142578125	0.665985107421875	-5.5084228515625E-07	-3.66852759725589E-07	-1209030.5	5.97479374846444E-05
2	591	117.791151702606	0.655975341796875	0.655853271484375	-6.011962890625E-07	-3.94296563399621E-07	-1090913.75	5.96899262745865E-05
2	592	117.891859702352	0.645904541015625	0.645904541015625	-6.20422363281251E-07	-4.00733597416547E-07	-1041072.375	5.96284116909374E-05
2	593	117.992567702097	0.635833740234375	0.635772705078125	-6.1492919921875E-07	-3.90955193552145E-07	-1033895.75	5.95662095292937E-05
2	594	118.093275701843	0.625762939453125	0.625762939453125	-5.9173583984375E-07	-3.70286358020167E-07	-1057503.875	5.95054480072577E-05
2	595	118.193983701589	0.615692138671875	0.615692138671875	-5.5755615234375E-07	-3.43282920312049E-07	-1104269.375	5.94475750403944E-05
2	596	118.294691701335	0.605621337890625	0.6055908203125	-5.17578125E-07	-3.13440551735766E-07	-1170047.25	5.93934382777661E-05
2	597	118.39539970108	0.595550537109375	0.59552001953125	-4.7637939453125E-07	-2.83693452729494E-07	-1250096.125	5.93433906033169E-05
2	598	118.496107700826	0.585479736328125	0.585479736328125	-4.35791015625001E-07	-2.55146801464434E-07	-1343487.375	5.92974574828986E-05
2	599	118.596815700572	0.575408935546875	0.575347900390625	-3.96118164062501E-07	-2.27905758265479E-07	-1452465.375	5.92555661569349E-05
2	600	118.697523700318	0.565338134765625	0.56524658203125	-3.57666015624999E-07	-2.02169488261461E-07	-1580375.5	5.92176111240406E-05
2	601	118.798231700063	0.555267333984375	0.55523681640625	-3.2012939453125E-07	-1.77747608631762E-07	-1734413.875	5.91834832448512E-05
2	602	118.898939699809	0.545196533203125	0.545135498046875	-2.84729003906251E-07	-1.55215886366022E-07	-1914576.625	5.91530260862783E-05
2	603	118.999647699555	0.535125732421875	0.53515625	-2.52380371093749E-07	-1.35062933281915E-07	-2120435.25	5.91259813518263E-05
2	604	119.100355699301	0.525054931640625	0.525054931640625	-2.239990234375E-07	-1.17611790528827E-07	-2344005.5	5.91019925195724E-05
2	605	119.201063699046	0.514984130859375	0.51495361328125	-1.9989013671875E-07	-1.02934151868794E-07	-2576183.25	5.90806484979112E-05
2	606	119.301771698792	0.504913330078125	0.504913330078125	-1.7974853515625E-07	-9.07574246866716E-08	-2808998.5	5.90615309192799E-05
2	607	119.402479698538	0.494842529296875	0.494781494140625	-1.61132812500001E-07	-7.97255310658329E-08	-3070644	5.9044366935268E-05
2	608	119.503187698283	0.484771728515625	0.484771728515625	-1.44348144531251E-07	-6.99758970768016E-08	-3358351.25	5.90289855608717E-05
2	609	119.603895698029	0.474700927734375	0.474639892578125	-1.29089355468751E-07	-6.12709598613037E-08	-3676832	5.90152158110868E-05
2	610	119.704603697775	0.464630126953125	0.46466064453125	-1.15051269531249E-07	-5.34597930368363E-08	-4038727	5.90029230806977E-05
2	611	119.805311697521	0.454559326171875	0.454620361328125	-1.0223388671875E-07	-4.64776057640393E-08	-4446866	5.89919800404459E-05
2	612	119.906019697266	0.444488525390625	0.4444580078125	-9.12475585937503E-08	-4.05557081251118E-08	-4870903	5.89822375332005E-05
2	613	120.006727697012	0.434417724609375	0.43438720703125	-8.05664062500003E-08	-3.49970150637091E-08	-5391667	5.89735864195973E-05
2	614	120.107435696758	0.424346923828125	0.42437744140625	-7.04956054687497E-08	-2.99167446371484E-08	-6019913.5	5.89659794059116E-05
2	615	120.208143696504	0.414276123046875	0.414276123046875	-6.22558593750003E-08	-2.57911150214341E-08	-6654412	5.8959296438843E-05
2	616	120.308851696249	0.404205322265625	0.404205322265625	-5.43212890625006E-08	-2.19569535886421E-08	-7441011.5	5.89534247410484E-05
2	617	120.409559695995	0.394134521484375	0.3941650390625	-4.66918945312506E-08	-1.84043127404721E-08	-8441830	5.89483388466761E-05
2	618	120.510267695741	0.384063720703125	0.384063720703125	-3.99780273437497E-08	-1.53541090952558E-08	-9606870	5.89439732721075E-05
2	619	120.610975695487	0.373992919921875	0.3740234375	-3.38745117187497E-08	-1.26698607161302E-08	-11041442	5.89402552577667E-05
2	620	120.711683695232	0.363922119140625	0.363861083984375	-2.74658203125E-08	-9.9937427222585E-09	-13247778	5.89371666137595E-05
2	621	120.812391694978	0.353851318359375	0.353851318359375	-2.19726562499994E-08	-7.77505260174394E-09	-16104168	5.89346782362554E-05
2	622	120.913099694724	0.343780517578125	0.343780517578125	-1.70898437499997E-08	-5.87515502914471E-09	-20116072	5.89327100897208E-05
2	623	121.01380769447	0.333709716796875	0.333740234375	-1.25122070312497E-08	-4.17582679546058E-09	-26673172	5.89312221563887E-05
2	624	121.114515694215	0.323638916015625	0.323638916015625	-8.23974609374945E-09	-2.66670241444444E-09	-39277780	5.89301744184922E-05
2	625	121.215223693961	0.313568115234375	0.313629150390625	-4.57763671875E-09	-1.43568024135732E-09	-68513336	5.89295304962434E-05
2	626	121.315931693707	0.303497314453125	0.30352783203125	-1.52587890625E-09	-4.6314671542369E-10	-198920000	5.89292212680448E-05
2	627	121.416639693452	0.293426513671875	0.293426513671875	1.83105468749972E-09	5.37279998269469E-10	160250000	5.89292394579388E-05
2	628	121.517347693198	0.283355712890625	0.283355712890625	3.35693359374972E-09	9.51206224897305E-10	84409096	5.89294977544341E-05
2	629	121.618055692944	0.273284912109375	0.273223876953125	5.49316406250056E-09	1.50086365557911E-09	49738888	5.89299452258274E-05
2	630	121.71876369269	0.263214111328125	0.26318359375	7.32421875000028E-09	1.92761406836439E-09	35933336	5.89305891480763E-05
2	631	121.819471692435	0.253143310546875	0.253204345703125	9.1552734375E-09	2.31815500129073E-09	27656668	5.89314186072443E-05
2	632	121.920179692181	0.243072509765625	0.24310302734375	9.46044921874972E-09	2.29986385491543E-09	25696774	5.89323572057765E-05
2	633	122.020887691927	0.233001708984375	0.233001708984375	1.00708007812506E-08	2.34651365005334E-09	23136364	5.89333394600544E-05
2	634	122.121595691673	0.222930908203125	0.222991943359375	1.00708007812506E-08	2.24570739781882E-09	22142426	5.89343544561416E-05
2	635	122.222303691418	0.212860107421875	0.212921142578125	9.1552734375E-09	1.94935112496353E-09	23256668	5.89353221585043E-05
2	636	122.323011691164	0.202789306640625	0.202850341796875	7.62939453125E-09	1.5476251391533E-09	26588002	5.89361698075663E-05
2	637	122.42371969091	0.192718505859375	0.192718505859375	4.88281249999972E-09	9.41008271304611E-10	39468752	5.89367991779E-05
2	638	122.524427690656	0.182647705078125	0.1826171875	1.52587890625E-09	2.78651712815048E-10	119680000	5.89371229580138E-05
2	639	122.625135690401	0.172576904296875	0.172637939453125	-3.96728515625056E-09	-6.84903911363222E-10	-43515384	5.89369992667343E-05
2	640	122.725843690147	0.162506103515625	0.16253662109375	-1.15966796875006E-08	-1.88488513686025E-09	-14015790	5.8936213463312E-05
2	641	122.826551689893	0.152435302734375	0.1524658203125	-2.34985351562494E-08	-3.58272345124533E-09	-6488312	5.89344490435906E-05
2	642	122.927259689639	0.142364501953125	0.142425537109375	-3.93676757812503E-08	-5.60696200579969E-09	-3617829.75	5.89312803640496E-05
2	643	123.027967689384	0.132293701171875	0.132293701171875	-6.16455078124994E-08	-8.15531286946225E-09	-2146039.5	5.89261944696773E-05
2	644	123.12867568913	0.122222900390625	0.122283935546875	-9.36889648437495E-08	-1.14566551800976E-08	-1305211.75	5.8918372815242E-05
2	645	123.229383688876	0.112152099609375	0.112152099609375	-1.385498046875E-07	-1.55386512545874E-08	-809471.375	5.8906680351356E-05
2	646	123.330091688621	0.102081298828125	0.10211181640625	-2.00805664062501E-07	-2.05046308821011E-08	-508510.65625	5.88895927648991E-05
2	647	123.430799688367	0.092010498046875	0.092041015625	-2.86865234375E-07	-2.64033666041996E-08	-320851.0625	5.88650364079513E-05
2	648	123.531507688113	0.081939697265625	0.08203125	-4.02221679687501E-07	-3.29947482669013E-08	-203945.375	5.88303373660892E-05
2	649	123.632215687859	0.071868896484375	0.0718994140625	-5.5389404296875E-07	-3.9824655573284E-08	-129807.1640625	5.87821923545562E-05
2	650	123.732923687604	0.061798095703125	0.06182861328125	-7.4462890625E-07	-4.60393714263319E-08	-83032.7890625	5.87168069614563E-05
2	651	123.83363168735	0.051727294921875	0.051788330078125	-9.71069335937499E-07	-5.02900583398969E-08	-53331.23828125	5.86304158787243E-05
2	652	123.934339687096	0.041656494140625	0.0417449951171875	-1.22161865234375E-06	-5.09964657169348E-08	-34171.87109375	5.85200032219291E-05
2	653	124.035047686842	0.031585693359375	0.0316741943359375	-1.478271484375E-06	-4.68230574313111E-08	-21426.5078125	5.83840555918869E-05
2	654	124.135755686587	0.021514892578125	0.021612548828125	-1.71356201171875E-06	-3.70344395150823E-08	-12612.6455078125	5.82233333261684E-05
2	655	124.236463686333	0.011444091796875	0.0115325927734375	-1.90399169921875E-06	-2.19579607829701E-08	-6057.060546875	5.80411724513397E-05
2	656	124.337171686079	0.001373291015625	0.0014373779296875	-2.03338623046875E-06	-2.92274426882955E-09	-706.888793945313	5.78429098823108E-05
2	657	124.437879685825	-0.008697509765625	-0.008624267578125	-2.09808349609375E-06	1.8094434395266E-08	4110.54541015625	5.7634875702206E-05
2	658	124.53858768557	-0.018768310546875	-0.0186798095703125	-2.1038818359375E-06	3.93001080567501E-08	8878.7353515625	5.74232908547856E-05
2	659	124.639295685316	-0.028839111328125	-0.0287017822265625	-2.0684814453125E-06	5.93690998584862E-08	13875.775390625	5.72131939406972E-05
2	660	124.740003685062	-0.038909912109375	-0.038763427734375	-2.0068359375E-06	7.77918387484533E-08	19315.69140625	5.70079864701256E-05
2	661	124.840711684808	-0.048980712890625	-0.048846435546875	-1.9317626953125E-06	9.43597200375734E-08	25285.939453125	5.6809662055457E-05
2	662	124.941419684553	-0.059051513671875	-0.058990478515625	-1.85333251953125E-06	1.09328972541789E-07	31829.41015625	5.66190683457535E-05
2	663	125.042127684299	-0.069122314453125	-0.069122314453125	-1.77703857421875E-06	1.22833014870594E-07	38897.4765625	5.64362635486759E-05
2	664	125.142835684045	-0.079193115234375	-0.079132080078125	-1.70623779296875E-06	1.35018140667853E-07	46378.109375	5.62608656764496E-05
2	665	125.24354368379	-0.089263916015625	-0.089111328125	-1.64276123046875E-06	1.46388629218563E-07	54244.84765625	5.60922308068257E-05
2	666	125.344251683536	-0.099334716796875	-0.099334716796875	-1.5863037109375E-06	1.57575030357293E-07	62620.23828125	5.59296349820215E-05
2	667	125.444959683282	-0.109405517578125	-0.109222412109375	-1.536865234375E-06	1.67860122246566E-07	71068.3125	5.57723724341486E-05
2	668	125.545667683028	-0.119476318359375	-0.119384765625	-1.4947509765625E-06	1.78450491716831E-07	79869.3359375	5.56197155674454E-05
2	669	125.646375682773	-0.129547119140625	-0.129486083984375	-1.458740234375E-06	1.88886545515743E-07	88765.6953125	5.54709949938115E-05
2	670	125.747083682519	-0.139617919921875	-0.1395263671875	-1.42822265625E-06	1.99274708734265E-07	97692.3125	5.53256249986589E-05
2	671	125.847791682265	-0.149688720703125	-0.14959716796875	-1.40228271484375E-06	2.09777525128629E-07	106681.1796875	5.51830999029335E-05
2	672	125.948499682011	-0.159759521484375	-0.159698486328125	-1.380615234375E-06	2.20482164081659E-07	115671.96875	5.50429685972631E-05
2	673	126.049207681756	-0.169830322265625	-0.169677734375	-1.363525390625E-06	2.3135989124512E-07	124440.46875	5.49047908862121E-05
2	674	126.149915681502	-0.179901123046875	-0.1796875	-1.34979248046875E-06	2.42540835415639E-07	133122.3125	5.4768162954133E-05
2	675	126.250623681248	-0.189971923828125	-0.189849853515625	-1.33941650390625E-06	2.54288011092285E-07	141740.71875	5.46327501069754E-05
2	676	126.351331680994	-0.200042724609375	-0.199951171875	-1.33270263671875E-06	2.66475439048008E-07	150034.359375	5.44981994607951E-05
2	677	126.452039680739	-0.189971923828125	-0.189849853515625	-1.18072509765625E-06	2.24160487505287E-07	160790.90625	5.43716378160752E-05
