Potential - Start -0.2 V, Upper Vertex 1.5 V, Lower Vertex -0.2 V, Stop -0.19 V; Scan - # end cross 5, Rate 0.1 Vps, Step 0.01 V 
Scan	Index	Time (s)	Potential applied (V)	WE(1).Potential (V)	WE(1).Current (A)	WE(1).Power (W)	WE(1).Resistance (Ω)	WE(1).Charge (C)
1	1	68.6756078266108	-0.189971923828125	-0.189849853515625	-1.5106201171875E-07	2.86790999837194E-08	1256767.625	0
1	2	68.7763158263565	-0.179901123046875	-0.179718017578125	-1.20849609375E-07	2.17188507178889E-08	1487121.25	-1.36918378856876E-08
1	3	68.8770238261022	-0.169830322265625	-0.169769287109375	-9.82666015624995E-08	1.66826499281569E-08	1727639.875	-2.47252156526656E-08
1	4	68.977731825848	-0.159759521484375	-0.15960693359375	-7.87353515625006E-08	1.25667076744662E-08	2027131.875	-3.36379706311618E-08
1	5	69.0784398255937	-0.149688720703125	-0.14959716796875	-6.16455078124994E-08	9.22199383524003E-09	2426732.75	-4.07067091146018E-08
1	6	69.1791478253394	-0.139617919921875	-0.139556884765625	-4.63867187499994E-08	6.47358566752132E-09	3008552.75	-4.61465639034486E-08
1	7	69.2798558250852	-0.129547119140625	-0.12945556640625	-3.17382812500003E-08	4.10869738232122E-09	4078846.25	-5.00804695491297E-08
1	8	69.3805638248309	-0.119476318359375	-0.119384765625	-1.80053710937503E-08	2.14956696886759E-09	6630508.5	-5.25852605903765E-08
1	9	69.4812718245767	-0.109405517578125	-0.10931396484375	-5.49316406250056E-09	6.00479554968558E-10	19900000	-5.37685060919557E-08
1	10	69.5819798243224	-0.099334716796875	-0.0992431640625	7.93457031249972E-09	-7.87451881478773E-10	-12507692	-5.36455715405282E-08
1	11	69.6826878240681	-0.089263916015625	-0.089202880859375	2.13623046875E-08	-1.90557902790545E-09	-4175714.5	-5.21703569233978E-08
1	12	69.7833958238139	-0.079193115234375	-0.079193115234375	3.509521484375E-08	-2.77929945724509E-09	-2256521.75	-4.932749320119E-08
1	13	69.8841038235596	-0.069122314453125	-0.069091796875	5.12695312500006E-08	-3.54230400567701E-09	-1347619	-4.49786838885302E-08
1	14	69.9848118233053	-0.059051513671875	-0.05902099609375	6.866455078125E-08	-4.05265021541368E-09	-859555.5625	-3.89395253819202E-08
1	15	70.0855198230511	-0.048980712890625	-0.04886474609375	9.09423828125006E-08	-4.44387593390161E-09	-537315.4375	-3.09026759737208E-08
1	16	70.1862278227968	-0.038909912109375	-0.0387664794921875	1.18103027343749E-07	-4.57843851719986E-09	-328242.90625	-2.0376404563649E-08
1	17	70.2869358225425	-0.028839111328125	-0.0287078857421875	1.54724121093749E-07	-4.44180248138082E-09	-185542.40625	-6.63846666526524E-09
1	18	70.3876438222883	-0.018768310546875	-0.01861572265625	2.0263671875E-07	-3.77222875158623E-09	-91867.46875	1.13560805203861E-08
1	19	70.488351822034	-0.008697509765625	-0.008587646484375	2.67944335937501E-07	-2.30101115938908E-09	-32050.11328125	3.50517197489353E-08
1	20	70.5890598217798	0.001373291015625	0.0014801025390625	3.54919433593751E-07	5.25317123134528E-10	4170.24951171875	6.64154029550446E-08
1	21	70.6897678215255	0.011444091796875	0.0114990234375	4.69970703125E-07	5.40420375116923E-09	24467.53125	1.07951919403604E-07
1	22	70.7904758212712	0.021514892578125	0.021624755859375	6.170654296875E-07	1.33438886606996E-08	35044.5078125	1.62688536420319E-07
1	23	70.891183821017	0.031585693359375	0.0316497802734375	7.965087890625E-07	2.52093261821074E-08	39735.6328125	2.33867652355002E-07
1	24	70.9918918207627	0.041656494140625	0.0417633056640625	1.00372314453125E-06	4.19187955458256E-08	41608.390625	3.24516520322504E-07
1	25	71.0925998205084	0.051727294921875	0.051788330078125	1.22467041015625E-06	6.34236343444172E-08	42287.56640625	4.36725059671517E-07
1	26	71.1933078202542	0.061798095703125	0.06182861328125	1.441650390625E-06	8.91352414100766E-08	42887.3828125	5.7098498018604E-07
1	27	71.2940158199999	0.071868896484375	0.071929931640625	1.63360595703125E-06	1.17505166485898E-07	44031.3828125	7.25836457604601E-07
1	28	71.3947238197456	0.081939697265625	0.08197021484375	1.78253173828125E-06	1.46114516041962E-07	45985.27734375	8.97852601156046E-07
1	29	71.4954318194914	0.092010498046875	0.092010498046875	1.87530517578125E-06	1.72547757415487E-07	49064.28125	1.08203937543294E-06
1	30	71.5961398192371	0.102081298828125	0.10205078125	1.91436767578125E-06	1.95362716226555E-07	53307.828125	1.27286455153808E-06
1	31	71.6968478189829	0.112152099609375	0.11224365234375	1.907958984375E-06	2.1415627315946E-07	58829.17578125	1.46533398037718E-06
1	32	71.7975558187286	0.122222900390625	0.12225341796875	1.86859130859375E-06	2.28441678018498E-07	65425.4453125	1.65549840858148E-06
1	33	71.8982638184743	0.132293701171875	0.132354736328125	1.8280029296875E-06	2.41944832168883E-07	72404.0078125	1.84163661742787E-06
1	34	71.9989718182201	0.142364501953125	0.142364501953125	1.77276611328125E-06	2.52378953291554E-07	80306.421875	2.02294972950767E-06
1	35	72.0996798179658	0.152435302734375	0.152496337890625	1.69708251953125E-06	2.58798849017694E-07	89857.9453125	2.19767048292852E-06
1	36	72.2003878177115	0.162506103515625	0.16253662109375	1.6241455078125E-06	2.63983110926347E-07	100075.15625	2.3649076865695E-06
1	37	72.3010958174573	0.172576904296875	0.1724853515625	1.57073974609375E-06	2.70929604084813E-07	109811.5390625	2.52578297477157E-06
1	38	72.401803817203	0.182647705078125	0.182647705078125	1.51092529296875E-06	2.75967039442548E-07	120884.671875	2.68095709543559E-06
1	39	72.5025118169488	0.192718505859375	0.19268798828125	1.45721435546875E-06	2.80787702422458E-07	132230.359375	2.83041481452528E-06
1	40	72.6032198166945	0.202789306640625	0.20281982421875	1.42730712890625E-06	2.89486166593633E-07	142099.640625	2.97566202789312E-06
1	41	72.7039278164402	0.212860107421875	0.21282958984375	1.3848876953125E-06	2.9474509233296E-07	153680.03125	3.11726716972771E-06
1	42	72.804635816186	0.222930908203125	0.222869873046875	1.343994140625E-06	2.9953579883113E-07	165826.53125	3.25467726725037E-06
1	43	72.9053438159317	0.233001708984375	0.233001708984375	1.3104248046875E-06	3.05331212757665E-07	177806.25	3.38833797286497E-06
1	44	73.0060518156774	0.243072509765625	0.243072509765625	1.28021240234375E-06	3.11184436441181E-07	189868.890625	3.51878679794027E-06
1	45	73.1067598154232	0.253143310546875	0.253082275390625	1.253662109375E-06	3.17279642558788E-07	201874.40625	3.64637753591524E-06
1	46	73.2074678151689	0.263214111328125	0.263214111328125	1.22955322265625E-06	3.23635731547256E-07	214072.984375	3.77141736862541E-06
1	47	73.3081758149146	0.273284912109375	0.273284912109375	1.207275390625E-06	3.29930117004551E-07	226365.03125	3.89412161894143E-06
1	48	73.4088838146604	0.283355712890625	0.2833251953125	1.1865234375E-06	3.36171979142819E-07	238786.015625	4.0146587707568E-06
1	49	73.5095918144061	0.293426513671875	0.293365478515625	1.16790771484375E-06	3.42623820870358E-07	251188.921875	4.13321367886965E-06
1	50	73.6102998141519	0.303497314453125	0.303497314453125	1.16241455078125E-06	3.52789669477716E-07	261092.15625	4.25055486630299E-06
1	51	73.7110078138976	0.313568115234375	0.3135986328125	1.146240234375E-06	3.5945933518633E-07	273588.9375	4.3668046600942E-06
1	52	73.8117158136433	0.323638916015625	0.3236083984375	1.1309814453125E-06	3.65995106221817E-07	286130.59375	4.48147193310433E-06
1	53	73.9124238133891	0.333709716796875	0.333740234375	1.1163330078125E-06	3.72565239104006E-07	298961.1875	4.59463353763567E-06
1	54	74.0131318131348	0.343780517578125	0.34381103515625	1.1029052734375E-06	3.7919099327155E-07	311732.15625	4.70638087790576E-06
1	55	74.1138398128805	0.353851318359375	0.353851318359375	1.0906982421875E-06	3.85945014613753E-07	324426.40625	4.81683764519403E-06
1	56	74.2145478126263	0.363922119140625	0.363861083984375	1.07940673828125E-06	3.92754088807123E-07	337093.59375	4.92611115987529E-06
1	57	74.315255812372	0.373992919921875	0.373931884765625	1.06903076171875E-06	3.99744692458626E-07	349785.90625	5.03429328091443E-06
1	58	74.4159638121178	0.384063720703125	0.384033203125	1.0589599609375E-06	4.06675781050581E-07	362651.3125	5.14144630869851E-06
1	59	74.5166718118635	0.394134521484375	0.394134521484375	1.05010986328125E-06	4.13884549743671E-07	375326.9375	5.24764664078248E-06
1	60	74.6173798116092	0.404205322265625	0.40423583984375	1.04156494140625E-06	4.21037867681662E-07	388104.3125	5.35297067472129E-06
1	61	74.718087811355	0.414276123046875	0.414215087890625	1.03424072265625E-06	4.28398095664306E-07	400501.65625	5.4574957175646E-06
1	62	74.8187958111007	0.424346923828125	0.42431640625	1.02752685546875E-06	4.35996525993687E-07	412949.21875	5.56131408302463E-06
1	63	74.9195038108464	0.434417724609375	0.434417724609375	1.021728515625E-06	4.43856976062307E-07	425179.21875	5.66450216865633E-06
1	64	75.0202118105922	0.444488525390625	0.4444580078125	1.01593017578125E-06	4.51538284096387E-07	437488.75	5.76710635868949E-06
1	65	75.1209198103379	0.454559326171875	0.45452880859375	1.01043701171875E-06	4.59272740727101E-07	449833.875	5.86914211453404E-06
1	66	75.2216278100836	0.464630126953125	0.464599609375	1.005859375E-06	4.67321825681211E-07	461893.25	5.97067082708236E-06
1	67	75.3223358098294	0.474700927734375	0.47467041015625	1.00067138671875E-06	4.74989064969122E-07	474351.96875	6.07170750299701E-06
1	68	75.4230438095751	0.484771728515625	0.484710693359375	9.9609375E-07	4.82817256397539E-07	486611.53125	6.17225259702536E-06
1	69	75.5237518093209	0.494842529296875	0.494781494140625	9.9151611328125E-07	4.9058382955991E-07	499015.09375	6.27233657723991E-06
1	70	75.6244598090666	0.504913330078125	0.504913330078125	9.87854003906249E-07	4.98780593716219E-07	511121.4375	6.37200582787045E-06
1	71	75.7251678088123	0.514984130859375	0.51495361328125	9.8388671875E-07	5.06656022025709E-07	523387.09375	6.47129081698949E-06
1	72	75.8258758085581	0.525054931640625	0.525054931640625	9.80529785156251E-07	5.14831981490715E-07	535480.875	6.57020700600697E-06
1	73	75.9265838083038	0.535125732421875	0.535064697265625	9.77783203125E-07	5.23177277500508E-07	547222.25	6.66881624056259E-06
1	74	76.0272918080495	0.545196533203125	0.545166015625	9.747314453125E-07	5.3139041256145E-07	559298.6875	6.7671330725716E-06
1	75	76.1279998077953	0.555267333984375	0.555206298828125	9.7198486328125E-07	5.39652091902099E-07	571208.8125	6.86515795678133E-06
1	76	76.228707807541	0.565338134765625	0.56524658203125	9.7015380859375E-07	5.48376135611761E-07	582636.0625	6.96295228408417E-06
1	77	76.3294158072868	0.575408935546875	0.57537841796875	9.68322753906251E-07	5.57152020519425E-07	594201.0625	7.06056243870989E-06
1	78	76.4301238070325	0.585479736328125	0.585357666015625	9.661865234375E-07	5.65564675980568E-07	605843.375	7.15797295924858E-06
1	79	76.5308318067782	0.595550537109375	0.5955810546875	9.64965820312499E-07	5.74715329548781E-07	617204.3125	7.25521385902539E-06
1	80	76.631539806524	0.605621337890625	0.605560302734375	9.63745117187501E-07	5.83605753945449E-07	628340.75	7.35233243176481E-06
1	81	76.7322478062697	0.615692138671875	0.615631103515625	9.6282958984375E-07	5.92747824157414E-07	639397.8125	7.44934322938207E-06
1	82	76.8329558060154	0.625762939453125	0.62579345703125	9.619140625E-07	6.01959470714064E-07	650571.125	7.54626171328709E-06
1	83	76.9336638057612	0.635833740234375	0.635772705078125	9.6221923828125E-07	6.11752739132498E-07	660735.8125	7.64314972911961E-06
1	84	77.0343718055069	0.645904541015625	0.645904541015625	9.6160888671875E-07	6.2110751741784E-07	671691.5625	7.74002182879485E-06
1	85	77.1350798052526	0.655975341796875	0.655914306640625	9.6221923828125E-07	6.31133389106253E-07	681668.25	7.83689392847009E-06
1	86	77.2357878049984	0.666046142578125	0.665985107421875	9.625244140625E-07	6.41026929315558E-07	691915.0625	7.93381241237512E-06
1	87	77.3364958047441	0.676116943359375	0.676025390625	9.6282958984375E-07	6.50897220566549E-07	702123.6875	8.03076181910001E-06
1	88	77.4372038044899	0.686187744140625	0.686126708984375	9.63439941406249E-07	6.61041838156962E-07	712163.5	8.12775761005469E-06
1	89	77.5379118042356	0.696258544921875	0.696197509765625	9.6405029296875E-07	6.71169402721716E-07	722158.9375	8.22481433715438E-06
1	90	77.6386198039813	0.706329345703125	0.7061767578125	9.64965820312499E-07	6.81436404192937E-07	731815.3125	8.32194837130373E-06
1	91	77.7393278037271	0.716400146484375	0.71636962890625	9.661865234375E-07	6.92146613801015E-07	741440.375	8.41918881633319E-06
1	92	77.8400358034728	0.726470947265625	0.72637939453125	9.686279296875E-07	7.03591354067612E-07	749905.5	8.51661479828181E-06
1	93	77.9407438032185	0.736541748046875	0.736419677734375	9.7015380859375E-07	7.14440318461129E-07	759075.1875	8.61423995957011E-06
1	94	78.0414518029643	0.746612548828125	0.746490478515625	9.72595214843749E-07	7.2603307899044E-07	767524.3125	8.71206520969281E-06
1	95	78.14215980271	0.756683349609375	0.7568359375	9.747314453125E-07	7.3771172992565E-07	776455.875	8.81012147146976E-06
1	96	78.2428678024557	0.766754150390625	0.76690673828125	9.765625E-07	7.48932336591679E-07	785312.5625	8.90837691258639E-06
1	97	78.3435758022015	0.776824951171875	0.7769775390625	9.79003906250001E-07	7.60664022436686E-07	793640.9375	9.00684699445264E-06
1	98	78.4442838019472	0.786895751953125	0.78704833984375	9.81750488281249E-07	7.72685041283694E-07	801678.625	9.10557901079301E-06
1	99	78.544991801693	0.796966552734375	0.79742431640625	9.844970703125E-07	7.85061899932771E-07	809981.375	9.20458751352271E-06
1	100	78.6456998014387	0.807037353515625	0.80718994140625	9.87548828125E-07	7.97139421138127E-07	817367.125	9.30388796405168E-06
1	101	78.7464078011844	0.817108154296875	0.81695556640625	9.906005859375E-07	8.09276684776705E-07	824707.3125	9.40349582378985E-06
1	102	78.8471158009302	0.827178955078125	0.8270263671875	9.93957519531249E-07	8.22029107894195E-07	832054	9.50342564465245E-06
1	103	78.9478238006759	0.837249755859375	0.83740234375	9.967041015625E-07	8.34642378322314E-07	840171.4375	9.60366378421895E-06
1	104	79.0485318004216	0.847320556640625	0.84747314453125	9.99755859375E-07	8.47266164782923E-07	847680.125	9.70419387158472E-06
1	105	79.1492398001674	0.857391357421875	0.85693359375	1.00311279296875E-06	8.59601016145461E-07	854274.4375	9.80504592007492E-06
1	106	79.2499477999131	0.867462158203125	0.867919921875	1.00616455078125E-06	8.73270266765758E-07	862602.375	9.90622083918424E-06
1	107	79.3506557996589	0.877532958984375	0.877685546875	1.00982666015625E-06	8.86310260739265E-07	869144.75	1.00077340903226E-05
1	108	79.4513637994046	0.887603759765625	0.887451171875	1.01318359375E-06	8.99150961686246E-07	875903.625	1.01096011349E-05
1	109	79.5520717991503	0.897674560546875	0.897216796875	1.01654052734375E-06	9.12057259938592E-07	882617.8125	1.02118056020117E-05
1	110	79.6527797988961	0.907745361328125	0.9075927734375	1.019287109375E-06	9.25097594972613E-07	890419.1875	1.03143174783327E-05
1	111	79.7534877986418	0.917816162109375	0.91796875	1.02294921875E-06	9.39035373903607E-07	897374.75	1.04171522252727E-05
1	112	79.8541957983875	0.927886962890625	0.92742919921875	1.02508544921875E-06	9.50694186485634E-07	904733.5625	1.05202789200121E-05
1	113	79.9549037981333	0.937957763671875	0.9381103515625	1.02813720703125E-06	9.64506057243852E-07	912437	1.06236675492255E-05
1	114	80.055611797879	0.948028564453125	0.9478759765625	1.03057861328125E-06	9.76860633272736E-07	919751.3125	1.07273317553336E-05
1	115	80.1563197976247	0.958099365234375	0.95855712890625	1.0333251953125E-06	9.90501121123089E-07	927643.3125	1.08312578959158E-05
1	116	80.2570277973705	0.968170166015625	0.96771240234375	1.03546142578125E-06	1.00202885278122E-06	934571.1875	1.09354296000674E-05
1	117	80.3577357971162	0.978240966796875	0.9783935546875	1.0382080078125E-06	1.01577597888536E-06	942386.875	1.10398468677886E-05
1	118	80.458443796862	0.988311767578125	0.98876953125	1.03973388671875E-06	1.02805722690391E-06	950983.25	1.1144479685754E-05
1	119	80.5591517966077	0.998382568359375	0.99853515625	1.04248046875E-06	1.0409534070277E-06	957845.4375	1.12493271444691E-05
1	120	80.6598597963534	1.00845336914063	1.0089111328125	1.04400634765625E-06	1.05330968835915E-06	966384.0625	1.13543901534285E-05
1	121	80.7605677960992	1.01852416992188	1.0186767578125	1.046142578125E-06	1.06568109004002E-06	973745.6875	1.14596377898124E-05
1	122	80.8612757958449	1.02859497070313	1.02813720703125	1.04827880859375E-06	1.07777441371582E-06	980786	1.15651000669459E-05
1	123	80.9619837955906	1.03866577148438	1.038818359375	1.05072021484375E-06	1.09150744265207E-06	988672.625	1.16707933557336E-05
1	124	81.0626917953364	1.04873657226563	1.048583984375	1.0528564453125E-06	1.1040083336411E-06	995942.0625	1.17767167466809E-05
1	125	81.1633997950821	1.05880737304688	1.05865478515625	1.055908203125E-06	1.11784231648926E-06	1002601.125	1.18829011626076E-05
1	126	81.2641077948279	1.06887817382813	1.06903076171875	1.05804443359375E-06	1.13108205823664E-06	1010383.625	1.19893475130084E-05
1	127	81.3648157945736	1.07894897460938	1.0791015625	1.06048583984375E-06	1.14437193587946E-06	1017553.9375	1.20960239655687E-05
1	128	81.4655237943193	1.08901977539063	1.0888671875	1.06353759765625E-06	1.15805107725464E-06	1023816.4375	1.22029769045184E-05
1	129	81.5662317940651	1.09909057617188	1.09893798828125	1.06689453125E-06	1.17245087949414E-06	1030034.375	1.23102527140873E-05
1	130	81.6669397938108	1.10916137695313	1.109619140625	1.0699462890625E-06	1.18723289688205E-06	1037079.3125	1.24178513942752E-05
1	131	81.7676477935565	1.11923217773438	1.119384765625	1.07330322265625E-06	1.20143931781058E-06	1042934.3125	1.25257720355876E-05
1	132	81.8683557933023	1.12930297851563	1.12884521484375	1.07757568359375E-06	1.21641619443835E-06	1047578.5625	1.26340773931588E-05
1	133	81.969063793048	1.13937377929688	1.13922119140625	1.08123779296875E-06	1.23176903343847E-06	1053626.875	1.27427829283988E-05
1	134	82.0697717927937	1.14944458007813	1.14959716796875	1.08551025390625E-06	1.2478994904086E-06	1059038.5	1.28518868223182E-05
1	135	82.1704797925395	1.15951538085938	1.15936279296875	1.0894775390625E-06	1.26309976167249E-06	1064145.625	1.29614063553163E-05
1	136	82.2711877922852	1.16958618164063	1.16943359375	1.09344482421875E-06	1.27871101085475E-06	1069494.875	1.30713251564885E-05
1	137	82.371895792031	1.17965698242188	1.17919921875	1.097412109375E-06	1.29406748783367E-06	1074527.25	1.31816432258347E-05
1	138	82.4726037917767	1.18972778320313	1.18988037109375	1.10137939453125E-06	1.31050967411284E-06	1080354.75	1.32923614728497E-05
1	139	82.5733117915224	1.19979858398438	1.19964599609375	1.10504150390625E-06	1.32565867261292E-06	1085611.75	1.34034635266289E-05
1	140	82.6740197912682	1.20986938476563	1.21002197265625	1.10931396484375E-06	1.34229424020305E-06	1090784	1.35149657580769E-05
1	141	82.7747277910139	1.21994018554688	1.2200927734375	1.11358642578125E-06	1.35867878725549E-06	1095642.625	1.36268972710241E-05
1	142	82.8754357907596	1.23001098632813	1.23016357421875	1.116943359375E-06	1.37402298605593E-06	1101366.25	1.37392135002301E-05
1	143	82.9761437905054	1.24008178710938	1.23992919921875	1.12060546875E-06	1.38947143568657E-06	1106481.5	1.38518826133804E-05
1	144	83.0768517902511	1.25015258789063	1.24969482421875	1.124267578125E-06	1.40499139433814E-06	1111563.5	1.39649209813797E-05
1	145	83.1775597899968	1.26022338867188	1.26007080078125	1.1273193359375E-06	1.42050203066901E-06	1117758.625	1.4078297681408E-05
1	146	83.2782677897426	1.27029418945313	1.2701416015625	1.1309814453125E-06	1.43650663630979E-06	1123043.75	1.41920118039707E-05
1	147	83.3789757894883	1.28036499023438	1.28082275390625	1.1346435546875E-06	1.45327726386313E-06	1128832.75	1.43060951813823E-05
1	148	83.4796837892341	1.29043579101563	1.29058837890625	1.13861083984375E-06	1.46947797929897E-06	1133476.25	1.44205632750527E-05
1	149	83.5803917889798	1.30050659179688	1.30035400390625	1.142578125E-06	1.48575600178447E-06	1138087.625	1.45354297274025E-05
1	150	83.6810997887255	1.31057739257813	1.3104248046875	1.146240234375E-06	1.50206153648469E-06	1143237.625	1.46506808960112E-05
1	151	83.7818077884713	1.32064819335938	1.32080078125	1.15020751953125E-06	1.5191949387372E-06	1148315.25	1.4766315871384E-05
1	152	83.882515788217	1.33071899414063	1.33056640625	1.1541748046875E-06	1.5357062466137E-06	1152829.125	1.48823510244256E-05
1	153	83.9832237879627	1.34078979492188	1.34033203125	1.15936279296875E-06	1.55393104250834E-06	1156093.75	1.4998847291281E-05
1	154	84.0839317877085	1.35086059570313	1.35101318359375	1.16363525390625E-06	1.57208660311881E-06	1161028	1.51158192238654E-05
1	155	84.1846397874542	1.36093139648438	1.3604736328125	1.16851806640625E-06	1.58973796260398E-06	1164272.75	1.52332522702636E-05
1	156	84.2853477872	1.37100219726563	1.3702392578125	1.17279052734375E-06	1.60700358264876E-06	1168358.125	1.53511464304756E-05
1	157	84.3860557869457	1.38107299804688	1.380615234375	1.17828369140625E-06	1.62675644332921E-06	1171717.125	1.5469533536816E-05
1	158	84.4867637866914	1.39114379882813	1.39129638671875	1.18408203125E-06	1.64740890795656E-06	1175000.125	1.55884881678503E-05
1	159	84.5874717864372	1.40121459960938	1.4013671875	1.18927001953125E-06	1.66660390732432E-06	1178342.375	1.57079957716633E-05
1	160	84.6881797861829	1.41128540039063	1.41143798828125	1.19537353515625E-06	1.68719566318032E-06	1180750.5	1.58280709001701E-05
1	161	84.7888877859286	1.42135620117188	1.4208984375	1.20086669921875E-06	1.70630960383278E-06	1183227.5	1.59487317432649E-05
1	162	84.8895957856744	1.43142700195313	1.4312744140625	1.2066650390625E-06	1.72706882040075E-06	1186140.625	1.60699601110537E-05
1	163	84.9903037854201	1.44149780273438	1.441650390625	1.21337890625E-06	1.74926810814213E-06	1188128.875	1.61918196681654E-05
1	164	85.0910117851658	1.45156860351563	1.45172119140625	1.21978759765625E-06	1.77079152763326E-06	1190142.625	1.63143395184306E-05
1	165	85.1917197849116	1.46163940429688	1.46148681640625	1.22589111328125E-06	1.79162361746421E-06	1192183.25	1.64374887390295E-05
1	166	85.2924277846573	1.47171020507813	1.4715576171875	1.23199462890625E-06	1.81295104084711E-06	1194451.375	1.65612527780468E-05
1	167	85.3931357844031	1.48178100585938	1.4813232421875	1.2384033203125E-06	1.83447571089346E-06	1196155.75	1.66856480063871E-05
1	168	85.4938437841488	1.49185180664063	1.49169921875	1.24420166015625E-06	1.85597457402764E-06	1198920.875	1.68106562341563E-05
1	169	85.5945517838945	1.50192260742188	1.50177001953125	1.24908447265625E-06	1.87583759725385E-06	1202296.625	1.69362028827891E-05
1	170	85.6952597836403	1.49185180664063	1.49139404296875	1.1517333984375E-06	1.71768829204666E-06	1294912.625	1.70570947375381E-05
1	171	85.795967783386	1.48178100585938	1.48162841796875	1.08642578125E-06	1.60967931606137E-06	1363764.125	1.71697938640136E-05
1	172	85.8966757831317	1.47171020507813	1.4715576171875	1.0357666015625E-06	1.52419022469985E-06	1420742.5	1.72766558534931E-05
1	173	85.9973837828775	1.46163940429688	1.461181640625	9.93957519531249E-07	1.4523525351251E-06	1470064.5	1.73788594111102E-05
1	174	86.0980917826232	1.45156860351563	1.45172119140625	9.5855712890625E-07	1.39155758915877E-06	1514486	1.74771776073612E-05
1	175	86.198799782369	1.44149780273438	1.44134521484375	9.2681884765625E-07	1.33586581796408E-06	1555153.125	1.75721124833217E-05
1	176	86.2995077821147	1.43142700195313	1.43157958984375	8.990478515625E-07	1.2870585806013E-06	1592328.625	1.76640533027239E-05
1	177	86.4002157818604	1.42135620117188	1.42120361328125	8.740234375E-07	1.24216524000076E-06	1626047.5	1.77533347596182E-05
1	178	86.5009237816062	1.41128540039063	1.41143798828125	8.50830078125001E-07	1.20089384836319E-06	1658895.25	1.78401878656587E-05
1	179	86.6016317813519	1.40121459960938	1.4013671875	8.30078125E-07	1.16324417831493E-06	1688235.375	1.79248272615951E-05
1	180	86.7023397810976	1.39114379882813	1.39068603515625	8.10852050781249E-07	1.12764064397197E-06	1715092.25	1.80074548552511E-05
1	181	86.8030477808434	1.38107299804688	1.3812255859375	7.92846679687501E-07	1.09510006041091E-06	1742109.375	1.80882088898215E-05
1	182	86.9037557805891	1.37100219726563	1.37115478515625	7.76062011718751E-07	1.06410107036936E-06	1766810.875	1.81672094186069E-05
1	183	87.0044637803348	1.36093139648438	1.36077880859375	7.60498046875E-07	1.03486956959387E-06	1789325.875	1.82445801328868E-05
1	184	87.1051717800806	1.35086059570313	1.3507080078125	7.45544433593751E-07	1.0070127700601E-06	1811707	1.832041562011E-05
1	185	87.2058797798263	1.34078979492188	1.34063720703125	7.3150634765625E-07	9.8068460374634E-07	1832707.625	1.83947922778316E-05
1	186	87.3065877795721	1.33071899414063	1.33026123046875	7.18078613281251E-07	9.55232053456712E-07	1852528.75	1.84677846846171E-05
1	187	87.4072957793178	1.32064819335938	1.3201904296875	7.0465087890625E-07	9.30273301946727E-07	1873538.375	1.85394237632863E-05
1	188	87.5080037790635	1.31057739257813	1.3104248046875	6.92138671875001E-07	9.06995637706132E-07	1893298.125	1.86097586265532E-05
1	189	87.6087117788093	1.30050659179688	1.30096435546875	6.8023681640625E-07	8.84963810676709E-07	1912516.875	1.86788620339939E-05
1	190	87.709419778555	1.29043579101563	1.29058837890625	6.68945312499999E-07	8.63333013967349E-07	1929288.375	1.8746799469227E-05
1	191	87.8101277783007	1.28036499023438	1.28021240234375	6.57043457031251E-07	8.41155156194873E-07	1948444.125	1.88135672942735E-05
1	192	87.9108357780465	1.27029418945313	1.270751953125	6.4605712890625E-07	8.20978357296553E-07	1966934.375	1.88791836990276E-05
1	193	88.0115437777922	1.26022338867188	1.26007080078125	6.353759765625E-07	8.00618693119759E-07	1983189.25	1.8943710529129E-05
1	194	88.1122517775379	1.25015258789063	1.25	6.24694824218749E-07	7.8086850407999E-07	2000977.125	1.90071586985141E-05
1	195	88.2129597772837	1.24008178710938	1.23992919921875	6.146240234375E-07	7.62090280659322E-07	2017378.375	1.9069564586971E-05
1	196	88.3136677770294	1.23001098632813	1.23016357421875	6.04248046875E-07	7.43323937513196E-07	2035858.625	1.9130939108436E-05
1	197	88.4143757767752	1.21994018554688	1.22039794921875	5.94482421875001E-07	7.25505117316061E-07	2052874.875	1.91913004528033E-05
1	198	88.5150837765209	1.20986938476563	1.209716796875	5.85327148437501E-07	7.08080051481375E-07	2066736.25	1.92507086467231E-05
1	199	88.6157917762666	1.19979858398438	1.19964599609375	5.755615234375E-07	6.90470074005134E-07	2084305.5	1.93091636901954E-05
1	200	88.7164997760124	1.18972778320313	1.1895751953125	5.66711425781249E-07	6.74145837820106E-07	2099084.5	1.93666819541249E-05
1	201	88.8172077757581	1.17965698242188	1.17950439453125	5.572509765625E-07	6.57279997540172E-07	2116648.5	1.94232779904269E-05
1	202	88.9179157755038	1.16958618164063	1.16943359375	5.48400878906249E-07	6.41318365524057E-07	2132443	1.94789517991012E-05
1	203	89.0186237752496	1.15951538085938	1.15936279296875	5.401611328125E-07	6.26242695034307E-07	2146327.75	1.95337652257876E-05
1	204	89.1193317749953	1.14944458007813	1.1492919921875	5.3253173828125E-07	6.12034455116373E-07	2158166.25	1.95877801161259E-05
1	205	89.2200397747411	1.13937377929688	1.1395263671875	5.2398681640625E-07	5.97096743604197E-07	2174723.5	1.96409800992114E-05
1	206	89.3207477744868	1.12930297851563	1.129150390625	5.169677734375E-07	5.83734333758912E-07	2184179.5	1.9693396097864E-05
1	207	89.4214557742325	1.11923217773438	1.1187744140625	5.09033203125001E-07	5.69493352031714E-07	2197841.75	1.97450590349035E-05
1	208	89.5221637739783	1.10916137695313	1.1090087890625	5.01403808593751E-07	5.56061252154905E-07	2211807.75	1.97959379875101E-05
1	209	89.622871773724	1.09909057617188	1.0992431640625	4.94384765625E-07	5.43449061751744E-07	2223456.75	1.98460802494083E-05
1	210	89.7235797734697	1.08901977539063	1.08917236328125	4.8736572265625E-07	5.30825275291136E-07	2234815.5	1.98955149244284E-05
1	211	89.8242877732155	1.07894897460938	1.0791015625	4.803466796875E-07	5.18342858413234E-07	2246505.75	1.994424383156E-05
1	212	89.9249957729612	1.06887817382813	1.06842041015625	4.730224609375E-07	5.05386822169385E-07	2258709.75	1.9992248780909E-05
1	213	90.0257037727069	1.05880737304688	1.058349609375	4.66003417968749E-07	4.93194534101349E-07	2271120	2.00395334104542E-05
1	214	90.1264117724527	1.04873657226563	1.048583984375	4.57763671875E-07	4.80003620850766E-07	2290666.75	2.00860486074816E-05
1	215	90.2271197721984	1.03866577148438	1.038818359375	4.5013427734375E-07	4.6760774807808E-07	2307796.5	2.0131765268161E-05
1	216	90.3278277719442	1.02859497070313	1.0284423828125	4.41894531250001E-07	4.54463048527032E-07	2327348.25	2.01766815735027E-05
1	217	90.4285357716899	1.01852416992188	1.0186767578125	4.3365478515625E-07	4.41754053781551E-07	2349050	2.02207702386659E-05
1	218	90.5292437714356	1.00845336914063	1.00830078125	4.2572021484375E-07	4.29254015443803E-07	2368458.75	2.02640421775868E-05
1	219	90.6299517711814	0.998382568359375	0.99853515625	4.1778564453125E-07	4.17173623645795E-07	2390065.75	2.03065155801596E-05
1	220	90.7306597709271	0.988311767578125	0.98846435546875	4.0924072265625E-07	4.04519852281737E-07	2415361.75	2.03481595235644E-05
1	221	90.8313677706728	0.978240966796875	0.9783935546875	4.010009765625E-07	3.92336744425847E-07	2439878.25	2.03889594558859E-05
1	222	90.9320757704186	0.968170166015625	0.96832275390625	3.92761230468749E-07	3.80319619353031E-07	2465423.5	2.042892811005E-05
1	223	91.0327837701643	0.958099365234375	0.95794677734375	3.8482666015625E-07	3.68643441106542E-07	2489294.25	2.04680836759508E-05
1	224	91.1334917699101	0.948028564453125	0.94818115234375	3.77502441406249E-07	3.57940677986335E-07	2511722	2.05064698093338E-05
1	225	91.2341997696558	0.937957763671875	0.9381103515625	3.70178222656251E-07	3.47268013456414E-07	2534212.75	2.0544117433019E-05
1	226	91.3349077694015	0.927886962890625	0.927734375	3.631591796875E-07	3.36915235266133E-07	2554622	2.05810447369004E-05
1	227	91.4356157691473	0.917816162109375	0.91796875	3.570556640625E-07	3.27765945939973E-07	2570940.25	2.06173099286389E-05
1	228	91.536323768893	0.907745361328125	0.9075927734375	3.509521484375E-07	3.18521642839187E-07	2586087	2.06529621209484E-05
1	229	91.6370317686387	0.897674560546875	0.8978271484375	3.44238281250001E-07	3.09066450654427E-07	2608156.25	2.06879667530302E-05
1	230	91.7377397683845	0.887603759765625	0.887451171875	3.37829589843749E-07	2.998072545779E-07	2626919.5	2.07223110919585E-05
1	231	91.8384477681302	0.877532958984375	0.87738037109375	3.326416015625E-07	2.91853211820126E-07	2637614.75	2.07560733542778E-05
1	232	91.9391557678759	0.867462158203125	0.86761474609375	3.27453613281251E-07	2.84103577996575E-07	2649580.75	2.07893117476488E-05
1	233	92.0398637676217	0.857391357421875	0.85693359375	3.2196044921875E-07	2.75898713653078E-07	2661611.5	2.08220117201563E-05
1	234	92.1405717673674	0.847320556640625	0.84747314453125	3.1768798828125E-07	2.69232032223954E-07	2667627.25	2.08542205655249E-05
1	235	92.2412797671132	0.837249755859375	0.83740234375	3.131103515625E-07	2.62199336020785E-07	2674464	2.08859837584896E-05
1	236	92.3419877668589	0.827178955078125	0.82733154296875	3.08837890624999E-07	2.55511309887879E-07	2678853.75	2.09173012990505E-05
1	237	92.4426957666046	0.817108154296875	0.81695556640625	3.04260253906249E-07	2.48567118887877E-07	2685055.25	2.09481731872074E-05
1	238	92.5434037663504	0.807037353515625	0.8074951171875	3.0059814453125E-07	2.42731545085917E-07	2686294.5	2.09786303457804E-05
1	239	92.6441117660961	0.796966552734375	0.797119140625	2.9632568359375E-07	2.36206872727962E-07	2690010.25	2.10086873266846E-05
1	240	92.7448197658418	0.786895751953125	0.78704833984375	2.9266357421875E-07	2.30340376106142E-07	2689259.75	2.10383459489094E-05
1	241	92.8455277655876	0.776824951171875	0.7769775390625	2.89001464843749E-07	2.24547648031148E-07	2688490	2.10676353162853E-05
1	242	92.9462357653333	0.766754150390625	0.7672119140625	2.86254882812501E-07	2.19618144114975E-07	2680170.75	2.10966009035474E-05
1	243	93.046943765079	0.756683349609375	0.75653076171875	2.825927734375E-07	2.13790116276869E-07	2677106	2.1125244529685E-05
1	244	93.1476517648248	0.746612548828125	0.746551513671875	2.7923583984375E-07	2.08463930562175E-07	2673552	2.11535352718784E-05
1	245	93.2483597645705	0.736541748046875	0.736419677734375	2.76794433593749E-07	2.0383686205605E-07	2660529.25	2.11815331567777E-05
1	246	93.3490677643163	0.726470947265625	0.7264404296875	2.7435302734375E-07	1.99301126713181E-07	2647831	2.12092854781076E-05
1	247	93.449775764062	0.716400146484375	0.716339111328125	2.70996093750001E-07	1.94125092889408E-07	2643356	2.1236746761133E-05
1	248	93.5504837638077	0.706329345703125	0.706268310546875	2.6885986328125E-07	1.89887188639659E-07	2626901.5	2.12639297387796E-05
1	249	93.6511917635535	0.696258544921875	0.6961669921875	2.66418457031251E-07	1.85471733971099E-07	2613058.5	2.12908835237613E-05
1	250	93.7518997632992	0.686187744140625	0.686126708984375	2.642822265625E-07	1.81331088811021E-07	2596189.5	2.13176062970888E-05
1	251	93.8526077630449	0.676116943359375	0.676025390625	2.61840820312501E-07	1.77011045821018E-07	2581818.25	2.13440998777514E-05
1	252	93.9533157627907	0.666046142578125	0.666015625	2.60314941406251E-07	1.73373820189227E-07	2558499.25	2.13703915505903E-05
1	253	94.0540237625364	0.655975341796875	0.65582275390625	2.5787353515625E-07	1.6911931766117E-07	2543195.5	2.13964849535841E-05
1	254	94.1547317622822	0.645904541015625	0.645904541015625	2.5634765625E-07	1.65576111044174E-07	2519643	2.14223782677436E-05
1	255	94.2554397620279	0.635833740234375	0.63580322265625	2.545166015625E-07	1.6182248430141E-07	2498081.5	2.14481024158886E-05
1	256	94.3561477617736	0.625762939453125	0.625732421875	2.52685546875001E-07	1.58113536485871E-07	2476328.5	2.14736410271144E-05
1	257	94.4568557615194	0.615692138671875	0.61566162109375	2.51159667968751E-07	1.54629361759362E-07	2451276	2.1499012291315E-05
1	258	94.5575637612651	0.605621337890625	0.6055908203125	2.49328613281249E-07	1.50991112946031E-07	2428886.25	2.15242143895011E-05
1	259	94.6582717610108	0.595550537109375	0.59552001953125	2.47802734374999E-07	1.47571483921638E-07	2403202.25	2.15492455026833E-05
1	260	94.7589797607566	0.585479736328125	0.585418701171875	2.46582031250001E-07	1.4435373429933E-07	2374133.75	2.15741401916603E-05
1	261	94.8596877605023	0.575408935546875	0.5753173828125	2.45056152343751E-07	1.40985065399946E-07	2347696	2.15988966374425E-05
1	262	94.960395760248	0.565338134765625	0.565277099609375	2.43225097656249E-07	1.37489578833083E-07	2324090.5	2.16234839172103E-05
1	263	95.0611037599938	0.555267333984375	0.555206298828125	2.41699218749999E-07	1.34192930545396E-07	2297096	2.16479020309635E-05
1	264	95.1618117597395	0.545196533203125	0.545135498046875	2.398681640625E-07	1.30760653860307E-07	2272646.25	2.16721509787021E-05
1	265	95.2625197594853	0.535125732421875	0.5350341796875	2.38647460937499E-07	1.27684543826945E-07	2241943.75	2.16962453123415E-05
1	266	95.363227759231	0.525054931640625	0.524993896484375	2.3651123046875E-07	1.24166945170145E-07	2219742	2.17201722989557E-05
1	267	95.4639357589767	0.514984130859375	0.514984130859375	2.35900878906251E-07	1.21485200565985E-07	2183053	2.17439592233859E-05
1	268	95.5646437587225	0.504913330078125	0.5048828125	2.337646484375E-07	1.18023748996166E-07	2159791.25	2.17676097236108E-05
1	269	95.6653517584682	0.494842529296875	0.49481201171875	2.3162841796875E-07	1.1461251858691E-07	2136232	2.17910437640967E-05
1	270	95.7660597582139	0.484771728515625	0.48468017578125	2.3040771484375E-07	1.11674047786892E-07	2103576.25	2.1814308638568E-05
1	271	95.8667677579597	0.474700927734375	0.47467041015625	2.288818359375E-07	1.086434338049E-07	2073866.75	2.18374352698447E-05
1	272	95.9674757577054	0.464630126953125	0.464569091796875	2.26440429687499E-07	1.05197223376763E-07	2051617.375	2.18603636312764E-05
1	273	96.0681837574512	0.454559326171875	0.454559326171875	2.2430419921875E-07	1.01959557241571E-07	2026530.75	2.18830591620645E-05
1	274	96.1688917571969	0.444488525390625	0.444488525390625	2.21862792968749E-07	9.8615466015417E-08	2003438.75	2.19055255001877E-05
1	275	96.2695997569426	0.434417724609375	0.434417724609375	2.197265625E-07	9.54531103047884E-08	1977083.375	2.1927762645646E-05
1	276	96.3703077566884	0.424346923828125	0.42431640625	2.1820068359375E-07	9.25861272094153E-08	1944615.375	2.19498124351958E-05
1	277	96.4710157564341	0.414276123046875	0.41424560546875	2.1697998046875E-07	8.98830023743358E-08	1909142.125	2.19717258005403E-05
1	278	96.5717237561798	0.404205322265625	0.4041748046875	2.1484375E-07	8.68344329774118E-08	1881250	2.19934699998703E-05
1	279	96.6724317559256	0.394134521484375	0.3941650390625	2.13623046875E-07	8.42027318981309E-08	1845142.875	2.20150450331857E-05
1	280	96.7731397556713	0.384063720703125	0.38409423828125	2.117919921875E-07	8.13480838246505E-08	1813544.75	2.20364672713913E-05
1	281	96.873847755417	0.373992919921875	0.3740234375	2.1087646484375E-07	7.88727376743736E-08	1773661.375	2.20577494474128E-05
1	282	96.9745557551628	0.363922119140625	0.363861083984375	2.0904541015625E-07	7.6063486176281E-08	1740584	2.2078895199229E-05
1	283	97.0752637549085	0.353851318359375	0.3538818359375	2.0782470703125E-07	7.35453866695934E-08	1702790.125	2.20998863369459E-05
1	284	97.1759717546543	0.343780517578125	0.34375	2.06604003906249E-07	7.10201248921294E-08	1663811	2.21207537833834E-05
1	285	97.2766797544	0.333709716796875	0.333709716796875	2.044677734375E-07	6.82328789025632E-08	1632089.625	2.21414520638064E-05
1	286	97.3773877541457	0.323638916015625	0.3236083984375	2.02026367187499E-07	6.53774279157915E-08	1601812.75	2.21619211515645E-05
1	287	97.4780957538915	0.313568115234375	0.3135986328125	1.9989013671875E-07	6.26852738605521E-08	1568855	2.21821592276683E-05
1	288	97.5788037536372	0.303497314453125	0.303497314453125	1.97448730468749E-07	5.99251563926373E-08	1537094.25	2.22021681111073E-05
1	289	97.6795117533829	0.293426513671875	0.29339599609375	1.953125E-07	5.73039038442857E-08	1502187.5	2.22219441639027E-05
1	290	97.7802197531287	0.283355712890625	0.283294677734375	1.9256591796875E-07	5.45528955342434E-08	1471157	2.22414764721179E-05
1	291	97.8809277528744	0.273284912109375	0.273284912109375	1.8890380859375E-07	5.16245570736373E-08	1446688.25	2.22606850002194E-05
1	292	97.9816357526202	0.263214111328125	0.263275146484375	1.861572265625E-07	4.90105698247589E-08	1414262.375	2.2279569748207E-05
1	293	98.0823437523659	0.253143310546875	0.253204345703125	1.81884765625E-07	4.60540121594022E-08	1392114.125	2.22981016122503E-05
1	294	98.1830517521116	0.243072509765625	0.243072509765625	1.77001953125E-07	4.30243076721126E-08	1373275.875	2.23161732719745E-05
1	295	98.2837597518574	0.233001708984375	0.233001708984375	1.7242431640625E-07	4.01751591994071E-08	1351327.5	2.2333768356475E-05
1	296	98.3844677516031	0.222930908203125	0.222900390625	1.6632080078125E-07	3.70729722476426E-08	1340183.5	2.23508250201121E-05
1	297	98.4851757513488	0.212860107421875	0.212860107421875	1.59301757812499E-07	3.39089858414354E-08	1336207	2.23672213905957E-05
1	298	98.5858837510946	0.202789306640625	0.202850341796875	1.50451660156251E-07	3.05191711902353E-08	1348275.875	2.23828192247311E-05
1	299	98.6865917508403	0.192718505859375	0.1927490234375	1.40380859375E-07	2.70582738437497E-08	1373043.5	2.2397463908419E-05
1	300	98.787299750586	0.182647705078125	0.182647705078125	1.26953125E-07	2.31876970957501E-08	1438701.875	2.24109262489947E-05
1	301	98.8880077503318	0.172576904296875	0.172607421875	1.0955810546875E-07	1.89105406889212E-08	1575487.5	2.24228351726197E-05
1	302	98.9887157500775	0.162506103515625	0.16253662109375	8.66699218750003E-08	1.40870364262469E-08	1875352.125	2.24327159230597E-05
1	303	99.0894237498233	0.152435302734375	0.152435302734375	5.4931640625E-08	8.3735214317926E-09	2775000	2.24398463615216E-05
1	304	99.190131749569	0.142364501953125	0.14239501953125	1.220703125E-08	1.73822045645977E-09	11665000	2.24432260438334E-05
1	305	99.2908397493147	0.132293701171875	0.132293701171875	-4.69970703125003E-08	-6.21741635953299E-09	-2814935	2.24414743570378E-05
1	306	99.3915477490605	0.122222900390625	0.12225341796875	-1.2542724609375E-07	-1.5333910141635E-08	-974695.8125	2.24327923206147E-05
1	307	99.4922557488062	0.112152099609375	0.1121826171875	-2.30712890625E-07	-2.58819756737694E-08	-486243.40625	2.24148589040851E-05
1	308	99.5929637485519	0.102081298828125	0.10211181640625	-3.66821289062499E-07	-3.74567861172181E-08	-278369.40625	2.23847710003611E-05
1	309	99.6936717482977	0.092010498046875	0.092071533203125	-5.36499023437501E-07	-4.93962843961526E-08	-171615.484375	2.2339285351336E-05
1	310	99.7943797480434	0.081939697265625	0.082000732421875	-7.36389160156251E-07	-6.03844512170326E-08	-111355.1640625	2.22751896217233E-05
1	311	99.8950877477891	0.071868896484375	0.071929931640625	-9.58251953125E-07	-6.89269938902726E-08	-75063.6953125	2.21898590098135E-05
1	312	99.9957957475349	0.061798095703125	0.061859130859375	-1.1834716796875E-06	-7.32085325694243E-08	-52269.2109375	2.20820147660561E-05
1	313	100.096503747281	0.051727294921875	0.051788330078125	-1.39251708984375E-06	-7.21161370620393E-08	-37190.4453125	2.19523026316892E-05
1	314	100.197211747026	0.041656494140625	0.0417449951171875	-1.56280517578125E-06	-6.52392913025324E-08	-26711.58203125	2.18034911085851E-05
1	315	100.297919746772	0.031585693359375	0.0316925048828125	-1.6802978515625E-06	-5.32528474650462E-08	-18861.2421875	2.1640187696903E-05
1	316	100.398627746518	0.021514892578125	0.021630859375	-1.73858642578125E-06	-3.76071191965366E-08	-12441.6357421875	2.14680330827832E-05
1	317	100.499335746264	0.011444091796875	0.0115753173828125	-1.74530029296875E-06	-2.02024033058024E-08	-6632.2783203125	2.1292604287737E-05
1	318	100.600043746009	0.001373291015625	0.00147705078125	-1.7120361328125E-06	-2.52876430906213E-09	-862.7451171875	2.11185142688919E-05
1	319	100.700751745755	-0.008697509765625	-0.0086090087890625	-1.654052734375E-06	1.42397542646222E-08	5204.79736328125	2.09490190172801E-05
1	320	100.801459745501	-0.018768310546875	-0.0186920166015625	-1.58416748046875E-06	2.9611284091402E-08	11799.2685546875	2.07859611691674E-05
1	321	100.902167745247	-0.028839111328125	-0.02874755859375	-1.51092529296875E-06	4.34354134881687E-08	19026.458984375	2.06301101570716E-05
1	322	101.002875744992	-0.038909912109375	-0.0387725830078125	-1.43951416015625E-06	5.58136790118624E-08	26934.494140625	2.0481544197537E-05
1	323	101.103583744738	-0.048980712890625	-0.048870849609375	-1.37359619140625E-06	6.71288162834571E-08	35578.76171875	2.03398922167253E-05
1	324	101.204291744484	-0.059051513671875	-0.05889892578125	-1.31378173828125E-06	7.73803279230378E-08	44831.59375	2.02045721380273E-05
1	325	101.304999744229	-0.069122314453125	-0.069000244140625	-1.2603759765625E-06	8.69662457603226E-08	54745.765625	2.007495277212E-05
1	326	101.405707743975	-0.079193115234375	-0.07916259765625	-1.21307373046875E-06	9.60300639007983E-08	65257.86328125	1.99504047486698E-05
1	327	101.506415743721	-0.089263916015625	-0.08929443359375	-1.1712646484375E-06	1.04587414284651E-07	76237.625	1.98303441720782E-05
1	328	101.607123743467	-0.099334716796875	-0.099212646484375	-1.1346435546875E-06	1.12570987198524E-07	87439.484375	1.97142326214816E-05
1	329	101.707831743212	-0.109405517578125	-0.109375	-1.10260009765625E-06	1.20596880037738E-07	99197.34375	1.96015789697412E-05
1	330	101.808539742958	-0.119476318359375	-0.11944580078125	-1.07421875E-06	1.28310915670227E-07	111193.1796875	1.94919666682836E-05
1	331	101.909247742704	-0.129547119140625	-0.12945556640625	-1.04888916015625E-06	1.35784532062644E-07	123421.59375	1.93850610230584E-05
1	332	102.00995574245	-0.139617919921875	-0.139617919921875	-1.02752685546875E-06	1.43461164725522E-07	135877.640625	1.92805036931532E-05
1	333	102.110663742195	-0.149688720703125	-0.14959716796875	-1.00830078125E-06	1.50838928902886E-07	148365.625	1.91779927263269E-05
1	334	102.211371741941	-0.159759521484375	-0.159637451171875	-9.9151611328125E-07	1.58283100404333E-07	161003.390625	1.90772934729466E-05
1	335	102.312079741687	-0.169830322265625	-0.169769287109375	-9.771728515625E-07	1.6589393680988E-07	173735.171875	1.89781621884322E-05
1	336	102.412787741433	-0.179901123046875	-0.17974853515625	-9.65270996093751E-07	1.73506037981497E-07	186215.625	1.88803514902247E-05
1	337	102.513495741178	-0.189971923828125	-0.189849853515625	-9.5428466796875E-07	1.81170790369833E-07	198944.6875	1.87836958502885E-05
1	338	102.614203740924	-0.200042724609375	-0.19989013671875	-9.46044921875E-07	1.89105051617844E-07	211290.328125	1.86880060937256E-05
1	339	102.71491174067	-0.189971923828125	-0.189788818359375	-8.221435546875E-07	1.56033650000609E-07	230846.328125	1.85989702004008E-05
2	340	102.815619740416	-0.179901123046875	-0.17974853515625	-7.39440917968751E-07	1.32913413608549E-07	243087.078125	1.85203389264643E-05
2	341	102.916327740161	-0.169830322265625	-0.169677734375	-6.7413330078125E-07	1.14385407812279E-07	251697.609375	1.84491600521142E-05
2	342	103.017035739907	-0.159759521484375	-0.15960693359375	-6.1981201171875E-07	9.89262929351753E-08	257508.625	1.83840038516792E-05
2	343	103.117743739653	-0.149688720703125	-0.149566650390625	-5.7220458984375E-07	8.55827195778147E-08	261386.6875	1.83239808393409E-05
2	344	103.218451739398	-0.139617919921875	-0.139556884765625	-5.30395507812501E-07	7.40203418558849E-08	263118.53125	1.82684616447659E-05
2	345	103.319159739144	-0.129547119140625	-0.129425048828125	-4.92248535156251E-07	6.37092938404749E-08	262926.21875	1.82169660547515E-05
2	346	103.41986773889	-0.119476318359375	-0.11944580078125	-4.57763671875E-07	5.46779475030235E-08	260933.34375	1.81691302714171E-05
2	347	103.520575738636	-0.109405517578125	-0.109283447265625	-4.2572021484375E-07	4.65241711822273E-08	256702.515625	1.81246432475746E-05
2	348	103.621283738381	-0.099334716796875	-0.099212646484375	-3.9520263671875E-07	3.92090981904403E-08	251042.484375	1.8083306713379E-05
2	349	103.721991738127	-0.089263916015625	-0.089202880859375	-3.65600585937501E-07	3.26126254890369E-08	243989.984375	1.80449969775509E-05
2	350	103.822699737873	-0.079193115234375	-0.079193115234375	-3.36608886718751E-07	2.66571049678532E-08	235267.453125	1.80096376425354E-05
2	351	103.923407737619	-0.069122314453125	-0.069061279296875	-3.05786132812499E-07	2.11179820297502E-08	225848.3125	1.79772905539721E-05
2	352	104.024115737364	-0.059051513671875	-0.0589599609375	-2.7435302734375E-07	1.6175844663735E-08	214905.453125	1.79480775841512E-05
2	353	104.12482373711	-0.048980712890625	-0.0488372802734375	-2.38952636718751E-07	1.16697966845436E-08	204380.609375	1.79222315637162E-05
2	354	104.225531736856	-0.038909912109375	-0.038775634765625	-1.97753906250001E-07	7.66803331941901E-09	196080.25	1.79002418008167E-05
2	355	104.326239736602	-0.028839111328125	-0.028729248046875	-1.47705078125E-07	4.24345580896102E-09	194504.140625	1.78828449861612E-05
2	356	104.426947736347	-0.018768310546875	-0.0186920166015625	-8.60595703124994E-08	1.60862678733054E-09	217198.59375	1.78710743057309E-05
2	357	104.527655736093	-0.008697509765625	-0.00859375	-6.103515625E-09	5.2452087812016E-11	1408000.125	1.78664340637624E-05
2	358	104.628363735839	0.001373291015625	0.0014678955078125	9.765625E-08	1.43349165870887E-10	15031.25	1.7871043382911E-05
2	359	104.729071735585	0.011444091796875	0.0115142822265625	2.29797363281251E-07	2.64595145793578E-09	50106.2421875	1.78875325218542E-05
2	360	104.82977973533	0.021514892578125	0.0216461181640625	3.9398193359375E-07	8.52817905183656E-09	54941.90625	1.79189428308746E-05
2	361	104.930487735076	0.031585693359375	0.031683349609375	5.9051513671875E-07	1.87094961745515E-08	53653.74609375	1.79685157490894E-05
2	362	105.031195734822	0.041656494140625	0.04171142578125	8.135986328125E-07	3.39363595003306E-08	51267.8203125	1.80392180482158E-05
2	363	105.131903734567	0.051727294921875	0.0517578125	1.04736328125E-06	5.42092344346656E-08	49417.25	1.81329251063289E-05
2	364	105.232611734313	0.061798095703125	0.06182861328125	1.273193359375E-06	7.87197791396466E-08	48561.84375	1.82497751666233E-05
2	365	105.333319734059	0.071868896484375	0.07183837890625	1.46942138671875E-06	1.05560850727215E-07	48888.890625	1.83878764801193E-05
2	366	105.434027733805	0.081939697265625	0.082000732421875	1.6192626953125E-06	1.32780726858073E-07	50640.78515625	1.85434037121013E-05
2	367	105.53473573355	0.092010498046875	0.092010498046875	1.71173095703125E-06	1.57497211716873E-07	53752.8984375	1.87111327250022E-05
2	368	105.635443733296	0.102081298828125	0.10211181640625	1.74896240234375E-06	1.7858972967133E-07	58384.2265625	1.88853919098619E-05
2	369	105.736151733042	0.112152099609375	0.112152099609375	1.74102783203125E-06	1.95259914903545E-07	64417.1796875	1.90611281141173E-05
2	370	105.836859732788	0.122222900390625	0.12225341796875	1.7022705078125E-06	2.08108374977201E-07	71817.859375	1.92345105460845E-05
2	371	105.937567732533	0.132293701171875	0.132293701171875	1.64520263671875E-06	2.17649940736919E-07	80411.796875	1.94030708371429E-05
2	372	106.038275732279	0.142364501953125	0.142333984375	1.58050537109375E-06	2.24959620709342E-07	90056	1.95654974959325E-05
2	373	106.138983732025	0.152435302734375	0.1524658203125	1.5155029296875E-06	2.31062387001657E-07	100604.1171875	1.97213939827634E-05
2	374	106.239691731771	0.162506103515625	0.16253662109375	1.4532470703125E-06	2.36205863757277E-07	111843.765625	1.98708821699256E-05
2	375	106.340399731516	0.172576904296875	0.17254638671875	1.39556884765625E-06	2.4080034677354E-07	123638.75	2.0014331312268E-05
2	376	106.441107731262	0.182647705078125	0.1826171875	1.343994140625E-06	2.45436410750699E-07	135876.484375	2.01522798306542E-05
2	377	106.541815731008	0.192718505859375	0.192718505859375	1.29791259765625E-06	2.50131790835439E-07	148483.421875	2.02853098016931E-05
2	378	106.642523730754	0.202789306640625	0.202789306640625	1.25701904296875E-06	2.5491002020317E-07	161325.578125	2.04139614652377E-05
2	379	106.743231730499	0.212860107421875	0.212890625	1.22039794921875E-06	2.59811287151024E-07	174443.609375	2.05387095775222E-05
2	380	106.843939730245	0.222930908203125	0.22296142578125	1.18865966796875E-06	2.65025249746031E-07	187573.8125	2.06600143428659E-05
2	381	106.944647729991	0.233001708984375	0.23291015625	1.15997314453125E-06	2.70169522309516E-07	200789.28125	2.07782777579268E-05
2	382	107.045355729736	0.243072509765625	0.243011474609375	1.13494873046875E-06	2.75805547289565E-07	214116.71875	2.08938363357447E-05
2	383	107.146063729482	0.253143310546875	0.253143310546875	1.1126708984375E-06	2.81665165857703E-07	227509.609375	2.10070120374439E-05
2	384	107.246771729228	0.263214111328125	0.26324462890625	1.09222412109375E-06	2.87522141206864E-07	241017.046875	2.11180376936682E-05
2	385	107.347479728974	0.273284912109375	0.273345947265625	1.07391357421875E-06	2.93549902607992E-07	254532.5625	2.12271115742624E-05
2	386	107.448187728719	0.283355712890625	0.283355712890625	1.05804443359375E-06	2.99802934478066E-07	267810.78125	2.13344646908808E-05
2	387	107.548895728465	0.293426513671875	0.29339599609375	1.04217529296875E-06	3.05770072372979E-07	281522.6875	2.14402189158136E-05
2	388	107.649603728211	0.303497314453125	0.30340576171875	1.0284423828125E-06	3.12035353999818E-07	295014.84375	2.15444833884249E-05
2	389	107.750311727957	0.313568115234375	0.3135986328125	1.01531982421875E-06	3.18402896937187E-07	308866.875	2.16473945329199E-05
2	390	107.851019727702	0.323638916015625	0.32366943359375	1.00372314453125E-06	3.2487449175278E-07	322468.84375	2.17490614886628E-05
2	391	107.951727727448	0.333709716796875	0.33367919921875	9.92431640625E-07	3.31153785282368E-07	336223.875	2.1849575205124E-05
2	392	108.052435727194	0.343780517578125	0.343780517578125	9.82666015625E-07	3.37821404627903E-07	349844.75	2.19490302697523E-05
2	393	108.15314372694	0.353851318359375	0.353912353515625	9.7381591796875E-07	3.44645457062143E-07	363428.40625	2.20475467358483E-05
2	394	108.253851726685	0.363922119140625	0.3638916015625	9.64965820312499E-07	3.51142944055027E-07	377103.09375	2.21451718971366E-05
2	395	108.354559726431	0.373992919921875	0.373931884765625	9.57641601562501E-07	3.58092705710078E-07	390471.65625	2.22419821511721E-05
2	396	108.455267726177	0.384063720703125	0.384033203125	9.5062255859375E-07	3.65070604857465E-07	403980.75	2.23380720854038E-05
2	397	108.555975725923	0.394134521484375	0.394134521484375	9.442138671875E-07	3.72147269445122E-07	417420.8125	2.2433483536588E-05
2	398	108.656683725668	0.404205322265625	0.4041748046875	9.39331054687501E-07	3.79653926074752E-07	430279.40625	2.25283274630783E-05
2	399	108.757391725414	0.414276123046875	0.414276123046875	9.344482421875E-07	3.87119598599384E-07	443337.6875	2.26226802624296E-05
2	400	108.85809972516	0.424346923828125	0.424346923828125	9.30175781250001E-07	3.947172331209E-07	456200.8125	2.27165710384725E-05
2	401	108.958807724905	0.434417724609375	0.4344482421875	9.259033203125E-07	4.02257057885436E-07	469215.5625	2.28100325330161E-05
2	402	109.059515724651	0.444488525390625	0.444427490234375	9.22241210937499E-07	4.09869358009018E-07	481899.40625	2.29030938498909E-05
2	403	109.160223724397	0.454559326171875	0.45452880859375	9.19189453124999E-07	4.1779807702369E-07	494488.75	2.29958168347366E-05
2	404	109.260931724143	0.464630126953125	0.464599609375	9.161376953125E-07	4.25637182388527E-07	507128.59375	2.30882342293626E-05
2	405	109.361639723888	0.474700927734375	0.474700927734375	9.13391113281251E-07	4.33587587167494E-07	519712.6875	2.31803569477051E-05
2	406	109.462347723634	0.484771728515625	0.48468017578125	9.1064453125E-07	4.41371355464071E-07	532238.625	2.32722049986478E-05
2	407	109.56305572338	0.494842529296875	0.494781494140625	9.075927734375E-07	4.49060109986021E-07	545158.0625	2.33637601922965E-05
2	408	109.663763723126	0.504913330078125	0.5048828125	9.051513671875E-07	4.56995365993862E-07	557788.25	2.34550388995558E-05
2	409	109.764471722871	0.514984130859375	0.51495361328125	9.033203125E-07	4.65168056962284E-07	570067.5625	2.35461029660655E-05
2	410	109.865179722617	0.525054931640625	0.525115966796875	9.0057373046875E-07	4.72905639981036E-07	583090.5	2.3636936020921E-05
2	411	109.965887722363	0.535125732421875	0.53509521484375	8.99353027343749E-07	4.81239453620219E-07	594978	2.37275708059315E-05
2	412	110.066595722109	0.545196533203125	0.545166015625	8.978271484375E-07	4.89464866859635E-07	607206	2.38180655287579E-05
2	413	110.167303721854	0.555267333984375	0.55517578125	8.96301269531249E-07	4.97604730753665E-07	619407.5625	2.39084074564744E-05
2	414	110.2680117216	0.565338134765625	0.5653076171875	8.95080566406251E-07	5.05995842559059E-07	631571.8125	2.39986093220068E-05
2	415	110.368719721346	0.575408935546875	0.575286865234375	8.941650390625E-07	5.14401392592845E-07	643378.875	2.40887056861538E-05
2	416	110.469427721092	0.585479736328125	0.58544921875	8.93554687500001E-07	5.23130893270718E-07	655191.25	2.41787238337565E-05
2	417	110.570135720837	0.595550537109375	0.59552001953125	8.93249511718749E-07	5.31947932813637E-07	666689.4375	2.42686965066241E-05
2	418	110.670843720583	0.605621337890625	0.6055908203125	8.93249511718749E-07	5.40943688065454E-07	677963.8125	2.43586546275765E-05
2	419	110.771551720329	0.615692138671875	0.615692138671875	8.93554687500001E-07	5.50154595657659E-07	689036.875	2.44486273004441E-05
2	420	110.872259720074	0.625762939453125	0.62567138671875	8.941650390625E-07	5.59453440018842E-07	699727	2.45386454480467E-05
2	421	110.97296771982	0.635833740234375	0.635772705078125	8.95080566406251E-07	5.69067765354703E-07	710296.6875	2.46287418121938E-05
2	422	111.073675719566	0.645904541015625	0.645904541015625	8.96301269531249E-07	5.78925039462774E-07	720633.3125	2.47189454967156E-05
2	423	111.174383719312	0.655975341796875	0.655914306640625	8.978271484375E-07	5.88897648867714E-07	730557.4375	2.48092874244321E-05
2	424	111.275091719057	0.666046142578125	0.66595458984375	8.990478515625E-07	5.98725023337465E-07	740733.1875	2.48997657763539E-05
2	425	111.375799718803	0.676116943359375	0.676055908203125	9.0057373046875E-07	6.08838149673829E-07	750694.6875	2.49903841904597E-05
2	426	111.476507718549	0.686187744140625	0.686126708984375	9.02404785156249E-07	6.19163984083571E-07	760331.4375	2.50811717705801E-05
2	427	111.577215718295	0.696258544921875	0.6961669921875	9.04541015625E-07	6.29711564670288E-07	769635.6875	2.51721594395349E-05
2	428	111.67792371804	0.706329345703125	0.706207275390625	9.06982421874999E-07	6.40517555439146E-07	778633.9375	2.52633763011545E-05
2	429	111.778631717786	0.716400146484375	0.71630859375	9.09423828125E-07	6.5142808125529E-07	787651	2.53548387263436E-05
2	430	111.879339717532	0.726470947265625	0.7264404296875	9.1217041015625E-07	6.62637432924384E-07	796386.75	2.54465649049962E-05
2	431	111.980047717278	0.736541748046875	0.736419677734375	9.14916992187501E-07	6.73762883707241E-07	804903.25	2.55385657510487E-05
2	432	112.080755717023	0.746612548828125	0.746490478515625	9.185791015625E-07	6.857105177005E-07	812657.8125	2.56308885582257E-05
2	433	112.181463716769	0.756683349609375	0.75653076171875	9.21630859375E-07	6.97242057867697E-07	820860.9375	2.57235515164211E-05
2	434	112.282171716515	0.766754150390625	0.7672119140625	9.25292968749999E-07	7.09895800810045E-07	829155.6875	2.58165509876562E-05
2	435	112.382879716261	0.776824951171875	0.77667236328125	9.28955078125E-07	7.21493734090473E-07	836071	2.59099197137402E-05
2	436	112.483587716006	0.786895751953125	0.787353515625	9.32922363281249E-07	7.34539639779541E-07	843964.6875	2.60036722465884E-05
2	437	112.584295715752	0.796966552734375	0.79681396484375	9.368896484375E-07	7.46526779948908E-07	850488.625	2.60978249571053E-05
2	438	112.685003715498	0.807037353515625	0.80718994140625	9.4024658203125E-07	7.58957526159065E-07	858487.5625	2.61923469224712E-05
2	439	112.785711715243	0.817108154296875	0.81695556640625	9.4451904296875E-07	7.71630084273056E-07	864943.5	2.62872526946012E-05
2	440	112.886419714989	0.827178955078125	0.8270263671875	9.490966796875E-07	7.84927976837935E-07	871382.625	2.63826041191351E-05
2	441	112.987127714735	0.837249755859375	0.83770751953125	9.53369140625E-07	7.98644464339304E-07	878681.1875	2.64783993770834E-05
2	442	113.087835714481	0.847320556640625	0.84747314453125	9.5703125E-07	8.11058271210641E-07	885522.9375	2.65745966316899E-05
2	443	113.188543714226	0.857391357421875	0.8575439453125	9.619140625E-07	8.24883500172291E-07	891497.5	2.66712231677957E-05
2	444	113.289251713972	0.867462158203125	0.8673095703125	9.6588134765625E-07	8.37718118873454E-07	897946.3125	2.67682953563053E-05
2	445	113.389959713718	0.877532958984375	0.87738037109375	9.6954345703125E-07	8.5065835264686E-07	904941.8125	2.68657513515791E-05
2	446	113.490667713464	0.887603759765625	0.887451171875	9.74426269531251E-07	8.64755747898016E-07	910742.25	2.69636384473415E-05
2	447	113.591375713209	0.897674560546875	0.89813232421875	9.78698730468749E-07	8.7900093603821E-07	917680.0625	2.7061985747423E-05
2	448	113.692083712955	0.907745361328125	0.9075927734375	9.8297119140625E-07	8.92137563823781E-07	923315.75	2.71607641479932E-05
2	449	113.792791712701	0.917816162109375	0.91796875	9.86633300781251E-07	9.05698527731147E-07	930405.25	2.72599409072427E-05
2	450	113.893499712447	0.927886962890625	0.927734375	9.9090576171875E-07	9.19297292512056E-07	936248.875	2.7359517844161E-05
2	451	113.994207712192	0.937957763671875	0.9381103515625	9.95788574218751E-07	9.34159572807403E-07	942077.8125	2.74595568043878E-05
2	452	114.094915711938	0.948028564453125	0.94818115234375	9.98840332031251E-07	9.47081502999936E-07	949282.0625	2.7559994123294E-05
2	453	114.195623711684	0.958099365234375	0.958251953125	1.00250244140625E-06	9.60649913395173E-07	955859.9375	2.76607697742293E-05
2	454	114.29633171143	0.968170166015625	0.968017578125	1.005859375E-06	9.73689452621329E-07	962378.6875	2.77618983091088E-05
2	455	114.397039711175	0.978240966796875	0.97808837890625	1.00921630859375E-06	9.87102680483076E-07	969156.375	2.78633651760174E-05
2	456	114.497747710921	0.988311767578125	0.98846435546875	1.01226806640625E-06	1.00059094165772E-06	976484.8125	2.79651558230398E-05
2	457	114.598455710667	0.998382568359375	0.99853515625	1.0150146484375E-06	1.01352782166941E-06	983764.3125	2.80672375083668E-05
2	458	114.699163710412	1.00845336914063	1.0089111328125	1.01806640625E-06	1.02713852356828E-06	991007.1875	2.81696102319984E-05
2	459	114.799871710158	1.01852416992188	1.01837158203125	1.02020263671875E-06	1.03894535641302E-06	998205.25	2.82722467090935E-05
2	460	114.900579709904	1.02859497070313	1.0284423828125	1.0223388671875E-06	1.05141668882425E-06	1005970.125	2.83750960079487E-05
2	461	115.00128770965	1.03866577148438	1.038818359375	1.02447509765625E-06	1.06424351997703E-06	1014000.625	2.84781617665431E-05
2	462	115.101995709395	1.04873657226563	1.04888916015625	1.02691650390625E-06	1.07712162389362E-06	1021396.75	2.85814567178022E-05
2	463	115.202703709141	1.05880737304688	1.05865478515625	1.0284423828125E-06	1.08876542981307E-06	1029376.8125	2.86849517578958E-05
2	464	115.303411708887	1.06887817382813	1.06903076171875	1.03057861328125E-06	1.10172015865828E-06	1037311.25	2.87886323349085E-05
2	465	115.404119708633	1.07894897460938	1.0791015625	1.03271484375E-06	1.11440419914288E-06	1044917.25	2.88925275526708E-05
2	466	115.504827708378	1.08901977539063	1.08917236328125	1.03515625E-06	1.1274635198788E-06	1052181.625	2.89966537820874E-05
2	467	115.605535708124	1.09909057617188	1.0992431640625	1.0369873046875E-06	1.13990120098606E-06	1060035.25	2.91009946522536E-05
2	468	115.70624370787	1.10916137695313	1.10931396484375	1.0394287109375E-06	1.15305272174737E-06	1067234.375	2.92055501631694E-05
2	469	115.806951707616	1.11923217773438	1.11907958984375	1.04217529296875E-06	1.16627711577166E-06	1073792.125	2.93103676085593E-05
2	470	115.907659707361	1.12930297851563	1.12945556640625	1.0443115234375E-06	1.1795034424722E-06	1081531.25	2.94154306175187E-05
2	471	116.008367707107	1.13937377929688	1.13922119140625	1.04736328125E-06	1.19317849112122E-06	1087704	2.95207537419628E-05
2	472	116.109075706853	1.14944458007813	1.14959716796875	1.0504150390625E-06	1.20755407806428E-06	1094421.875	2.96263860946056E-05
2	473	116.209783706599	1.15951538085938	1.15966796875	1.053466796875E-06	1.22167170957255E-06	1100811.125	2.97323240374681E-05
2	474	116.310491706344	1.16958618164063	1.16973876953125	1.05712890625E-06	1.23656468531408E-06	1106524.25	2.9838602131349E-05
2	475	116.41119970609	1.17965698242188	1.1798095703125	1.06048583984375E-06	1.25117128391139E-06	1112518	2.99452312901849E-05
2	476	116.511907705836	1.18972778320313	1.1895751953125	1.06414794921875E-06	1.26588395232829E-06	1117866.375	3.00522151519544E-05
2	477	116.612615705581	1.19979858398438	1.19964599609375	1.0675048828125E-06	1.28062788462557E-06	1123785	3.01595518976683E-05
2	478	116.713323705327	1.20986938476563	1.21002197265625	1.0711669921875E-06	1.29613556509867E-06	1129629.75	3.02672433463158E-05
2	479	116.814031705073	1.21994018554688	1.219482421875	1.0748291015625E-06	1.31073522879888E-06	1134582.625	3.03753022308229E-05
2	480	116.914739704819	1.23001098632813	1.2298583984375	1.07818603515625E-06	1.32601610403071E-06	1140673.75	3.04837158182636E-05
2	481	117.015447704564	1.24008178710938	1.240234375	1.08184814453125E-06	1.34174524646369E-06	1146403.375	3.05924804706592E-05
2	482	117.11615570431	1.25015258789063	1.2506103515625	1.085205078125E-06	1.35716868499003E-06	1152418.375	3.07016016449779E-05
2	483	117.216863704056	1.26022338867188	1.26007080078125	1.08856201171875E-06	1.37166512104159E-06	1157555.5	3.08110611513257E-05
2	484	117.317571703802	1.27029418945313	1.270751953125	1.09283447265625E-06	1.38872144361812E-06	1162803.75	3.09209026454482E-05
2	485	117.418279703547	1.28036499023438	1.2799072265625	1.0955810546875E-06	1.40224210554152E-06	1168245.125	3.1031097023515E-05
2	486	117.518987703293	1.29043579101563	1.290283203125	1.09893798828125E-06	1.41794123464933E-06	1174118.25	3.11416006297804E-05
2	487	117.619695703039	1.30050659179688	1.3006591796875	1.10198974609375E-06	1.43331305935135E-06	1180282.5	3.12524243781809E-05
2	488	117.720403702785	1.31057739257813	1.31103515625	1.10565185546875E-06	1.44954833558586E-06	1185757.75	3.13635900965892E-05
2	489	117.82111170253	1.32064819335938	1.32110595703125	1.10870361328125E-06	1.46471495554579E-06	1191577.25	3.14750905090477E-05
2	490	117.921819702276	1.33071899414063	1.33056640625	1.112060546875E-06	1.47967045904807E-06	1196487.375	3.15869147016201E-05
2	491	118.022527702022	1.34078979492188	1.34063720703125	1.11572265625E-06	1.49577931551903E-06	1201586.5	3.16990917781368E-05
2	492	118.123235701767	1.35086059570313	1.3507080078125	1.119384765625E-06	1.51196184106084E-06	1206652.25	3.18116399284918E-05
2	493	118.223943701513	1.36093139648438	1.3604736328125	1.123046875E-06	1.52787572460511E-06	1211413	3.19245555147063E-05
2	494	118.324651701259	1.37100219726563	1.3702392578125	1.12762451171875E-06	1.54511531036405E-06	1215155.625	3.20378858305048E-05
2	495	118.425359701005	1.38107299804688	1.3812255859375	1.13250732421875E-06	1.56424812303158E-06	1219617.375	3.21516927215271E-05
2	496	118.52606770075	1.39114379882813	1.3909912109375	1.1370849609375E-06	1.58167517838592E-06	1223295.75	3.2265976187773E-05
2	497	118.626775700496	1.40121459960938	1.4013671875	1.14227294921875E-06	1.60074375799013E-06	1226823.375	3.2380750781158E-05
2	498	118.727483700242	1.41128540039063	1.41082763671875	1.14837646484375E-06	1.62016124249931E-06	1228541.125	3.24960928992368E-05
2	499	118.828191699988	1.42135620117188	1.42120361328125	1.15447998046875E-06	1.64075106567907E-06	1231033.625	3.26120498357341E-05
2	500	118.928899699733	1.43142700195313	1.4312744140625	1.1602783203125E-06	1.66067661666602E-06	1233561.25	3.27286070387345E-05
2	501	119.029607699479	1.44149780273438	1.441650390625	1.1669921875E-06	1.68239478171017E-06	1235355.625	3.28457972500473E-05
2	502	119.130315699225	1.45156860351563	1.45172119140625	1.17401123046875E-06	1.70433702351147E-06	1236548	3.29636750393547E-05
2	503	119.231023698971	1.46163940429688	1.46148681640625	1.18011474609375E-06	1.7247220966965E-06	1238427.75	3.3082214940805E-05
2	504	119.331731698716	1.47171020507813	1.4715576171875	1.1871337890625E-06	1.74693570897944E-06	1239588.75	3.32014133164193E-05
2	505	119.432439698462	1.48178100585938	1.48193359375	1.19354248046875E-06	1.76875062152249E-06	1241626.25	3.33212919940706E-05
2	506	119.533147698208	1.49185180664063	1.49139404296875	1.199951171875E-06	1.78959999175277E-06	1242879	3.34418145939708E-05
2	507	119.633855697954	1.50192260742188	1.50177001953125	1.2060546875E-06	1.81121674813767E-06	1245192.375	3.35629665642045E-05
2	508	119.734563697699	1.49185180664063	1.49139404296875	1.11114501953125E-06	1.65715505318076E-06	1342213.625	3.36796474584844E-05
2	509	119.835271697445	1.48178100585938	1.48162841796875	1.04736328125E-06	1.55180327965354E-06	1414627	3.37883357133251E-05
2	510	119.935979697191	1.47171020507813	1.47125244140625	9.979248046875E-07	1.46819922974828E-06	1474312	3.3891323255375E-05
2	511	120.036687696936	1.46163940429688	1.46148681640625	9.57336425781249E-07	1.3991344758324E-06	1526617.875	3.39897778758314E-05
2	512	120.137395696682	1.45156860351563	1.45172119140625	9.22241210937499E-07	1.33883713715477E-06	1574123.125	3.40844235324766E-05
2	513	120.238103696428	1.44149780273438	1.44134521484375	8.90502929687501E-07	1.28352212414029E-06	1618574.375	3.41757004207466E-05
2	514	120.338811696174	1.43142700195313	1.4312744140625	8.62731933593749E-07	1.23480606362136E-06	1659002.5	3.42639832524583E-05
2	515	120.439519695919	1.42135620117188	1.42181396484375	8.3740234375E-07	1.19063031434052E-06	1697886.375	3.43495921697468E-05
2	516	120.540227695665	1.41128540039063	1.4111328125	8.13903808593749E-07	1.14852639399032E-06	1733783.25	3.44327418133616E-05
2	517	120.640935695411	1.40121459960938	1.4007568359375	7.9315185546875E-07	1.11101292077365E-06	1766063.875	3.45136650139466E-05
2	518	120.741643695157	1.39114379882813	1.3909912109375	7.73010253906251E-07	1.07525045223156E-06	1799447.375	3.45925254805479E-05
2	519	120.842351694902	1.38107299804688	1.38031005859375	7.54394531249999E-07	1.04129833289335E-06	1829692.5	3.46694396284875E-05
2	520	120.943059694648	1.37100219726563	1.370849609375	7.366943359375E-07	1.00989711881994E-06	1860812	3.47445202351082E-05
2	521	121.043767694394	1.36093139648438	1.361083984375	7.40966796875001E-07	1.00851798379153E-06	1836902.875	3.48189278156497E-05
2	522	121.14447569414	1.35086059570313	1.35101318359375	7.3883056640625E-07	9.98169753074762E-07	1828583.375	3.48934408975765E-05
2	523	121.245183693885	1.34078979492188	1.3409423828125	7.33337402343751E-07	9.83363179329899E-07	1828547.625	3.49675683537498E-05
2	524	121.345891693631	1.33071899414063	1.33056640625	7.2662353515625E-07	9.66820834946702E-07	1831163.375	3.50410846294835E-05
2	525	121.446599693377	1.32064819335938	1.32080078125	7.17773437499999E-07	9.48035733472352E-07	1840136	3.51138151017949E-05
2	526	121.547307693123	1.31057739257813	1.31072998046875	7.0770263671875E-07	9.27607004541642E-07	1852091.5	3.51855960616376E-05
2	527	121.648015692868	1.30050659179688	1.30096435546875	6.96411132812499E-07	9.06006050627184E-07	1868098.25	3.52562965417746E-05
2	528	121.748723692614	1.29043579101563	1.28997802734375	6.866455078125E-07	8.85757572177681E-07	1878666.75	3.53259383700788E-05
2	529	121.84943169236	1.28036499023438	1.28021240234375	6.78405761718751E-07	8.68503434503509E-07	1887089.625	3.539467434166E-05
2	530	121.950139692105	1.27029418945313	1.2701416015625	6.67419433593749E-07	8.47717217311583E-07	1903063.5	3.54624426108785E-05
2	531	122.050847691851	1.26022338867188	1.26007080078125	6.55212402343749E-07	8.25613994948071E-07	1923148.625	3.55290430888999E-05
2	532	122.151555691597	1.25015258789063	1.25	6.4361572265625E-07	8.04519629582501E-07	1942152.75	3.5594443033915E-05
2	533	122.252263691343	1.24008178710938	1.24053955078125	6.31103515625001E-07	7.8290884175658E-07	1965667.375	3.56586315319873E-05
2	534	122.352971691088	1.23001098632813	1.2298583984375	6.182861328125E-07	7.60404361699329E-07	1989141.25	3.57215430994984E-05
2	535	122.453679690834	1.21994018554688	1.21978759765625	6.04858398437499E-07	7.37798757199926E-07	2016650	3.57831340807024E-05
2	536	122.55438769058	1.20986938476563	1.20880126953125	5.91430664062501E-07	7.14922123279393E-07	2043859.75	3.58433717337903E-05
2	537	122.655095690326	1.19979858398438	1.199951171875	5.7861328125E-07	6.94307630055846E-07	2073839.75	3.59022888005711E-05
2	538	122.755803690071	1.18972778320313	1.18927001953125	5.6610107421875E-07	6.73247029681079E-07	2100808.75	3.59599289367907E-05
2	539	122.856511689817	1.17965698242188	1.17950439453125	5.535888671875E-07	6.52960466140939E-07	2130650.5	3.6016310332343E-05
2	540	122.957219689563	1.16958618164063	1.16973876953125	5.419921875E-07	6.33989259313239E-07	2158220.75	3.60714766429737E-05
2	541	123.057927689309	1.15951538085938	1.1590576171875	5.30090332031249E-07	6.14405280430219E-07	2186528.5	3.61254606104922E-05
2	542	123.158635689054	1.14944458007813	1.14959716796875	5.19409179687499E-07	5.97111352362845E-07	2213278.5	3.6178305890644E-05
2	543	123.2593436888	1.13937377929688	1.138916015625	5.26123046875E-07	5.99209954543767E-07	2164733.25	3.62309547199402E-05
2	544	123.360051688546	1.12930297851563	1.129150390625	5.0933837890625E-07	5.75119599943719E-07	2216896.5	3.62830942322034E-05
2	545	123.460759688292	1.11923217773438	1.11846923828125	5.0079345703125E-07	5.60122032311483E-07	2233394.5	3.63339568139054E-05
2	546	123.561467688037	1.10916137695313	1.1090087890625	4.92248535156251E-07	5.45907937521406E-07	2252944.75	3.63839608326089E-05
2	547	123.662175687783	1.09909057617188	1.09893798828125	4.833984375E-07	5.31224884525727E-07	2273358.75	3.64330880984198E-05
2	548	123.762883687529	1.08901977539063	1.0894775390625	4.742431640625E-07	5.16677289397194E-07	2297297.25	3.64813095075078E-05
2	549	123.863591687274	1.07894897460938	1.07879638671875	4.64782714843751E-07	5.01405907016306E-07	2321076.75	3.65285923180636E-05
2	550	123.96429968702	1.06887817382813	1.0687255859375	4.55322265624999E-07	4.86614567307697E-07	2347185	3.65749256161507E-05
2	551	124.065007686766	1.05880737304688	1.058349609375	4.4525146484375E-07	4.71231714982423E-07	2376970.5	3.66202730219811E-05
2	552	124.165715686512	1.04873657226563	1.048583984375	4.351806640625E-07	4.56323448361218E-07	2409537.25	3.66646054317243E-05
2	553	124.266423686257	1.03866577148438	1.038818359375	4.25109863281251E-07	4.4161191681269E-07	2443647	3.67079228453804E-05
2	554	124.367131686003	1.02859497070313	1.02813720703125	4.1473388671875E-07	4.26403317987933E-07	2479028.75	3.67502143490128E-05
2	555	124.467839685749	1.01852416992188	1.0186767578125	4.04968261718749E-07	4.12531761639912E-07	2515448.5	3.67914872185793E-05
2	556	124.568547685495	1.00845336914063	1.00860595703125	3.94592285156251E-07	3.97988117128989E-07	2556071.25	3.68317487300374E-05
2	557	124.66925568524	0.998382568359375	0.99822998046875	3.85131835937499E-07	3.84450117962842E-07	2591917.75	3.68710134353023E-05
2	558	124.769963684986	0.988311767578125	0.9881591796875	3.7567138671875E-07	3.71223137562993E-07	2630381.75	3.6909321352141E-05
2	559	124.870671684732	0.978240966796875	0.97808837890625	3.66821289062499E-07	3.58783609044622E-07	2666389.5	3.69467088603415E-05
2	560	124.971379684478	0.968170166015625	0.968017578125	3.57971191406251E-07	3.46522398331217E-07	2704177.5	3.69832050637342E-05
2	561	125.072087684223	0.958099365234375	0.9576416015625	3.497314453125E-07	3.34917359623432E-07	2738220	3.70188390661497E-05
2	562	125.172795683969	0.948028564453125	0.94757080078125	3.41796875E-07	3.23876719221516E-07	2772321.5	3.70536617992911E-05
2	563	125.273503683715	0.937957763671875	0.9381103515625	3.3447265625E-07	3.13772261506529E-07	2804744.5	3.70877132809255E-05
2	564	125.374211683461	0.927886962890625	0.92803955078125	3.2684326171875E-07	3.03323474781791E-07	2839402.5	3.71210153389256E-05
2	565	125.474919683206	0.917816162109375	0.9173583984375	3.19824218750001E-07	2.93393412675869E-07	2868320.75	3.71535752492491E-05
2	566	125.575627682952	0.907745361328125	0.9075927734375	3.131103515625E-07	2.8417667863323E-07	2898635.5	3.7185447581578E-05
2	567	125.676335682698	0.897674560546875	0.89752197265625	3.070068359375E-07	2.75545374961439E-07	2923459.5	3.72166723536793E-05
2	568	125.777043682443	0.887603759765625	0.88714599609375	3.009033203125E-07	2.66945164639765E-07	2948276	3.72472823073622E-05
2	569	125.877751682189	0.877532958984375	0.87799072265625	2.9571533203125E-07	2.59635299926231E-07	2969040.25	3.72773247363511E-05
2	570	125.978459681935	0.867462158203125	0.8673095703125	2.90832519531251E-07	2.52241818543553E-07	2982161.75	3.73068614862859E-05
2	571	126.079167681681	0.857391357421875	0.85693359375	2.8564453125E-07	2.44778391333966E-07	3000000.25	3.73358889191877E-05
2	572	126.179875681426	0.847320556640625	0.84716796875	2.81372070312499E-07	2.38369395333393E-07	3010846.25	3.73644397768658E-05
2	573	126.280583681172	0.837249755859375	0.83709716796875	2.77099609375001E-07	2.31959305097007E-07	3020925	3.73925613530446E-05
2	574	126.381291680918	0.827178955078125	0.82763671875	2.7313232421875E-07	2.26054339691473E-07	3030167.75	3.74202681996394E-05
2	575	126.481999680664	0.817108154296875	0.8172607421875	2.69165039062499E-07	2.19978019799782E-07	3036281.25	3.74475748685654E-05
2	576	126.582707680409	0.807037353515625	0.806884765625	2.655029296875E-07	2.14230269079962E-07	3039080.5	3.74744959117379E-05
2	577	126.683415680155	0.796966552734375	0.797119140625	2.6214599609375E-07	2.08961580483447E-07	3040745.25	3.75010677089449E-05
2	578	126.784123679901	0.786895751953125	0.78704833984375	2.5909423828125E-07	2.03919682917331E-07	3037691.5	3.75273120880593E-05
2	579	126.884831679647	0.776824951171875	0.7769775390625	2.5634765625E-07	1.99176369619636E-07	3030952.5	3.75532690668479E-05
2	580	126.985539679392	0.766754150390625	0.76690673828125	2.54211425781251E-07	1.94956442101102E-07	3016806.75	3.75789750250988E-05
2	581	127.086247679138	0.756683349609375	0.7574462890625	2.5146484375E-07	1.90471098449052E-07	3012136.25	3.76044408767484E-05
2	582	127.186955678884	0.746612548828125	0.746490478515625	2.4871826171875E-07	1.85665811613944E-07	3001349.75	3.76296266040299E-05
2	583	127.28766367863	0.736541748046875	0.736419677734375	2.471923828125E-07	1.82037339868657E-07	2979135.75	3.76545976905618E-05
2	584	127.388371678375	0.726470947265625	0.726348876953125	2.45056152343751E-07	1.77996270167569E-07	2964010	3.76793832401745E-05
2	585	127.489079678121	0.716400146484375	0.716339111328125	2.43225097656249E-07	1.74231644223255E-07	2945169.5	3.77039687009528E-05
2	586	127.589787677867	0.706329345703125	0.706298828125	2.410888671875E-07	1.70280770817044E-07	2929620.5	3.77283577108756E-05
2	587	127.690495677612	0.696258544921875	0.696197509765625	2.392578125E-07	1.66570700343982E-07	2909821.5	3.77525466319639E-05
2	588	127.791203677358	0.686187744140625	0.686065673828125	2.37426757812501E-07	1.6289034476813E-07	2889588.75	3.77765463781543E-05
2	589	127.891911677104	0.676116943359375	0.676055908203125	2.35900878906251E-07	1.59482183903492E-07	2865847.5	3.78003824152984E-05
2	590	127.99261967685	0.666046142578125	0.666015625	2.337646484375E-07	1.55690898395733E-07	2849086.25	3.78240329155233E-05
2	591	128.093327676595	0.655975341796875	0.6558837890625	2.32543945312499E-07	1.52521806739969E-07	2820472.5	3.78475124307442E-05
2	592	128.194035676341	0.645904541015625	0.645843505859375	2.31018066406249E-07	1.49201511590036E-07	2795640.75	3.78708537027705E-05
2	593	128.294743676087	0.635833740234375	0.635772705078125	2.29492187499999E-07	1.45904863302349E-07	2770345.75	3.78940421796869E-05
2	594	128.395451675833	0.625762939453125	0.62579345703125	2.2857666015625E-07	1.43041773981167E-07	2737783.75	3.79171069653239E-05
2	595	128.496159675578	0.615692138671875	0.615631103515625	2.26745605468751E-07	1.39591648462556E-07	2715074	3.7940037145745E-05
2	596	128.596867675324	0.605621337890625	0.605560302734375	2.2552490234375E-07	1.36568928610359E-07	2685115	3.79628072550986E-05
2	597	128.69757567507	0.595550537109375	0.59552001953125	2.24609375E-07	1.3375937157889E-07	2651358.75	3.79854755010456E-05
2	598	128.798283674816	0.585479736328125	0.585479736328125	2.2308349609375E-07	1.30610857240754E-07	2624487	3.80080200557131E-05
2	599	128.898991674561	0.575408935546875	0.57537841796875	2.21862792968749E-07	1.27655056303411E-07	2593397.5	3.80304227292072E-05
2	600	128.999699674307	0.565338134765625	0.565338134765625	2.20642089843751E-07	1.24737383089268E-07	2562240.75	3.80527053494006E-05
2	601	129.100407674053	0.555267333984375	0.55523681640625	2.1942138671875E-07	1.21830822763513E-07	2530459	3.80748642783146E-05
2	602	129.201115673799	0.545196533203125	0.54510498046875	2.1820068359375E-07	1.18942281801537E-07	2498181.75	3.80968995159492E-05
2	603	129.301823673544	0.535125732421875	0.53509521484375	2.166748046875E-07	1.15941652722995E-07	2469577.5	3.81187965103891E-05
2	604	129.40253167329	0.525054931640625	0.524993896484375	2.154541015625E-07	1.13112086808087E-07	2436685.75	3.81405588996131E-05
2	605	129.503239673036	0.514984130859375	0.51495361328125	2.14233398437499E-07	1.10320257817875E-07	2403703.75	3.81621939595789E-05
2	606	129.603947672781	0.504913330078125	0.504913330078125	2.12707519531249E-07	1.07398861359798E-07	2373744.5	3.818369077635E-05
2	607	129.704655672527	0.494842529296875	0.494873046875	2.1209716796875E-07	1.04961166869089E-07	2333237.5	3.82050820917357E-05
2	608	129.805363672273	0.484771728515625	0.4847412109375	2.1026611328125E-07	1.01924648276963E-07	2305370.25	3.82263497158419E-05
2	609	129.906071672019	0.474700927734375	0.474609375	2.08740234375E-07	9.90700712577564E-08	2273684.25	3.82474499929231E-05
2	610	130.006779671764	0.464630126953125	0.464630126953125	2.0599365234375E-07	9.5710852576758E-08	2255555.75	3.82683319912758E-05
2	611	130.10748767151	0.454559326171875	0.454559326171875	2.0477294921875E-07	9.3081453655941E-08	2219821.25	3.82890175387729E-05
2	612	130.208195671256	0.444488525390625	0.444488525390625	2.0263671875E-07	9.00696903727294E-08	2193524.25	3.83095321012661E-05
2	613	130.308903671002	0.434417724609375	0.43438720703125	2.00805664062501E-07	8.72274057428513E-08	2163222	3.83298465749249E-05
2	614	130.409611670747	0.424346923828125	0.42431640625	1.983642578125E-07	8.41692013864304E-08	2139077	3.83499464078341E-05
2	615	130.510319670493	0.414276123046875	0.414276123046875	1.9683837890625E-07	8.15454370695079E-08	2104651.25	3.83698461519089E-05
2	616	130.611027670239	0.404205322265625	0.40423583984375	1.953125E-07	7.89523113553514E-08	2069687.5	3.83895931008738E-05
2	617	130.711735669985	0.394134521484375	0.39410400390625	1.934814453125E-07	7.62518084229669E-08	2036908.625	3.84091690648347E-05
2	618	130.81244366973	0.384063720703125	0.38397216796875	1.9256591796875E-07	7.3939951050761E-08	1993977.875	3.8428606785601E-05
2	619	130.913151669476	0.373992919921875	0.37396240234375	1.9073486328125E-07	7.13276619990211E-08	1960640.125	3.84479099011514E-05
2	620	131.013859669222	0.363922119140625	0.363983154296875	1.89208984375E-07	6.88688785999148E-08	1923709.75	3.84670420316979E-05
2	621	131.114567668968	0.353851318359375	0.35382080078125	1.8768310546875E-07	6.64061872157617E-08	1885203.375	3.84860177291557E-05
2	622	131.215275668713	0.343780517578125	0.343780517578125	1.8585205078125E-07	6.38923154383519E-08	1849753.75	3.85048260795884E-05
2	623	131.315983668459	0.333709716796875	0.333740234375	1.84020996093751E-07	6.14152071420904E-08	1813598.75	3.85234525310807E-05
2	624	131.416691668205	0.323638916015625	0.323577880859375	1.82495117187501E-07	5.9051380674191E-08	1773077	3.85419079975691E-05
2	625	131.51739966795	0.313568115234375	0.31353759765625	1.800537109375E-07	5.6453604457829E-08	1741356	3.85601633752231E-05
2	626	131.618107667696	0.303497314453125	0.303436279296875	1.77917480468751E-07	5.39866142901246E-08	1705489	3.85781895602122E-05
2	627	131.718815667442	0.293426513671875	0.293487548828125	1.7547607421875E-07	5.15000415646227E-08	1672521.75	3.85959829145577E-05
2	628	131.819523667188	0.283355712890625	0.28326416015625	1.71813964843751E-07	4.86687383727258E-08	1648667.875	3.86134706786834E-05
2	629	131.920231666933	0.273284912109375	0.27325439453125	1.68762207031251E-07	4.61150122532672E-08	1619168.25	3.863062011078E-05
2	630	132.020939666679	0.263214111328125	0.26318359375	1.65405273437499E-07	4.35319513769628E-08	1591144	3.86474457627628E-05
2	631	132.121647666425	0.253143310546875	0.25311279296875	1.61132812500001E-07	4.07847728922661E-08	1570833.375	3.86638894269709E-05
2	632	132.222355666171	0.243072509765625	0.2430419921875	1.568603515625E-07	3.81236517910111E-08	1549416.375	3.86799001717009E-05
2	633	132.323063665916	0.233001708984375	0.23297119140625	1.51977539062501E-07	3.54063871554899E-08	1532931.75	3.86954525311012E-05
2	634	132.423771665662	0.222930908203125	0.22296142578125	1.4617919921875E-07	3.25923217303625E-08	1525261	3.8710466469638E-05
2	635	132.524479665408	0.212860107421875	0.21282958984375	1.3916015625E-07	2.96173983116432E-08	1529386	3.87248328479473E-05
2	636	132.625187665154	0.202789306640625	0.202850341796875	1.30310058593749E-07	2.64334385491338E-08	1556674.5	3.87384025088977E-05
2	637	132.725895664899	0.192718505859375	0.192718505859375	1.1932373046875E-07	2.29958914133022E-08	1615089.5	3.87509717256762E-05
2	638	132.826603664645	0.182647705078125	0.18267822265625	1.055908203125E-07	1.92891427275299E-08	1730057.875	3.87623003916815E-05
2	639	132.927311664391	0.172576904296875	0.17266845703125	8.78906250000006E-08	1.51759387279071E-08	1964583.25	3.87720428989269E-05
2	640	133.028019664137	0.162506103515625	0.1624755859375	6.40869140625E-08	1.0412558815176E-08	2535238.25	3.87796935683582E-05
2	641	133.128727663882	0.152435302734375	0.1524658203125	3.14331054687506E-08	4.79247397322524E-09	4850486	3.87845029763412E-05
2	642	133.229435663628	0.142364501953125	0.142364501953125	-1.220703125E-08	-1.73784786561271E-09	-11662500	3.87854706787039E-05
2	643	133.330143663374	0.132293701171875	0.13232421875	-7.20214843749997E-08	-9.53018641780545E-09	-1837288.125	3.87812287954148E-05
2	644	133.430851663119	0.122222900390625	0.12225341796875	-1.5289306640625E-07	-1.86917006317344E-08	-799600.8125	3.87699037673883E-05
2	645	133.531559662865	0.112152099609375	0.112152099609375	-2.606201171875E-07	-2.92290920356209E-08	-430327.875	3.87490836146753E-05
2	646	133.632267662611	0.102081298828125	0.102142333984375	-3.9947509765625E-07	-4.08033180576695E-08	-255691.375	3.87158434023149E-05
2	647	133.732975662357	0.092010498046875	0.092010498046875	-5.72814941406249E-07	-5.27049870413521E-08	-160628.65625	3.86668871215079E-05
2	648	133.833683662102	0.081939697265625	0.082000732421875	-7.7667236328125E-07	-6.36877004467351E-08	-105579.5703125	3.85989333153702E-05
2	649	133.934391661848	0.071868896484375	0.0718994140625	-1.00250244140625E-06	-7.20793380537543E-08	-71719.9375	3.85093444492668E-05
2	650	134.035099661594	0.061798095703125	0.061798095703125	-1.23077392578125E-06	-7.60594858206787E-08	-50210.76171875	3.83968908863608E-05
2	651	134.13580766134	0.051727294921875	0.0517578125	-1.44195556640625E-06	-7.46324673173149E-08	-35894.1796875	3.82623074983712E-05
2	652	134.236515661085	0.041656494140625	0.0417144775390625	-1.61346435546875E-06	-6.73048177191049E-08	-25853.982421875	3.81084573746193E-05
2	653	134.337223660831	0.031585693359375	0.0316864013671875	-1.73065185546875E-06	-5.48381287046595E-08	-18308.94140625	3.79400662495755E-05
2	654	134.437931660577	0.021514892578125	0.0215850830078125	-1.788330078125E-06	-3.86012501962796E-08	-12069.9658203125	3.77628712158184E-05
2	655	134.538639660323	0.011444091796875	0.0115264892578125	-1.7938232421875E-06	-2.06764845245289E-08	-6425.6552734375	3.7582496588584E-05
2	656	134.639347660068	0.001373291015625	0.00145568847656249	-1.75933837890625E-06	-2.56104870643981E-09	-827.406799316406	3.74035807908513E-05
2	657	134.740055659814	-0.008697509765625	-0.0086029052734375	-1.69952392578125E-06	1.46208423146277E-08	5061.9501953125	3.72294125554617E-05
2	658	134.84076365956	-0.018768310546875	-0.0186431884765625	-1.62872314453125E-06	3.03645926180707E-08	11446.505859375	3.70618217857555E-05
2	659	134.941471659306	-0.028839111328125	-0.0287017822265625	-1.5545654296875E-06	4.46187975455814E-08	18462.8984375	3.69015288015362E-05
2	660	135.042179659051	-0.038909912109375	-0.0387664794921875	-1.48284912109375E-06	5.74848399992334E-08	26143.2421875	3.67485845345072E-05
2	661	135.142887658797	-0.048980712890625	-0.0488494873046875	-1.41632080078125E-06	6.9186540940791E-08	34490.41015625	3.66025997209363E-05
2	662	135.243595658543	-0.059051513671875	-0.058929443359375	-1.3555908203125E-06	7.98842094695829E-08	43471.41015625	3.64630213880446E-05
2	663	135.344303658288	-0.069122314453125	-0.069122314453125	-1.302490234375E-06	9.0031136323887E-08	53069.35546875	3.63291765097529E-05
2	664	135.445011658034	-0.079193115234375	-0.07916259765625	-1.2548828125E-06	9.93397861748235E-08	63083.65625	3.62004029739182E-05
2	665	135.54571965778	-0.089263916015625	-0.089202880859375	-1.2127685546875E-06	1.08182447888794E-07	73553.09375	3.6076147807762E-05
2	666	135.646427657526	-0.099334716796875	-0.09930419921875	-1.1761474609375E-06	1.16796378790696E-07	84431.765625	3.59558544005267E-05
2	667	135.747135657271	-0.109405517578125	-0.109375	-1.14471435546875E-06	1.25203129641704E-07	95547.8515625	3.58389916073065E-05
2	668	135.847843657017	-0.119476318359375	-0.119384765625	-1.11663818359375E-06	1.33309583816299E-07	106914.4609375	3.57251228706446E-05
2	669	135.948551656763	-0.129547119140625	-0.129486083984375	-1.0919189453125E-06	1.41388298402489E-07	118585.8125	3.56139134964906E-05
2	670	136.049259656509	-0.139617919921875	-0.1395263671875	-1.0699462890625E-06	1.49285710904223E-07	130405.0234375	3.5505054256646E-05
2	671	136.149967656254	-0.149688720703125	-0.14959716796875	-1.0516357421875E-06	1.57321736082849E-07	142251.890625	3.53982250089757E-05
2	672	136.250675656	-0.159759521484375	-0.15966796875	-1.03546142578125E-06	1.65330021673071E-07	154199.828125	3.52931310771964E-05
2	673	136.351383655746	-0.169830322265625	-0.16973876953125	-1.02203369140625E-06	1.73478738929589E-07	166079.4375	3.51895287167281E-05
2	674	136.452091655492	-0.179901123046875	-0.1798095703125	-1.0101318359375E-06	1.81631364171153E-07	178006.046875	3.50871996488422E-05
2	675	136.552799655237	-0.189971923828125	-0.18988037109375	-1.0003662109375E-06	1.89949901141517E-07	189810.859375	3.49859656125773E-05
2	676	136.653507654983	-0.200042724609375	-0.199981689453125	-9.92431640625E-07	1.98468157464049E-07	201506.765625	3.48856192431413E-05
2	677	136.754215654729	-0.189971923828125	-0.1898193359375	-8.642578125E-07	1.64052835316397E-07	219632.765625	3.47921268257778E-05
