Potential - OCP -0.00224402932559743 V
Time (s)	WE(1).Potential (V)
9.94736297488532	-0.0017852783203125
10.0473629746328	-0.001788330078125
10.1473629743804	-0.0017852783203125
10.2473629741279	-0.001788330078125
10.3473629738754	-0.0017852783203125
10.4473629736229	-0.0017852783203125
10.5473629733705	-0.0017852783203125
10.647362973118	-0.0017852783203125
10.7473629728655	-0.0017852783203125
10.847362972613	-0.0017852783203125
10.9473629723606	-0.0017852783203125
11.0473629721081	-0.0017974853515625
11.1473629718556	-0.0018157958984375
11.2473629716031	-0.00182189941406249
11.3473629713507	-0.00181884765625
11.4473629710982	-0.00181884765625
11.5473629708457	-0.0018280029296875
11.6473629705932	-0.00183715820312499
11.7473629703408	-0.00184326171875
11.8473629700883	-0.00183715820312499
11.9473629698358	-0.0018463134765625
12.0473629695833	-0.00182495117187501
12.1473629693309	-0.00180664062499999
12.2473629690784	-0.0018463134765625
12.3473629688259	-0.0018646240234375
12.4473629685734	-0.00186767578124999
12.547362968321	-0.001873779296875
12.6473629680685	-0.0018798828125
12.747362967816	-0.0018890380859375
12.8473629675635	-0.00188598632812501
12.9473629673111	-0.00188598632812501
13.0473629670586	-0.0018798828125
13.1473629668061	-0.0018890380859375
13.2473629665536	-0.001904296875
13.3473629663011	-0.001904296875
13.4473629660487	-0.00194396972656249
13.5473629657962	-0.0019683837890625
13.6473629655437	-0.00197753906250001
13.7473629652912	-0.00199279785156251
13.8473629650388	-0.00200805664062501
13.9473629647863	-0.00202331542968751
14.0473629645338	-0.00203552246093749
14.1473629642813	-0.00205383300781251
14.2473629640289	-0.00206909179687501
14.3473629637764	-0.00208435058593751
14.4473629635239	-0.00209960937500001
14.5473629632714	-0.00211486816406251
14.647362963019	-0.00213012695312501
14.7473629627665	-0.00214538574218751
14.847362962514	-0.0021636962890625
14.9473629622615	-0.00217590332031251
15.0473629620091	-0.0021942138671875
15.1473629617566	-0.00220642089843751
15.2473629615041	-0.00222167968750001
15.3473629612516	-0.00223388671874999
15.4473629609992	-0.00224914550781249
15.5473629607467	-0.00226440429687499
15.6473629604942	-0.002276611328125
15.7473629602417	-0.002288818359375
15.8473629599893	-0.002301025390625
15.9473629597368	-0.00231323242187501
16.0473629594843	-0.00232543945312499
16.1473629592318	-0.00234069824218749
16.2473629589794	-0.0023529052734375
16.3473629587269	-0.0023651123046875
16.4473629584744	-0.0023773193359375
16.5473629582219	-0.00238647460937499
16.6473629579694	-0.0023956298828125
16.747362957717	-0.0024078369140625
16.8473629574645	-0.0024139404296875
16.947362957212	-0.002423095703125
17.0473629569595	-0.00243225097656249
17.1473629567071	-0.0024383544921875
17.2473629564546	-0.00244750976562499
17.3473629562021	-0.0024566650390625
17.4473629559496	-0.0024566650390625
17.5473629556972	-0.002459716796875
17.6473629554447	-0.0024688720703125
17.7473629551922	-0.00247802734374999
17.8473629549397	-0.002484130859375
17.9473629546873	-0.002490234375
18.0473629544348	-0.00249328613281249
18.1473629541823	-0.00249633789062501
18.2473629539298	-0.00250244140625
18.3473629536774	-0.0025054931640625
18.4473629534249	-0.00250854492187499
18.5473629531724	-0.00251159667968751
18.6473629529199	-0.0025146484375
18.7473629526675	-0.0025177001953125
18.847362952415	-0.002520751953125
18.9473629521625	-0.002520751953125
19.04736295191	-0.00252380371093749
19.1473629516576	-0.00252685546875001
19.2473629514051	-0.0025299072265625
19.3473629511526	-0.0025299072265625
19.4473629509001	-0.002532958984375
19.5473629506477	-0.002532958984375
19.6473629503952	-0.0025360107421875
19.7473629501427	-0.00253906249999999
19.8473629498902	-0.00253906249999999
19.9473629496377	-0.00254211425781251
20.0473629493853	-0.00254211425781251
20.1473629491328	-0.00254211425781251
20.2473629488803	-0.002545166015625
20.3473629486278	-0.002545166015625
20.4473629483754	-0.002545166015625
20.5473629481229	-0.002545166015625
20.6473629478704	-0.0025482177734375
20.7473629476179	-0.002545166015625
20.8473629473655	-0.0025482177734375
20.947362947113	-0.002545166015625
21.0473629468605	-0.002545166015625
21.147362946608	-0.002545166015625
21.2473629463556	-0.0025482177734375
21.3473629461031	-0.0025482177734375
21.4473629458506	-0.0025482177734375
21.5473629455981	-0.00255126953125
21.6473629453457	-0.00255126953125
21.7473629450932	-0.00255432128906249
21.8473629448407	-0.00255737304687501
21.9473629445882	-0.0025604248046875
22.0473629443358	-0.0025634765625
22.1473629440833	-0.0025634765625
22.2473629438308	-0.00256958007812499
22.3473629435783	-0.00257263183593751
22.4473629433259	-0.00257568359375
22.5473629430734	-0.0025787353515625
22.6473629428209	-0.002581787109375
22.7473629425684	-0.00258789062500001
22.847362942316	-0.0025909423828125
22.9473629420635	-0.0025970458984375
23.047362941811	-0.00260314941406251
23.1473629415585	-0.002606201171875
23.2473629413061	-0.0026123046875
23.3473629410536	-0.00261535644531249
23.4473629408011	-0.0026214599609375
23.5473629405486	-0.0026275634765625
23.6473629402961	-0.00263366699218751
23.7473629400437	-0.0026397705078125
23.8473629397912	-0.00264587402343749
23.9473629395387	-0.0026519775390625
24.0473629392862	-0.0026580810546875
24.1473629390338	-0.00266418457031251
24.2473629387813	-0.0026702880859375
24.3473629385288	-0.00267639160156249
24.4473629382763	-0.0026824951171875
24.5473629380239	-0.0026885986328125
24.6473629377714	-0.00269470214843751
24.7473629375189	-0.0027008056640625
24.8473629372664	-0.00270690917968749
24.947362937014	-0.0027130126953125
25.0473629367615	-0.0027191162109375
25.147362936509	-0.00272521972656251
25.2473629362565	-0.0027313232421875
25.3473629360041	-0.00273742675781249
25.4473629357516	-0.0027435302734375
25.5473629354991	-0.0027496337890625
25.6473629352466	-0.00275573730468751
25.7473629349942	-0.0027618408203125
25.8473629347417	-0.002764892578125
25.9473629344892	-0.00277099609375001
26.0473629342367	-0.0027740478515625
26.1473629339843	-0.00277099609375001
26.2473629337318	-0.0027740478515625
26.3473629334793	-0.00278625488281251
26.4473629332268	-0.00279846191406249
26.5473629329744	-0.0028045654296875
26.6473629327219	-0.0028076171875
26.7473629324694	-0.0028106689453125
26.8473629322169	-0.00281372070312499
26.9473629319644	-0.00281677246093751
27.047362931712	-0.00281982421875
27.1473629314595	-0.00283203125000001
27.247362931207	-0.002838134765625
27.3473629309545	-0.0028350830078125
27.4473629307021	-0.00284423828124999
27.5473629304496	-0.00286254882812501
27.6473629301971	-0.002850341796875
27.7473629299446	-0.0029296875
27.8473629296922	-0.00287780761718751
27.9473629294397	-0.0028564453125
28.0473629291872	-0.00285949707031249
28.1473629289347	-0.0028717041015625
28.2473629286823	-0.00286254882812501
28.3473629284298	-0.002850341796875
28.4473629281773	-0.00284729003906251
28.5473629279248	-0.002850341796875
28.6473629276724	-0.00284729003906251
28.7473629274199	-0.0028350830078125
28.8473629271674	-0.00281372070312499
28.9473629269149	-0.00281982421875
29.0473629266625	-0.002838134765625
29.14736292641	-0.00283203125000001
29.2473629261575	-0.002825927734375
29.347362925905	-0.002825927734375
29.4473629256526	-0.00281982421875
29.5473629254001	-0.0028045654296875
29.6473629251476	-0.00280151367187501
29.7473629248951	-0.002789306640625
29.8473629246427	-0.0027801513671875
29.9473629243902	-0.0027740478515625
30.0473629241377	-0.002764892578125
30.1473629238852	-0.0027587890625
30.2473629236327	-0.0027496337890625
30.3473629233803	-0.0027435302734375
30.4473629231278	-0.002734375
30.5473629228753	-0.002728271484375
30.6473629226228	-0.00272216796874999
30.7473629223704	-0.00270690917968749
30.8473629221179	-0.00269470214843751
30.9473629218654	-0.00267944335937501
31.0473629216129	-0.00267639160156249
31.1473629213605	-0.0026702880859375
31.247362921108	-0.002667236328125
31.3473629208555	-0.0026580810546875
31.447362920603	-0.0026519775390625
31.5473629203506	-0.00264587402343749
31.6473629200981	-0.002642822265625
31.7473629198456	-0.0026397705078125
31.8473629195931	-0.00262451171875
31.9473629193407	-0.0026092529296875
32.0473629190882	-0.00261840820312501
32.1473629188357	-0.002606201171875
32.2473629185832	-0.002593994140625
32.3473629183308	-0.00258483886718749
32.4473629180783	-0.00257568359375
32.5473629178258	-0.00256958007812499
32.6473629175733	-0.00255737304687501
32.7473629173209	-0.00255126953125
32.8473629170684	-0.00254211425781251
32.9473629168159	-0.0025360107421875
33.0473629165634	-0.00252685546875001
33.147362916311	-0.00252380371093749
33.2473629160585	-0.0025177001953125
33.347362915806	-0.00250854492187499
33.4473629155535	-0.00250244140625
33.5473629153011	-0.00249633789062501
33.6473629150486	-0.002490234375
33.7473629147961	-0.002484130859375
33.8473629145436	-0.00247802734374999
33.9473629142911	-0.0024688720703125
34.0473629140387	-0.00246276855468749
34.1473629137862	-0.00245361328125
34.2473629135337	-0.00244750976562499
34.3473629132812	-0.0024383544921875
34.4473629130288	-0.00243225097656249
34.5473629127763	-0.002423095703125
34.6473629125238	-0.00241699218749999
34.7473629122713	-0.0024078369140625
34.8473629120189	-0.00240173339843749
34.9473629117664	-0.0023956298828125
35.0473629115139	-0.00238647460937499
35.1473629112614	-0.00238037109375
35.247362911009	-0.00237426757812501
35.3473629107565	-0.0023681640625
35.447362910504	-0.002362060546875
35.5473629102515	-0.00235595703124999
35.6473629099991	-0.002349853515625
35.7473629097466	-0.00234069824218749
35.8473629094941	-0.00233154296875
35.9473629092416	-0.00232543945312499
36.0473629089892	-0.0023193359375
36.1473629087367	-0.00231323242187501
36.2473629084842	-0.0023040771484375
36.3473629082317	-0.00229492187499999
36.4473629079793	-0.0022857666015625
36.5473629077268	-0.00227966308593749
36.6473629074743	-0.0022705078125
36.7473629072218	-0.00226440429687499
36.8473629069694	-0.00226440429687499
36.9473629067169	-0.0022552490234375
37.0473629064644	-0.00224914550781249
37.1473629062119	-0.0022430419921875
37.2473629059594	-0.00223693847656251
37.347362905707	-0.0022308349609375
37.4473629054545	-0.002227783203125
37.547362905202	-0.00221862792968749
37.6473629049495	-0.002215576171875
37.7473629046971	-0.00220642089843751
37.8473629044446	-0.002197265625
37.9473629041921	-0.00218811035156249
38.0473629039396	-0.002178955078125
38.1473629036872	-0.00217285156249999
38.2473629034347	-0.0021697998046875
38.3473629031822	-0.002166748046875
38.4473629029297	-0.0021636962890625
38.5473629026773	-0.00216064453125001
38.6473629024248	-0.002154541015625
38.7473629021723	-0.0021514892578125
38.8473629019198	-0.0021484375
38.9473629016674	-0.00214538574218751
39.0473629014149	-0.00214233398437499
39.1473629011624	-0.00214233398437499
39.2473629009099	-0.0021392822265625
39.3473629006575	-0.0021392822265625
39.447362900405	-0.0021392822265625
39.5473629001525	-0.0021392822265625
39.6473628999	-0.0021392822265625
39.7473628996476	-0.0021392822265625
39.8473628993951	-0.00214233398437499
