Potential - Start -0.2 V, Upper Vertex 1.5 V, Lower Vertex -0.2 V, Stop -0.19 V; Scan - # end cross 5, Rate 0.1 Vps, Step 0.01 V 
Scan	Index	Time (s)	Potential applied (V)	WE(1).Potential (V)	WE(1).Current (A)	WE(1).Power (W)	WE(1).Resistance (Ω)	WE(1).Charge (C)
1	1	48.4392438777027	-0.189971923828125	-0.1898193359375	-2.25830078125E-07	4.28669153507144E-08	840540.5625	0
1	2	48.5399518774484	-0.179901123046875	-0.17974853515625	-1.9561767578125E-07	3.51619888760979E-08	918876.75	-2.12215809369809E-08
1	3	48.6406598771941	-0.169830322265625	-0.16961669921875	-1.71508789062499E-07	2.90907546940389E-08	988968	-3.97078672165208E-08
1	4	48.7413678769399	-0.159759521484375	-0.159576416015625	-1.50451660156251E-07	2.40085356040254E-08	1060649.125	-5.59198625182944E-08
1	5	48.8420758766856	-0.149688720703125	-0.149566650390625	-1.32141113281251E-07	1.97639025145691E-08	1131870.75	-7.01495395105667E-08
1	6	48.9427838764313	-0.139617919921875	-0.139556884765625	-1.1474609375E-07	1.60136082172357E-08	1216223.375	-8.25812946914084E-08
1	7	49.0434918761771	-0.129547119140625	-0.129486083984375	-9.85717773437506E-08	1.27636727853542E-08	1313622.375	-9.33227042310136E-08
1	8	49.1441998759228	-0.119476318359375	-0.119415283203125	-8.27026367187497E-08	9.87595871748681E-09	1443911.5	-1.024505991154E-07
1	9	49.2449078756686	-0.109405517578125	-0.109344482421875	-6.62231445312494E-08	7.24113524697145E-09	1651152.125	-1.09949603199766E-07
1	10	49.3456158754143	-0.099334716796875	-0.09930419921875	-4.8828125E-08	4.84883777573941E-09	2033750	-1.15742892603521E-07
1	11	49.44632387516	-0.089263916015625	-0.089141845703125	-2.92968749999997E-08	2.61157739878115E-09	3042708.5	-1.19676798249202E-07
1	12	49.5470318749058	-0.079193115234375	-0.079193115234375	-6.71386718749945E-09	5.31692023741925E-10	11795455	-1.21490089100007E-07
1	13	49.6477398746515	-0.069122314453125	-0.06903076171875	2.13623046875E-08	-1.47465606392672E-09	-3231428.75	-1.20752474686014E-07
1	14	49.7484478743972	-0.059051513671875	-0.058990478515625	5.67626953124997E-08	-3.34845839944364E-09	-1039247.3125	-1.16818576145761E-07
1	15	49.849155874143	-0.048980712890625	-0.0488616943359375	1.03149414062501E-07	-5.04005503998428E-09	-473698.21875	-1.08766357698187E-07
1	16	49.9498638738887	-0.038909912109375	-0.0387664794921875	1.65710449218751E-07	-6.42401065675813E-09	-233941.078125	-9.52281880017836E-08
1	17	50.0505718736345	-0.028839111328125	-0.0287017822265625	2.4871826171875E-07	-7.13865766499566E-09	-115398.7734375	-7.43600452324245E-08
1	18	50.1512798733802	-0.018768310546875	-0.0186309814453125	3.5980224609375E-07	-6.70346889108941E-09	-51781.171875	-4.37186038482196E-08
1	19	50.2519878731259	-0.008697509765625	-0.00859985351562501	5.035400390625E-07	-4.33037028457761E-09	-17078.787109375	-2.45867964876467E-10
1	20	50.3526958728717	0.001373291015625	0.00147094726562499	6.84509277343751E-07	1.0068770261995E-09	2148.90795898438	5.95771645350851E-08
1	21	50.4534038726174	0.011444091796875	0.0115234375	8.9874267578125E-07	1.03566053510917E-08	12821.732421875	1.39300226464911E-07
1	22	50.5541118723631	0.021514892578125	0.0215850830078125	1.1358642578125E-06	2.45177229629689E-08	19003.224609375	2.41750825580311E-07
1	23	50.6548198721089	0.031585693359375	0.031683349609375	1.37603759765625E-06	4.35974740753409E-08	23025.060546875	3.68235134828865E-07
1	24	50.7555278718546	0.041656494140625	0.0417236328125	1.5972900390625E-06	6.66447377284385E-08	26121.513671875	5.17954049428226E-07
1	25	50.8562358716003	0.051727294921875	0.0517578125	1.77459716796875E-06	9.18492659707226E-08	29165.951171875	6.87742044647166E-07
1	26	50.9569438713461	0.061798095703125	0.061798095703125	1.8951416015625E-06	1.17116137232642E-07	32608.697265625	8.72528062245692E-07
1	27	51.0576518710918	0.071868896484375	0.07183837890625	1.95526123046875E-06	1.40462802278307E-07	36741.0625	1.0664113005987E-06
1	28	51.1583598708376	0.081939697265625	0.08197021484375	1.96380615234375E-06	1.60973613105853E-07	41740.48046875	1.2637519830605E-06
1	29	51.2590678705833	0.092010498046875	0.092071533203125	1.93267822265625E-06	1.77944627921534E-07	47639.3515625	1.45995556977141E-06
1	30	51.359775870329	0.102081298828125	0.102081298828125	1.8780517578125E-06	1.91713965591589E-07	54354.890625	1.65184098932514E-06
1	31	51.4604838700748	0.112152099609375	0.112152099609375	1.81060791015625E-06	2.03063464709885E-07	61941.68359375	1.83757981631061E-06
1	32	51.5611918698205	0.122222900390625	0.122222900390625	1.73919677734375E-06	2.12569659652218E-07	70275.4921875	2.01632656171569E-06
1	33	51.6618998695662	0.132293701171875	0.13232421875	1.669921875E-06	2.2097110274899E-07	79239.765625	2.18798936657549E-06
1	34	51.762607869312	0.142364501953125	0.14239501953125	1.60400390625E-06	2.28402157631535E-07	88774.734375	2.35284460359253E-06
1	35	51.8633158690577	0.152435302734375	0.152496337890625	1.54388427734375E-06	2.35436687034962E-07	98774.46875	2.51135338658059E-06
1	36	51.9640238688035	0.162506103515625	0.16253662109375	1.4886474609375E-06	2.41959725144625E-07	109184.09375	2.66405345428211E-06
1	37	52.0647318685492	0.172576904296875	0.172637939453125	1.4398193359375E-06	2.48567431526681E-07	119902.5078125	2.81151346825936E-06
1	38	52.1654398682949	0.182647705078125	0.182708740234375	1.3958740234375E-06	2.55038372642957E-07	130892.0078125	2.95430209007463E-06
1	39	52.2661478680407	0.192718505859375	0.192718505859375	1.3568115234375E-06	2.61482682617498E-07	142037.796875	3.09291067424056E-06
1	40	52.3668558677864	0.202789306640625	0.202789306640625	1.322021484375E-06	2.68091810085025E-07	153393.34375	3.22780078931828E-06
1	41	52.4675638675321	0.212860107421875	0.212860107421875	1.29058837890625E-06	2.74714778925045E-07	164932.609375	3.35935601469828E-06
1	42	52.5682718672779	0.222930908203125	0.222900390625	1.26251220703125E-06	2.81414457958817E-07	176553.0625	3.48791490978329E-06
1	43	52.6689798670236	0.233001708984375	0.2330322265625	1.23687744140625E-06	2.88232314460402E-07	188403.65625	3.61376919499889E-06
1	44	52.7696878667693	0.243072509765625	0.24310302734375	1.2139892578125E-06	2.95124465310437E-07	200251.390625	3.73718012269819E-06
1	45	52.8703958665151	0.253143310546875	0.253143310546875	1.1932373046875E-06	3.02060044532482E-07	212148.34375	3.85839348382433E-06
1	46	52.9711038662608	0.263214111328125	0.26318359375	1.1749267578125E-06	3.09221434235951E-07	224000	3.97764006265788E-06
1	47	53.0718118660066	0.273284912109375	0.2733154296875	1.15814208984375E-06	3.16538091738039E-07	235994.75	4.09511949328589E-06
1	48	53.1725198657523	0.283355712890625	0.283355712890625	1.1431884765625E-06	3.23928986745159E-07	247864.390625	4.21100048697554E-06
1	49	53.273227865498	0.293426513671875	0.29339599609375	1.12945556640625E-06	3.3137771993097E-07	259767.640625	4.32543720307876E-06
1	50	53.3739358652438	0.303497314453125	0.303466796875	1.1163330078125E-06	3.38770007601852E-07	271842.53125	4.43852195530781E-06
1	51	53.4746438649895	0.313568115234375	0.313629150390625	1.104736328125E-06	3.46477492030317E-07	283895.03125	4.55036160929012E-06
1	52	53.5753518647352	0.323638916015625	0.323638916015625	1.0943603515625E-06	3.5417758681433E-07	295733.40625	4.66109486296773E-06
1	53	53.676059864481	0.333709716796875	0.333770751953125	1.085205078125E-06	3.62209732429619E-07	307564.6875	4.77084449812537E-06
1	54	53.7767678642267	0.343780517578125	0.343780517578125	1.07666015625E-06	3.70134785043774E-07	319302.71875	4.87970328322263E-06
1	55	53.8774758639724	0.353851318359375	0.35382080078125	1.06903076171875E-06	3.78245317733672E-07	330973.4375	4.98774716106709E-06
1	56	53.9781838637182	0.363922119140625	0.363861083984375	1.06231689453125E-06	3.86535759844264E-07	342516.53125	5.0950693548657E-06
1	57	54.0788918634639	0.373992919921875	0.373992919921875	1.0565185546875E-06	3.951304279326E-07	353986.15625	5.20176126883598E-06
1	58	54.1795998632097	0.384063720703125	0.384033203125	1.05133056640625E-06	4.0374581544711E-07	365283.03125	5.30789975528023E-06
1	59	54.2803078629554	0.394134521484375	0.394195556640625	1.04736328125E-06	4.12865972521104E-07	376369.46875	5.41357712791068E-06
1	60	54.3810158627011	0.404205322265625	0.4041748046875	1.043701171875E-06	4.21837683006743E-07	387251.5	5.51887069377699E-06
1	61	54.4817238624469	0.414276123046875	0.414276123046875	1.0406494140625E-06	4.31116205845683E-07	398093.84375	5.62382638236159E-06
1	62	54.5824318621926	0.424346923828125	0.42431640625	1.0382080078125E-06	4.40528680201169E-07	408700.78125	5.72850512980949E-06
1	63	54.6831398619383	0.434417724609375	0.434417724609375	1.036376953125E-06	4.50220511538646E-07	419169.625	5.83296878176043E-06
1	64	54.7838478616841	0.444488525390625	0.444488525390625	1.0345458984375E-06	4.59843789712977E-07	429646.03125	5.9372478062869E-06
1	65	54.8845558614298	0.454559326171875	0.454559326171875	1.03363037109375E-06	4.69846327177947E-07	439769.6875	6.04138858761871E-06
1	66	54.9852638611756	0.464630126953125	0.464630126953125	1.03240966796875E-06	4.7968859462344E-07	450044.375	6.14542204857571E-06
1	67	55.0859718609213	0.474700927734375	0.4747314453125	1.0321044921875E-06	4.89972478590062E-07	459964.53125	6.24937865723041E-06
1	68	55.186679860667	0.484771728515625	0.4847412109375	1.03240966796875E-06	5.00451506013633E-07	469524.125	6.35333526588511E-06
1	69	55.2873878604128	0.494842529296875	0.49481201171875	1.03302001953125E-06	5.11150687998452E-07	478995.59375	6.45733780402225E-06
1	70	55.3880958601585	0.504913330078125	0.504913330078125	1.033935546875E-06	5.22047798767744E-07	488341.21875	6.56141719446168E-06
1	71	55.4888038599042	0.514984130859375	0.514984130859375	1.03546142578125E-06	5.33246179656999E-07	497347.46875	6.66561982143321E-06
1	72	55.58951185965	0.525054931640625	0.525054931640625	1.03729248046875E-06	5.44635497590207E-07	506178.28125	6.76999115967192E-06
1	73	55.6902198593957	0.535125732421875	0.53515625	1.03973388671875E-06	5.56420104658173E-07	514705.03125	6.87457804815494E-06
1	74	55.7909278591414	0.545196533203125	0.545135498046875	1.04217529296875E-06	5.68126779398881E-07	523074.65625	6.97941050020745E-06
1	75	55.8916358588872	0.555267333984375	0.555206298828125	1.04522705078125E-06	5.80316623199906E-07	531182.5	7.08451943864929E-06
1	76	55.9923438586329	0.565338134765625	0.56536865234375	1.048583984375E-06	5.92836499890836E-07	539173.5	7.18995124771027E-06
1	77	56.0930518583787	0.575408935546875	0.575439453125	1.05194091796875E-06	6.0532829593285E-07	547026.4375	7.29572093405295E-06
1	78	56.1937598581244	0.585479736328125	0.58544921875	1.055908203125E-06	6.18180649780697E-07	554450.875	7.4018594204972E-06
1	79	56.2944678578701	0.595550537109375	0.59552001953125	1.06048583984375E-06	6.31540558515553E-07	561553.9375	7.50842855268274E-06
1	80	56.3951758576159	0.605621337890625	0.605560302734375	1.06475830078125E-06	6.44775354885496E-07	568730.3125	7.6154428825248E-06
1	81	56.4958838573616	0.615692138671875	0.615692138671875	1.0693359375E-06	6.58381679841114E-07	575770.5625	7.72290331951808E-06
1	82	56.5965918571073	0.625762939453125	0.625701904296875	1.07452392578125E-06	6.72331623263744E-07	582306.1875	7.83085488365032E-06
1	83	56.6972998568531	0.635833740234375	0.63580322265625	1.07940673828125E-06	6.86290263729461E-07	589030.25	7.93931394582614E-06
1	84	56.7980078565988	0.645904541015625	0.64581298828125	1.0845947265625E-06	7.00445355050761E-07	595441.75	8.04828050604556E-06
1	85	56.8987158563446	0.655975341796875	0.6558837890625	1.090087890625E-06	7.14970951776195E-07	601679.75	8.15778457763372E-06
1	86	56.9994238560903	0.666046142578125	0.665985107421875	1.09527587890625E-06	7.29437374502595E-07	608052.4375	8.26782616059063E-06
1	87	57.100131855836	0.676116943359375	0.676055908203125	1.10015869140625E-06	7.43768794109201E-07	614507.625	8.37837524159113E-06
1	88	57.2008398555818	0.686187744140625	0.686126708984375	1.10443115234375E-06	7.57779673676851E-07	621249	8.48938452691073E-06
1	89	57.3015478553275	0.696258544921875	0.69622802734375	1.1083984375E-06	7.71698069002014E-07	628138.75	8.60080945130903E-06
1	90	57.4022558550732	0.706329345703125	0.70623779296875	1.112060546875E-06	7.85379199896852E-07	635071.375	8.71261909196619E-06
1	91	57.502963854819	0.716400146484375	0.71630859375	1.1151123046875E-06	7.98764460796519E-07	642364.5625	8.8247661551577E-06
1	92	57.6036718545647	0.726470947265625	0.726348876953125	1.11785888671875E-06	8.11955544577359E-07	649767.9375	8.93720516614849E-06
1	93	57.7043798543104	0.736541748046875	0.736480712890625	1.1199951171875E-06	8.24854794245766E-07	657574.9375	9.04988974070875E-06
1	94	57.8050878540562	0.746612548828125	0.746490478515625	1.1224365234375E-06	8.37888194382685E-07	665062.5625	9.16280532692326E-06
1	95	57.9057958538019	0.756683349609375	0.7568359375	1.124267578125E-06	8.50886067382817E-07	673181.3125	9.27593555388739E-06
1	96	58.0065038535477	0.766754150390625	0.76690673828125	1.126708984375E-06	8.64080732299044E-07	680660.875	9.38928133109584E-06
1	97	58.1072118532934	0.776824951171875	0.7769775390625	1.129150390625E-06	8.77324509929167E-07	688108.125	9.50287267187377E-06
1	98	58.2079198530391	0.786895751953125	0.78704833984375	1.131591796875E-06	8.90617400273186E-07	695523.25	9.61671048571588E-06
1	99	58.3086278527849	0.796966552734375	0.797119140625	1.13433837890625E-06	9.04202863694081E-07	702717.25	9.7308084150427E-06
1	100	58.4093358525306	0.807037353515625	0.8074951171875	1.1383056640625E-06	9.19176216029882E-07	709383.4375	9.84524558589328E-06
1	101	58.5100438522763	0.817108154296875	0.81756591796875	1.1419677734375E-06	9.33633941713197E-07	715927.3125	9.96006656350801E-06
1	102	58.6107518520221	0.827178955078125	0.8270263671875	1.14532470703125E-06	9.47213663948787E-07	722089.0625	1.0075240425067E-05
1	103	58.7114598517678	0.837249755859375	0.83740234375	1.15020751953125E-06	9.63186494118418E-07	728044.625	1.01908299257047E-05
1	104	58.8121678515135	0.847320556640625	0.84808349609375	1.15478515625E-06	9.79354126684484E-07	734408.0625	1.03068960015662E-05
1	105	58.9128758512593	0.857391357421875	0.858154296875	1.15966796875E-06	9.9517399121396E-07	740000	1.04234377431567E-05
1	106	59.013583851005	0.867462158203125	0.86700439453125	1.16455078125E-06	1.00967065463919E-06	744496.875	1.05404715213808E-05
1	107	59.1142918507508	0.877532958984375	0.877685546875	1.168212890625E-06	1.02532351320406E-06	751306.1875	1.06579354905989E-05
1	108	59.2149998504965	0.887603759765625	0.88775634765625	1.17340087890625E-06	1.04169407677546E-06	756567	1.07758451122208E-05
1	109	59.3157078502422	0.897674560546875	0.8978271484375	1.17767333984375E-06	1.05734704902716E-06	762373.6875	1.08942313090665E-05
1	110	59.416415849988	0.907745361328125	0.9075927734375	1.181640625E-06	1.07244852642907E-06	768078.5	1.10130313260015E-05
1	111	59.5171238497337	0.917816162109375	0.91827392578125	1.18560791015625E-06	1.0887127928072E-06	774517.4375	1.11322324301E-05
1	112	59.6178318494794	0.927886962890625	0.927734375	1.18988037109375E-06	1.10389282781398E-06	779687.125	1.12518473542877E-05
1	113	59.7185398492252	0.937957763671875	0.93841552734375	1.1944580078125E-06	1.1208978776267E-06	785641.3125	1.13719088403741E-05
1	114	59.8192478489709	0.948028564453125	0.94818115234375	1.19873046875E-06	1.13661360501283E-06	790987.8125	1.14924150693696E-05
1	115	59.9199558487167	0.958099365234375	0.9576416015625	1.20269775390625E-06	1.15175339487905E-06	796244.625	1.16133369374438E-05
1	116	60.0206638484624	0.968170166015625	0.968017578125	1.2066650390625E-06	1.16807302674715E-06	802225.5625	1.17346580736921E-05
1	117	60.1213718482081	0.978240966796875	0.9783935546875	1.21124267578125E-06	1.18507205115748E-06	807760.1875	1.18564094009344E-05
1	118	60.2220798479539	0.988311767578125	0.98846435546875	1.214599609375E-06	1.20058837183024E-06	813819.125	1.19785599963507E-05
1	119	60.3227878476996	0.998382568359375	0.99853515625	1.21978759765625E-06	1.21800076158252E-06	818614	1.21011407827609E-05
1	120	60.4234958474453	1.00845336914063	1.00860595703125	1.22344970703125E-06	1.23397865081643E-06	824395.125	1.22241681310697E-05
1	121	60.5242038471911	1.01852416992188	1.01837158203125	1.22833251953125E-06	1.25089889024821E-06	829068.3125	1.23476247608778E-05
1	122	60.6249118469368	1.02859497070313	1.0284423828125	1.23260498046875E-06	1.26766315133864E-06	834364.9375	1.24715425044997E-05
1	123	60.7256198466825	1.03866577148438	1.03851318359375	1.2371826171875E-06	1.28483043226879E-06	839417.875	1.25959068100201E-05
1	124	60.8263278464283	1.04873657226563	1.04888916015625	1.24176025390625E-06	1.30246883145446E-06	844679.3125	1.27207313198596E-05
1	125	60.927035846174	1.05880737304688	1.0589599609375	1.24664306640625E-06	1.32014508835709E-06	849449.25	1.28460324049229E-05
1	126	61.0277438459198	1.06887817382813	1.0687255859375	1.25152587890625E-06	1.33753769659961E-06	853938.0625	1.29718246171251E-05
1	127	61.1284518456655	1.07894897460938	1.07879638671875	1.256103515625E-06	1.35507991672057E-06	858843.5625	1.30980943140457E-05
1	128	61.2291598454112	1.08901977539063	1.08856201171875	1.2615966796875E-06	1.3733260857407E-06	862844.75	1.32248705995153E-05
1	129	61.329867845157	1.09909057617188	1.09954833984375	1.26678466796875E-06	1.39289090839156E-06	867983.6875	1.33521843963536E-05
1	130	61.4305758449027	1.10916137695313	1.1090087890625	1.2725830078125E-06	1.41130567499204E-06	871462.875	1.34800520754652E-05
1	131	61.5312838446484	1.11923217773438	1.119384765625	1.2774658203125E-06	1.42997578223003E-06	876254.1875	1.36084572659456E-05
1	132	61.6319918443942	1.12930297851563	1.12945556640625	1.28326416015625E-06	1.44938985613408E-06	880142.6875	1.37373999677948E-05
1	133	61.7326998441399	1.13937377929688	1.138916015625	1.28997802734375E-06	1.46917659549217E-06	882895.75	1.38669729494723E-05
1	134	61.8334078438857	1.14944458007813	1.1492919921875	1.29638671875E-06	1.48992683079996E-06	886534.875	1.39972071337979E-05
1	135	61.9341158436314	1.15951538085938	1.15966796875	1.30340576171875E-06	1.51151789395954E-06	889721.375	1.4128117072687E-05
1	136	62.0348238433771	1.16958618164063	1.16943359375	1.31011962890625E-06	1.53209794007125E-06	892615.875	1.42597182275495E-05
1	137	62.1355318431229	1.17965698242188	1.1798095703125	1.3177490234375E-06	1.55469285800791E-06	895321.9375	1.43920424306998E-05
1	138	62.2362398428686	1.18972778320313	1.18927001953125	1.32568359375E-06	1.57659576416336E-06	897099.4375	1.45251497087884E-05
1	139	62.3369478426143	1.19979858398438	1.199951171875	1.334228515625E-06	1.60100910306937E-06	899359.5625	1.4659086446045E-05
1	140	62.4376558423601	1.20986938476563	1.21002197265625	1.3433837890625E-06	1.62552385063464E-06	900727	1.4793915397604E-05
1	141	62.5383638421058	1.21994018554688	1.21917724609375	1.353759765625E-06	1.65047310929367E-06	900586.125	1.49297266034409E-05
1	142	62.6390718418515	1.23001098632813	1.2298583984375	1.36444091796875E-06	1.6780691112217E-06	901364.375	1.50665991895949E-05
1	143	62.7397798415973	1.24008178710938	1.23992919921875	1.375732421875E-06	1.70581074598886E-06	901286.625	1.52045777213061E-05
1	144	62.840487841343	1.25015258789063	1.25030517578125	1.38702392578125E-06	1.73420312421513E-06	901430.1875	1.53436940308893E-05
1	145	62.9411958410888	1.26022338867188	1.2603759765625	1.39892578125E-06	1.763172349456E-06	900959.875	1.54839781316696E-05
1	146	63.0419038408345	1.27029418945313	1.2701416015625	1.41204833984375E-06	1.79350126927602E-06	899502.9375	1.56255209731171E-05
1	147	63.1426118405802	1.28036499023438	1.28021240234375	1.42547607421875E-06	1.82491214673064E-06	898094.625	1.57684025907656E-05
1	148	63.243319840326	1.29043579101563	1.28997802734375	1.43890380859375E-06	1.85615419923124E-06	896500.5625	1.5912635717541E-05
1	149	63.3440278400717	1.30050659179688	1.3006591796875	1.45294189453125E-06	1.88978219739511E-06	895190.0625	1.6058251276263E-05
1	150	63.4447358398174	1.31057739257813	1.31103515625	1.46881103515625E-06	1.92566290024843E-06	892582.625	1.62053729582112E-05
1	151	63.5454438395632	1.32064819335938	1.32080078125	1.484375E-06	1.96056362256058E-06	889802.6875	1.63540771609405E-05
1	152	63.6461518393089	1.33071899414063	1.33087158203125	1.500244140625E-06	1.9966323634435E-06	887103.3125	1.65043657034403E-05
1	153	63.7468598390547	1.34078979492188	1.34063720703125	1.5167236328125E-06	2.0333761767688E-06	883903.4375	1.66562822414562E-05
1	154	63.8475678388004	1.35086059570313	1.35101318359375	1.53411865234375E-06	2.07261450668739E-06	880644.5625	1.68099031725433E-05
1	155	63.9482758385461	1.36093139648438	1.36138916015625	1.55120849609375E-06	2.11179849429755E-06	877631.3125	1.69652630575001E-05
1	156	64.0489838382919	1.37100219726563	1.37115478515625	1.56982421875E-06	2.15247200685553E-06	873444.75	1.71224182849983E-05
1	157	64.1496918380376	1.38107299804688	1.38092041015625	1.58843994140625E-06	2.19350908992055E-06	869356.4375	1.72814507095609E-05
1	158	64.2503998377833	1.39114379882813	1.3909912109375	1.607666015625E-06	2.23624920181464E-06	865224.0625	1.74423857970396E-05
1	159	64.3511078375291	1.40121459960938	1.40106201171875	1.62811279296875E-06	2.2810868358647E-06	860543.625	1.76053217728622E-05
1	160	64.4518158372748	1.41128540039063	1.4105224609375	1.6510009765625E-06	2.32877391681541E-06	854343.8125	1.77704368979903E-05
1	161	64.5525238370205	1.42135620117188	1.42120361328125	1.67633056640625E-06	2.38240704675263E-06	847806.3125	1.79379821929615E-05
1	162	64.6532318367663	1.43142700195313	1.43157958984375	1.70501708984375E-06	2.44086777456687E-06	839627.6875	1.8108246877091E-05
1	163	64.753939836512	1.44149780273438	1.441650390625	1.73919677734375E-06	2.50731363848899E-06	828917.375	1.82816766027827E-05
1	164	64.8546478362578	1.45156860351563	1.4520263671875	1.778564453125E-06	2.5825224838627E-06	816403.5625	1.84588097909E-05
1	165	64.9553558360035	1.46163940429688	1.46148681640625	1.824951171875E-06	2.66714209828933E-06	800836.125	1.86402612598613E-05
1	166	65.0560638357492	1.47171020507813	1.47125244140625	1.88018798828125E-06	2.76623109130014E-06	782502.875	1.88268295460148E-05
1	167	65.156771835495	1.48178100585938	1.48193359375	1.94488525390625E-06	2.88219075628149E-06	761964.5	1.9019436876988E-05
1	168	65.2574798352407	1.49185180664063	1.49169921875	2.01904296875E-06	3.01180489259423E-06	738815	1.92190364032285E-05
1	169	65.3581878349864	1.50192260742188	1.50238037109375	2.1014404296875E-06	3.15716283694201E-06	714928.8125	1.9426519429544E-05
1	170	65.4588958347322	1.49185180664063	1.49139404296875	1.83990478515625E-06	2.74402282229858E-06	810582.1875	1.96249820874073E-05
1	171	65.5596038344779	1.48178100585938	1.48162841796875	1.65191650390625E-06	2.44752641265222E-06	896914.875	1.98008092411328E-05
1	172	65.6603118342236	1.47171020507813	1.47186279296875	1.5057373046875E-06	2.21623872675991E-06	977503.0625	1.99598107428756E-05
1	173	65.7610198339694	1.46163940429688	1.46209716796875	1.3873291015625E-06	2.02840988094977E-06	1053893.5	2.01054881472373E-05
1	174	65.8617278337151	1.45156860351563	1.45172119140625	1.28936767578125E-06	1.87180239663576E-06	1125917.125	2.02402698050719E-05
1	175	65.9624358334609	1.44149780273438	1.4410400390625	1.207275390625E-06	1.73973205619404E-06	1193630	2.03659856197191E-05
1	176	66.0631438332066	1.43142700195313	1.43157958984375	1.13861083984375E-06	1.63001209330105E-06	1257303.625	2.04841107915854E-05
1	177	66.1638518329523	1.42135620117188	1.4215087890625	1.08001708984375E-06	1.53525377299957E-06	1316191	2.0595827663783E-05
1	178	66.2645598326981	1.41128540039063	1.4111328125	1.0302734375E-06	1.45385263294884E-06	1369668.25	2.07020893867593E-05
1	179	66.3652678324438	1.40121459960938	1.4013671875	9.86328124999999E-07	1.3822078699377E-06	1420792.125	2.08036326512229E-05
1	180	66.4659758321895	1.39114379882813	1.39129638671875	9.4970703125E-07	1.32132390717743E-06	1464974.375	2.09011195693165E-05
1	181	66.5666838319353	1.38107299804688	1.3812255859375	9.16442871093751E-07	1.26581426229677E-06	1507159.5	2.09950885619037E-05
1	182	66.667391831681	1.37100219726563	1.370849609375	8.87451171875001E-07	1.21656205465115E-06	1544704.25	2.10859216167592E-05
1	183	66.7680998314268	1.36093139648438	1.361083984375	8.612060546875E-07	1.17217371098377E-06	1580439.375	2.11739734368166E-05
1	184	66.8688078311725	1.35086059570313	1.3507080078125	8.3740234375E-07	1.13108603727596E-06	1612973.875	2.12595041375607E-05
1	185	66.9695158309182	1.34078979492188	1.34063720703125	8.1634521484375E-07	1.09442282791861E-06	1642243	2.13427774724551E-05
1	186	67.070223830664	1.33071899414063	1.33087158203125	7.97424316406251E-07	1.06126935861539E-06	1668962.875	2.14240371860797E-05
1	187	67.1709318304097	1.32064819335938	1.32049560546875	7.794189453125E-07	1.0292193337591E-06	1694205.125	2.15034378925338E-05
1	188	67.2716398301554	1.31057739257813	1.3104248046875	7.6324462890625E-07	1.00017462045798E-06	1716913.25	2.15811178350123E-05
1	189	67.3723478299012	1.30050659179688	1.30035400390625	7.48291015624999E-07	9.73043142948882E-07	1737765.25	2.16572298086248E-05
1	190	67.4730558296469	1.29043579101563	1.29058837890625	7.3394775390625E-07	9.47224407354952E-07	1758420	2.17318665818311E-05
1	191	67.5737638293926	1.28036499023438	1.28021240234375	7.2052001953125E-07	9.22418621485122E-07	1776789.5	2.18051045521861E-05
1	192	67.6744718291384	1.27029418945313	1.2701416015625	7.0770263671875E-07	8.98882547062385E-07	1794739.125	2.18770201172447E-05
1	193	67.7751798288841	1.26022338867188	1.2603759765625	6.9549560546875E-07	8.76585943387909E-07	1812198.375	2.1947676941636E-05
1	194	67.8758878286299	1.25015258789063	1.25030517578125	6.8389892578125E-07	8.55082362249959E-07	1828201.75	2.20171350520104E-05
1	195	67.9765958283756	1.24008178710938	1.240234375	6.72607421875E-07	8.34190871046303E-07	1843920.125	2.20854417420924E-05
1	196	68.0773038281213	1.23001098632813	1.2298583984375	6.61621093750001E-07	8.13700239632453E-07	1858856.125	2.21526242967229E-05
1	197	68.1780118278671	1.21994018554688	1.21978759765625	6.5185546875E-07	7.95125174590794E-07	1871254.75	2.22187627514359E-05
1	198	68.2787198276128	1.20986938476563	1.209716796875	6.41784667968751E-07	7.76377646616311E-07	1884926.375	2.22839025809662E-05
1	199	68.3794278273585	1.19979858398438	1.19964599609375	6.3201904296875E-07	7.58199064421206E-07	1898117	2.23480437853141E-05
1	200	68.4801358271043	1.18972778320313	1.18988037109375	6.2255859375E-07	7.40770190077455E-07	1911274.625	2.24112172872992E-05
1	201	68.58084382685	1.17965698242188	1.17950439453125	6.1370849609375E-07	7.23871892205352E-07	1921929.375	2.24734685616568E-05
1	202	68.6815518265958	1.16958618164063	1.16973876953125	6.03637695312501E-07	7.06098376213049E-07	1937816.125	2.25347666855669E-05
1	203	68.7822598263415	1.15951538085938	1.15936279296875	5.9417724609375E-07	6.88866975906421E-07	1951207.125	2.25950807362096E-05
1	204	68.8829678260872	1.14944458007813	1.14990234375	5.85327148437501E-07	6.73069052936626E-07	1964546.375	2.26544743782142E-05
1	205	68.983675825833	1.13937377929688	1.138916015625	5.7647705078125E-07	6.56558938771923E-07	1975648.625	2.27129748964217E-05
1	206	69.0843838255787	1.12930297851563	1.12945556640625	5.67626953125E-07	6.41109409116325E-07	1989785	2.27705859288108E-05
1	207	69.1850918253244	1.11923217773438	1.119384765625	5.5877685546875E-07	6.25486279659526E-07	2003277	2.28273056563921E-05
1	208	69.2857998250702	1.10916137695313	1.10931396484375	5.4962158203125E-07	6.09702908604959E-07	2018323.125	2.28831177082611E-05
1	209	69.3865078248159	1.09909057617188	1.09893798828125	5.4046630859375E-07	5.93938977999642E-07	2033314.5	2.29380075325025E-05
1	210	69.4872158245616	1.08901977539063	1.0888671875	5.31921386718751E-07	5.79191748784069E-07	2047045.375	2.29920060519362E-05
1	211	69.5879238243074	1.07894897460938	1.0791015625	5.23681640625E-07	5.65105665373267E-07	2060606	2.30451605602866E-05
1	212	69.6886318240531	1.06887817382813	1.0687255859375	5.14831542968749E-07	5.50213599126437E-07	2075874.375	2.30974528676597E-05
1	213	69.7893398237989	1.05880737304688	1.0589599609375	5.0628662109375E-07	5.36137235940259E-07	2091621.5	2.31488702411298E-05
1	214	69.8900478235446	1.04873657226563	1.04827880859375	4.974365234375E-07	5.21452193424921E-07	2107362	2.31994126806967E-05
1	215	69.9907558232903	1.03866577148438	1.0382080078125	4.89501953125E-07	5.08204834659409E-07	2120947.75	2.3249109290191E-05
1	216	70.0914638230361	1.02859497070313	1.0284423828125	4.8095703125E-07	4.9463653795101E-07	2138325	2.32979746215278E-05
1	217	70.1921718227818	1.01852416992188	1.01837158203125	4.730224609375E-07	4.81712618238817E-07	2152903.25	2.33460123126861E-05
1	218	70.2928798225275	1.00845336914063	1.0089111328125	4.64782714843751E-07	4.68924469032572E-07	2170715.75	2.33932350965915E-05
1	219	70.3935878222733	0.998382568359375	0.99884033203125	4.57153320312501E-07	4.56623155287161E-07	2184913.25	2.34396575251594E-05
1	220	70.494295822019	0.988311767578125	0.9881591796875	4.4891357421875E-07	4.43598054289396E-07	2201223.75	2.34852814173792E-05
1	221	70.5950038217647	0.978240966796875	0.97869873046875	4.40673828125E-07	4.31286906632522E-07	2220914	2.35300758504309E-05
1	222	70.6957118215105	0.968170166015625	0.968017578125	4.33349609375E-07	4.19490049807791E-07	2233802.75	2.35740862990497E-05
1	223	70.7964198212562	0.958099365234375	0.95794677734375	4.2572021484375E-07	4.07817282166434E-07	2250179.25	2.36173436860554E-05
1	224	70.897127821002	0.948028564453125	0.9478759765625	4.180908203125E-07	3.96298247551385E-07	2267153.25	2.36598334595328E-05
1	225	70.9978358207477	0.937957763671875	0.93780517578125	4.107666015625E-07	3.85219038889772E-07	2283061	2.37015701713972E-05
1	226	71.0985438204934	0.927886962890625	0.927734375	4.0252685546875E-07	3.73437984535485E-07	2304776.5	2.37425228988286E-05
1	227	71.1992518202392	0.917816162109375	0.91796875	3.94287109374999E-07	3.6194322206029E-07	2328173.5	2.37826443481026E-05
1	228	71.2999598199849	0.907745361328125	0.9075927734375	3.863525390625E-07	3.50650765312821E-07	2349131.25	2.38219527091132E-05
1	229	71.4006678197306	0.897674560546875	0.8978271484375	3.7811279296875E-07	3.39479925060004E-07	2374495.5	2.38604461628711E-05
1	230	71.5013758194764	0.887603759765625	0.8880615234375	3.7078857421875E-07	3.29283068367658E-07	2395061.75	2.38981574511854E-05
1	231	71.6020838192221	0.877532958984375	0.877685546875	3.62243652343749E-07	3.17936013516373E-07	2422915	2.39350683841622E-05
1	232	71.7027918189679	0.867462158203125	0.86761474609375	3.54919433593751E-07	3.07933333942856E-07	2444540	2.39711807807907E-05
1	233	71.8034998187136	0.857391357421875	0.85784912109375	3.47290039062501E-07	2.97922468917022E-07	2470123	2.40065401158063E-05
1	234	71.9042078184593	0.847320556640625	0.8477783203125	3.39660644531251E-07	2.87956908096021E-07	2495957	2.40411300183041E-05
1	235	72.0049158182051	0.837249755859375	0.83740234375	3.3233642578125E-07	2.78299296496698E-07	2519743	2.40749686781783E-05
1	236	72.1056238179508	0.827178955078125	0.82733154296875	3.25927734375001E-07	2.69650286099932E-07	2538389.75	2.41081143030897E-05
1	237	72.2063318176965	0.817108154296875	0.81756591796875	3.1890869140625E-07	2.60728882039984E-07	2563636.5	2.41405850829324E-05
1	238	72.3070398174423	0.807037353515625	0.806884765625	3.131103515625E-07	2.52643957310283E-07	2576998	2.41724083025474E-05
1	239	72.407747817188	0.796966552734375	0.79681396484375	3.070068359375E-07	2.44627329948344E-07	2595427.5	2.42036348936381E-05
1	240	72.5084558169337	0.786895751953125	0.787353515625	3.01513671875001E-07	2.37397841829079E-07	2611336	2.42342757701408E-05
1	241	72.6091638166795	0.776824951171875	0.77728271484375	2.9632568359375E-07	2.30328822681258E-07	2623069	2.42643800447695E-05
1	242	72.7098718164252	0.766754150390625	0.76690673828125	2.90832519531251E-07	2.23041411118174E-07	2636936.25	2.42939458985347E-05
1	243	72.810579816171	0.756683349609375	0.75714111328125	2.85949707031249E-07	2.16504275840634E-07	2647812.25	2.43229878833517E-05
1	244	72.9112878159167	0.746612548828125	0.746551513671875	2.79846191406249E-07	2.08919587407763E-07	2667721	2.43514787143795E-05
1	245	73.0119958156624	0.736541748046875	0.736419677734375	2.7496337890625E-07	2.02488450895544E-07	2678246.25	2.43794147536391E-05
1	246	73.1127038154082	0.726470947265625	0.726409912109375	2.7008056640625E-07	1.96189191115081E-07	2689604.5	2.44068596657598E-05
1	247	73.2134118151539	0.716400146484375	0.71630859375	2.64892578125001E-07	1.89744824297122E-07	2704147.5	2.44337988988264E-05
1	248	73.3141198148996	0.706329345703125	0.706298828125	2.58789062500001E-07	1.8278240077052E-07	2729245.5	2.44601687882096E-05
1	249	73.4148278146454	0.696258544921875	0.6961669921875	2.532958984375E-07	1.76336243384867E-07	2748433.75	2.44859529630048E-05
1	250	73.5155358143911	0.686187744140625	0.6861572265625	2.471923828125E-07	1.69612846434575E-07	2775802.5	2.45111550611909E-05
1	251	73.6162438141369	0.676116943359375	0.676116943359375	2.42004394531251E-07	1.63623255389211E-07	2793821.25	2.45357878156938E-05
1	252	73.7169518138826	0.666046142578125	0.665924072265625	2.3681640625E-07	1.57701748548789E-07	2811984.5	2.45598985202378E-05
1	253	73.8176598136283	0.655975341796875	0.655853271484375	2.3162841796875E-07	1.5191425006833E-07	2831489	2.45834871748229E-05
1	254	73.9183678133741	0.645904541015625	0.645843505859375	2.26745605468751E-07	1.4644217571913E-07	2848317.75	2.46065683313645E-05
1	255	74.0190758131198	0.635833740234375	0.6357421875	2.21862792968749E-07	1.41047536317274E-07	2865474.5	2.46291565417778E-05
1	256	74.1197838128655	0.625762939453125	0.625732421875	2.178955078125E-07	1.36344283419021E-07	2871708.75	2.46513009187765E-05
1	257	74.2204918126113	0.615692138671875	0.6156005859375	2.1392822265625E-07	1.31694335436805E-07	2877603.5	2.46730451181065E-05
1	258	74.321199812357	0.605621337890625	0.6055908203125	2.1087646484375E-07	1.27704851138333E-07	2871780	2.46944346145028E-05
1	259	74.4219078121027	0.595550537109375	0.59552001953125	2.08129882812499E-07	1.23945511631973E-07	2861290.5	2.47155330725946E-05
1	260	74.5226158118485	0.585479736328125	0.58538818359375	2.0477294921875E-07	1.19871657489057E-07	2858718.5	2.47363259404665E-05
1	261	74.6233238115942	0.575408935546875	0.575408935546875	2.0172119140625E-07	1.16072179423554E-07	2852496.25	2.47567932092352E-05
1	262	74.72403181134	0.565338134765625	0.565277099609375	1.995849609375E-07	1.1282080691899E-07	2832263	2.47770003625192E-05
1	263	74.8247398110857	0.555267333984375	0.555206298828125	1.97753906250001E-07	1.09794214608883E-07	2807561.75	2.47970092459582E-05
1	264	74.9254478108314	0.545196533203125	0.545166015625	1.953125E-07	1.0647773507344E-07	2791250	2.48168016696582E-05
1	265	75.0261558105772	0.535125732421875	0.535064697265625	1.934814453125E-07	1.03525088945844E-07	2765457.5	2.48363776336191E-05
1	266	75.1268638103229	0.525054931640625	0.525054931640625	1.91650390625001E-07	1.00626976973217E-07	2739649.75	2.48557716986397E-05
1	267	75.2275718100686	0.514984130859375	0.5150146484375	1.89208984375E-07	9.74453939761588E-08	2721935.5	2.48749493039213E-05
1	268	75.3282798098144	0.504913330078125	0.5048828125	1.87072753906251E-07	9.44498097510404E-08	2698858.25	2.48938958975486E-05
1	269	75.4289878095601	0.494842529296875	0.494842529296875	1.85546875000001E-07	9.18164815288947E-08	2666941	2.49126587732462E-05
1	270	75.5296958093058	0.484771728515625	0.484710693359375	1.8280029296875E-07	8.86052546889005E-08	2651586	2.49312070081942E-05
1	271	75.6304038090516	0.474700927734375	0.4747314453125	1.80664062499999E-07	8.57669135712058E-08	2627702.75	2.49495096795727E-05
1	272	75.7311118087973	0.464630126953125	0.464630126953125	1.7852783203125E-07	8.29494055665236E-08	2602564.25	2.49675958912121E-05
1	273	75.8318198085431	0.454559326171875	0.454559326171875	1.7669677734375E-07	8.03191682052784E-08	2572539	2.49854820140172E-05
1	274	75.9325278082888	0.444488525390625	0.44451904296875	1.7425537109375E-07	7.74598234443147E-08	2550963.25	2.5003155315062E-05
1	275	76.0332358080345	0.434417724609375	0.43438720703125	1.71813964843751E-07	7.46337889268034E-08	2528241.5	2.5020581233548E-05
1	276	76.1339438077803	0.424346923828125	0.424285888671875	1.6937255859375E-07	7.18623880402447E-08	2505045	2.50377597694751E-05
1	277	76.234651807526	0.414276123046875	0.414276123046875	1.666259765625E-07	6.90291628302475E-08	2486264	2.50546800089069E-05
1	278	76.3353598072717	0.404205322265625	0.4041748046875	1.6448974609375E-07	6.64826131924201E-08	2457142.75	2.50713528657798E-05
1	279	76.4360678070175	0.394134521484375	0.39422607421875	1.6204833984375E-07	6.38836823441125E-08	2432768.5	2.50877947109984E-05
1	280	76.5367758067632	0.384063720703125	0.384002685546875	1.59606933593751E-07	6.12894908158523E-08	2405927.5	2.51039909926476E-05
1	281	76.637483806509	0.373992919921875	0.373992919921875	1.57775878906249E-07	5.9007060571048E-08	2370406.25	2.51199726335471E-05
1	282	76.7381918062547	0.363922119140625	0.36395263671875	1.556396484375E-07	5.66454581019116E-08	2338431.5	2.51357541856123E-05
1	283	76.8388998060004	0.353851318359375	0.353790283203125	1.5411376953125E-07	5.45239515759022E-08	2295643.75	2.51513520197477E-05
1	284	76.9396078057462	0.343780517578125	0.343841552734375	1.5106201171875E-07	5.19413951849401E-08	2276161.75	2.51667188422289E-05
1	285	77.0403158054919	0.333709716796875	0.333709716796875	1.4923095703125E-07	4.97998193793592E-08	2236196.25	2.51818401011406E-05
1	286	77.1410238052376	0.323638916015625	0.32366943359375	1.4678955078125E-07	4.75112891251683E-08	2204989.75	2.51967449003132E-05
1	287	77.2417318049834	0.313568115234375	0.313629150390625	1.44348144531251E-07	4.52717827670313E-08	2172727.5	2.52114059549058E-05
1	288	77.3424398047291	0.303497314453125	0.303436279296875	1.416015625E-07	4.29670521384651E-08	2142888	2.52258050750243E-05
1	289	77.4431478044748	0.293426513671875	0.293426513671875	1.3885498046875E-07	4.07437319438486E-08	2113187	2.5239925889764E-05
1	290	77.5438558042206	0.283355712890625	0.283294677734375	1.3580322265625E-07	3.84723293223033E-08	2086067.5	2.52537574851885E-05
1	291	77.6445638039663	0.273284912109375	0.273284912109375	1.3275146484375E-07	3.62789727148538E-08	2058620.625	2.52672798524145E-05
1	292	77.7452718037121	0.263214111328125	0.263214111328125	1.2969970703125E-07	3.4138789573035E-08	2029411.875	2.52804948104313E-05
1	293	77.8459798034578	0.253143310546875	0.253143310546875	1.263427734375E-07	3.19828252770549E-08	2003623.25	2.52933878073236E-05
1	294	77.9466878032035	0.243072509765625	0.243072509765625	1.22680664062499E-07	2.98202955661964E-08	1981343.375	2.53059279202716E-05
1	295	78.0473958029493	0.233001708984375	0.23297119140625	1.18408203125001E-07	2.75857008347202E-08	1967525.75	2.53180660365615E-05
1	296	78.148103802695	0.222930908203125	0.222900390625	1.13525390624999E-07	2.53048533238598E-08	1963440.875	2.53297457675217E-05
1	297	78.2488118024407	0.212860107421875	0.212890625	1.09252929687501E-07	2.32589254522964E-08	1948603.375	2.53409634751733E-05
1	298	78.3495198021865	0.202789306640625	0.202789306640625	1.04370117187499E-07	2.11651443038363E-08	1942982.5	2.53517209785059E-05
1	299	78.4502278019322	0.192718505859375	0.192718505859375	9.70458984375006E-08	1.87025399611684E-08	1985849	2.53618618444307E-05
1	300	78.550935801678	0.182647705078125	0.18267822265625	8.91113281249995E-08	1.62786975010931E-08	2050000.125	2.53712369158166E-05
1	301	78.6516438014237	0.172576904296875	0.172515869140625	7.96508789062497E-08	1.37410394174253E-08	2165900.5	2.53797334153205E-05
1	302	78.7523518011694	0.162506103515625	0.1624755859375	6.68334960937503E-08	1.0858810739478E-08	2431050.25	2.53871094173519E-05
1	303	78.8530598009152	0.152435302734375	0.1524658203125	5.12695312500006E-08	7.81685116635344E-09	2973809.5	2.53930575127015E-05
1	304	78.9537678006609	0.142364501953125	0.14239501953125	2.99072265625006E-08	4.25864010722421E-09	4761224.5	2.53971447818913E-05
1	305	79.0544758004066	0.132293701171875	0.13238525390625	1.22070312500028E-09	1.61603092019291E-10	108450000	2.53987127507571E-05
1	306	79.1551838001524	0.122222900390625	0.122314453125	-3.84521484374997E-08	-4.7032533423419E-09	-3180952.5	2.53968373726821E-05
1	307	79.2558917998981	0.112152099609375	0.1121826171875	-9.21630859374994E-08	-1.03390958017258E-08	-1217218.625	2.53902599069988E-05
1	308	79.3565997996438	0.102081298828125	0.102142333984375	-1.65405273437499E-07	-1.68948801615443E-08	-617527.6875	2.53772905125516E-05
1	309	79.4573077993896	0.092010498046875	0.092071533203125	-2.63366699218751E-07	-2.42485764800904E-08	-349594.4375	2.53557009273209E-05
1	310	79.5580157991353	0.081939697265625	0.082000732421875	-3.93066406250001E-07	-3.22317319501053E-08	-208618.015625	2.53226462518796E-05
1	311	79.6587237988811	0.071868896484375	0.0718994140625	-5.5999755859375E-07	-4.02634938723168E-08	-128392.375	2.52746558544459E-05
1	312	79.7594317986268	0.061798095703125	0.06182861328125	-7.6263427734375E-07	-4.71526178102977E-08	-81072.4296875	2.52080553764245E-05
1	313	79.8601397983725	0.051727294921875	0.051788330078125	-9.95788574218751E-07	-5.15702289760611E-08	-52007.35546875	2.51195124292281E-05
1	314	79.9608477981183	0.041656494140625	0.041748046875	-1.2432861328125E-06	-5.19047667069117E-08	-33578.79296875	2.50067660090281E-05
1	315	80.061555797864	0.031585693359375	0.0316375732421875	-1.48345947265625E-06	-4.69330529995204E-08	-21326.88671875	2.48694632318802E-05
1	316	80.1622637976097	0.021514892578125	0.021630859375	-1.689453125E-06	-3.65443213468097E-08	-12803.46875	2.47096941166092E-05
1	317	80.2629717973555	0.011444091796875	0.011505126953125	-1.84326171875E-06	-2.12069597438358E-08	-6241.72216796875	2.45318078668788E-05
1	318	80.3636797971012	0.001373291015625	0.00148620605468749	-1.9342041015625E-06	-2.87462564863006E-09	-768.381286621094	2.43415979639394E-05
1	319	80.4643877968469	-0.008697509765625	-0.00860595703125	-1.96441650390625E-06	1.69056839638415E-08	4380.9228515625	2.41452871705405E-05
1	320	80.5650957965927	-0.018768310546875	-0.0186737060546875	-1.9476318359375E-06	3.6369502964817E-08	9587.904296875	2.39482997130835E-05
1	321	80.6658037963384	-0.028839111328125	-0.0286956787109375	-1.898193359375E-06	5.4469943222557E-08	15117.36328125	2.37546464632032E-05
1	322	80.7665117960842	-0.038909912109375	-0.038763427734375	-1.83013916015625E-06	7.09424625711108E-08	21180.58984375	2.35669103858527E-05
1	323	80.8672197958299	-0.048980712890625	-0.04884033203125	-1.75506591796875E-06	8.57179998092761E-08	27828.205078125	2.3386381144519E-05
1	324	80.9679277955756	-0.059051513671875	-0.058990478515625	-1.67999267578125E-06	9.91035662423201E-08	35113.53515625	2.32134116231464E-05
1	325	81.0686357953214	-0.069122314453125	-0.069091796875	-1.60858154296875E-06	1.11139790703874E-07	42952	2.30478181038052E-05
1	326	81.1693437950671	-0.079193115234375	-0.079132080078125	-1.54327392578125E-06	1.22122472134834E-07	51275.4609375	2.28891094593564E-05
1	327	81.2700517948128	-0.089263916015625	-0.089111328125	-1.48468017578125E-06	1.3230182105417E-07	60020.5546875	2.27366399485618E-05
1	328	81.3707597945586	-0.099334716796875	-0.0992431640625	-1.43280029296875E-06	1.42195631269715E-07	69265.1796875	2.25897347263526E-05
1	329	81.4714677943043	-0.109405517578125	-0.10931396484375	-1.38702392578125E-06	1.51621080135556E-07	78811.8828125	2.24477444135118E-05
1	330	81.5721757940501	-0.119476318359375	-0.119415283203125	-1.3470458984375E-06	1.60857865694197E-07	88649.75	2.23100723815151E-05
1	331	81.6728837937958	-0.129547119140625	-0.129486083984375	-1.31256103515625E-06	1.69958383366975E-07	98651.4765625	2.21761511056684E-05
1	332	81.7735917935415	-0.139617919921875	-0.1395263671875	-1.28204345703125E-06	1.78878863721366E-07	108831.234375	2.20455021917587E-05
1	333	81.8742997932873	-0.149688720703125	-0.14959716796875	-1.2554931640625E-06	1.87818216090818E-07	119154.1171875	2.19177272811066E-05
1	334	81.975007793033	-0.159759521484375	-0.159698486328125	-1.23291015625E-06	1.96893878978699E-07	129529.7109375	2.17924261960434E-05
1	335	82.0757157927787	-0.169830322265625	-0.169677734375	-1.21337890625E-06	2.05883367243587E-07	139839.046875	2.16692460526247E-05
1	336	82.1764237925245	-0.179901123046875	-0.179718017578125	-1.1968994140625E-06	2.15104378753495E-07	150152.984375	2.15478794416413E-05
1	337	82.2771317922702	-0.189971923828125	-0.189849853515625	-1.182861328125E-06	2.2456603687715E-07	160500.515625	2.14280480577145E-05
1	338	82.3778397920159	-0.200042724609375	-0.19989013671875	-1.17095947265625E-06	2.34063236348447E-07	170706.28125	2.13095245271688E-05
1	339	82.4785477917617	-0.189971923828125	-0.1898193359375	-1.03485107421875E-06	1.96434740473705E-07	183426.71875	2.11984533962095E-05
2	340	82.5792557915074	-0.179901123046875	-0.179779052734375	-9.417724609375E-07	1.69310951037005E-07	190894.359375	2.10989219340263E-05
2	341	82.6799637912532	-0.169830322265625	-0.169708251953125	-8.67919921875E-07	1.47293164332041E-07	195534.46875	2.10077960218769E-05
2	342	82.7806717909989	-0.159759521484375	-0.15960693359375	-8.056640625E-07	1.28589576320337E-07	198106.0625	2.09235240618E-05
2	343	82.8813797907446	-0.149688720703125	-0.149566650390625	-7.51342773437499E-07	1.12375822425292E-07	199065.796875	2.08451237995178E-05
2	344	82.9820877904904	-0.139617919921875	-0.139495849609375	-7.02819824218751E-07	9.80404450956485E-08	198480.25	2.0771900381078E-05
2	345	83.0827957902361	-0.129547119140625	-0.12945556640625	-6.5765380859375E-07	8.51369463816809E-08	196844.546875	2.07033954211511E-05
2	346	83.1835037899818	-0.119476318359375	-0.119384765625	-6.1614990234375E-07	7.35589082978549E-08	193759.296875	2.06392542168032E-05
2	347	83.2842117897276	-0.109405517578125	-0.109283447265625	-5.767822265625E-07	6.30327505746209E-08	189470.90625	2.05791857297299E-05
2	348	83.3849197894733	-0.099334716796875	-0.099273681640625	-5.3741455078125E-07	5.33511226308292E-08	184724.578125	2.0523080820567E-05
2	349	83.4856277892191	-0.089263916015625	-0.0892333984375	-4.98046875E-07	4.44424124168563E-08	179166.671875	2.04709413083037E-05
2	350	83.5863357889648	-0.079193115234375	-0.079193115234375	-4.57153320312501E-07	3.62033958367647E-08	173230.984375	2.04228435904952E-05
2	351	83.6870437887105	-0.069122314453125	-0.069061279296875	-4.11376953125001E-07	2.84102164016531E-08	167878.34375	2.03791096282657E-05
2	352	83.7877517884563	-0.059051513671875	-0.058990478515625	-3.57666015624999E-07	2.10988897464404E-08	164931.75	2.03403851628536E-05
2	353	83.888459788202	-0.048980712890625	-0.048834228515625	-2.9296875E-07	1.430690144133E-08	166687.5	2.03076233447064E-05
2	354	83.9891677879477	-0.038909912109375	-0.0387908935546875	-2.1240234375E-07	8.2392768163686E-09	182629.3125	2.02821756829508E-05
2	355	84.0898757876935	-0.028839111328125	-0.028741455078125	-1.0986328125E-07	3.15763037939121E-09	261611.109375	2.02659484784817E-05
2	356	84.1905837874392	-0.018768310546875	-0.0186370849609375	2.19726562499994E-08	-4.09506234477774E-10	-848194.5	2.02615228772629E-05
2	357	84.2912917871849	-0.008697509765625	-0.00861511230468751	1.873779296875E-07	-1.61428181932877E-09	-45977.19921875	2.02720639208565E-05
2	358	84.3919997869307	0.001373291015625	0.0014495849609375	3.89709472656249E-07	5.64917002066068E-10	3719.65551757813	2.03011222765781E-05
2	359	84.4927077866764	0.011444091796875	0.011529541015625	6.25000000000001E-07	7.20596293746212E-09	18447.265625	2.03522176889237E-05
2	360	84.5934157864222	0.021514892578125	0.02159423828125	8.8043212890625E-07	1.90122602106158E-08	24526.86328125	2.04280222533271E-05
2	361	84.6941237861679	0.031585693359375	0.0316680908203125	1.13616943359375E-06	3.59803138394454E-08	27872.681640625	2.05295655177906E-05
2	362	84.7948317859136	0.041656494140625	0.0417388916015625	1.36749267578125E-06	5.70776244046556E-08	30522.205078125	2.06556342163822E-05
2	363	84.8955397856594	0.051727294921875	0.0517578125	1.5509033203125E-06	8.02713628900165E-08	33372.6875	2.08025885513052E-05
2	364	84.9962477854051	0.061798095703125	0.06182861328125	1.6729736328125E-06	1.03437635345927E-07	36957.31640625	2.09649224416353E-05
2	365	85.0969557851508	0.071868896484375	0.071868896484375	1.73370361328125E-06	1.24599367268274E-07	41453.96875	2.11364622373367E-05
2	366	85.1976637848966	0.081939697265625	0.081939697265625	1.74163818359375E-06	1.4270929682425E-07	47047.48828125	2.13114599318942E-05
2	367	85.2983717846423	0.092010498046875	0.09210205078125	1.71142578125E-06	1.57625819952045E-07	53815.9765625	2.14853353099898E-05
2	368	85.3990797843881	0.102081298828125	0.102142333984375	1.65771484375E-06	1.69322859733256E-07	61616.34765625	2.16549851757009E-05
2	369	85.4997877841338	0.112152099609375	0.1121826171875	1.59271240234375E-06	1.78674639528253E-07	70434.953125	2.18186578422319E-05
2	370	85.6004957838795	0.122222900390625	0.12225341796875	1.52496337890625E-06	1.8643197563506E-07	80168.1015625	2.19756457227049E-05
2	371	85.7012037836253	0.132293701171875	0.132293701171875	1.45843505859375E-06	1.92941769228128E-07	90709.359375	2.21258706005756E-05
2	372	85.801911783371	0.142364501953125	0.142425537109375	1.396484375E-06	1.98895023117984E-07	101988.640625	2.22696271521272E-05
2	373	85.9026197831167	0.152435302734375	0.152435302734375	1.34002685546875E-06	2.04267408321357E-07	113755.40625	2.2407421056414E-05
2	374	86.0033277828625	0.162506103515625	0.16253662109375	1.28936767578125E-06	2.09569464004744E-07	126059.171875	2.25398216571193E-05
2	375	86.1040357826082	0.172576904296875	0.172576904296875	1.243896484375E-06	2.14667807085789E-07	138738.96875	2.26673819270218E-05
2	376	86.2047437823539	0.182647705078125	0.18267822265625	1.20330810546875E-06	2.19818190316801E-07	151813.34375	2.2790609364165E-05
2	377	86.3054517820997	0.192718505859375	0.1927490234375	1.16851806640625E-06	2.25230706973889E-07	164951.6875	2.2910040570423E-05
2	378	86.4061597818454	0.202789306640625	0.202789306640625	1.13677978515625E-06	2.30526765676586E-07	178389.28125	2.30261211981997E-05
2	379	86.5068677815912	0.212860107421875	0.212860107421875	1.109619140625E-06	2.36193642422222E-07	191831.6875	2.31392368732486E-05
2	380	86.6075757813369	0.222930908203125	0.222930908203125	1.08489990234375E-06	2.41857719629479E-07	205485.234375	2.32497386605246E-05
2	381	86.7082837810826	0.233001708984375	0.2330322265625	1.0626220703125E-06	2.47625166593934E-07	219299.265625	2.3357875761576E-05
2	382	86.8089917808284	0.243072509765625	0.243072509765625	1.0430908203125E-06	2.53546716066921E-07	233031.015625	2.34639064728981E-05
2	383	86.9096997805741	0.253143310546875	0.25311279296875	1.025390625E-06	2.59539461922031E-07	246845.25	2.35680618061451E-05
2	384	87.0104077803198	0.263214111328125	0.26324462890625	1.009521484375E-06	2.65751111783175E-07	260761.78125	2.36705291172257E-05
2	385	87.1111157800656	0.273284912109375	0.27325439453125	9.9456787109375E-07	2.7177003403267E-07	274746.875	2.37714430113556E-05
2	386	87.2118237798113	0.283355712890625	0.283355712890625	9.82055664062501E-07	2.78271073739234E-07	288533.25	2.38709726545494E-05
2	387	87.312531779557	0.293426513671875	0.293426513671875	9.7015380859375E-07	2.84668857375436E-07	302453.59375	2.39692744798958E-05
2	388	87.4132397793028	0.303497314453125	0.303466796875	9.5977783203125E-07	2.9126070444363E-07	316184.4375	2.40664539887803E-05
2	389	87.5139477790485	0.313568115234375	0.313568115234375	9.503173828125E-07	2.97989231512474E-07	329961.46875	2.41626348724822E-05
2	390	87.6146557787943	0.323638916015625	0.323638916015625	9.417724609375E-07	3.04794212979687E-07	343648.75	2.42579098994611E-05
2	391	87.71536377854	0.333709716796875	0.333770751953125	9.3414306640625E-07	3.11789619900082E-07	357301.5625	2.43523700191872E-05
2	392	87.8160717782857	0.343780517578125	0.343780517578125	9.27124023437501E-07	3.18727160220078E-07	370803.15625	2.44460916292155E-05
2	393	87.9167797780315	0.353851318359375	0.353851318359375	9.20715332031249E-07	3.25796321476446E-07	384322.1875	2.45391383941751E-05
2	394	88.0174877777772	0.363922119140625	0.36395263671875	9.161376953125E-07	3.33430705268256E-07	397268.5	2.46316303673666E-05
2	395	88.1181957775229	0.373992919921875	0.3740234375	9.11865234375001E-07	3.41058949970829E-07	410174.0625	2.47236785071436E-05
2	396	88.2189037772687	0.384063720703125	0.384063720703125	9.08203125E-07	3.48807873251644E-07	422883.0625	2.48153264692519E-05
2	397	88.3196117770144	0.394134521484375	0.394134521484375	9.051513671875E-07	3.56751399976929E-07	435434.9375	2.49066360993311E-05
2	398	88.4203197767602	0.404205322265625	0.404144287109375	9.02709960937501E-07	3.64825069709696E-07	447701.15625	2.49976692430209E-05
2	399	88.5210277765059	0.414276123046875	0.414306640625	9.0087890625E-07	3.73240112594431E-07	459891.59375	2.50884859269718E-05
2	400	88.6217357762516	0.424346923828125	0.42431640625	8.9996337890625E-07	3.81869227794596E-07	471481.875	2.51791661867173E-05
2	401	88.7224437759974	0.434417724609375	0.43438720703125	8.9874267578125E-07	3.90402306038595E-07	483327.6875	2.52697373070987E-05
2	402	88.8231517757431	0.444488525390625	0.444488525390625	8.978271484375E-07	3.9907385485094E-07	495071.375	2.53602029260946E-05
2	403	88.9238597754888	0.454559326171875	0.454559326171875	8.9691162109375E-07	4.07699531024264E-07	506805.03125	2.5450575776631E-05
2	404	89.0245677752346	0.464630126953125	0.464569091796875	8.97216796875E-07	4.16819176507488E-07	517789.15625	2.55409158853581E-05
2	405	89.1252757749803	0.474700927734375	0.474700927734375	8.9691162109375E-07	4.25764767442161E-07	529261.6875	2.56312578130746E-05
2	406	89.225983774726	0.484771728515625	0.4847412109375	8.9691162109375E-07	4.34770015544927E-07	540455.9375	2.57215833698865E-05
2	407	89.3266917744718	0.494842529296875	0.49481201171875	8.9752197265625E-07	4.44104642838283E-07	551309.125	2.58119416685076E-05
2	408	89.4273997742175	0.504913330078125	0.5048828125	8.984375E-07	4.53605622396935E-07	561956.5625	2.59023745456943E-05
2	409	89.5281077739633	0.514984130859375	0.5150146484375	8.9996337890625E-07	4.63494330915637E-07	572261.8125	2.59929311141605E-05
2	410	89.628815773709	0.525054931640625	0.52508544921875	9.0179443359375E-07	4.73519122579091E-07	582267.375	2.60836568486411E-05
2	411	89.7295237734547	0.535125732421875	0.535125732421875	9.0362548828125E-07	4.83553208141529E-07	592198.625	2.61745681200409E-05
2	412	89.8302317732005	0.545196533203125	0.54510498046875	9.063720703125E-07	4.94067933232145E-07	601414.125	2.62657085841056E-05
2	413	89.9309397729462	0.555267333984375	0.555267333984375	9.0972900390625E-07	5.05142793372215E-07	610365.6875	2.63571564573795E-05
2	414	90.0316477726919	0.565338134765625	0.565338134765625	9.1217041015625E-07	5.15684689617046E-07	619772.5	2.64488953689579E-05
2	415	90.1323557724377	0.575408935546875	0.575439453125	9.1583251953125E-07	5.27006136508135E-07	628323.875	2.65409435087349E-05
2	416	90.2330637721834	0.585479736328125	0.58544921875	9.197998046875E-07	5.38496067292726E-07	636496.375	2.66333736362867E-05
2	417	90.3337717719292	0.595550537109375	0.595550537109375	9.2498779296875E-07	5.50876961824542E-07	643846.9375	2.67262676061364E-05
2	418	90.4344797716749	0.605621337890625	0.605621337890625	9.295654296875E-07	5.62964658001874E-07	651510.1875	2.68196508841356E-05
2	419	90.5351877714206	0.615692138671875	0.615631103515625	9.34753417968751E-07	5.75463275254151E-07	658602.6875	2.69135271082632E-05
2	420	90.6358957711664	0.625762939453125	0.625732421875	9.40856933593751E-07	5.88724674344121E-07	665066.5	2.70079708570847E-05
2	421	90.7366037709121	0.635833740234375	0.63580322265625	9.46655273437499E-07	6.01886426920828E-07	671631.25	2.71030148724094E-05
2	422	90.8373117706578	0.645904541015625	0.645843505859375	9.53063964843751E-07	6.15530154846056E-07	677649.75	2.71986737061525E-05
2	423	90.9380197704036	0.655975341796875	0.655914306640625	9.5977783203125E-07	6.29531996310106E-07	683402.25	2.7294992833049E-05
2	424	91.0387277701493	0.666046142578125	0.666015625	9.66796875000001E-07	6.43901785224443E-07	688888.9375	2.73920031759189E-05
2	425	91.139435769895	0.676116943359375	0.676025390625	9.7320556640625E-07	6.57911641610553E-07	694637.875	2.7489690182847E-05
2	426	91.2401437696408	0.686187744140625	0.686065673828125	9.79003906250001E-07	6.71660927764606E-07	700779.3125	2.75879920081934E-05
2	427	91.3408517693865	0.696258544921875	0.696136474609375	9.844970703125E-07	6.85344332396198E-07	707098.5625	2.76868631772231E-05
2	428	91.4415597691323	0.706329345703125	0.706298828125	9.8907470703125E-07	6.98582311997598E-07	714100.625	2.77862400253071E-05
2	429	91.542267768878	0.716400146484375	0.71630859375	9.9365234375E-07	7.11761686034151E-07	720884.5625	2.78860770777101E-05
2	430	91.6429757686237	0.726470947265625	0.7264404296875	9.9822998046875E-07	7.25154620795365E-07	727728.5	2.79863761534216E-05
2	431	91.7436837683695	0.736541748046875	0.736419677734375	1.00250244140625E-06	7.38262542654411E-07	734581.4375	2.80871227005264E-05
2	432	91.8443917681152	0.746612548828125	0.74652099609375	1.0064697265625E-06	7.51350739847112E-07	741722.3125	2.81882821582258E-05
2	433	91.9450997678609	0.756683349609375	0.75653076171875	1.0101318359375E-06	7.64195760893926E-07	748942.625	2.82898254226893E-05
2	434	92.0458077676067	0.766754150390625	0.76690673828125	1.0137939453125E-06	7.7748541116307E-07	756472	2.83917379420018E-05
2	435	92.1465157673524	0.776824951171875	0.7769775390625	1.0174560546875E-06	7.90540468642575E-07	763647.25	2.84940197161632E-05
2	436	92.2472237670981	0.786895751953125	0.78765869140625	1.02081298828125E-06	8.04052206149208E-07	771599.375	2.85966543742688E-05
2	437	92.3479317668439	0.796966552734375	0.797119140625	1.0247802734375E-06	8.1687193187463E-07	777844	2.86996582872234E-05
2	438	92.4486397665896	0.807037353515625	0.8074951171875	1.02783203125E-06	8.29969337701186E-07	785629.4375	2.88030150841223E-05
2	439	92.5493477663354	0.817108154296875	0.81756591796875	1.0321044921875E-06	8.43813438677898E-07	792134.8125	2.89067411358701E-05
2	440	92.6500557660811	0.827178955078125	0.82763671875	1.0357666015625E-06	8.5723843312735E-07	799057.1875	2.90108673652867E-05
2	441	92.7507637658268	0.837249755859375	0.83740234375	1.0394287109375E-06	8.7041996721382E-07	805637.1875	2.91153628495522E-05
2	442	92.8514717655726	0.847320556640625	0.84747314453125	1.04278564453125E-06	8.8373275275444E-07	812701.25	2.92202093987726E-05
2	443	92.9521797653183	0.857391357421875	0.8575439453125	1.046142578125E-06	8.97113181963505E-07	819720	2.93253960990114E-05
2	444	93.052887765064	0.867462158203125	0.86761474609375	1.04949951171875E-06	9.10561197997595E-07	826693.8125	2.94309193122899E-05
2	445	93.1535957648098	0.877532958984375	0.877685546875	1.0528564453125E-06	9.24076857700129E-07	833623.1875	2.95367808575975E-05
2	446	93.2543037645555	0.887603759765625	0.8880615234375	1.0565185546875E-06	9.38253435833758E-07	840554.625	2.96429971058387E-05
2	447	93.3550117643013	0.897674560546875	0.89752197265625	1.05926513671875E-06	9.50713683778304E-07	847306.3125	2.97495353152044E-05
2	448	93.455719764047	0.907745361328125	0.9075927734375	1.0626220703125E-06	9.64428068073175E-07	854106.875	2.98563809337793E-05
2	449	93.5564277637927	0.917816162109375	0.91766357421875	1.06597900390625E-06	9.78210096036491E-07	860864.625	2.99635648843832E-05
2	450	93.6571357635385	0.927886962890625	0.92803955078125	1.06964111328125E-06	9.9266912911844E-07	867617.75	3.00711017189315E-05
2	451	93.7578437632842	0.937957763671875	0.93780517578125	1.07330322265625E-06	1.00654926882271E-06	873756.0625	3.01790078083286E-05
2	452	93.8585517630299	0.948028564453125	0.94818115234375	1.0772705078125E-06	1.02144747415878E-06	880170	3.02872977044899E-05
2	453	93.9592597627757	0.958099365234375	0.958251953125	1.08123779296875E-06	1.03609818324912E-06	886254.625	3.03959859593306E-05
2	454	94.0599677625214	0.968170166015625	0.968017578125	1.08489990234375E-06	1.05020217233687E-06	892264.4375	3.05050598399248E-05
2	455	94.1606757622671	0.978240966796875	0.9783935546875	1.08917236328125E-06	1.0656391395969E-06	898290.875	3.06145338981878E-05
2	456	94.2613837620129	0.988311767578125	0.98846435546875	1.09344482421875E-06	1.08083122540847E-06	903991.125	3.072443723795E-05
2	457	94.3620917617586	0.998382568359375	0.99853515625	1.097412109375E-06	1.09580457774427E-06	909899.875	3.08347553072963E-05
2	458	94.4627997615044	1.00845336914063	1.00860595703125	1.10137939453125E-06	1.11085773824016E-06	915766.1875	3.09454735543113E-05
2	459	94.5635077612501	1.01852416992188	1.0186767578125	1.10565185546875E-06	1.12630175408412E-06	921335.9375	3.10566065309104E-05
2	460	94.6642157609958	1.02859497070313	1.02783203125	1.10992431640625E-06	1.14081569790869E-06	926038	3.11681687890086E-05
2	461	94.7649237607416	1.03866577148438	1.038818359375	1.11358642578125E-06	1.15681405077339E-06	932858.3125	3.12801312247757E-05
2	462	94.8656317604873	1.04873657226563	1.04827880859375	1.1181640625E-06	1.17214767669793E-06	937500	3.13925083901267E-05
2	463	94.966339760233	1.05880737304688	1.05865478515625	1.12213134765625E-06	1.18794957870705E-06	943432.1875	3.15053184749559E-05
2	464	95.0670477599788	1.06887817382813	1.06903076171875	1.12640380859375E-06	1.20416018489777E-06	949065.375	3.16185396513902E-05
2	465	95.1677557597245	1.07894897460938	1.0791015625	1.13037109375E-06	1.21978519018739E-06	954643.6875	3.17321791953873E-05
2	466	95.2684637594703	1.08901977539063	1.08917236328125	1.13433837890625E-06	1.2354900036371E-06	960182.9375	3.18462152790744E-05
2	467	95.369171759216	1.09909057617188	1.09893798828125	1.13922119140625E-06	1.25193332678464E-06	964639.75	3.19606988341548E-05
2	468	95.4698797589617	1.10916137695313	1.10931396484375	1.1431884765625E-06	1.26815496059862E-06	970368.4375	3.20756262226496E-05
2	469	95.5705877587075	1.11923217773438	1.119384765625	1.14776611328125E-06	1.2847918924308E-06	975272.5625	3.21909865306225E-05
2	470	95.6712957584532	1.12930297851563	1.12945556640625	1.15234375E-06	1.30152113797521E-06	980137.6875	3.2306805223925E-05
2	471	95.7720037581989	1.13937377929688	1.13922119140625	1.15692138671875E-06	1.31798935854022E-06	984700.625	3.24230859405361E-05
2	472	95.8727117579447	1.14944458007813	1.14959716796875	1.16180419921875E-06	1.33560683934775E-06	989493	3.25398432323709E-05
2	473	95.9734197576904	1.15951538085938	1.1590576171875	1.1669921875E-06	1.35261120703944E-06	993200.8125	3.26571062032599E-05
2	474	96.0741277574361	1.16958618164063	1.16973876953125	1.17279052734375E-06	1.37185850235255E-06	997397.9375	3.27749257849064E-05
2	475	96.1748357571819	1.17965698242188	1.1798095703125	1.17950439453125E-06	1.3915905583417E-06	1000258.75	3.28933710989077E-05
2	476	96.2755437569276	1.18972778320313	1.1895751953125	1.18560791015625E-06	1.41036969125707E-06	1003346.25	3.30124639731366E-05
2	477	96.3762517566734	1.19979858398438	1.19964599609375	1.19293212890625E-06	1.43109627970261E-06	1005628.0625	3.31322335114237E-05
2	478	96.4769597564191	1.20986938476563	1.209716796875	1.2005615234375E-06	1.45233946113876E-06	1007625.8125	3.32527561113238E-05
2	479	96.5776677561648	1.21994018554688	1.22039794921875	1.2091064453125E-06	1.47559092056326E-06	1009338.8125	3.33740936184768E-05
2	480	96.6783757559106	1.23001098632813	1.2298583984375	1.21826171875E-06	1.49828929352225E-06	1009519.0625	3.34963187924586E-05
2	481	96.7790837556563	1.24008178710938	1.240234375	1.2286376953125E-06	1.52379868723074E-06	1009438.6875	3.36195298586972E-05
2	482	96.879791755402	1.25015258789063	1.25	1.239013671875E-06	1.54876704527851E-06	1008867.0625	3.37437886628322E-05
2	483	96.9804997551478	1.26022338867188	1.26068115234375	1.2506103515625E-06	1.57662088895449E-06	1008052.6875	3.38691497745458E-05
2	484	97.0812077548935	1.27029418945313	1.27044677734375	1.26312255859375E-06	1.60472995958116E-06	1005798.5625	3.39957259711809E-05
2	485	97.1819157546392	1.28036499023438	1.28021240234375	1.2762451171875E-06	1.63386471285776E-06	1003108.625	3.41235936502926E-05
2	486	97.282623754385	1.29043579101563	1.290283203125	1.29058837890625E-06	1.6652244312354E-06	999763.5625	3.4252843761351E-05
2	487	97.3833317541307	1.30050659179688	1.30126953125	1.3055419921875E-06	1.69886209278047E-06	996727.4375	3.4383570891805E-05
2	488	97.4840397538765	1.31057739257813	1.31072998046875	1.322021484375E-06	1.73281318893714E-06	991458.9375	3.45158769050613E-05
2	489	97.5847477536222	1.32064819335938	1.32080078125	1.339111328125E-06	1.76869934875867E-06	986326.3125	3.46498745784629E-05
2	490	97.6854557533679	1.33071899414063	1.33056640625	1.35711669921875E-06	1.80573374564119E-06	980436.3125	3.47856403095648E-05
2	491	97.7861637531137	1.34078979492188	1.34063720703125	1.37664794921875E-06	1.84558541604929E-06	973841.75	3.49232977896463E-05
2	492	97.8868717528594	1.35086059570313	1.3507080078125	1.3958740234375E-06	1.88541810075549E-06	967643.25	3.50629052263685E-05
2	493	97.9875797526051	1.36093139648438	1.36138916015625	1.4166259765625E-06	1.92857919500966E-06	961008.1875	3.52045244653709E-05
2	494	98.0882877523509	1.37100219726563	1.370849609375	1.436767578125E-06	1.96959217646508E-06	954120.6875	3.5348206438357E-05
2	495	98.1889957520966	1.38107299804688	1.380615234375	1.45721435546875E-06	2.01185230253031E-06	947434.5625	3.54939293174539E-05
2	496	98.2897037518424	1.39114379882813	1.39129638671875	1.47857666015625E-06	2.05713831746834E-06	940970.0625	3.564175858628E-05
2	497	98.3904117515881	1.40121459960938	1.40106201171875	1.50115966796875E-06	2.10321786653367E-06	933319.8125	3.57917997462209E-05
2	498	98.4911197513338	1.41128540039063	1.4117431640625	1.52618408203125E-06	2.15457998820057E-06	925015	3.59442383341957E-05
2	499	98.5918277510796	1.42135620117188	1.4215087890625	1.553955078125E-06	2.20896072278265E-06	914768.3125	3.60993362846784E-05
2	500	98.6925357508253	1.43142700195313	1.43096923828125	1.58538818359375E-06	2.26864176511299E-06	902598.625	3.62574137398042E-05
2	501	98.793243750571	1.44149780273438	1.44134521484375	1.62261962890625E-06	2.33875493904634E-06	888282.875	3.64189509127755E-05
2	502	98.8939517503168	1.45156860351563	1.4520263671875	1.66534423828125E-06	2.41812358581228E-06	871907.6875	3.65845116903074E-05
2	503	98.9946597500625	1.46163940429688	1.4617919921875	1.71539306640625E-06	2.5075478333747E-06	852161.5625	3.67547472706065E-05
2	504	99.0953677498082	1.47171020507813	1.4715576171875	1.7742919921875E-06	2.61097284237621E-06	829377.375	3.69304652849678E-05
2	505	99.196075749554	1.48178100585938	1.48162841796875	1.84173583984375E-06	2.72876809503941E-06	804473.9375	3.71125461242627E-05
2	506	99.2967837492997	1.49185180664063	1.49139404296875	1.9195556640625E-06	2.86281374428654E-06	776947.5625	3.73019429389387E-05
2	507	99.3974917490455	1.50192260742188	1.5020751953125	2.00439453125E-06	3.01075124298222E-06	749391	3.74995288439095E-05
2	508	99.4981997487912	1.49185180664063	1.49200439453125	1.75018310546875E-06	2.61128070633276E-06	852484.75	3.76885873265564E-05
2	509	99.5989077485369	1.48178100585938	1.48193359375	1.56890869140625E-06	2.32501838581811E-06	944563.375	3.78557160729542E-05
2	510	99.6996157482827	1.47171020507813	1.47186279296875	1.42852783203125E-06	2.10259690902603E-06	1030335.4375	3.80066521756817E-05
2	511	99.8003237480284	1.46163940429688	1.461181640625	1.31500244140625E-06	1.92145739674743E-06	1111162.625	3.81447971449234E-05
2	512	99.9010317477741	1.45156860351563	1.45172119140625	1.22161865234375E-06	1.77344963958603E-06	1188358.75	3.82725265808403E-05
2	513	100.00173974752	1.44149780273438	1.44134521484375	1.14349365234375E-06	1.64816901815357E-06	1260475.125	3.83916194550693E-05
2	514	100.102447747266	1.43142700195313	1.43157958984375	1.07818603515625E-06	1.54350902903388E-06	1327766.875	3.85034909413662E-05
2	515	100.203155747011	1.42135620117188	1.42059326171875	1.02294921875E-06	1.45319472721894E-06	1388723.25	3.8609290641034E-05
2	516	100.303863746757	1.41128540039063	1.4111328125	9.75952148437501E-07	1.37719814574666E-06	1445903.625	3.87099426006898E-05
2	517	100.404571746503	1.40121459960938	1.4013671875	9.3505859375E-07	1.31036040329491E-06	1498694.625	3.88061707781162E-05
2	518	100.505279746249	1.39114379882813	1.39129638671875	9.002685546875E-07	1.25254041449807E-06	1545423.75	3.88985863537528E-05
2	519	100.605987745994	1.38107299804688	1.38092041015625	8.6944580078125E-07	1.20063543818105E-06	1588276.625	3.89876986446325E-05
2	520	100.70669574574	1.37100219726563	1.370849609375	8.4197998046875E-07	1.1542279025889E-06	1628126.125	3.90738750866149E-05
2	521	100.807403745486	1.36093139648438	1.361083984375	8.1787109375E-07	1.11319116058439E-06	1664179.125	3.91574576497078E-05
2	522	100.908111745232	1.35086059570313	1.35101318359375	7.9620361328125E-07	1.0756815527202E-06	1696818.75	3.92387300962582E-05
2	523	101.008819744977	1.34078979492188	1.34002685546875	7.76062011718751E-07	1.03994386790873E-06	1726700.75	3.93178997910582E-05
2	524	101.109527744723	1.33071899414063	1.33026123046875	7.58056640625E-07	1.00841327821399E-06	1754831	3.93951486330479E-05
2	525	101.210235744469	1.32064819335938	1.32110595703125	7.415771484375E-07	9.79702008407912E-07	1781481.5	3.94706621591467E-05
2	526	101.310943744214	1.31057739257813	1.31072998046875	7.2509765625E-07	9.50407240907225E-07	1807659.875	3.95445167669095E-05
2	527	101.41165174396	1.30050659179688	1.30035400390625	7.110595703125E-07	9.24629148357781E-07	1828755.375	3.96168325096369E-05
2	528	101.512359743706	1.29043579101563	1.29119873046875	6.97021484375E-07	8.99993210623506E-07	1852451.875	3.96877330786083E-05
2	529	101.613067743452	1.28036499023438	1.28021240234375	6.8359375E-07	8.75145190093463E-07	1872767.875	3.97572548536118E-05
2	530	101.713775743197	1.27029418945313	1.27044677734375	6.7138671875E-07	8.52961079544912E-07	1892272.75	3.982548150816E-05
2	531	101.814483742943	1.26022338867188	1.2603759765625	6.5948486328125E-07	8.31198860851146E-07	1911152.25	3.98924967157654E-05
2	532	101.915191742689	1.25015258789063	1.25030517578125	6.4727783203125E-07	8.09294817827322E-07	1931636	3.99582968384493E-05
2	533	102.015899742435	1.24008178710938	1.2396240234375	6.35681152343751E-07	7.88005593221897E-07	1950072	4.00229000661056E-05
2	534	102.11660774218	1.23001098632813	1.2298583984375	6.24694824218749E-07	7.68286156471731E-07	1968734.875	4.00863646063954E-05
2	535	102.217315741926	1.21994018554688	1.219482421875	6.1370849609375E-07	7.48406705497473E-07	1987071.125	4.01487232011277E-05
2	536	102.318023741672	1.20986938476563	1.21002197265625	6.03332519531249E-07	7.30045599084406E-07	2005564	4.0210008592112E-05
2	537	102.418731741418	1.19979858398438	1.1993408203125	5.9326171875E-07	7.11522943674936E-07	2021605	4.0270260797115E-05
2	538	102.519439741163	1.18972778320313	1.18927001953125	5.82275390625001E-07	6.9248267209332E-07	2042452.875	4.03294543502852E-05
2	539	102.620147740909	1.17965698242188	1.17950439453125	5.718994140625E-07	6.74557895763428E-07	2062433.25	4.03875710617285E-05
2	540	102.720855740655	1.16958618164063	1.16943359375	5.62133789062499E-07	6.57378109281126E-07	2080347.5	4.04446727770846E-05
2	541	102.821563740401	1.15951538085938	1.15966796875	5.5206298828125E-07	6.40209805169434E-07	2100608	4.05007776862476E-05
2	542	102.922271740146	1.14944458007813	1.1492919921875	5.419921875E-07	6.22907236902392E-07	2120495.5	4.05558675993234E-05
2	543	103.022979739892	1.13937377929688	1.13922119140625	5.322265625E-07	6.0632373788394E-07	2140481.75	4.0609960706206E-05
2	544	103.123687739638	1.12930297851563	1.129150390625	5.2154541015625E-07	5.88903219522763E-07	2165008.75	4.06630206271075E-05
2	545	103.224395739383	1.11923217773438	1.1187744140625	5.11474609375E-07	5.72224678307975E-07	2187351	4.07150364480913E-05
2	546	103.325103739129	1.10916137695313	1.10931396484375	5.0079345703125E-07	5.55537155833008E-07	2215113	4.07660081691574E-05
2	547	103.425811738875	1.09909057617188	1.09954833984375	4.9102783203125E-07	5.39908853625093E-07	2239279	4.08159503422212E-05
2	548	103.526519738621	1.08901977539063	1.08856201171875	4.8095703125E-07	5.23551534570288E-07	2263325	4.08648957090918E-05
2	549	103.627227738366	1.07894897460938	1.0791015625	4.70581054687499E-07	5.07804770677467E-07	2293125.75	4.09128078899812E-05
2	550	103.727935738112	1.06887817382813	1.0687255859375	4.6051025390625E-07	4.9215907438338E-07	2320742.25	4.0959694160847E-05
2	551	103.828643737858	1.05880737304688	1.05865478515625	4.5013427734375E-07	4.76536797577864E-07	2351864.5	4.10055472457316E-05
2	552	103.929351737604	1.04873657226563	1.048583984375	4.40368652343751E-07	4.61763505654744E-07	2381150.5	4.10503889725078E-05
2	553	104.030059737349	1.03866577148438	1.038818359375	4.302978515625E-07	4.47001298198302E-07	2414184.5	4.10942302551121E-05
2	554	104.130767737095	1.02859497070313	1.02874755859375	4.21142578125E-07	4.33249397246982E-07	2442753.75	4.11371038353536E-05
2	555	104.231475736841	1.01852416992188	1.01837158203125	4.1168212890625E-07	4.19245367311305E-07	2473684.25	4.1179038817063E-05
2	556	104.332183736587	1.00845336914063	1.00860595703125	4.02221679687501E-07	4.05683181270433E-07	2507587.25	4.12200206483249E-05
2	557	104.432891736332	0.998382568359375	0.99822998046875	3.9337158203125E-07	3.92675303828582E-07	2537626	4.12600820709486E-05
2	558	104.533599736078	0.988311767578125	0.98846435546875	3.8421630859375E-07	3.79784097503943E-07	2572676.75	4.12992376368493E-05
2	559	104.634307735824	0.978240966796875	0.9783935546875	3.7567138671875E-07	3.67554463309716E-07	2604386.75	4.13375018979423E-05
2	560	104.73501573557	0.968170166015625	0.968017578125	3.67431640625E-07	3.55680271013625E-07	2634551.5	4.13749185099732E-05
2	561	104.835723735315	0.958099365234375	0.958251953125	3.59497070312501E-07	3.44488739756343E-07	2665535	4.14115238527302E-05
2	562	104.936431735061	0.948028564453125	0.9478759765625	3.51562499999999E-07	3.33237636596095E-07	2696180.75	4.14473288401496E-05
2	563	105.037139734807	0.937957763671875	0.93841552734375	3.4454345703125E-07	3.23324911732925E-07	2723649.25	4.14823807659559E-05
2	564	105.137847734552	0.927886962890625	0.927734375	3.3721923828125E-07	3.12849863348674E-07	2751131.25	4.15167087339796E-05
2	565	105.238555734298	0.917816162109375	0.91827392578125	3.30200195312499E-07	3.03214221730741E-07	2780961.25	4.15503163821995E-05
2	566	105.339263734044	0.907745361328125	0.90789794921875	3.2318115234375E-07	2.93415496344096E-07	2809254	4.15832182625309E-05
2	567	105.43997173379	0.897674560546875	0.8978271484375	3.1585693359375E-07	2.83584938642889E-07	2842512	4.16153961850796E-05
2	568	105.540679733535	0.887603759765625	0.88775634765625	3.0853271484375E-07	2.73901889613626E-07	2877349	4.16468355979305E-05
2	569	105.641387733281	0.877532958984375	0.87738037109375	3.0181884765625E-07	2.64809926875387E-07	2906977	4.16775692428928E-05
2	570	105.742095733027	0.867462158203125	0.867919921875	2.9449462890625E-07	2.55597740306257E-07	2947150.5	4.17075971199665E-05
2	571	105.842803732773	0.857391357421875	0.858154296875	2.87475585937499E-07	2.46698419914537E-07	2985138	4.17369010392576E-05
2	572	105.943511732518	0.847320556640625	0.84747314453125	2.79846191406249E-07	2.37162112171063E-07	3028353.5	4.17654664488509E-05
2	573	106.044219732264	0.837249755859375	0.8380126953125	2.728271484375E-07	2.28632615062452E-07	3071588.25	4.17932969867252E-05
2	574	106.14492773201	0.827178955078125	0.82763671875	2.6519775390625E-07	2.1948739004074E-07	3120828.75	4.18203890149016E-05
2	575	106.245635731756	0.817108154296875	0.8172607421875	2.5787353515625E-07	2.10749902862517E-07	3169231	4.18467279814649E-05
2	576	106.346343731501	0.807037353515625	0.8074951171875	2.50244140625E-07	2.02070921773156E-07	3226829.25	4.18723138864152E-05
2	577	106.447051731247	0.796966552734375	0.79742431640625	2.43225097656249E-07	1.93953596294705E-07	3278544.75	4.18971612816676E-05
2	578	106.547759730993	0.786895751953125	0.78704833984375	2.35595703124999E-07	1.85425193421906E-07	3340673.75	4.19212701672222E-05
2	579	106.648467730739	0.776824951171875	0.77728271484375	2.28271484375001E-07	1.77431473957768E-07	3405080.25	4.19446296291426E-05
2	580	106.749175730484	0.766754150390625	0.76690673828125	2.2125244140625E-07	1.69679978512249E-07	3466207	4.19672651332803E-05
2	581	106.84988373023	0.756683349609375	0.7568359375	2.1392822265625E-07	1.6190855944842E-07	3537803.25	4.19891766796354E-05
2	582	106.950591729976	0.746612548828125	0.74652099609375	2.06604003906249E-07	1.54234228944006E-07	3613294	4.20103533542715E-05
2	583	107.051299729721	0.736541748046875	0.7364501953125	1.995849609375E-07	1.46984376669934E-07	3689908.25	4.2030806071125E-05
2	584	107.152007729467	0.726470947265625	0.726348876953125	1.92871093749999E-07	1.40091700018274E-07	3765981.25	4.20505675720051E-05
2	585	107.252715729213	0.716400146484375	0.71630859375	1.8646240234375E-07	1.33564626025873E-07	3841571.25	4.20696705987211E-05
2	586	107.353423728959	0.706329345703125	0.706298828125	1.79138183593749E-07	1.26525094401586E-07	3942759.75	4.2088078771485E-05
2	587	107.454131728704	0.696258544921875	0.6961669921875	1.72119140625E-07	1.19823653221829E-07	4044681	4.21057666244451E-05
2	588	107.55483972845	0.686187744140625	0.686126708984375	1.6510009765625E-07	1.13279583047188E-07	4155822.75	4.21227450715378E-05
2	589	107.655547728196	0.676116943359375	0.676025390625	1.5838623046875E-07	1.07073113042588E-07	4268208	4.21390359406359E-05
2	590	107.756255727942	0.666046142578125	0.665924072265625	1.51672363281249E-07	1.01002271435391E-07	4390543.5	4.21546465076972E-05
2	591	107.856963727687	0.655975341796875	0.655975341796875	1.45263671875E-07	9.52893870476146E-08	4515756.5	4.21695986005943E-05
2	592	107.957671727433	0.645904541015625	0.645904541015625	1.40380859375E-07	9.06726356220133E-08	4601087	4.21839831687976E-05
2	593	108.058379727179	0.635833740234375	0.635833740234375	1.3458251953125E-07	8.55721111747698E-08	4724489.5	4.21978293161374E-05
2	594	108.159087726925	0.625762939453125	0.625701904296875	1.30615234375001E-07	8.17261991414853E-08	4790420.5	4.22111806983594E-05
2	595	108.25979572667	0.615692138671875	0.615631103515625	1.26953125E-07	7.81562903284794E-08	4849279	4.22241500928067E-05
2	596	108.360503726416	0.605621337890625	0.605560302734375	1.24206542968749E-07	7.52145510318769E-08	4875430	4.22367993451189E-05
2	597	108.461211726162	0.595550537109375	0.595489501953125	1.2176513671875E-07	7.25098630027787E-08	4890476	4.22491830249783E-05
2	598	108.561919725908	0.585479736328125	0.58544921875	1.1932373046875E-07	6.98579825098022E-08	4906394	4.22613229602575E-05
2	599	108.662627725653	0.575408935546875	0.575408935546875	1.1749267578125E-07	6.76063365290247E-08	4897402.5	4.22732482547872E-05
2	600	108.763335725399	0.565338134765625	0.565338134765625	1.16577148437499E-07	6.59055103824358E-08	4849476.5	4.22850353061222E-05
2	601	108.864043725145	0.555267333984375	0.555206298828125	1.15356445312501E-07	6.4046624004277E-08	4812963	4.22967132180929E-05
2	602	108.96475172489	0.545196533203125	0.54522705078125	1.141357421875E-07	6.22298941266308E-08	4777005.5	4.2308271076763E-05
2	603	109.065459724636	0.535125732421875	0.535125732421875	1.129150390625E-07	6.04237442303202E-08	4739189	4.23197016061749E-05
2	604	109.166167724382	0.525054931640625	0.5250244140625	1.116943359375E-07	5.8642253719654E-08	4700546.5	4.23310120822862E-05
2	605	109.266875724128	0.514984130859375	0.5150146484375	1.10778808593751E-07	5.70527092236262E-08	4649036	4.23422134190332E-05
2	606	109.367583723873	0.504913330078125	0.504913330078125	1.09252929687501E-07	5.51632624024023E-08	4621508.5	4.23532947024796E-05
2	607	109.468291723619	0.494842529296875	0.494903564453125	1.0833740234375E-07	5.36165671860545E-08	4568169	4.23642522946466E-05
2	608	109.568999723365	0.484771728515625	0.484771728515625	1.07421874999999E-07	5.20750838006734E-08	4512784.5	4.23751152993646E-05
2	609	109.669707723111	0.474700927734375	0.474639892578125	1.0650634765625E-07	5.05521597915504E-08	4456447	4.23858873546124E-05
2	610	109.770415722856	0.464630126953125	0.464599609375	1.04675292968751E-07	4.86320992365563E-08	4438484	4.23965211666655E-05
2	611	109.871123722602	0.454559326171875	0.454559326171875	1.03759765625E-07	4.71649670430452E-08	4380882.5	4.24070167355239E-05
2	612	109.971831722348	0.444488525390625	0.44451904296875	1.019287109375E-07	4.53092496854879E-08	4361078	4.24173740611877E-05
2	613	110.072539722094	0.434417724609375	0.43438720703125	1.00097656250001E-07	4.34811404659285E-08	4339634.5	4.24275458499324E-05
2	614	110.173247721839	0.424346923828125	0.42431640625	9.79614257812497E-08	4.15666399078418E-08	4331464	4.24375211878214E-05
2	615	110.273955721585	0.414276123046875	0.41424560546875	9.64355468749997E-08	3.99479986867846E-08	4295570	4.24473073508125E-05
2	616	110.374663721331	0.404205322265625	0.4041748046875	9.46044921875E-08	3.8236748878262E-08	4272258.5	4.24569298047572E-05
2	617	110.475371721076	0.394134521484375	0.3941650390625	9.27734375000003E-08	3.65680428160431E-08	4248684.5	4.2466363083804E-05
2	618	110.576079720822	0.384063720703125	0.384063720703125	9.1552734375E-08	3.51620847993672E-08	4195000	4.24756435677409E-05
2	619	110.676787720568	0.373992919921875	0.374053955078125	9.002685546875E-08	3.36749010898529E-08	4154915.5	4.24847894464619E-05
2	620	110.777495720314	0.363922119140625	0.36395263671875	8.85009765625E-08	3.22101634253613E-08	4112413.75	4.24937788920943E-05
2	621	110.878203720059	0.353851318359375	0.353851318359375	8.697509765625E-08	3.07762526574606E-08	4068421.25	4.25026119046379E-05
2	622	110.978911719805	0.343780517578125	0.34381103515625	8.57543945312497E-08	2.94833064629074E-08	4009252.75	4.25113103119656E-05
2	623	111.079619719551	0.333709716796875	0.333740234375	8.392333984375E-08	2.80085945547626E-08	3976727.25	4.25198559241835E-05
2	624	111.180327719297	0.323638916015625	0.323638916015625	8.23974609375E-08	2.66670241444444E-08	3927778	4.25282305513974E-05
2	625	111.281035719042	0.313568115234375	0.313629150390625	8.05664062500003E-08	2.52679726031602E-08	3892803.25	4.25364341936074E-05
2	626	111.381743718788	0.303497314453125	0.303497314453125	7.87353515625006E-08	2.38959660947557E-08	3854651.5	4.25444559368771E-05
2	627	111.482451718534	0.293426513671875	0.293426513671875	7.72094726562506E-08	2.26553051874134E-08	3800395.25	4.25523103331216E-05
2	628	111.58315971828	0.283355712890625	0.2833251953125	7.476806640625E-08	2.11836770347418E-08	3789387.75	4.25599610025529E-05
2	629	111.683867718025	0.273284912109375	0.273284912109375	7.20214843749997E-08	1.9682385499209E-08	3794491.5	4.25673533754889E-05
2	630	111.784575717771	0.263214111328125	0.263214111328125	6.95800781250006E-08	1.83144575061078E-08	3782895	4.25744838139508E-05
2	631	111.885283717517	0.253143310546875	0.253082275390625	6.68334960937503E-08	1.6914372125143E-08	3786758.25	4.25813523179386E-05
2	632	111.985991717263	0.243072509765625	0.24310302734375	6.37817382812503E-08	1.55055328576736E-08	3811483.5	4.25879297836218E-05
2	633	112.086699717008	0.233001708984375	0.23297119140625	6.04248046875006E-08	1.40772380419207E-08	3855555.75	4.25941834691912E-05
2	634	112.187407716754	0.222930908203125	0.22296142578125	5.67626953124997E-08	1.26558914459451E-08	3927957	4.26000842708163E-05
2	635	112.2881157165	0.212860107421875	0.212860107421875	5.24902343749994E-08	1.11730766860774E-08	4055232.75	4.26055848947726E-05
2	636	112.388823716245	0.202789306640625	0.202789306640625	4.730224609375E-08	9.59238910525073E-09	4287097	4.2610612581484E-05
2	637	112.489531715991	0.192718505859375	0.192718505859375	4.05883789062506E-08	7.82213138705856E-09	4748120.5	4.26150363637134E-05
2	638	112.590239715737	0.182647705078125	0.182647705078125	3.38745117187497E-08	6.187101497801E-09	5391892	4.26187871198636E-05
2	639	112.690947715483	0.172576904296875	0.17254638671875	2.41088867187503E-08	4.15990086821694E-09	7156962.5	4.26217047788668E-05
2	640	112.791655715228	0.162506103515625	0.162567138671875	1.28173828124994E-08	2.08368522436331E-09	12683333	4.26235674240161E-05
2	641	112.892363714974	0.152435302734375	0.15240478515625	-2.13623046874945E-09	-3.25571708481576E-10	-71342864	4.26241022069007E-05
2	642	112.99307171472	0.142364501953125	0.142425537109375	-2.288818359375E-08	-3.25986193594474E-09	-6222666.5	4.26228434662335E-05
2	643	113.093779714466	0.132293701171875	0.132354736328125	-4.94384765624994E-08	-6.54341647532419E-09	-2677160.5	4.26192018494476E-05
2	644	113.194487714211	0.122222900390625	0.122283935546875	-8.66699218750003E-08	-1.05983390952247E-08	-1410915.5	4.2612347897375E-05
2	645	113.295195713957	0.112152099609375	0.1121826171875	-1.36718750000001E-07	-1.53374681843843E-08	-820535.6875	4.26010992669035E-05
2	646	113.395903713703	0.102081298828125	0.102081298828125	-2.056884765625E-07	-2.0996946403784E-08	-496290.84375	4.25838588853367E-05
2	647	113.496611713449	0.092010498046875	0.092071533203125	-2.99072265625E-07	-2.75360427792748E-08	-307857.125	4.25584403274115E-05
2	648	113.597319713194	0.081939697265625	0.08203125	-4.2266845703125E-07	-3.46720199217998E-08	-194079.421875	4.25220969191287E-05
2	649	113.69802771294	0.071868896484375	0.07196044921875	-5.8349609375E-07	-4.19886418967508E-08	-123326.359375	4.24714344262611E-05
2	650	113.798735712686	0.061798095703125	0.06182861328125	-7.8094482421875E-07	-4.82847326566116E-08	-79171.5546875	4.24027275585104E-05
2	651	113.899443712432	0.051727294921875	0.05169677734375	-1.0113525390625E-06	-5.22836671734694E-08	-51116.4765625	4.23124802182429E-05
2	652	114.000151712177	0.041656494140625	0.04176025390625	-1.2603759765625E-06	-5.26336201289723E-08	-33133.171875	4.21980876126327E-05
2	653	114.100859711923	0.031585693359375	0.0316864013671875	-1.507568359375E-06	-4.77694150902153E-08	-21018.220703125	4.20587130065542E-05
2	654	114.201567711669	0.021514892578125	0.021612548828125	-1.72607421875E-06	-3.73048614221716E-08	-12521.216796875	4.18958843511064E-05
2	655	114.302275711414	0.011444091796875	0.011541748046875	-1.8951416015625E-06	-2.18732463252991E-08	-6090.177734375	4.17135415773373E-05
2	656	114.40298371116	0.001373291015625	0.001483154296875	-2.00042724609375E-06	-2.96694224743987E-09	-741.418762207031	4.15173853980377E-05
2	657	114.503691710906	-0.008697509765625	-0.008636474609375	-2.04345703125E-06	1.7648265071557E-08	4226.40380859375	4.13137604482472E-05
2	658	114.604399710652	-0.018768310546875	-0.01866455078125	-2.0355224609375E-06	3.79921090143398E-08	9169.4150390625	4.11083674407564E-05
2	659	114.705107710397	-0.028839111328125	-0.0287445068359375	-1.99066162109375E-06	5.72205856030905E-08	14439.67578125	4.09056337957736E-05
2	660	114.805815710143	-0.038909912109375	-0.038800048828125	-1.92474365234375E-06	7.46801447348844E-08	20158.5546875	4.07084771723021E-05
2	661	114.906523709889	-0.048980712890625	-0.0488494873046875	-1.84967041015625E-06	9.035544934477E-08	26409.83203125	4.05184182454832E-05
2	662	115.007231709635	-0.059051513671875	-0.05902099609375	-1.77337646484375E-06	1.04666440847723E-07	33281.70703125	4.0335984522244E-05
2	663	115.10793970938	-0.069122314453125	-0.069122314453125	-1.6998291015625E-06	1.17496121276872E-07	40664.2734375	4.01610959670506E-05
2	664	115.208647709126	-0.079193115234375	-0.079132080078125	-1.63238525390625E-06	1.29174040353064E-07	48476.3515625	3.999330510851E-05
2	665	115.309355708872	-0.089263916015625	-0.089202880859375	-1.57135009765625E-06	1.40168950224506E-07	56768.30859375	3.98319825762883E-05
2	666	115.410063708618	-0.099334716796875	-0.099273681640625	-1.517333984375E-06	1.50631336737206E-07	65426.38671875	3.96764553443063E-05
2	667	115.510771708363	-0.109405517578125	-0.109375	-1.4703369140625E-06	1.60818103722704E-07	74387.7109375	3.95260140066966E-05
2	668	115.611479708109	-0.119476318359375	-0.119384765625	-1.429443359375E-06	1.70653748909899E-07	83518.3671875	3.93800000892952E-05
2	669	115.712187707855	-0.129547119140625	-0.129425048828125	-1.392822265625E-06	1.802660847261E-07	92922.875	3.9237886085175E-05
2	670	115.812895707601	-0.139617919921875	-0.139495849609375	-1.36199951171875E-06	1.89993272670108E-07	102419.8984375	3.90991699532606E-05
2	671	115.913603707346	-0.149688720703125	-0.149627685546875	-1.33544921875E-06	1.99820163970799E-07	112042.96875	3.8963342376519E-05
2	672	116.014311707092	-0.159759521484375	-0.15966796875	-1.31195068359375E-06	2.09476496593197E-07	121702.7265625	3.88300359190907E-05
2	673	116.115019706838	-0.169830322265625	-0.169677734375	-1.29180908203125E-06	2.19191235828475E-07	131348.921875	3.8698926800862E-05
2	674	116.215727706583	-0.179901123046875	-0.179718017578125	-1.27532958984375E-06	2.29199685009007E-07	140918.890625	3.85696584999096E-05
2	675	116.316435706329	-0.189971923828125	-0.18994140625	-1.26129150390625E-06	2.39571477322897E-07	150592.796875	3.84419327019714E-05
2	676	116.417143706075	-0.200042724609375	-0.19989013671875	-1.25030517578125E-06	2.49923658657281E-07	159873.09375	3.83154620067216E-05
2	677	116.517851705821	-0.189971923828125	-0.189849853515625	-1.10870361328125E-06	2.10487215213107E-07	171235.890625	3.81966783606913E-05
