Potential - Start -0.2 V, Upper Vertex 1.5 V, Lower Vertex -0.2 V, Stop -0.19 V; Scan - # end cross 5, Rate 0.1 Vps, Step 0.01 V 
Scan	Index	Time (s)	Potential applied (V)	WE(1).Potential (V)	WE(1).Current (A)	WE(1).Power (W)	WE(1).Resistance (Ω)	WE(1).Charge (C)
1	1	65.6405648342735	-0.189971923828125	-0.189849853515625	-2.00500488281249E-07	3.8064985830033E-08	946879.8125	0
1	2	65.7412728340192	-0.179901123046875	-0.179779052734375	-1.708984375E-07	3.07239567121087E-08	1051964.375	-1.87014208563596E-08
1	3	65.841980833765	-0.169830322265625	-0.169677734375	-1.4678955078125E-07	2.4906917417411E-08	1155925.25	-3.46982815813135E-08
1	4	65.9426888335107	-0.159759521484375	-0.159576416015625	-1.263427734375E-07	2.01613268302481E-08	1263043.5	-4.84515858545365E-08
1	5	66.0433968332565	-0.149688720703125	-0.149505615234375	-1.068115234375E-07	1.59689221845838E-08	1399714.375	-6.01918372922228E-08
1	6	66.1441048330022	-0.139617919921875	-0.139495849609375	-8.88061523437497E-08	1.2388089665194E-08	1570790.375	-7.00419704458E-08
1	7	66.2448128327479	-0.129547119140625	-0.129425048828125	-7.04956054687497E-08	9.12389719331941E-09	1835930.875	-7.8063450814625E-08
1	8	66.3455208324937	-0.119476318359375	-0.119354248046875	-5.31005859375003E-08	6.33778052261391E-09	2247701.25	-8.42870093720194E-08
1	9	66.4462288322394	-0.109405517578125	-0.109344482421875	-3.44848632812506E-08	3.77072950641377E-09	3170796.5	-8.86972912894635E-08
1	10	66.5469368319851	-0.099334716796875	-0.099212646484375	-1.34277343750003E-08	1.33220112719101E-09	7388636.5	-9.1109882305318E-08
1	11	66.6476448317309	-0.089263916015625	-0.08917236328125	1.25122070312497E-08	-1.11574305350359E-09	-7126829.5	-9.11559823180141E-08
1	12	66.7483528314766	-0.079193115234375	-0.07916259765625	4.54711914062503E-08	-3.59961749296644E-09	-1740939.625	-8.8236284057075E-08
1	13	66.8490608312223	-0.069122314453125	-0.06903076171875	8.75854492187494E-08	-6.04609029508651E-09	-788153.3125	-8.15363492279175E-08
1	14	66.9497688309681	-0.059051513671875	-0.058990478515625	1.422119140625E-07	-8.38914893108722E-09	-414806.84375	-6.99651323543549E-08
1	15	67.0504768307138	-0.048980712890625	-0.048883056640625	2.14538574218751E-07	-1.0487301693729E-08	-227852.0625	-5.20013223592741E-08
1	16	67.1511848304596	-0.038909912109375	-0.0387542724609375	3.08837890624999E-07	-1.19687877386809E-08	-125484.1953125	-2.56472230120153E-08
1	17	67.2518928302053	-0.028839111328125	-0.028729248046875	4.3060302734375E-07	-1.2370901636416E-08	-66718.640625	1.15865850247587E-08
1	18	67.352600829951	-0.018768310546875	-0.0186065673828125	5.8258056640625E-07	-1.08398241494001E-08	-31938.189453125	6.26044283080773E-08
1	19	67.4533088296968	-0.008697509765625	-0.0085601806640625	7.63854980468751E-07	-6.53873666323079E-09	-11206.5517578125	1.30402838749433E-07
1	20	67.5540168294425	0.001373291015625	0.001446533203125	9.674072265625E-07	1.39938671761541E-09	1495.26818847656	2.1757881540907E-07
1	21	67.6547248291882	0.011444091796875	0.01156005859375	1.177978515625E-06	1.36174991283156E-08	9813.4716796875	3.25607572904119E-07
1	22	67.755432828934	0.021514892578125	0.021612548828125	1.37542724609375E-06	2.97264897142213E-08	15713.3349609375	4.54181758868799E-07
1	23	67.8561408286797	0.031585693359375	0.03167724609375	1.5411376953125E-06	4.8818996845057E-08	20554.45703125	6.01042472681002E-07
1	24	67.9568488284254	0.041656494140625	0.041754150390625	1.65740966796875E-06	6.92037289695691E-08	25192.4140625	7.62102104090445E-07
1	25	68.0575568281712	0.051727294921875	0.051727294921875	1.72119140625E-06	8.90325679847592E-08	30053.193359375	9.32228203964769E-07
1	26	68.1582648279169	0.061798095703125	0.0618896484375	1.737060546875E-06	1.07506068047769E-07	35628.953125	1.10636494810024E-06
1	27	68.2589728276627	0.071868896484375	0.07196044921875	1.7156982421875E-06	1.2346241362593E-07	41942.37109375	1.28022520584636E-06
1	28	68.3596808274084	0.081939697265625	0.082000732421875	1.67144775390625E-06	1.37059942062479E-07	49059.703125	1.45078161040146E-06
1	29	68.4603888271541	0.092010498046875	0.092010498046875	1.61407470703125E-06	1.48511816178143E-07	57005.10546875	1.61622074301704E-06
1	30	68.5610968268999	0.102081298828125	0.1021728515625	1.55242919921875E-06	1.58616117573729E-07	65814.828125	1.77566687398212E-06
1	31	68.6618048266456	0.112152099609375	0.1121826171875	1.49078369140625E-06	1.67240017390213E-07	75250.765625	1.9289047941129E-06
1	32	68.7625128263913	0.122222900390625	0.12225341796875	1.431884765625E-06	1.75052804252118E-07	85379.375	2.07607286029088E-06
1	33	68.8632208261371	0.132293701171875	0.132354736328125	1.3787841796875E-06	1.82488619770993E-07	95993.8046875	2.21760137719684E-06
1	34	68.9639288258828	0.142364501953125	0.14239501953125	1.3311767578125E-06	1.89552935125903E-07	106969.2890625	2.3540587790194E-06
1	35	69.0646368256286	0.152435302734375	0.152435302734375	1.28936767578125E-06	1.96545158814843E-07	118224.8515625	2.48601349994715E-06
1	36	69.1653448253743	0.162506103515625	0.162506103515625	1.2530517578125E-06	2.03628559347635E-07	129688.2578125	2.61403465628973E-06
1	37	69.26605282512	0.172576904296875	0.172607421875	1.2200927734375E-06	2.105970509092E-07	141470.75	2.73856721832999E-06
1	38	69.3667608248658	0.182647705078125	0.18267822265625	1.19110107421875E-06	2.17588237205746E-07	153369.203125	2.85998044091684E-06
1	39	69.4674688246115	0.192718505859375	0.192718505859375	1.16455078125E-06	2.24430479534021E-07	165487.421875	2.97859696729574E-06
1	40	69.5681768243572	0.202789306640625	0.20281982421875	1.14044189453125E-06	2.313042273272E-07	177843.1875	3.09466258840985E-06
1	41	69.668884824103	0.212860107421875	0.212890625	1.11907958984375E-06	2.38241554484375E-07	190237.25	3.20843855661224E-06
1	42	69.7695928238487	0.222930908203125	0.22296142578125	1.0992431640625E-06	2.45088813244365E-07	202831.765625	3.32013996739988E-06
1	43	69.8703008235944	0.233001708984375	0.2330322265625	1.0821533203125E-06	2.5217659072041E-07	215341.234375	3.42998191626975E-06
1	44	69.9710088233402	0.243072509765625	0.24310302734375	1.06689453125E-06	2.59365265264933E-07	227860.421875	3.53819518750242E-06
1	45	70.0717168230859	0.253143310546875	0.253173828125	1.0528564453125E-06	2.6655570195544E-07	240463.78125	3.64493303095514E-06
1	46	70.1724248228317	0.263214111328125	0.26318359375	1.03973388671875E-06	2.73640893055926E-07	253125.921875	3.75030344912375E-06
1	47	70.2731328225774	0.273284912109375	0.2733154296875	1.0260009765625E-06	2.80421886600379E-07	266389.0625	3.85432122129714E-06
1	48	70.3738408223231	0.283355712890625	0.283294677734375	1.0137939453125E-06	2.87202425397481E-07	279440.09375	3.95703318645246E-06
1	49	70.4745488220689	0.293426513671875	0.29339599609375	1.00311279296875E-06	2.94309273840554E-07	292485.5625	4.05859236707329E-06
1	50	70.5752568218146	0.303497314453125	0.303436279296875	9.94262695312501E-07	3.0169536557878E-07	305187.25	4.1591683839215E-06
1	51	70.6759648215603	0.313568115234375	0.31353759765625	9.857177734375E-07	3.09059572600745E-07	318080.5	4.2588685573719E-06
1	52	70.7766728213061	0.323638916015625	0.323577880859375	9.78698730468749E-07	3.1668525934947E-07	330620.53125	4.35778474638937E-06
1	53	70.8773808210518	0.333709716796875	0.333709716796875	9.7320556640625E-07	3.24768137716092E-07	342897.5	4.45607065557851E-06
1	54	70.9780888207976	0.343780517578125	0.34381103515625	9.66796875000001E-07	3.32395416080544E-07	355618.6875	4.55375766250654E-06
1	55	71.0787968205433	0.353851318359375	0.3538818359375	9.613037109375E-07	3.40187938263625E-07	368126.96875	4.6508453124261E-06
1	56	71.179504820289	0.363922119140625	0.363983154296875	9.57641601562501E-07	3.48565379226784E-07	380082.875	4.74747184853186E-06
1	57	71.2802128200348	0.373992919921875	0.3740234375	9.5489501953125E-07	3.57153112418018E-07	391690.65625	4.84377551401849E-06
1	58	71.3809208197805	0.384063720703125	0.384033203125	9.527587890625E-07	3.65890997500173E-07	403074.96875	4.93983361593564E-06
1	59	71.4816288195262	0.394134521484375	0.394073486328125	9.53063964843751E-07	3.75577229760893E-07	413480.65625	5.03579940414056E-06
1	60	71.582336819272	0.404205322265625	0.404266357421875	9.53369140625E-07	3.85415063419714E-07	424039.6875	5.13179611516534E-06
1	61	71.6830448190177	0.414276123046875	0.414306640625	9.5367431640625E-07	3.95113602280617E-07	434432	5.22782329426263E-06
1	62	71.7837528187634	0.424346923828125	0.424346923828125	9.5428466796875E-07	4.04947741117212E-07	444675.4375	5.32389640284237E-06
1	63	71.8844608185092	0.434417724609375	0.434417724609375	9.5428466796875E-07	4.14558144257171E-07	455228.6875	5.42000088898931E-06
1	64	71.9851688182549	0.444488525390625	0.444549560546875	9.5489501953125E-07	4.24498153961395E-07	465548.125	5.51613538846141E-06
1	65	72.0858768180007	0.454559326171875	0.454498291015625	9.5672607421875E-07	4.34830326412339E-07	475055.84375	5.6123931244656E-06
1	66	72.1865848177464	0.464630126953125	0.464630126953125	9.5855712890625E-07	4.45374496393924E-07	484718.28125	5.70883548789425E-06
1	67	72.2872928174921	0.474700927734375	0.47467041015625	9.6099853515625E-07	4.56157550843272E-07	493934.625	5.80549294681987E-06
1	68	72.3880008172379	0.484771728515625	0.48480224609375	9.6405029296875E-07	4.6737375214434E-07	502880.65625	5.90242643738748E-06
1	69	72.4887088169836	0.494842529296875	0.49481201171875	9.66796875000001E-07	4.78382673918532E-07	511805.5625	5.9996523305017E-06
1	70	72.5894168167293	0.504913330078125	0.504913330078125	9.6923828125E-07	4.89381307033909E-07	520938.28125	6.09713970334269E-06
1	71	72.6901248164751	0.514984130859375	0.514984130859375	9.72595214843749E-07	5.00871124131663E-07	529494.8125	6.1949185692356E-06
1	72	72.7908328162208	0.525054931640625	0.525054931640625	9.771728515625E-07	5.13069380758679E-07	537320.4375	6.29309715804993E-06
1	73	72.8915408159666	0.535125732421875	0.535064697265625	9.832763671875E-07	5.26116423316125E-07	544165.125	6.39181371298037E-06
1	74	72.9922488157123	0.545196533203125	0.54510498046875	9.906005859375E-07	5.3998132898414E-07	550277.25	6.49120647722157E-06
1	75	73.092956815458	0.555267333984375	0.55517578125	1.0003662109375E-06	5.55379074285156E-07	554972.5625	6.59145962345065E-06
1	76	73.1936648152038	0.565338134765625	0.565277099609375	1.01226806640625E-06	5.72211945382151E-07	558426.3125	6.6928037085745E-06
1	77	73.2943728149495	0.575408935546875	0.575408935546875	1.02752685546875E-06	5.91248124237609E-07	559994.0625	6.79551567372982E-06
1	78	73.3950808146952	0.585479736328125	0.58544921875	1.04736328125E-06	6.13178031017014E-07	558974.375	6.89999478709069E-06
1	79	73.495788814441	0.595550537109375	0.595489501953125	1.07391357421875E-06	6.39504207811115E-07	554504.1875	7.00680948284571E-06
1	80	73.5964968141867	0.605621337890625	0.605560302734375	1.11114501953125E-06	6.72865326123429E-07	544987.625	7.11683560439269E-06
1	81	73.6972048139324	0.615692138671875	0.61566162109375	1.162109375E-06	7.15466114797891E-07	529779.4375	7.23130324331578E-06
1	82	73.7979128136782	0.625762939453125	0.625732421875	1.23077392578125E-06	7.70135159200436E-07	508405.65625	7.35179446564871E-06
1	83	73.8986208134239	0.635833740234375	0.6357421875	1.3201904296875E-06	8.39300753341377E-07	481553.40625	7.48024558561156E-06
1	84	73.9993288131697	0.645904541015625	0.645904541015625	1.42913818359375E-06	9.2308681587383E-07	451953.875	7.61868523113662E-06
1	85	74.1000368129154	0.655975341796875	0.655914306640625	1.553955078125E-06	1.01926138995623E-06	422093.5	7.76889646658674E-06
1	86	74.2007448126611	0.666046142578125	0.66595458984375	1.688232421875E-06	1.12428608645132E-06	394468.5625	7.93215349403908E-06
1	87	74.3014528124069	0.676116943359375	0.676055908203125	1.81915283203125E-06	1.22984897643619E-06	371632.28125	8.10876372270286E-06
1	88	74.4021608121526	0.686187744140625	0.6861572265625	1.93603515625E-06	1.32842444600101E-06	354413.65625	8.29785312816966E-06
1	89	74.5028688118983	0.696258544921875	0.6961669921875	2.02789306640625E-06	1.41175223689061E-06	343295.71875	8.49745265441015E-06
1	90	74.6035768116441	0.706329345703125	0.706268310546875	2.08953857421875E-06	1.4757748658667E-06	338002.03125	8.70478197612101E-06
1	91	74.7042848113898	0.716400146484375	0.716278076171875	2.12249755859375E-06	1.52029849687096E-06	337469.4375	8.91687432158506E-06
1	92	74.8049928111355	0.726470947265625	0.726409912109375	2.1337890625E-06	1.55000543600181E-06	340431.9375	9.13119583856314E-06
1	93	74.9057008108813	0.736541748046875	0.736419677734375	2.13226318359375E-06	1.57024044256104E-06	345370	9.34600848268019E-06
1	94	75.006408810627	0.746612548828125	0.746490478515625	2.1282958984375E-06	1.58875252509461E-06	350745.625	9.5605446404079E-06
1	95	75.1071168103728	0.756683349609375	0.7568359375	2.1319580078125E-06	1.61354239480715E-06	354995.71875	9.77506533672567E-06
1	96	75.2078248101185	0.766754150390625	0.7666015625	2.15179443359375E-06	1.64956895787327E-06	356261.53125	9.99076928565046E-06
1	97	75.3085328098642	0.776824951171875	0.77667236328125	2.1954345703125E-06	1.70513328612287E-06	353767.03125	1.0209670108452E-05
1	98	75.40924080961	0.786895751953125	0.78704833984375	2.2705078125E-06	1.78699940533988E-06	346639.78125	1.04345481304335E-05
1	99	75.5099488093557	0.796966552734375	0.79742431640625	2.38311767578125E-06	1.90035586911108E-06	334613.90625	1.06688767118612E-05
1	100	75.6106568091014	0.807037353515625	0.80780029296875	2.5341796875E-06	2.0471111383813E-06	318762.03125	1.09164820969454E-05
1	101	75.7113648088472	0.817108154296875	0.8172607421875	2.72216796875E-06	2.22472090172232E-06	300224.21875	1.11811605165713E-05
1	102	75.8120728085929	0.827178955078125	0.82733154296875	2.93914794921875E-06	2.43164981839072E-06	281486.875	1.14662298074109E-05
1	103	75.9127808083387	0.837249755859375	0.83770751953125	3.1658935546875E-06	2.65209291683277E-06	264603.8125	1.17736435640836E-05
1	104	76.0134888080844	0.847320556640625	0.8477783203125	3.38470458984375E-06	2.86947920358216E-06	250473.359375	1.2103491826565E-05
1	105	76.1141968078301	0.857391357421875	0.85723876953125	3.5736083984375E-06	3.0634357699455E-06	239880.4375	1.24538710224442E-05
1	106	76.2149048075759	0.867462158203125	0.8673095703125	3.7158203125E-06	3.22276650877029E-06	233410	1.28209230751963E-05
1	107	76.3156128073216	0.877532958984375	0.877685546875	3.802490234375E-06	3.33739058078208E-06	230818.625	1.31995002448093E-05
1	108	76.4163208070673	0.887603759765625	0.88775634765625	3.8385009765625E-06	3.40765359396755E-06	231276.828125	1.35842547024367E-05
1	109	76.5170288068131	0.897674560546875	0.89813232421875	3.83544921875E-06	3.44474096891645E-06	234166.140625	1.39706680784002E-05
1	110	76.6177368065588	0.907745361328125	0.908203125	3.8134765625E-06	3.46341130352812E-06	238156.21875	1.43558227136964E-05
1	111	76.7184448063045	0.917816162109375	0.91766357421875	3.78662109375E-06	3.47484410667676E-06	242343.65625	1.4738518075319E-05
1	112	76.8191528060503	0.927886962890625	0.9283447265625	3.77471923828125E-06	3.50424056705378E-06	245937.4375	1.51192616613116E-05
1	113	76.919860805796	0.937957763671875	0.93841552734375	3.7896728515625E-06	3.55628776560479E-06	247624.421875	1.55001580424141E-05
1	114	77.0205688055418	0.948028564453125	0.94818115234375	3.843994140625E-06	3.64480251846544E-06	246665.625	1.5884545064182E-05
1	115	77.1212768052875	0.958099365234375	0.95794677734375	3.94775390625E-06	3.78173785975378E-06	242656.171875	1.62768901645904E-05
1	116	77.2219848050332	0.968170166015625	0.968017578125	4.1058349609375E-06	3.97452004108345E-06	235766.328125	1.66824211191852E-05
1	117	77.322692804779	0.978240966796875	0.9783935546875	4.31976318359375E-06	4.22642824560171E-06	226492.421875	1.71066822076682E-05
1	118	77.4234008045247	0.988311767578125	0.98846435546875	4.57794189453125E-06	4.52513222626294E-06	215918.953125	1.75547174876556E-05
1	119	77.5241088042704	0.998382568359375	0.99884033203125	4.86328125E-06	4.85764121549437E-06	205384.046875	1.80301212822087E-05
1	120	77.6248168040162	1.00845336914063	1.00830078125	5.1513671875E-06	5.19412742505665E-06	195734.59375	1.85343997145537E-05
1	121	77.7255248037619	1.01852416992188	1.0186767578125	5.40771484375E-06	5.50871300220024E-06	188374.734375	1.90660903172102E-05
1	122	77.8262328035077	1.02859497070313	1.02813720703125	5.6060791015625E-06	5.76381853534258E-06	183396.84375	1.96206801774679E-05
1	123	77.9269408032534	1.03866577148438	1.03851318359375	5.731201171875E-06	5.95192750552087E-06	181203.421875	2.01915572688449E-05
1	124	78.0276488029991	1.04873657226563	1.04888916015625	5.77392578125E-06	6.05620834903675E-06	181659.625	2.07708853849908E-05
1	125	78.1283568027449	1.05880737304688	1.05926513671875	5.743408203125E-06	6.08379195909947E-06	184431.453125	2.13508301385446E-05
1	126	78.2290648024906	1.06887817382813	1.06903076171875	5.6640625E-06	6.05505692874431E-06	188739.21875	2.19252415263327E-05
1	127	78.3297728022363	1.07894897460938	1.07940673828125	5.5511474609375E-06	5.99194572714623E-06	194447.5	2.24899722525151E-05
1	128	78.4304808019821	1.08901977539063	1.0888671875	5.426025390625E-06	5.90822082813247E-06	200674.921875	2.30427176575176E-05
1	129	78.5311888017278	1.09909057617188	1.0992431640625	5.2978515625E-06	5.82362690693117E-06	207488.5	2.35827064898331E-05
1	130	78.6318968014735	1.10916137695313	1.10931396484375	5.17578125E-06	5.74156638322165E-06	214327.84375	2.41100970015395E-05
1	131	78.7326048012193	1.11923217773438	1.119384765625	5.0628662109375E-06	5.66729522688547E-06	221097.0625	2.46256531681865E-05
1	132	78.833312800965	1.12930297851563	1.129150390625	4.9591064453125E-06	5.59957697987556E-06	227692.3125	2.51302990363911E-05
1	133	78.9340208007108	1.13937377929688	1.13983154296875	4.86480712890625E-06	5.54506050320924E-06	234301.484375	2.56249732046854E-05
1	134	79.0347288004565	1.14944458007813	1.1492919921875	4.7833251953125E-06	5.49743708688766E-06	240270.515625	2.61107943515526E-05
1	135	79.1354368002022	1.15951538085938	1.15936279296875	4.7113037109375E-06	5.46211003893404E-06	246081.109375	2.65888866124442E-05
1	136	79.236144799948	1.16958618164063	1.16973876953125	4.64691162109375E-06	5.43567239219556E-06	251723.921875	2.7060110369348E-05
1	137	79.3368527996937	1.17965698242188	1.1798095703125	4.58953857421875E-06	5.41478129889583E-06	257064.96875	2.75252023129724E-05
1	138	79.4375607994394	1.18972778320313	1.18988037109375	4.5367431640625E-06	5.39818120159907E-06	262276.34375	2.79847481579054E-05
1	139	79.5382687991852	1.19979858398438	1.19964599609375	4.48883056640625E-06	5.38500762559124E-06	267251.34375	2.84392208413919E-05
1	140	79.6389767989309	1.20986938476563	1.209716796875	4.44488525390625E-06	5.37705227543483E-06	272159.28125	2.88890696538147E-05
1	141	79.7396847986766	1.21994018554688	1.21978759765625	4.4061279296875E-06	5.37454025106854E-06	276838.90625	2.93347529805033E-05
1	142	79.8403927984224	1.23001098632813	1.23016357421875	4.37103271484375E-06	5.3770850172441E-06	281435.46875	2.9776718292851E-05
1	143	79.9411007981681	1.24008178710938	1.23992919921875	4.34051513671875E-06	5.3819312597625E-06	285664.09375	3.02153803204419E-05
1	144	80.0418087979139	1.25015258789063	1.2506103515625	4.31304931640625E-06	5.39394432053086E-06	289959.65625	3.06511210510507E-05
1	145	80.1425167976596	1.26022338867188	1.2603759765625	4.288330078125E-06	5.40490782441339E-06	293908.34375	3.10842369799502E-05
1	146	80.2432247974053	1.27029418945313	1.26983642578125	4.266357421875E-06	5.41757617611438E-06	297639.5	3.15149991365615E-05
1	147	80.3439327971511	1.28036499023438	1.28021240234375	4.24713134765625E-06	5.43722990187234E-06	301429.9375	3.19436876452528E-05
1	148	80.4446407968968	1.29043579101563	1.29058837890625	4.23065185546875E-06	5.46003002455109E-06	305056.625	3.23705753544345E-05
1	149	80.5453487966425	1.30050659179688	1.3006591796875	4.21783447265625E-06	5.48596517546684E-06	308371.3125	3.27959933201782E-05
1	150	80.6460567963883	1.31057739257813	1.3104248046875	4.20867919921875E-06	5.51515722690965E-06	311362.5	3.32203017023858E-05
1	151	80.746764796134	1.32064819335938	1.32049560546875	4.2022705078125E-06	5.54907956029638E-06	314233.875	3.3643824281171E-05
1	152	80.8474727958798	1.33071899414063	1.33087158203125	4.19708251953125E-06	5.58577767151291E-06	317094.46875	3.4066764783347E-05
1	153	80.9481807956255	1.34078979492188	1.34063720703125	4.19342041015625E-06	5.62185550734284E-06	319700.15625	3.44892614521086E-05
1	154	81.0488887953712	1.35086059570313	1.3507080078125	4.18975830078125E-06	5.65914024264202E-06	322383.28125	3.49113870470319E-05
1	155	81.149596795117	1.36093139648438	1.36077880859375	4.1864013671875E-06	5.69676649320172E-06	325047.375	3.53331633959897E-05
1	156	81.2503047948627	1.37100219726563	1.370849609375	4.1851806640625E-06	5.73725310459849E-06	327548.5	3.5754703276325E-05
1	157	81.3510127946084	1.38107299804688	1.380615234375	4.18365478515625E-06	5.77601758777746E-06	330002.1875	3.61761085514445E-05
1	158	81.4517207943542	1.39114379882813	1.39068603515625	4.18304443359375E-06	5.81730137128034E-06	332457.875	3.65974046871997E-05
1	159	81.5524287940999	1.40121459960938	1.40167236328125	4.1827392578125E-06	5.86283022130374E-06	335108.71875	3.70186571672093E-05
1	160	81.6531367938456	1.41128540039063	1.4111328125	4.18121337890625E-06	5.90024728808203E-06	337493.625	3.74398150597699E-05
1	161	81.7538447935914	1.42135620117188	1.42120361328125	4.17816162109375E-06	5.93801814829931E-06	340150.5	3.78607437596656E-05
1	162	81.8545527933371	1.43142700195313	1.43157958984375	4.1741943359375E-06	5.97569123783614E-06	342959.5	3.82813159376383E-05
1	163	81.9552607930829	1.44149780273438	1.44134521484375	4.16961669921875E-06	6.0098568610556E-06	345678.125	3.87014624720905E-05
1	164	82.0559687928286	1.45156860351563	1.45172119140625	4.16595458984375E-06	6.04780461799237E-06	348472.625	3.91211906389799E-05
1	165	82.1566767925743	1.46163940429688	1.46148681640625	4.163818359375E-06	6.08536538493354E-06	350996.78125	3.95406277675647E-05
1	166	82.2573847923201	1.47171020507813	1.4715576171875	4.1632080078125E-06	6.12640042163548E-06	353467.25	3.99599266529549E-05
1	167	82.3580927920658	1.48178100585938	1.48162841796875	4.1650390625E-06	6.1710402405879E-06	355729.78125	4.03792873839848E-05
1	168	82.4588007918115	1.49185180664063	1.49139404296875	4.16900634765625E-06	6.21763138042297E-06	357733.6875	4.07989391533192E-05
1	169	82.5595087915573	1.50192260742188	1.50146484375	4.17572021484375E-06	6.26969722361537E-06	359570.25	4.12191293435171E-05
1	170	82.660216791303	1.49185180664063	1.49169921875	4.02374267578125E-06	6.0022134675819E-06	370724.34375	4.16320071963128E-05
1	171	82.7609247910488	1.48178100585938	1.48193359375	3.91265869140625E-06	5.7983002079709E-06	378753.625	4.2031635530293E-05
1	172	82.8616327907945	1.47171020507813	1.47247314453125	3.82354736328125E-06	5.63007051823661E-06	385106.59375	4.24211830249988E-05
1	173	82.9623407905402	1.46163940429688	1.4617919921875	3.7493896484375E-06	5.48082789464388E-06	389874.65625	4.28025123255793E-05
1	174	83.063048790286	1.45156860351563	1.451416015625	3.6865234375E-06	5.35067920282017E-06	393708.625	4.31769403803628E-05
1	175	83.1637567900317	1.44149780273438	1.4410400390625	3.63006591796875E-06	5.23107019034796E-06	396973.53125	4.3545358494157E-05
1	176	83.2644647897774	1.43142700195313	1.4312744140625	3.5791015625E-06	5.12267661179067E-06	399897.6875	4.39083705714438E-05
1	177	83.3651727895232	1.42135620117188	1.4208984375	3.53271484375E-06	5.01962904309039E-06	402211.46875	4.42664786532987E-05
1	178	83.4658807892689	1.41128540039063	1.4111328125	3.48907470703125E-06	4.92354774905834E-06	404443.3125	4.46200538135599E-05
1	179	83.5665887890146	1.40121459960938	1.40106201171875	3.4490966796875E-06	4.83239819004666E-06	406211.3125	4.49694198323414E-05
1	180	83.6672967887604	1.39114379882813	1.3909912109375	3.41278076171875E-06	4.74714806841803E-06	407582.9375	4.53149405075237E-05
1	181	83.7680047885061	1.38107299804688	1.38092041015625	3.37860107421875E-06	4.66557912659482E-06	408725.53125	4.56569141533691E-05
1	182	83.8687127882519	1.37100219726563	1.37115478515625	3.3465576171875E-06	4.58864860775066E-06	409720.96875	4.59955517726485E-05
1	183	83.9694207879976	1.36093139648438	1.3604736328125	3.31512451171875E-06	4.51013920610421E-06	410383.90625	4.63309952465352E-05
1	184	84.0701287877433	1.35086059570313	1.35101318359375	3.2843017578125E-06	4.4371349758876E-06	411354.75	4.66633027826902E-05
1	185	84.1708367874891	1.34078979492188	1.34033203125	3.2537841796875E-06	4.36115124102798E-06	411930.21875	4.69925216748379E-05
1	186	84.2715447872348	1.33071899414063	1.33087158203125	3.22479248046875E-06	4.29178453487111E-06	412699.9375	4.73187428724486E-05
1	187	84.3722527869805	1.32064819335938	1.32080078125	3.19732666015625E-06	4.22303128289059E-06	413095.375	4.7642122808611E-05
1	188	84.4729607867263	1.31057739257813	1.31011962890625	3.1719970703125E-06	4.15569547840278E-06	413026.75	4.79628433822654E-05
1	189	84.573668786472	1.30050659179688	1.30096435546875	3.14788818359375E-06	4.09529002354247E-06	413281.65625	4.82810755784158E-05
1	190	84.6743767862177	1.29043579101563	1.2908935546875	3.1256103515625E-06	4.03482999900007E-06	413005.28125	4.8596972192172E-05
1	191	84.7750847859635	1.28036499023438	1.280517578125	3.10333251953125E-06	3.97387157136109E-06	412626.625	4.89106241730042E-05
1	192	84.8757927857092	1.27029418945313	1.2701416015625	3.08197021484375E-06	3.91453841075418E-06	412120.03125	4.92220788146369E-05
1	193	84.976500785455	1.26022338867188	1.26007080078125	3.06182861328125E-06	3.8581206354138E-06	411541.9375	4.95314416184556E-05
1	194	85.0772087852007	1.25015258789063	1.25	3.0426025390625E-06	3.80325309379259E-06	410832.5	4.98388253618032E-05
1	195	85.1779167849464	1.24008178710938	1.2396240234375	3.02520751953125E-06	3.75011973119399E-06	409764.96875	5.01443646498956E-05
1	196	85.2786247846922	1.23001098632813	1.23016357421875	3.00994873046875E-06	3.70272914551606E-06	408699.1875	5.04482595715672E-05
1	197	85.3793327844379	1.21994018554688	1.2200927734375	2.99560546875E-06	3.65491655429651E-06	407294.21875	5.07506629219279E-05
1	198	85.4800407841836	1.20986938476563	1.21002197265625	2.98126220703125E-06	3.60739272764476E-06	405875.71875	5.10516219947021E-05
1	199	85.5807487839294	1.19979858398438	1.19964599609375	2.96600341796875E-06	3.55815404873283E-06	404465.46875	5.13510894961655E-05
1	200	85.6814567836751	1.18972778320313	1.1895751953125	2.95013427734375E-06	3.50940626958618E-06	403227.5	5.16489926667418E-05
1	201	85.7821647834209	1.17965698242188	1.17950439453125	2.9339599609375E-06	3.46061847267265E-06	402017.90625	5.19452805747278E-05
1	202	85.8828727831666	1.16958618164063	1.16973876953125	2.91717529296875E-06	3.41233294420817E-06	400983.375	5.22399059263989E-05
1	203	85.9835807829123	1.15951538085938	1.15966796875	2.8997802734375E-06	3.36278208123986E-06	399915.8125	5.25328141520731E-05
1	204	86.0842887826581	1.14944458007813	1.14898681640625	2.87994384765625E-06	3.30901752931823E-06	398961.53125	5.28238451806828E-05
1	205	86.1849967824038	1.13937377929688	1.13922119140625	2.8570556640625E-06	3.25481823892915E-06	398739.59375	5.31127261638176E-05
1	206	86.2857047821495	1.12930297851563	1.1285400390625	2.82867431640625E-06	3.19227206091455E-06	398964.28125	5.33990278199781E-05
1	207	86.3864127818953	1.11923217773438	1.119384765625	2.7923583984375E-06	3.12572342409112E-06	400874.3125	5.36820662091486E-05
1	208	86.487120781641	1.10916137695313	1.1090087890625	2.74658203125E-06	3.04598347611318E-06	403777.78125	5.39609754923731E-05
1	209	86.5878287813867	1.09909057617188	1.0992431640625	2.68768310546875E-06	2.95441714115441E-06	408992.84375	5.42346133443061E-05
1	210	86.6885367811325	1.08901977539063	1.0894775390625	2.61077880859375E-06	2.84438465314452E-06	417299.84375	5.45014117960818E-05
1	211	86.7892447808782	1.07894897460938	1.0784912109375	2.509765625E-06	2.70676014224591E-06	429717.90625	5.47592499060556E-05
1	212	86.889952780624	1.06887817382813	1.0687255859375	2.37518310546875E-06	2.53841903941066E-06	449955.03125	5.50052282051183E-05
1	213	86.9906607803697	1.05880737304688	1.0589599609375	2.20001220703125E-06	2.32972479352611E-06	481342.78125	5.52356068510562E-05
1	214	87.0913687801154	1.04873657226563	1.048583984375	1.9775390625E-06	2.07361586035404E-06	530246.875	5.54459620616399E-05
1	215	87.1920767798612	1.03866577148438	1.03912353515625	1.7059326171875E-06	1.77267475010012E-06	609123.4375	5.56314407731406E-05
1	216	87.2927847796069	1.02859497070313	1.0284423828125	1.39312744140625E-06	1.43275121899933E-06	738225.6875	5.57874918740708E-05
1	217	87.3934927793526	1.01852416992188	1.01837158203125	1.05255126953125E-06	1.07188827769278E-06	967526.8125	5.59106410946697E-05
1	218	87.4942007790984	1.00845336914063	1.0089111328125	7.07092285156249E-07	7.13393262685713E-07	1426845	5.59992477064952E-05
1	219	87.5949087788441	0.998382568359375	0.99822998046875	3.86962890625001E-07	3.86277946518021E-07	2579653	5.6054337619571E-05
1	220	87.6956167785899	0.988311767578125	0.98876953125	1.15051269531249E-07	1.13759185182971E-07	8594165	5.60796142963227E-05
1	221	87.7963247783356	0.978240966796875	0.9783935546875	-8.75854492187494E-08	-8.56930384429688E-08	-11170732	5.60809967282694E-05
1	222	87.8970327780813	0.968170166015625	0.968017578125	-2.1331787109375E-07	-2.06495442967025E-07	-4537911.5	5.60658445465378E-05
1	223	87.9977407778271	0.958099365234375	0.95855712890625	-2.6397705078125E-07	-2.53037086395125E-07	-3631213.75	5.60418120585382E-05
1	224	88.0984487775728	0.948028564453125	0.948486328125	-2.55126953125E-07	-2.4198442361012E-07	-3717703.5	5.60156731808092E-05
1	225	88.1991567773185	0.937957763671875	0.9381103515625	-2.0782470703125E-07	-1.94962495925211E-07	-4513950.5	5.59923610126134E-05
1	226	88.2998647770643	0.927886962890625	0.927734375	-1.4068603515625E-07	-1.30519268282114E-07	-6594360.5	5.5974811402848E-05
1	227	88.40057277681	0.917816162109375	0.91796875	-7.04956054687497E-08	-6.47127578190521E-08	-13021646	5.59641775907949E-05
1	228	88.5012807765557	0.907745361328125	0.90789794921875	-1.58691406249994E-08	-1.44075604779914E-08	-57211540	5.59598302061204E-05
1	229	88.6019887763015	0.897674560546875	0.8978271484375	4.57763671875E-09	4.10992617716488E-09	196133344	5.59592626814265E-05
1	230	88.7026967760472	0.887603759765625	0.887451171875	-1.73950195312494E-08	-1.54372301608419E-08	-51017548	5.59586151211988E-05
1	231	88.803404775793	0.877532958984375	0.87799072265625	-8.45336914062495E-08	-7.42197912018128E-08	-10386282	5.5953481933102E-05
1	232	88.9041127755387	0.867462158203125	0.86700439453125	-1.9561767578125E-07	-1.6960137827482E-07	-4432137.5	5.59393774892669E-05
1	233	89.0048207752844	0.857391357421875	0.8575439453125	-3.4027099609375E-07	-2.91797334739385E-07	-2520179.5	5.59123946004547E-05
1	234	89.1055287750302	0.847320556640625	0.8477783203125	-5.04150390624999E-07	-4.27407741199204E-07	-1681598.125	5.58698739041574E-05
1	235	89.2062367747759	0.837249755859375	0.83709716796875	-6.69250488281251E-07	-5.60227704227145E-07	-1250798	5.58107858523726E-05
1	236	89.3069447745216	0.827178955078125	0.8270263671875	-8.1451416015625E-07	-6.73624640512571E-07	-1015361.625	5.57360726816114E-05
1	237	89.4076527742674	0.817108154296875	0.81695556640625	-9.2498779296875E-07	-7.55673909225152E-07	-883206.875	5.56484847038519E-05
1	238	89.5083607740131	0.807037353515625	0.8074951171875	-9.91210937500001E-07	-8.00397913280904E-07	-814655.25	5.55519945919514E-05
1	239	89.6090687737588	0.796966552734375	0.79681396484375	-1.01409912109375E-06	-8.08048298495123E-07	-785735.8125	5.54510188521817E-05
1	240	89.7097767735046	0.786895751953125	0.7867431640625	-1.00128173828125E-06	-7.87751559983008E-07	-785736.0625	5.53495374333579E-05
1	241	89.8104847732503	0.776824951171875	0.77667236328125	-9.63745117187501E-07	-7.4851413955912E-07	-805889.875	5.52505916857626E-05
1	242	89.9111927729961	0.766754150390625	0.7666015625	-9.1400146484375E-07	-7.0067488877612E-07	-838731.25	5.51560369785875E-05
1	243	90.0119007727418	0.756683349609375	0.7568359375	-8.642578125E-07	-6.54101370400895E-07	-875706.25	5.50664954062086E-05
1	244	90.1126087724875	0.746612548828125	0.74652099609375	-8.21533203124999E-07	-6.13291774698155E-07	-908692.4375	5.49816104467027E-05
1	245	90.2133167722333	0.736541748046875	0.736419677734375	-7.92846679687501E-07	-5.83867858949816E-07	-928829.875	5.49003198102582E-05
1	246	90.314024771979	0.726470947265625	0.72637939453125	-7.8125E-07	-5.67483880331565E-07	-929765.625	5.48210555280093E-05
1	247	90.4147327717247	0.716400146484375	0.71636962890625	-7.9071044921875E-07	-5.66440917282307E-07	-905982.25	5.47419003851246E-05
1	248	90.5154407714705	0.706329345703125	0.706268310546875	-8.209228515625E-07	-5.79791787913564E-07	-860334.625	5.46607516298536E-05
1	249	90.6161487712162	0.696258544921875	0.696136474609375	-8.7249755859375E-07	-6.07377387495944E-07	-797866.4375	5.45754810445942E-05
1	250	90.716856770962	0.686187744140625	0.686126708984375	-9.3841552734375E-07	-6.43871942429541E-07	-731154.5	5.44842914678156E-05
1	251	90.8175647707077	0.676116943359375	0.676116943359375	-1.01226806640625E-06	-6.84411588736111E-07	-667922.8125	5.4386069678003E-05
1	252	90.9182727704534	0.666046142578125	0.665985107421875	-1.08184814453125E-06	-7.20494767847413E-07	-615599.4375	5.42806192243006E-05
1	253	91.0189807701992	0.655975341796875	0.6558837890625	-1.136474609375E-06	-7.45395254853065E-07	-577121.375	5.41689187230077E-05
1	254	91.1196887699449	0.645904541015625	0.645904541015625	-1.1669921875E-06	-7.53765561967157E-07	-553478	5.40529290447012E-05
1	255	91.2203967696906	0.635833740234375	0.6358642578125	-1.1712646484375E-06	-7.4476531608525E-07	-542886.9375	5.39351894985884E-05
1	256	91.3211047694364	0.625762939453125	0.625762939453125	-1.15203857421875E-06	-7.20903017281671E-07	-543178.8125	5.38182030140888E-05
1	257	91.4218127691821	0.615692138671875	0.61566162109375	-1.11572265625E-06	-6.86907583258289E-07	-551805.25	5.3704010497313E-05
1	258	91.5225207689278	0.605621337890625	0.605621337890625	-1.0687255859375E-06	-6.47242984541663E-07	-566676.25	5.35940162080806E-05
1	259	91.6232287686736	0.595550537109375	0.595550537109375	-1.0174560546875E-06	-6.05946468112961E-07	-585332.9375	5.34889695700258E-05
1	260	91.7239367684193	0.585479736328125	0.58538818359375	-9.65270996093751E-07	-5.65058201118518E-07	-606449.625	5.3389128879644E-05
1	261	91.8246447681651	0.575408935546875	0.57537841796875	-9.14306640625E-07	-5.26072312823089E-07	-629305.75	5.32944868609775E-05
1	262	91.9253527679108	0.565338134765625	0.5653076171875	-8.6517333984375E-07	-4.89089075017546E-07	-653403.875	5.32048834429588E-05
1	263	92.0260607676565	0.555267333984375	0.555267333984375	-8.18481445312499E-07	-4.54475980404823E-07	-678411.6875	5.31201039848384E-05
1	264	92.1267687674023	0.545196533203125	0.545196533203125	-7.75146484375E-07	-4.22607172367861E-07	-703346.4375	5.30398574483115E-05
1	265	92.227476767148	0.535125732421875	0.535064697265625	-7.354736328125E-07	-3.93525965591834E-07	-727510.375	5.2963790949434E-05
1	266	92.3281847668937	0.525054931640625	0.525115966796875	-7.000732421875E-07	-3.67619605867731E-07	-750087.25	5.28915079485159E-05
1	267	92.4288927666395	0.514984130859375	0.515045166015625	-6.68945312499999E-07	-3.44537028240666E-07	-769936.1875	5.28225718881004E-05
1	268	92.5296007663852	0.504913330078125	0.504974365234375	-6.4117431640625E-07	-3.23776589539193E-07	-787577.3125	5.27566007804126E-05
1	269	92.630308766131	0.494842529296875	0.494873046875	-6.1614990234375E-07	-3.04915971582886E-07	-803169.9375	5.26932890352327E-05
1	270	92.7310167658767	0.484771728515625	0.4847412109375	-5.92041015625E-07	-2.86986647779486E-07	-818762.9375	5.26324511156417E-05
1	271	92.8317247656224	0.474700927734375	0.474700927734375	-5.7098388671875E-07	-2.71046587840829E-07	-831373.5625	5.2573890570784E-05
1	272	92.9324327653682	0.464630126953125	0.464599609375	-5.5206298828125E-07	-2.5648824930613E-07	-841569.9375	5.25173381902277E-05
1	273	93.0331407651139	0.454559326171875	0.45452880859375	-5.34667968749999E-07	-2.43021986534586E-07	-850114.1875	5.24626193509903E-05
1	274	93.1338487648596	0.444488525390625	0.444580078125	-5.206298828125E-07	-2.31461683597445E-07	-853927.3125	5.24094793945551E-05
1	275	93.2345567646054	0.434417724609375	0.434417724609375	-5.08728027343749E-07	-2.21000476585687E-07	-853929.25	5.23576491104905E-05
1	276	93.3352647643511	0.424346923828125	0.424346923828125	-4.98046875E-07	-2.11344655554058E-07	-852022.0625	5.23069538758136E-05
1	277	93.4359727640968	0.414276123046875	0.414276123046875	-4.8858642578125E-07	-2.02409680127857E-07	-847907.5625	5.22572699992452E-05
1	278	93.5366807638426	0.404205322265625	0.4041748046875	-4.791259765625E-07	-1.93650635083031E-07	-843566.9375	5.2208542911103E-05
1	279	93.6373887635883	0.394134521484375	0.394195556640625	-4.69970703125E-07	-1.85260361718065E-07	-838766.25	5.21607507835142E-05
1	280	93.7380967633341	0.384063720703125	0.384063720703125	-4.61730957031251E-07	-1.77334101181259E-07	-831791.1875	5.21138390467968E-05
1	281	93.8388047630798	0.373992919921875	0.373931884765625	-4.54101562500001E-07	-1.69803044514083E-07	-823454.3125	5.20677203894593E-05
1	282	93.9395127628255	0.363922119140625	0.363983154296875	-4.473876953125E-07	-1.62841587325602E-07	-813574.375	5.20223293278832E-05
1	283	94.0402207625713	0.353851318359375	0.3538818359375	-4.4097900390625E-07	-1.56054454691912E-07	-802491.375	5.19775967404712E-05
1	284	94.140928762317	0.343780517578125	0.343780517578125	-4.33959960937499E-07	-1.49186973885662E-07	-792194.125	5.19335371791385E-05
1	285	94.2416367620627	0.333709716796875	0.33380126953125	-4.2724609375E-07	-1.42615277809455E-07	-781285.75	5.1890172471758E-05
1	286	94.3423447618085	0.323638916015625	0.3236083984375	-4.20227050781249E-07	-1.35988997840286E-07	-770079.875	5.18474989803508E-05
1	287	94.4430527615542	0.313568115234375	0.3135986328125	-4.1351318359375E-07	-1.29677161453401E-07	-758376.4375	5.1805516704917E-05
1	288	94.5437607612999	0.303497314453125	0.303436279296875	-4.08935546875E-07	-1.24085872243995E-07	-742014.9375	5.17641055921558E-05
1	289	94.6444687610457	0.293426513671875	0.29345703125	-4.0435791015625E-07	-1.18661667158904E-07	-725735.875	5.17231528647244E-05
1	290	94.7451767607914	0.283355712890625	0.283355712890625	-4.01611328125E-07	-1.13798861889336E-07	-705547.125	5.16825675731525E-05
1	291	94.8458847605372	0.273284912109375	0.273345947265625	-3.98864746093749E-07	-1.09028057693195E-07	-685309.875	5.16422624059487E-05
1	292	94.9465927602829	0.263214111328125	0.26324462890625	-3.96118164062501E-07	-1.04275983403568E-07	-664560.875	5.16022300871555E-05
1	293	95.0473007600286	0.253143310546875	0.253173828125	-3.9398193359375E-07	-9.97459181917293E-08	-642602.625	5.15624451509211E-05
1	294	95.1480087597744	0.243072509765625	0.243072509765625	-3.9215087890625E-07	-9.53210985699116E-08	-619844.375	5.15228603035212E-05
1	295	95.2487167595201	0.233001708984375	0.23297119140625	-3.91540527343751E-07	-9.12176574274781E-08	-595011.6875	5.14833991474006E-05
1	296	95.3494247592658	0.222930908203125	0.222991943359375	-3.9093017578125E-07	-8.71742713570711E-08	-570413.75	5.1443996198941E-05
1	297	95.4501327590116	0.212860107421875	0.212890625	-3.924560546875E-07	-8.35502191876003E-08	-542457.25	5.14045495947357E-05
1	298	95.5508407587573	0.202789306640625	0.20281982421875	-3.936767578125E-07	-7.98454493633471E-08	-515193.8125	5.13649647473358E-05
1	299	95.6515487585031	0.192718505859375	0.19281005859375	-3.9398193359375E-07	-7.59636833436161E-08	-489388.0625	5.13253035023808E-05
1	300	95.7522567582488	0.182647705078125	0.1826171875	-3.94287109374999E-07	-7.20036013035497E-08	-463157.90625	5.12856131535955E-05
1	301	95.8529647579945	0.172576904296875	0.172637939453125	-3.94592285156251E-07	-6.81215936992885E-08	-437509.6875	5.12458900630008E-05
1	302	95.9536727577403	0.162506103515625	0.162567138671875	-3.94592285156251E-07	-6.41477342355756E-08	-411987.65625	5.12061487825122E-05
1	303	96.054380757486	0.152435302734375	0.1524658203125	-3.9520263671875E-07	-6.02548908545941E-08	-385791.53125	5.11663820361719E-05
1	304	96.1550887572317	0.142364501953125	0.14239501953125	-3.985595703125E-07	-5.67528957162722E-08	-357274.125	5.11264115630183E-05
1	305	96.2557967569775	0.132293701171875	0.13238525390625	-4.05273437500001E-07	-5.36522257732486E-08	-326656.625	5.10859354108106E-05
1	306	96.3565047567232	0.122222900390625	0.12225341796875	-4.15649414062499E-07	-5.08145596711529E-08	-294126.3125	5.10446006956045E-05
1	307	96.4572127564689	0.112152099609375	0.112213134765625	-4.32739257812501E-07	-4.85590270216107E-08	-259308.890625	5.10018799104728E-05
1	308	96.5579207562147	0.102081298828125	0.10211181640625	-4.58374023437499E-07	-4.68054039970411E-08	-222769.640625	5.09570090798661E-05
1	309	96.6586287559604	0.092010498046875	0.09210205078125	-4.96826171875001E-07	-4.57587070457066E-08	-185380.84375	5.09089113620576E-05
1	310	96.7593367557062	0.081939697265625	0.08197021484375	-5.52978515624999E-07	-4.53277664291818E-08	-148234	5.08560478920117E-05
1	311	96.8600447554519	0.071868896484375	0.071868896484375	-6.32324218749999E-07	-4.54444410991073E-08	-113658.3046875	5.07963632117026E-05
1	312	96.9607527551976	0.061798095703125	0.06182861328125	-7.391357421875E-07	-4.56997355513522E-08	-83649.8828125	5.07273034600075E-05
1	313	97.0614607549434	0.051727294921875	0.0517578125	-8.77685546875E-07	-4.54270825400727E-08	-58970.79296875	5.06458927702624E-05
1	314	97.1621687546891	0.041656494140625	0.041741943359375	-1.04766845703125E-06	-4.3731716914408E-08	-39842.70703125	5.05489406350534E-05
1	315	97.2628767544348	0.031585693359375	0.0316864013671875	-1.2420654296875E-06	-3.9356585546102E-08	-25511.05859375	5.04336458106991E-05
1	316	97.3635847541806	0.021514892578125	0.0215850830078125	-1.44775390625E-06	-3.12498862342636E-08	-14909.359375	5.02982002217323E-05
1	317	97.4642927539263	0.011444091796875	0.0115325927734375	-1.64794921875E-06	-1.90051263615487E-08	-6998.1484375	5.0142320105806E-05
1	318	97.5650007536721	0.001373291015625	0.00148925781250001	-1.82281494140625E-06	-2.71464117851394E-09	-817.009887695313	4.99675552418921E-05
1	319	97.6657087534178	-0.008697509765625	-0.00861206054687499	-1.95556640625E-06	1.68414562295993E-08	4403.8701171875	4.97772962262388E-05
1	320	97.7664167531635	-0.018768310546875	-0.0186737060546875	-2.03948974609375E-06	3.80848348413565E-08	9156.0673828125	4.95761305501219E-05
1	321	97.8671247529093	-0.028839111328125	-0.0287109375	-2.07427978515625E-06	5.95545159853827E-08	13841.400390625	4.93689840368461E-05
1	322	97.967832752655	-0.038909912109375	-0.0387908935546875	-2.06939697265625E-06	8.0273757419036E-08	18745.0234375	4.9160335038323E-05
1	323	98.0685407524007	-0.048980712890625	-0.048822021484375	-2.0361328125E-06	9.94081261751489E-08	23977.818359375	4.89536032546312E-05
1	324	98.1692487521465	-0.059051513671875	-0.05902099609375	-1.98699951171875E-06	1.172746877387E-07	29703.580078125	4.87510224047583E-05
1	325	98.2699567518922	-0.069122314453125	-0.06903076171875	-1.93115234375E-06	1.33308915906127E-07	35745.890625	4.85537311760709E-05
1	326	98.3706647516379	-0.079193115234375	-0.079132080078125	-1.875E-06	1.48372649277917E-07	42203.77734375	4.83620751765557E-05
1	327	98.4713727513837	-0.089263916015625	-0.08917236328125	-1.82159423828125E-06	1.62435853212628E-07	48952.92578125	4.8175934352912E-05
1	328	98.5720807511294	-0.099334716796875	-0.099273681640625	-1.77459716796875E-06	1.76170786403418E-07	55941.53515625	4.7994853957789E-05
1	329	98.6727887508752	-0.109405517578125	-0.10931396484375	-1.7315673828125E-06	1.89284492080333E-07	63130.0703125	4.78183028462809E-05
1	330	98.7734967506209	-0.119476318359375	-0.11932373046875	-1.69464111328125E-06	2.02210884481246E-07	70412.390625	4.76457789773121E-05
1	331	98.8742047503666	-0.129547119140625	-0.12939453125	-1.6607666015625E-06	2.14894114947128E-07	77912.53125	4.74768239655532E-05
1	332	98.9749127501124	-0.139617919921875	-0.139495849609375	-1.632080078125E-06	2.27668394359171E-07	85471.203125	4.73110158054624E-05
1	333	99.0756207498581	-0.149688720703125	-0.149566650390625	-1.60858154296875E-06	2.40590168232302E-07	92980.4609375	4.71478342660703E-05
1	334	99.1763287496038	-0.159759521484375	-0.159637451171875	-1.5911865234375E-06	2.54012945788418E-07	100326.046875	4.6986711822683E-05
1	335	99.2770367493496	-0.169830322265625	-0.169647216796875	-1.57867431640625E-06	2.67817711119278E-07	107461.8203125	4.68270991405006E-05
1	336	99.3777447490953	-0.179901123046875	-0.179718017578125	-1.571044921875E-06	2.82345069990697E-07	114393.9453125	4.66684978164267E-05
1	337	99.4784527488411	-0.189971923828125	-0.1898193359375	-1.56890869140625E-06	2.97809179983233E-07	120988.140625	4.65103876194917E-05
1	338	99.5791607485868	-0.200042724609375	-0.199920654296875	-1.57012939453125E-06	3.13901296067343E-07	127327.5078125	4.63523247162811E-05
1	339	99.6798687483325	-0.189971923828125	-0.1898193359375	-1.36566162109375E-06	2.59228954746504E-07	138994.421875	4.6204495447455E-05
2	340	99.7805767480783	-0.179901123046875	-0.17974853515625	-1.22161865234375E-06	2.19584151750496E-07	147139.65625	4.60742157883942E-05
2	341	99.881284747824	-0.169830322265625	-0.169708251953125	-1.1065673828125E-06	1.87793602890451E-07	153364.59375	4.59569819213357E-05
2	342	99.9819927475697	-0.159759521484375	-0.159637451171875	-1.01104736328125E-06	1.61401018772267E-07	157893.15625	4.58503527624998E-05
2	343	100.082700747315	-0.149688720703125	-0.1495361328125	-9.30175781250001E-07	1.39094879614277E-07	160761.15625	4.57526039099321E-05
2	344	100.183408747061	-0.139617919921875	-0.13946533203125	-8.58154296874999E-07	1.19682766808182E-07	162517.78125	4.56625530205201E-05
2	345	100.284116746807	-0.129547119140625	-0.129425048828125	-7.9315185546875E-07	1.02653714861844E-07	163178.140625	4.55794033769052E-05
2	346	100.384824746553	-0.119476318359375	-0.119384765625	-7.32421875E-07	8.74400143402454E-08	163000	4.55025874543935E-05
2	347	100.485532746298	-0.109405517578125	-0.10931396484375	-6.75048828124999E-07	7.37922576377059E-08	161934.90625	4.54317123512737E-05
2	348	100.586240746044	-0.099334716796875	-0.0992431640625	-6.1798095703125E-07	6.13303825502953E-08	160592.59375	4.53666034445632E-05
2	349	100.68694874579	-0.089263916015625	-0.0892333984375	-5.60913085937501E-07	5.00521792901054E-08	159085.96875	4.53072425443679E-05
2	350	100.787656745536	-0.079193115234375	-0.079132080078125	-5.0048828125E-07	3.960467864772E-08	158109.75	4.52537969977129E-05
2	351	100.888364745281	-0.069122314453125	-0.069061279296875	-4.32434082031249E-07	2.98644486917965E-08	159703.609375	4.52068197773769E-05
2	352	100.989072745027	-0.059051513671875	-0.0589599609375	-3.5247802734375E-07	2.0782090714988E-08	167272.734375	4.51672967756167E-05
2	353	101.089780744773	-0.048980712890625	-0.0488128662109375	-2.5482177734375E-07	1.24385808319971E-08	191556.890625	4.51367159257643E-05
2	354	101.190488744519	-0.038909912109375	-0.0387420654296875	-1.33666992187501E-07	5.17853493420262E-09	289840.1875	4.51171545137186E-05
2	355	101.291196744264	-0.028839111328125	-0.0287139892578125	1.55639648437497E-08	-4.46903514195185E-10	-1844902.125	4.5111206418369E-05
2	356	101.39190474401	-0.018768310546875	-0.0186279296875	1.94091796875E-07	-3.61552854322156E-09	-95974.84375	4.51217638328671E-05
2	357	101.492612743756	-0.008697509765625	-0.00858459472656251	3.985595703125E-07	-3.42147221665812E-09	-21539.05078125	4.51516061730217E-05
2	358	101.593320743502	0.001373291015625	0.00144042968749999	6.21948242187501E-07	8.95872709349987E-10	2315.99609375	4.52029926236719E-05
2	359	101.694028743247	0.011444091796875	0.0115264892578125	8.48388671875E-07	9.77894298870297E-09	13586.33203125	4.52770327683538E-05
2	360	101.794736742993	0.021514892578125	0.021600341796875	1.05804443359375E-06	2.28541203739496E-08	20415.345703125	4.53730281151365E-05
2	361	101.895444742739	0.031585693359375	0.031689453125	1.23199462890625E-06	3.90412360218306E-08	25722.072265625	4.54883411293849E-05
2	362	101.996152742484	0.041656494140625	0.041729736328125	1.35711669921875E-06	5.66321212147614E-08	30748.822265625	4.56187117379159E-05
2	363	102.09686074223	0.051727294921875	0.051727294921875	1.42791748046875E-06	7.38623100460245E-08	36225.6875	4.57589485449716E-05
2	364	102.197568741976	0.061798095703125	0.061798095703125	1.4495849609375E-06	8.95815901458263E-08	42631.578125	4.59038456028793E-05
2	365	102.298276741722	0.071868896484375	0.0718994140625	1.4337158203125E-06	1.0308332321074E-07	50149.00390625	4.60490300611127E-05
2	366	102.398984741467	0.081939697265625	0.08203125	1.3946533203125E-06	1.14405153794905E-07	58818.3828125	4.61914496554527E-05
2	367	102.499692741213	0.092010498046875	0.092041015625	1.3421630859375E-06	1.23534050544549E-07	68576.625	4.63292599306442E-05
2	368	102.600400740959	0.102081298828125	0.102142333984375	1.2860107421875E-06	1.31356131305438E-07	79425.7265625	4.64615986857098E-05
2	369	102.701108740705	0.112152099609375	0.11224365234375	1.23199462890625E-06	1.38283567707731E-07	91107.2578125	4.65883895230945E-05
2	370	102.80181674045	0.122222900390625	0.122283935546875	1.18133544921875E-06	1.44458340400888E-07	103513.3125	4.67099089291878E-05
2	371	102.902524740196	0.132293701171875	0.13232421875	1.13616943359375E-06	1.50342728488795E-07	116465.21875	4.68266080133617E-05
2	372	103.003232739942	0.142364501953125	0.14239501953125	1.0943603515625E-06	1.55831457959721E-07	130117.125	4.6938923333073E-05
2	373	103.103940739688	0.152435302734375	0.152435302734375	1.0577392578125E-06	1.61236812346033E-07	144114.25	4.70472878077999E-05
2	374	103.204648739433	0.162506103515625	0.162567138671875	1.0260009765625E-06	1.66794038136686E-07	158447.359375	4.7152214392554E-05
2	375	103.305356739179	0.172576904296875	0.172607421875	9.98840332031251E-07	1.72407240484063E-07	172807.828125	4.72541723866016E-05
2	376	103.406064738925	0.182647705078125	0.182708740234375	9.7564697265625E-07	1.78259213612364E-07	187269.328125	4.73535947094206E-05
2	377	103.506772738671	0.192718505859375	0.19268798828125	9.56115722656251E-07	1.84232021638309E-07	201532.078125	4.74508669867646E-05
2	378	103.607480738416	0.202789306640625	0.2027587890625	9.39331054687501E-07	1.90457612347927E-07	215854.453125	4.75463129987475E-05
2	379	103.708188738162	0.212860107421875	0.212890625	9.24072265625001E-07	1.96726318790752E-07	230383.09375	4.76401401101612E-05
2	380	103.808896737908	0.222930908203125	0.222930908203125	9.10034179687499E-07	2.02874744559267E-07	244969.828125	4.77324974781368E-05
2	381	103.909604737653	0.233001708984375	0.233001708984375	8.978271484375E-07	2.09195263778383E-07	259517.34375	4.78235306218266E-05
2	382	104.010312737399	0.243072509765625	0.243072509765625	8.8714599609375E-07	2.15640795886429E-07	273993.8125	4.79134105262347E-05
2	383	104.111020737145	0.253143310546875	0.25311279296875	8.77685546875E-07	2.2215343165044E-07	288386.65625	4.80022754345555E-05
2	384	104.211728736891	0.263214111328125	0.263214111328125	8.697509765625E-07	2.28930730372667E-07	302631.59375	4.80902672279626E-05
2	385	104.312436736636	0.273284912109375	0.27325439453125	8.624267578125E-07	2.35661900660489E-07	316843.59375	4.81774877698626E-05
2	386	104.413144736382	0.283355712890625	0.283294677734375	8.5601806640625E-07	2.4250536512227E-07	330944.75	4.82640170957893E-05
2	387	104.513852736128	0.293426513671875	0.293426513671875	8.4991455078125E-07	2.49387454687167E-07	345242.375	4.83499206893612E-05
2	388	104.614560735874	0.303497314453125	0.303497314453125	8.43200683593751E-07	2.55909128554777E-07	359934.875	4.84351730847266E-05
2	389	104.715268735619	0.313568115234375	0.3135986328125	8.37097167968751E-07	2.62512514836999E-07	374626.3125	4.85197851958219E-05
2	390	104.815976735365	0.323638916015625	0.323638916015625	8.32519531250001E-07	2.69435702193732E-07	388746.34375	4.8603855248075E-05
2	391	104.916684735111	0.333709716796875	0.333770751953125	8.29162597656249E-07	2.76750199645903E-07	402539.59375	4.86875287606381E-05
2	392	105.017392734857	0.343780517578125	0.34381103515625	8.2672119140625E-07	2.84235881053974E-07	415873.03125	4.87709075969178E-05
2	393	105.118100734602	0.353851318359375	0.353851318359375	8.251953125E-07	2.91996428813945E-07	428809.1875	4.8854089982342E-05
2	394	105.218808734348	0.363922119140625	0.36395263671875	8.23974609375E-07	2.99887716437297E-07	441703.71875	4.89371304865927E-05
2	395	105.319516734094	0.373992919921875	0.373931884765625	8.2244873046875E-07	3.07539806954082E-07	454656.78125	4.90200363856275E-05
2	396	105.42022473384	0.384063720703125	0.38409423828125	8.2275390625E-07	3.16015018597682E-07	466839.78125	4.91028768010437E-05
2	397	105.520932733585	0.394134521484375	0.39410400390625	8.221435546875E-07	3.24010045460454E-07	479361.5625	4.91857063025236E-05
2	398	105.621640733331	0.404205322265625	0.404205322265625	8.2366943359375E-07	3.32931563207239E-07	490737.3125	4.92685794597492E-05
2	399	105.722348733077	0.414276123046875	0.414398193359375	8.26416015625001E-07	3.42465284575155E-07	501440.1875	4.93516672577243E-05
2	400	105.823056732822	0.424346923828125	0.424407958984375	8.29467773437501E-07	3.52032714090456E-07	511663	4.94350460940041E-05
2	401	105.923764732568	0.434417724609375	0.434356689453125	8.32214355468749E-07	3.61477844990077E-07	521928.875	4.95187196065672E-05
2	402	106.024472732314	0.444488525390625	0.4444580078125	8.343505859375E-07	3.70833788565506E-07	532699.375	4.96026368637104E-05
2	403	106.12518073206	0.454559326171875	0.454559326171875	8.3648681640625E-07	3.8023287629585E-07	543414.8125	4.9686772399582E-05
2	404	106.225888731805	0.464630126953125	0.464691162109375	8.38623046875001E-07	3.89700687719596E-07	554112.125	4.97711189382244E-05
2	405	106.326596731551	0.474700927734375	0.4747314453125	8.41369628906249E-07	3.9942460716702E-07	564236.5	4.98557128594257E-05
2	406	106.427304731297	0.484771728515625	0.484771728515625	8.4564208984375E-07	4.09943368140375E-07	573258.75	4.99406633025501E-05
2	407	106.528012731043	0.494842529296875	0.494842529296875	8.49304199218751E-07	4.20271817347384E-07	582644.625	5.00260102853645E-05
2	408	106.628720730788	0.504913330078125	0.504852294921875	8.53271484375E-07	4.3077605482722E-07	591666.6875	5.01117392559536E-05
2	409	106.729428730534	0.514984130859375	0.514984130859375	8.58154296874999E-07	4.41935839035068E-07	600106.6875	5.01979193359148E-05
2	410	106.83013673028	0.525054931640625	0.525054931640625	8.624267578125E-07	4.52821410590332E-07	608811.0625	5.02845541632269E-05
2	411	106.930844730026	0.535125732421875	0.535125732421875	8.67309570312499E-07	4.64119665366525E-07	616995.0625	5.03716546518262E-05
2	412	107.031552729771	0.545196533203125	0.545135498046875	8.73718261718751E-07	4.76294843565483E-07	623925.9375	5.04593226651195E-05
2	413	107.132260729517	0.555267333984375	0.555206298828125	8.82568359375E-07	4.9000749413608E-07	629080.25	5.05477582919411E-05
2	414	107.232968729263	0.565338134765625	0.5653076171875	8.9385986328125E-07	5.05305763454089E-07	632434.25	5.06372089148499E-05
2	415	107.333676729009	0.575408935546875	0.57537841796875	9.10034179687499E-07	5.23614005487616E-07	632260.25	5.07280419697054E-05
2	416	107.434384728754	0.585479736328125	0.58538818359375	9.31396484375E-07	5.45228488135763E-07	628505.9375	5.08207667735405E-05
2	417	107.5350927285	0.595550537109375	0.595489501953125	9.5947265625E-07	5.71355940337526E-07	620642.5	5.09159799548797E-05
2	418	107.635800728246	0.605621337890625	0.6055908203125	9.9853515625E-07	6.04703700446407E-07	606479.25	5.10145728185307E-05
2	419	107.736508727991	0.615692138671875	0.61566162109375	1.05072021484375E-06	6.46888111077715E-07	585942.5	5.11177604494151E-05
2	420	107.837216727737	0.625762939453125	0.62567138671875	1.12213134765625E-06	7.02085401371733E-07	557574.125	5.12271726620384E-05
2	421	107.937924727483	0.635833740234375	0.635833740234375	1.21368408203125E-06	7.71701309076889E-07	523887.34375	5.13447885168716E-05
2	422	108.038632727229	0.645904541015625	0.645843505859375	1.32659912109375E-06	8.5677538663731E-07	486841.5	5.14727034897078E-05
2	423	108.139340726974	0.655975341796875	0.655914306640625	1.455078125E-06	9.54406573328015E-07	450776.03125	5.16127729497384E-05
2	424	108.24004872672	0.666046142578125	0.665985107421875	1.59210205078125E-06	1.06031620816793E-06	418305.5625	5.17662083439063E-05
2	425	108.340756726466	0.676116943359375	0.676055908203125	1.72332763671875E-06	1.16506578251574E-06	392296.8125	5.19331551913638E-05
2	426	108.441464726212	0.686187744140625	0.686065673828125	1.83837890625E-06	1.26124859889387E-06	373190.59375	5.21125002705958E-05
2	427	108.542172725957	0.696258544921875	0.696258544921875	1.92626953125E-06	1.34118158712226E-06	361454.375	5.23020644322969E-05
2	428	108.642880725703	0.706329345703125	0.706329345703125	1.98638916015625E-06	1.40304496198951E-06	355584.5625	5.24990828125738E-05
2	429	108.743588725449	0.716400146484375	0.716339111328125	2.02117919921875E-06	1.44784974054346E-06	354416.4375	5.27008814970031E-05
2	430	108.844296725195	0.726470947265625	0.72637939453125	2.03704833984375E-06	1.47966989061388E-06	356584.28125	5.29052304045763E-05
2	431	108.94500472494	0.736541748046875	0.7364501953125	2.042236328125E-06	1.50400524034922E-06	360609.6875	5.31106379639823E-05
2	432	109.045712724686	0.746612548828125	0.74652099609375	2.0465087890625E-06	1.52776181039371E-06	364777.8125	5.3316522098612E-05
2	433	109.146420724432	0.756683349609375	0.7568359375	2.056884765625E-06	1.55672432811116E-06	367952.53125	5.35231447429396E-05
2	434	109.247128724178	0.766754150390625	0.7666015625	2.08282470703125E-06	1.59669673394092E-06	368058.59375	5.37315936526284E-05
2	435	109.347836723923	0.776824951171875	0.77667236328125	2.1307373046875E-06	1.6548848407183E-06	364508.71875	5.39437642146368E-05
2	436	109.448544723669	0.786895751953125	0.7867431640625	2.20916748046875E-06	1.73804733094585E-06	356126.5625	5.41622976015788E-05
2	437	109.549252723415	0.796966552734375	0.797119140625	2.3223876953125E-06	1.85121962203993E-06	343232.59375	5.43904789083172E-05
2	438	109.64996072316	0.807037353515625	0.80718994140625	2.47344970703125E-06	1.99654368771007E-06	326341.75	5.46319679415319E-05
2	439	109.750668722906	0.817108154296875	0.8172607421875	2.6568603515625E-06	2.17134765989613E-06	307603.96875	5.48903008166235E-05
2	440	109.851376722652	0.827178955078125	0.82733154296875	2.86468505859375E-06	2.37004428527143E-06	288803.65625	5.51683297089767E-05
2	441	109.952084722398	0.837249755859375	0.83770751953125	3.0780029296875E-06	2.5784661374928E-06	272159.4375	5.54675680177752E-05
2	442	110.052792722143	0.847320556640625	0.84747314453125	3.2794189453125E-06	2.77921958513616E-06	258421.734375	5.57876919629052E-05
2	443	110.153500721889	0.857391357421875	0.8575439453125	3.4478759765625E-06	2.95670520245039E-06	248716.578125	5.61264387215488E-05
2	444	110.254208721635	0.867462158203125	0.86700439453125	3.57147216796875E-06	3.09648203256074E-06	242758.28125	5.64798901905306E-05
2	445	110.354916721381	0.877532958984375	0.8770751953125	3.64501953125E-06	3.19695618600235E-06	240622.90625	5.68432697036769E-05
2	446	110.455624721126	0.887603759765625	0.8880615234375	3.673095703125E-06	3.26193480759684E-06	241774.6875	5.72117642150261E-05
2	447	110.556332720872	0.897674560546875	0.89813232421875	3.66790771484375E-06	3.29426643475017E-06	244862.3125	5.75814156036358E-05
2	448	110.657040720618	0.907745361328125	0.9075927734375	3.648681640625E-06	3.31151704813237E-06	248745.40625	5.794983371743E-05
2	449	110.757748720364	0.917816162109375	0.91796875	3.6279296875E-06	3.33032608068606E-06	253028.265625	5.83162400289439E-05
2	450	110.858456720109	0.927886962890625	0.927734375	3.62518310546875E-06	3.36320704263926E-06	255913.796875	5.86814639973454E-05
2	451	110.959164719855	0.937957763671875	0.93780517578125	3.65325927734375E-06	3.4260453958268E-06	256703.703125	5.90479612583295E-05
2	452	111.059872719601	0.948028564453125	0.948486328125	3.72344970703125E-06	3.53164114130777E-06	254733.21875	5.94194098084699E-05
2	453	111.160580719347	0.958099365234375	0.9576416015625	3.8446044921875E-06	3.68175301446172E-06	249087.171875	5.98004917264916E-05
2	454	111.261288719092	0.968170166015625	0.96832275390625	4.02191162109375E-06	3.89450860893703E-06	240761.828125	6.01966021349654E-05
2	455	111.361996718838	0.978240966796875	0.9783935546875	4.25262451171875E-06	4.16074044551351E-06	230068.171875	6.06132562097628E-05
2	456	111.462704718584	0.988311767578125	0.9881591796875	4.52301025390625E-06	4.4694538701151E-06	218473.796875	6.10551433055662E-05
2	457	111.563412718329	0.998382568359375	0.99822998046875	4.813232421875E-06	4.80471271657734E-06	207392.84375	6.15252647548914E-05
2	458	111.664120718075	1.00845336914063	1.0089111328125	5.0994873046875E-06	5.14492921865894E-06	197845.609375	6.20244099991396E-05
2	459	111.764828717821	1.01852416992188	1.01806640625	5.352783203125E-06	5.44948852621019E-06	190193.859375	6.25507236691192E-05
2	460	111.865536717567	1.02859497070313	1.02874755859375	5.5419921875E-06	5.70131078347913E-06	185627.765625	6.30993163213134E-05
2	461	111.966244717312	1.03866577148438	1.0382080078125	5.6549072265625E-06	5.87096974413726E-06	183594.171875	6.36631230008788E-05
2	462	112.066952717058	1.04873657226563	1.048583984375	5.6884765625E-06	5.9648455135175E-06	184334.765625	6.42343075014651E-05
2	463	112.167660716804	1.05880737304688	1.05865478515625	5.6488037109375E-06	5.98013275521225E-06	187412.21875	6.48051864118315E-05
2	464	112.26836871655	1.06887817382813	1.0687255859375	5.560302734375E-06	5.94243783780257E-06	192206.359375	6.53696115477942E-05
2	465	112.369076716295	1.07894897460938	1.0791015625	5.4412841796875E-06	5.87169824939338E-06	198317.453125	6.59235811326653E-05
2	466	112.469784716041	1.08901977539063	1.0888671875	5.31005859375E-06	5.78194840272772E-06	205057.484375	6.64649560349062E-05
2	467	112.570492715787	1.09909057617188	1.09893798828125	5.1788330078125E-06	5.69121630178415E-06	212198	6.69931177981198E-05
2	468	112.671200715533	1.10916137695313	1.10870361328125	5.0567626953125E-06	5.60645048608421E-06	219251.671875	6.75085175316781E-05
2	469	112.771908715278	1.11923217773438	1.11968994140625	4.937744140625E-06	5.52874234927003E-06	226761.4375	6.80117809679359E-05
2	470	112.872616715024	1.12930297851563	1.1297607421875	4.835205078125E-06	5.46262481293525E-06	233653.125	6.85038903611712E-05
2	471	112.97332471477	1.13937377929688	1.1395263671875	4.739990234375E-06	5.40134351467714E-06	240406.921875	6.89860389684327E-05
2	472	113.074032714516	1.14944458007813	1.1492919921875	4.654541015625E-06	5.34942682861583E-06	246918.4375	6.94590926286764E-05
2	473	113.174740714261	1.15951538085938	1.15936279296875	4.5782470703125E-06	5.30784927832428E-06	253232.890625	6.99239972163923E-05
2	474	113.275448714007	1.16958618164063	1.1700439453125	4.510498046875E-06	5.27748079548473E-06	259404.609375	7.03816549503244E-05
2	475	113.376156713753	1.17965698242188	1.1798095703125	4.45068359375E-06	5.25095856573898E-06	265085.03125	7.08328880136833E-05
2	476	113.476864713498	1.18972778320313	1.18988037109375	4.39697265625E-06	5.23187145518023E-06	270613.5625	7.12784021743573E-05
2	477	113.577572713244	1.19979858398438	1.19964599609375	4.3475341796875E-06	5.21550191479037E-06	275937.09375	7.17187213012949E-05
2	478	113.67828071299	1.20986938476563	1.209716796875	4.30206298828125E-06	5.20427738592844E-06	281194.59375	7.21542601240799E-05
2	479	113.778988712736	1.21994018554688	1.219482421875	4.25994873046875E-06	5.19493232786772E-06	286266.9375	7.25853969925083E-05
2	480	113.879696712481	1.23001098632813	1.2298583984375	4.22210693359375E-06	5.19259356224211E-06	291290.21875	7.30124957044609E-05
2	481	113.980404712227	1.24008178710938	1.240234375	4.1888427734375E-06	5.19514651386999E-06	296080.4375	7.34360219212249E-05
2	482	114.081112711973	1.25015258789063	1.25	4.15802001953125E-06	5.19752484251512E-06	300623.875	7.38563248887658E-05
2	483	114.181820711719	1.26022338867188	1.26007080078125	4.13238525390625E-06	5.20709772899863E-06	304925.78125	7.4273775680922E-05
2	484	114.282528711464	1.27029418945313	1.27044677734375	4.10888671875E-06	5.22012169312802E-06	309194.90625	7.46887599234469E-05
2	485	114.38323671121	1.28036499023438	1.28021240234375	4.0887451171875E-06	5.23446169609088E-06	313106.46875	7.51015395508148E-05
2	486	114.483944710956	1.29043579101563	1.290283203125	4.06982421875E-06	5.2512259571813E-06	317036.59375	7.55123546696268E-05
2	487	114.584652710702	1.30050659179688	1.3006591796875	4.053955078125E-06	5.27281372342259E-06	320837.125	7.59214235586114E-05
2	488	114.685360710447	1.31057739257813	1.31072998046875	4.041748046875E-06	5.29764020029688E-06	324297.78125	7.63290736358613E-05
2	489	114.786068710193	1.32064819335938	1.32049560546875	4.031982421875E-06	5.32421518073534E-06	327505.3125	7.67356177675538E-05
2	490	114.886776709939	1.33071899414063	1.33056640625	4.02618408203125E-06	5.35710523763555E-06	330478.3125	7.71413760958239E-05
2	491	114.987484709685	1.34078979492188	1.3409423828125	4.022216796875E-06	5.39356096851407E-06	333383.9375	7.7546646934934E-05
2	492	115.08819270943	1.35086059570313	1.3507080078125	4.019775390625E-06	5.42954239790561E-06	336015.8125	7.7951597631909E-05
2	493	115.188900709176	1.36093139648438	1.361083984375	4.01763916015625E-06	5.46834417036735E-06	338777.0625	7.83563082222827E-05
2	494	115.289608708922	1.37100219726563	1.3714599609375	4.01611328125E-06	5.50793811271433E-06	341489.375	7.87608441896737E-05
2	495	115.390316708667	1.38107299804688	1.380615234375	4.0155029296875E-06	5.54386451767641E-06	343821.25	7.91652637417428E-05
2	496	115.491024708413	1.39114379882813	1.3909912109375	4.01580810546875E-06	5.58595365873771E-06	346378.90625	7.95696760178544E-05
2	497	115.591732708159	1.40121459960938	1.4013671875	4.01763916015625E-06	5.63018784305314E-06	348803.65625	7.99741901573725E-05
2	498	115.692440707905	1.41128540039063	1.4111328125	4.0191650390625E-06	5.67157530895201E-06	351101	8.03788789198734E-05
2	499	115.79314870765	1.42135620117188	1.4215087890625	4.02008056640625E-06	5.7145794016833E-06	353602.09375	8.07836840976961E-05
2	500	115.893856707396	1.43142700195313	1.4312744140625	4.0203857421875E-06	5.75427520743688E-06	356004.25	8.11885547591373E-05
2	501	115.994564707142	1.44149780273438	1.44134521484375	4.01885986328125E-06	5.79256402488681E-06	358645.3125	8.159335993696E-05
2	502	116.095272706888	1.45156860351563	1.451416015625	4.01702880859375E-06	5.83037990509183E-06	361315.8125	8.19980050437152E-05
2	503	116.195980706633	1.46163940429688	1.4617919921875	4.01580810546875E-06	5.8702757996798E-06	364009.4375	8.24024900794029E-05
2	504	116.296688706379	1.47171020507813	1.47216796875	4.0155029296875E-06	5.9114945543115E-06	366621.09375	8.28068950795569E-05
2	505	116.397396706125	1.48178100585938	1.48162841796875	4.01702880859375E-06	5.95174424233846E-06	368836.875	8.32113655633293E-05
2	506	116.498104705871	1.49185180664063	1.49139404296875	4.02130126953125E-06	5.99734494244331E-06	370873.5	8.36161270854063E-05
2	507	116.598812705616	1.50192260742188	1.50177001953125	4.0277099609375E-06	6.0486941038107E-06	372859.53125	8.40214270283468E-05
2	508	116.699520705362	1.49185180664063	1.49169921875	3.8995361328125E-06	5.81693439016817E-06	382532.5	8.44205933390185E-05
2	509	116.800228705108	1.48178100585938	1.48193359375	3.80523681640625E-06	5.63910816708812E-06	389445.84375	8.4808561950922E-05
2	510	116.900936704854	1.47171020507813	1.4715576171875	3.729248046875E-06	5.48780326425913E-06	394599.03125	8.51879522087984E-05
2	511	117.001644704599	1.46163940429688	1.46148681640625	3.66455078125E-06	5.35569233761635E-06	398817.46875	8.55602629599161E-05
2	512	117.102352704345	1.45156860351563	1.4520263671875	3.609619140625E-06	5.24126198797603E-06	402265.84375	8.59265419421718E-05
2	513	117.203060704091	1.44149780273438	1.44195556640625	3.5614013671875E-06	5.13538225277443E-06	404884.34375	8.62876331666484E-05
2	514	117.303768703836	1.43142700195313	1.43157958984375	3.51898193359375E-06	5.03770252180402E-06	406816.40625	8.6644162365701E-05
2	515	117.404476703582	1.42135620117188	1.4208984375	3.47900390625E-06	4.94331106892787E-06	408421.0625	8.6996536992956E-05
2	516	117.505184703328	1.41128540039063	1.4111328125	3.4417724609375E-06	4.85679811390582E-06	410001.78125	8.73450262588449E-05
2	517	117.605892703074	1.40121459960938	1.40106201171875	3.406982421875E-06	4.77339381177444E-06	411232.53125	8.76898848218843E-05
2	518	117.706600702819	1.39114379882813	1.3909912109375	3.3740234375E-06	4.69323686047574E-06	412264.84375	8.80313382367603E-05
2	519	117.807308702565	1.38107299804688	1.38092041015625	3.343505859375E-06	4.6171153371688E-06	413015.71875	8.83695902302861E-05
2	520	117.908016702311	1.37100219726563	1.370849609375	3.3154296875E-06	4.54495557278278E-06	413475.6875	8.87048954609782E-05
2	521	118.008724702057	1.36093139648438	1.3604736328125	3.28857421875E-06	4.4740186240233E-06	413697.125	8.90374358277768E-05
2	522	118.109432701802	1.35086059570313	1.3507080078125	3.26324462890625E-06	4.40769053966505E-06	413915.65625	8.93673422979191E-05
2	523	118.210140701548	1.34078979492188	1.3409423828125	3.2373046875E-06	4.34103867519298E-06	414215.71875	8.9694673079066E-05
2	524	118.310848701294	1.33071899414063	1.3311767578125	3.211669921875E-06	4.27529994340148E-06	414481.21875	9.00194063433446E-05
2	525	118.41155670104	1.32064819335938	1.32080078125	3.18695068359375E-06	4.20932701672427E-06	414440.3125	9.03416002984159E-05
2	526	118.512264700785	1.31057739257813	1.3104248046875	3.16314697265625E-06	4.14506621382316E-06	414278.84375	9.06613568076864E-05
2	527	118.612972700531	1.30050659179688	1.30035400390625	3.14117431640625E-06	4.08463847634266E-06	413970.6875	9.09787995624356E-05
2	528	118.713680700277	1.29043579101563	1.29058837890625	3.1201171875E-06	4.02678688260494E-06	413634.59375	9.12940813577734E-05
2	529	118.814388700023	1.28036499023438	1.280517578125	3.1005859375E-06	3.97035455534933E-06	412992.125	9.16073186090216E-05
2	530	118.915096699768	1.27029418945313	1.26983642578125	3.0828857421875E-06	3.91476078220876E-06	411898.625	9.1918685939163E-05
2	531	119.015804699514	1.26022338867188	1.26068115234375	3.06427001953125E-06	3.86306737709674E-06	411413.21875	9.22282197279856E-05
2	532	119.11651269926	1.25015258789063	1.25030517578125	3.0462646484375E-06	3.8087603115855E-06	410438.8125	9.25359054235741E-05
2	533	119.217220699005	1.24008178710938	1.240234375	3.02978515625E-06	3.75764375348808E-06	409347.3125	9.28418594412506E-05
2	534	119.317928698751	1.23001098632813	1.23016357421875	3.01513671875E-06	3.70911129721208E-06	407995.96875	9.31462491280399E-05
2	535	119.418636698497	1.21994018554688	1.21978759765625	3.0010986328125E-06	3.66070275958919E-06	406447.03125	9.34491908992641E-05
2	536	119.519344698243	1.20986938476563	1.209716796875	2.98919677734375E-06	3.61608135790448E-06	404696.28125	9.37508229981177E-05
2	537	119.620052697988	1.19979858398438	1.19964599609375	2.9766845703125E-06	3.57096769221243E-06	403014.15625	9.40512254601344E-05
2	538	119.720760697734	1.18972778320313	1.1895751953125	2.9632568359375E-06	3.52501683664741E-06	401441.8125	9.43503255257383E-05
2	539	119.82146869748	1.17965698242188	1.17889404296875	2.94921875E-06	3.47681634593755E-06	399730.96875	9.46480431593955E-05
2	540	119.922176697226	1.16958618164063	1.16943359375	2.93365478515625E-06	3.43071451425203E-06	398626.875	9.49442692217417E-05
2	541	120.022884696971	1.15951538085938	1.1602783203125	2.91656494140625E-06	3.38402696797857E-06	397823.59375	9.52388509176672E-05
2	542	120.123592696717	1.14944458007813	1.1492919921875	2.89825439453125E-06	3.33094044435711E-06	396546.3125	9.55316500039771E-05
2	543	120.224300696463	1.13937377929688	1.1395263671875	2.87811279296875E-06	3.27968541569135E-06	395928.3125	9.58225136855617E-05
2	544	120.325008696209	1.12930297851563	1.12945556640625	2.85186767578125E-06	3.22105756822566E-06	396040.6875	9.61110417847522E-05
2	545	120.425716695954	1.11923217773438	1.11907958984375	2.8192138671875E-06	3.15492457048094E-06	396947.40625	9.63966085691936E-05
2	546	120.5264246957	1.10916137695313	1.1090087890625	2.77618408203125E-06	3.0788123694947E-06	399472.375	9.66783554758877E-05
2	547	120.627132695446	1.09909057617188	1.0986328125	2.718505859375E-06	2.98663962894352E-06	404131.125	9.69550383160822E-05
2	548	120.727840695192	1.08901977539063	1.08856201171875	2.6434326171875E-06	2.87754028249765E-06	411798.6875	9.72250272752717E-05
2	549	120.828548694937	1.07894897460938	1.0791015625	2.54364013671875E-06	2.74484591500368E-06	424235.1875	9.74862196017057E-05
2	550	120.929256694683	1.06887817382813	1.06903076171875	2.41180419921875E-06	2.57829287875211E-06	443249.40625	9.77357485680841E-05
2	551	121.029964694429	1.05880737304688	1.05865478515625	2.239990234375E-06	2.37137624026218E-06	472615.8125	9.79699834715575E-05
2	552	121.130672694174	1.04873657226563	1.048583984375	2.02056884765625E-06	2.11873611988267E-06	518954.8125	9.81845223577693E-05
2	553	121.23138069392	1.03866577148438	1.03851318359375	1.75201416015625E-06	1.81948973931867E-06	592753.875	9.83744830591604E-05
2	554	121.332088693666	1.02859497070313	1.0284423828125	1.43951416015625E-06	1.48045728565194E-06	714437.1875	9.85351871349849E-05
2	555	121.432796693412	1.01852416992188	1.01837158203125	1.09710693359375E-06	1.11726239993004E-06	928233.75	9.86629165709019E-05
2	556	121.533504693157	1.00845336914063	1.0089111328125	7.4737548828125E-07	7.54035397676489E-07	1349938.875	9.87557941698469E-05
2	557	121.634212692903	0.998382568359375	0.99822998046875	4.1961669921875E-07	4.18873980834178E-07	2378909	9.88145620794967E-05
2	558	121.734920692649	0.988311767578125	0.98876953125	1.40991210937499E-07	1.39407802635105E-07	7012987.5	9.88427855190821E-05
2	559	121.835628692395	0.978240966796875	0.97808837890625	-6.83593750000003E-08	-6.68615101062642E-08	-14308035	9.8846445325762E-05
2	560	121.93633669214	0.968170166015625	0.96832275390625	-1.99279785156251E-07	-1.92967149814649E-07	-4859112	9.88329702522606E-05
2	561	122.037044691886	0.958099365234375	0.9576416015625	-2.53906249999999E-07	-2.43151191625657E-07	-3771634.5	9.88101455732249E-05
2	562	122.137752691632	0.948028564453125	0.94818115234375	-2.484130859375E-07	-2.3554059680464E-07	-3816953.5	9.8784854344558E-05
2	563	122.238460691378	0.937957763671875	0.93841552734375	-2.0263671875E-07	-1.90157436463778E-07	-4631024	9.87621460808441E-05
2	564	122.339168691123	0.927886962890625	0.92803955078125	-1.34887695312499E-07	-1.25181102816896E-07	-6880091	9.87451494438574E-05
2	565	122.439876690869	0.917816162109375	0.91796875	-6.22558593750003E-08	-5.71489309209028E-08	-14745099	9.8735217761714E-05
2	566	122.540584690615	0.907745361328125	0.908203125	-4.88281249999972E-09	-4.43458558763155E-09	-186000000	9.8731841717381E-05
2	567	122.641292690361	0.897674560546875	0.89813232421875	1.8310546875E-08	1.64452931272763E-08	49050004	9.87325183814391E-05
2	568	122.742000690106	0.887603759765625	0.887451171875	-6.10351562499445E-10	-5.41657219077507E-10	-1454000000	9.87334060482681E-05
2	569	122.842708689852	0.877532958984375	0.877685546875	-6.68334960937503E-08	-5.86587916018289E-08	-13132421	9.87300081760623E-05
2	570	122.943416689598	0.867462158203125	0.8673095703125	-1.77001953125E-07	-1.53515486545075E-07	-4900000	9.87177336355671E-05
2	571	123.044124689343	0.857391357421875	0.8575439453125	-3.2379150390625E-07	-2.77665435532981E-07	-2648445	9.86925151664764E-05
2	572	123.144832689089	0.847320556640625	0.8477783203125	-4.90722656250001E-07	-4.16024022342754E-07	-1727612	9.86515005934052E-05
2	573	123.245540688835	0.837249755859375	0.83740234375	-6.59790039062499E-07	-5.525097321879E-07	-1269195.25	9.85935694188811E-05
2	574	123.346248688581	0.827178955078125	0.82733154296875	-8.0902099609375E-07	-6.69328585445328E-07	-1022632.9375	9.85196093097329E-05
2	575	123.446956688326	0.817108154296875	0.8172607421875	-9.2376708984375E-07	-7.54958534798789E-07	-884704.375	9.84323560260236E-05
2	576	123.547664688072	0.807037353515625	0.80718994140625	-9.93957519531249E-07	-8.02312513314973E-07	-812097	9.83357895165682E-05
2	577	123.648372687818	0.796966552734375	0.79681396484375	-1.02203369140625E-06	-8.14370707757917E-07	-779635.75	9.82342753559351E-05
2	578	123.749080687564	0.786895751953125	0.78704833984375	-1.01348876953125E-06	-7.97664597484982E-07	-776573.375	9.81317789410241E-05
2	579	123.849788687309	0.776824951171875	0.7769775390625	-9.79003906250001E-07	-7.60664022436686E-07	-793640.9375	9.80314507614821E-05
2	580	123.950496687055	0.766754150390625	0.76690673828125	-9.3231201171875E-07	-7.14996360784426E-07	-822585.9375	9.79352116701193E-05
2	581	124.051204686801	0.756683349609375	0.7568359375	-8.82873535156251E-07	-6.68190409669478E-07	-857241.625	9.78438038146123E-05
2	582	124.151912686547	0.746612548828125	0.746551513671875	-8.3892822265625E-07	-6.26303119588556E-07	-889887.25	9.77571035036817E-05
2	583	124.252620686292	0.736541748046875	0.736419677734375	-8.074951171875E-07	-5.94655261920707E-07	-911980.375	9.76742012426257E-05
2	584	124.353328686038	0.726470947265625	0.726470947265625	-7.94372558593751E-07	-5.77088542286219E-07	-914521.75	9.75935399765149E-05
2	585	124.454036685784	0.716400146484375	0.716278076171875	-8.026123046875E-07	-5.74893590510328E-07	-892433.4375	9.75131260929629E-05
2	586	124.554744685529	0.706329345703125	0.706329345703125	-8.331298828125E-07	-5.88464104112063E-07	-847802.1875	9.74307622527704E-05
2	587	124.655452685275	0.696258544921875	0.6961669921875	-8.84094238281249E-07	-6.15477233623096E-07	-787435.3125	9.73442947724834E-05
2	588	124.756160685021	0.686187744140625	0.686126708984375	-9.4940185546875E-07	-6.51409948204673E-07	-722693.6875	9.7251970146317E-05
2	589	124.856868684767	0.676116943359375	0.676055908203125	-1.02142333984375E-06	-6.90539252445888E-07	-661876.375	9.71527260844596E-05
2	590	124.957576684512	0.666046142578125	0.66595458984375	-1.08978271484375E-06	-7.25745792351518E-07	-611089.3125	9.70464243437164E-05
2	591	125.058284684258	0.655975341796875	0.6558837890625	-1.142578125E-06	-7.49398452626338E-07	-574038.5	9.69340107985772E-05
2	592	125.158992684004	0.645904541015625	0.645843505859375	-1.17218017578125E-06	-7.57044972488075E-07	-550976.3125	9.68174572335556E-05
2	593	125.25970068375	0.635833740234375	0.635833740234375	-1.1773681640625E-06	-7.4861043231067E-07	-540046.625	9.6699150162749E-05
2	594	125.360408683495	0.625762939453125	0.625701904296875	-1.15936279296875E-06	-7.25415532087936E-07	-539694.625	9.65814833762124E-05
2	595	125.461116683241	0.615692138671875	0.61566162109375	-1.1236572265625E-06	-6.91792592988349E-07	-547908.75	9.64665232459083E-05
2	596	125.561824682987	0.605621337890625	0.6055908203125	-1.07635498046875E-06	-6.51830646347662E-07	-562631.1875	9.63557467912324E-05
2	597	125.662532682733	0.595550537109375	0.595550537109375	-1.0235595703125E-06	-6.09581434218853E-07	-581842.5625	9.62500052992254E-05
2	598	125.763240682478	0.585479736328125	0.58544921875	-9.7015380859375E-07	-5.67975803278387E-07	-603460.1875	9.61496116360649E-05
2	599	125.863948682224	0.575408935546875	0.575439453125	-9.1888427734375E-07	-5.2876225709042E-07	-626237.125	9.60544930421747E-05
2	600	125.96465668197	0.565338134765625	0.5653076171875	-8.7005615234375E-07	-4.91849334594008E-07	-649736.9375	9.59644166869111E-05
2	601	126.065364681716	0.555267333984375	0.55523681640625	-8.24890136718751E-07	-4.58009338899501E-07	-673104	9.58790624281392E-05
2	602	126.166072681461	0.545196533203125	0.545135498046875	-7.8277587890625E-07	-4.26718912649449E-07	-696413.25	9.57981101237237E-05
2	603	126.266780681207	0.535125732421875	0.53509521484375	-7.4310302734375E-07	-3.97630856241449E-07	-720082.1875	9.5721276011318E-05
2	604	126.367488680953	0.525054931640625	0.525054931640625	-7.07397460937501E-07	-3.71422515854647E-07	-742234.75	9.56482399487868E-05
2	605	126.468196680698	0.514984130859375	0.514984130859375	-6.73828125000001E-07	-3.4701076856436E-07	-764266.375	9.55786890699528E-05
2	606	126.568904680444	0.504913330078125	0.504852294921875	-6.44531249999999E-07	-3.25393074263047E-07	-783286	9.5512303232681E-05
2	607	126.66961268019	0.494842529296875	0.494781494140625	-6.182861328125E-07	-3.05916529441674E-07	-800246.8125	9.54487186390907E-05
2	608	126.770320679936	0.484771728515625	0.4847412109375	-5.950927734375E-07	-2.88465997755338E-07	-814564.0625	9.53876224230044E-05
2	609	126.871028679681	0.474700927734375	0.474700927734375	-5.74645996093751E-07	-2.7278497327643E-07	-826075.4375	9.53287162701599E-05
2	610	126.971736679427	0.464630126953125	0.464630126953125	-5.55419921875E-07	-2.58064801528235E-07	-836538.5	9.5271818281617E-05
2	611	127.072444679173	0.454559326171875	0.454559326171875	-5.37719726562499E-07	-2.44425507389678E-07	-845346.25	9.52167683863081E-05
2	612	127.173152678919	0.444488525390625	0.444488525390625	-5.218505859375E-07	-2.31956576612902E-07	-851754.4375	9.51634210650809E-05
2	613	127.273860678664	0.434417724609375	0.4344482421875	-5.08728027343749E-07	-2.21015994839036E-07	-853989.1875	9.51115216594189E-05
2	614	127.37456867841	0.424346923828125	0.424346923828125	-4.9713134765625E-07	-2.10956159207853E-07	-853591.1875	9.50608737184666E-05
2	615	127.475276678156	0.414276123046875	0.41424560546875	-4.88891601562499E-07	-2.02521192704808E-07	-847315.875	9.50112225837074E-05
2	616	127.575984677902	0.404205322265625	0.40423583984375	-4.8187255859375E-07	-1.94790146679225E-07	-838885.4375	9.49623427004553E-05
2	617	127.676692677647	0.394134521484375	0.3941650390625	-4.7454833984375E-07	-1.87050360977992E-07	-830610.9375	9.49141831370071E-05
2	618	127.777400677393	0.384063720703125	0.384063720703125	-4.67834472656251E-07	-1.79678252720805E-07	-820939.3125	9.48667293414474E-05
2	619	127.878108677139	0.373992919921875	0.374053955078125	-4.620361328125E-07	-1.72826446487306E-07	-809577.3125	9.48199085542001E-05
2	620	127.978816676885	0.363922119140625	0.363983154296875	-4.559326171875E-07	-1.65951789199426E-07	-798326.6875	9.47736843954772E-05
2	621	128.07952467663	0.353851318359375	0.35382080078125	-4.5013427734375E-07	-1.59266875243702E-07	-786033.875	9.47280568652786E-05
2	622	128.180232676376	0.343780517578125	0.343780517578125	-4.46166992187499E-07	-1.53383510337335E-07	-770519.875	9.46829313761555E-05
2	623	128.280940676122	0.333709716796875	0.333709716796875	-4.41894531250001E-07	-1.47464490396487E-07	-755179.5625	9.46382133406587E-05
2	624	128.381648675867	0.323638916015625	0.3236083984375	-4.38232421875E-07	-1.41815689858049E-07	-738440.125	9.45938954828307E-05
2	625	128.482356675613	0.313568115234375	0.3135986328125	-4.345703125E-07	-1.36280647211606E-07	-721629.25	9.45499414228834E-05
2	626	128.583064675359	0.303497314453125	0.30352783203125	-4.302978515625E-07	-1.30607361370494E-07	-705390.125	9.45063948165625E-05
2	627	128.683772675105	0.293426513671875	0.293426513671875	-4.26025390625E-07	-1.25007133533472E-07	-688753.625	9.44632774917409E-05
2	628	128.78448067485	0.283355712890625	0.283294677734375	-4.229736328125E-07	-1.19826168543113E-07	-669769.125	9.44205239647999E-05
2	629	128.885188674596	0.273284912109375	0.273223876953125	-4.2083740234375E-07	-1.14982817933651E-07	-649238.625	9.43780323723331E-05
2	630	128.985896674342	0.263214111328125	0.26318359375	-4.193115234375E-07	-1.10355905746928E-07	-627656.5	9.43357299547642E-05
2	631	129.086604674088	0.253143310546875	0.253143310546875	-4.193115234375E-07	-1.06145904510413E-07	-603711.8125	9.42935002967715E-05
2	632	129.187312673833	0.243072509765625	0.2430419921875	-4.193115234375E-07	-1.01910302419128E-07	-579621.5625	9.42512706387788E-05
2	633	129.288020673579	0.233001708984375	0.233001708984375	-4.1961669921875E-07	-9.77714051941803E-08	-555272.75	9.42090337048285E-05
2	634	129.388728673325	0.222930908203125	0.222900390625	-4.20227050781249E-07	-9.36687740704656E-08	-530428.4375	9.41667385632172E-05
2	635	129.489436673071	0.212860107421875	0.212890625	-4.2083740234375E-07	-8.9592333551991E-08	-505873.84375	9.41243924899027E-05
2	636	129.590144672816	0.202789306640625	0.202850341796875	-4.2236328125E-07	-8.56765325352171E-08	-480274.59375	9.40819300012663E-05
2	637	129.690852672562	0.192718505859375	0.192718505859375	-4.25109863281251E-07	-8.19265366658328E-08	-453338.125	9.40392565098591E-05
2	638	129.791560672308	0.182647705078125	0.1826171875	-4.28466796875E-07	-7.8245399492971E-08	-426210.84375	9.39962774282321E-05
2	639	129.892268672054	0.172576904296875	0.17254638671875	-4.32434082031249E-07	-7.46149382280237E-08	-399012	9.39529272727668E-05
2	640	129.992976671799	0.162506103515625	0.162567138671875	-4.35791015625001E-07	-7.08452958519956E-08	-373039.21875	9.39092060434632E-05
2	641	130.093684671545	0.152435302734375	0.1524658203125	-4.3792724609375E-07	-6.6768933493222E-08	-348153.3125	9.38652156037278E-05
2	642	130.194392671291	0.142364501953125	0.142425537109375	-4.412841796875E-07	-6.28501339861032E-08	-322752.4375	9.38209414016455E-05
2	643	130.295100671036	0.132293701171875	0.13232421875	-4.473876953125E-07	-5.9200225166478E-08	-295770.8125	9.37761942623183E-05
2	644	130.395808670782	0.122222900390625	0.122314453125	-4.5745849609375E-07	-5.59537873812133E-08	-267378.25	9.37306322157383E-05
2	645	130.496516670528	0.112152099609375	0.1121826171875	-4.74853515625E-07	-5.32703090527775E-08	-236246.796875	9.36836877372116E-05
2	646	130.597224670274	0.102081298828125	0.10205078125	-5.01403808593751E-07	-5.11686515380916E-08	-203530.125	9.36345240916125E-05
2	647	130.697932670019	0.092010498046875	0.092010498046875	-5.413818359375E-07	-4.98128116532826E-08	-169954.90625	9.35820207814686E-05
2	648	130.798640669765	0.081939697265625	0.082061767578125	-5.99365234375E-07	-4.91849689865376E-08	-136914.46875	9.35245770961046E-05
2	649	130.899348669511	0.071868896484375	0.071929931640625	-6.8023681640625E-07	-4.89293867644847E-08	-105742.4921875	9.34601412154734E-05
2	650	131.000056669257	0.061798095703125	0.061920166015625	-7.8765869140625E-07	-4.8771955363236E-08	-78612.9453125	9.33862320380285E-05
2	651	131.100764669002	0.051727294921875	0.0517578125	-9.2742919921875E-07	-4.800170572139E-08	-55807.83203125	9.32998664211482E-05
2	652	131.201472668748	0.041656494140625	0.041741943359375	-1.0980224609375E-06	-4.58335911446284E-08	-38015.56640625	9.31978793232702E-05
2	653	131.302180668494	0.031585693359375	0.0316986083984375	-1.29547119140625E-06	-4.10646308068863E-08	-24468.78515625	9.30773530853912E-05
2	654	131.40288866824	0.021514892578125	0.02158203125	-1.505126953125E-06	-3.24836975096332E-08	-14339.01171875	9.29363377508707E-05
2	655	131.503596667985	0.011444091796875	0.0115570068359375	-1.707763671875E-06	-1.97366372134411E-08	-6767.333984375	9.27745568333194E-05
2	656	131.604304667731	0.001373291015625	0.00145263671875	-1.88385009765625E-06	-2.73654965354808E-09	-771.099975585938	9.25936983549036E-05
2	657	131.705012667477	-0.008697509765625	-0.0086181640625	-2.0166015625E-06	1.73794010294159E-08	4273.60791015625	9.2397298431024E-05
2	658	131.805720667223	-0.018768310546875	-0.0186309814453125	-2.09747314453125E-06	3.90779817394105E-08	8882.583984375	9.21901373658329E-05
2	659	131.906428666968	-0.028839111328125	-0.0286895751953125	-2.13043212890625E-06	6.11211845580328E-08	13466.552734375	9.19772428460419E-05
2	660	132.007136666714	-0.038909912109375	-0.03878173828125	-2.1240234375E-06	8.23733259380788E-08	18258.62109375	9.17630168260075E-05
2	661	132.10784466646	-0.048980712890625	-0.048870849609375	-2.091064453125E-06	1.02192089457276E-07	23371.28125	9.15507698664442E-05
2	662	132.208552666205	-0.059051513671875	-0.0589599609375	-2.04315185546875E-06	1.20464150654698E-07	28857.35546875	9.13425974431448E-05
2	663	132.309260665951	-0.069122314453125	-0.06915283203125	-1.988525390625E-06	1.37512159881226E-07	34775.9375	9.11395836737938E-05
2	664	132.409968665697	-0.079193115234375	-0.079132080078125	-1.9329833984375E-06	1.52960993204942E-07	40937.796875	9.09421214601025E-05
2	665	132.510676665443	-0.089263916015625	-0.089141845703125	-1.8798828125E-06	1.67576217791066E-07	47418.83203125	9.0750130766537E-05
2	666	132.611384665188	-0.099334716796875	-0.099212646484375	-1.8316650390625E-06	1.817243315827E-07	54165.27734375	9.05632405192591E-05
2	667	132.712092664934	-0.109405517578125	-0.109283447265625	-1.78985595703125E-06	1.95601629116027E-07	61057.12109375	9.03808759176172E-05
2	668	132.81280066468	-0.119476318359375	-0.11932373046875	-1.75506591796875E-06	2.09421017416389E-07	67988.1796875	9.02023748494685E-05
2	669	132.913508664426	-0.129547119140625	-0.129486083984375	-1.72515869140625E-06	2.23384034825358E-07	75057.4921875	9.00271334103309E-05
2	670	133.014216664171	-0.139617919921875	-0.139434814453125	-1.6998291015625E-06	2.37015356674419E-07	82028.7265625	8.98546713870019E-05
2	671	133.114924663917	-0.149688720703125	-0.149566650390625	-1.6796875E-06	2.51225230840646E-07	89044.3359375	8.96845012903214E-05
2	672	133.215632663663	-0.159759521484375	-0.159637451171875	-1.66229248046875E-06	2.6536412178757E-07	96034.515625	8.95162156666629E-05
2	673	133.316340663409	-0.169830322265625	-0.169647216796875	-1.65069580078125E-06	2.80035919786314E-07	102773.1640625	8.93493997864425E-05
2	674	133.417048663154	-0.179901123046875	-0.17974853515625	-1.64306640625E-06	2.95338793421251E-07	109398.21875	8.91835443326272E-05
2	675	133.5177566629	-0.189971923828125	-0.18975830078125	-1.64031982421875E-06	3.11264273022971E-07	115683.7265625	8.90182127477601E-05
2	676	133.618464662646	-0.200042724609375	-0.199859619140625	-1.64459228515625E-06	3.28687576711673E-07	121525.3359375	8.88528011273593E-05
2	677	133.719172662392	-0.189971923828125	-0.189849853515625	-1.42822265625E-06	2.71147854391529E-07	132927.359375	8.8698070612736E-05
