Potential,Current,Normalized_Potential,Normalized_Current
-0.204925537109375,4.6722412109375e-07,-0.206451416015625,0.07237401909804292
-0.19989013671875,5.6793212890625e-07,-0.201416015625,0.08797390564432259
-0.194854736328125,5.7525634765625e-07,-0.196380615234375,0.08910844284768837
-0.1898193359375,5.7861328125e-07,-0.19134521484375,0.08962843906589771
-0.184783935546875,5.810546875e-07,-0.186309814453125,0.09000661813368631
-0.17974853515625,5.8441162109375e-07,-0.1812744140625,0.09052661435189562
-0.174713134765625,5.88378906250001e-07,-0.176239013671875,0.09114115533705225
-0.169677734375,5.95703125000001e-07,-0.17120361328125,0.09227569254041805
-0.164642333984375,6.04248046875e-07,-0.166168212890625,0.09359931927767799
-0.15960693359375,6.15234375e-07,-0.1611328125,0.09530112508272667
-0.154571533203125,6.2896728515625e-07,-0.156097412109375,0.09742838233903753
-0.1495361328125,6.46362304687499e-07,-0.15106201171875,0.10012290819703114
-0.144500732421875,6.67724609374999e-07,-0.146026611328125,0.10343197504018138
-0.13946533203125,6.939697265625e-07,-0.1409912109375,0.10749740001890895
-0.134429931640625,7.25708007812501e-07,-0.135955810546875,0.11241372790016088
-0.12939453125,7.659912109375e-07,-0.13092041015625,0.11865368251867259
-0.124359130859375,8.14208984375001e-07,-0.125885009765625,0.12612271910749756
-0.11932373046875,8.7310791015625e-07,-0.120849609375,0.13524628911789732
-0.114288330078125,9.42382812499999e-07,-0.115814208984375,0.14597712016639863
-0.1092529296875,1.02691650390625e-06,-0.11077880859375,0.159071570388579
-0.104217529296875,1.1273193359375e-06,-0.105743408203125,0.1746241845513851
-0.09918212890625,1.24542236328125e-06,-0.1007080078125,0.1929185969556585
-0.094146728515625,1.3861083984375e-06,-0.095672607421875,0.21471116573697646
-0.089111328125,1.5496826171875e-06,-0.09063720703125,0.2400491632788125
-0.084075927734375,1.7413330078125e-06,-0.085601806640625,0.2697362201002174
-0.07904052734375,1.959228515625e-06,-0.08056640625,0.30348870190034977
-0.074005126953125,2.20703125e-06,-0.075531005859375,0.34187387728089247
-0.0689697265625,2.4847412109375e-06,-0.07049560546875,0.3848917462418455
-0.063934326171875,2.79296875e-06,-0.065460205078125,0.432636853550156
-0.05889892578125,3.12774658203125e-06,-0.0604248046875,0.48449465822066745
-0.053863525390625,3.4869384765625e-06,-0.055389404296875,0.540134253569065
-0.048828125,3.8623046875e-06,-0.05035400390625,0.5982792852415619
-0.043792724609375,4.2535400390625e-06,-0.045318603515625,0.6588824808546847
-0.03875732421875,4.6441650390625e-06,-0.040283203125,0.7193911317008603
-0.033721923828125,5.02685546875e-06,-0.035247802734375,0.778670700576723
-0.0286865234375,5.3887939453125e-06,-0.03021240234375,0.8347357473763827
-0.023651123046875,5.7171630859375e-06,-0.025177001953125,0.8856008319939491
-0.01861572265625,5.997314453125e-06,-0.0201416015625,0.9289968800226908
-0.013580322265625,6.2188720703125e-06,-0.015106201171875,0.9633166304245059
-0.008544921875,6.3751220703125e-06,-0.01007080078125,0.9875200907629762
-0.003509521484375,6.45355224609375e-06,-0.005035400390625,0.9996690933156849
0.00152587890625,6.4556884765625e-06,0.0,1.0
0.006561279296875,6.368408203125e-06,0.005035400390625,0.9864800983265576
0.0115966796875,6.2054443359375e-06,0.01007080078125,0.9612366455516687
0.016632080078125,5.9722900390625e-06,0.015106201171875,0.9251205445778576
0.02166748046875,5.67474365234375e-06,0.0201416015625,0.8790299706911222
0.026702880859375,5.33233642578125e-06,0.025177001953125,0.8259903564337714
0.03173828125,4.9517822265625e-06,0.03021240234375,0.7670416942422236
0.036773681640625,4.5538330078125e-06,0.035247802734375,0.7053985061926822
0.04180908203125,4.14703369140625e-06,0.040283203125,0.6423844190224072
0.046844482421875,3.7457275390625e-06,0.045318603515625,0.5802212347546564
0.0518798828125,3.36212158203125e-06,0.05035400390625,0.5207998487283729
0.056915283203125,2.9962158203125e-06,0.055389404296875,0.4641202609435568
0.06195068359375,2.66082763671875e-06,0.0604248046875,0.41216791150609816
0.066986083984375,2.35626220703125e-06,0.065460205078125,0.36499007279947054
0.072021484375,2.08404541015625e-06,0.07049560546875,0.32282310674104187
0.077056884765625,1.844482421875e-06,0.075531005859375,0.2857142857142857
0.08209228515625,1.63421630859375e-06,0.08056640625,0.25314361350099274
0.087127685546875,1.4532470703125e-06,0.085601806640625,0.2251110901011629
0.0921630859375,1.2994384765625e-06,0.09063720703125,0.20128580883048122
0.097198486328125,1.16790771484375e-06,0.095672607421875,0.1809114115533705
0.10223388671875,1.05743408203125e-06,0.1007080078125,0.16379880873593647
0.107269287109375,9.63134765625e-07,0.105743408203125,0.14919164224260187
0.1123046875,8.85620117187501e-07,0.11077880859375,0.13718445684031402
0.117340087890625,8.197021484375e-07,0.115814208984375,0.12697362201002174
0.12237548828125,7.6446533203125e-07,0.120849609375,0.11841732060130471
0.127410888671875,7.17773437500001e-07,0.125885009765625,0.11118464592984793
0.1324462890625,6.7901611328125e-07,0.13092041015625,0.10518105322870379
0.137481689453125,6.4666748046875e-07,0.135955810546875,0.10017018058050486
0.14251708984375,6.19201660156249e-07,0.1409912109375,0.09591566606788299
0.147552490234375,5.963134765625e-07,0.146026611328125,0.09237023730736503
0.152587890625,5.7708740234375e-07,0.15106201171875,0.08939207714852983
0.157623291015625,5.6121826171875e-07,0.156097412109375,0.08693391320790395
0.16265869140625,5.474853515625e-07,0.1611328125,0.08480665595159308
0.167694091796875,5.34973144531249e-07,0.166168212890625,0.08286848822917635
0.1727294921875,5.255126953125e-07,0.17120361328125,0.08140304434149569
0.177764892578125,5.1849365234375e-07,0.176239013671875,0.08031577952160349
0.18280029296875,5.11474609375e-07,0.1812744140625,0.07922851470171126
0.187835693359375,5.05981445312499e-07,0.186309814453125,0.07837761179918676
0.19287109375,5.0201416015625e-07,0.19134521484375,0.07776307081403044
0.197906494140625,4.98046874999999e-07,0.196380615234375,0.07714852982887381
0.20294189453125,4.9468994140625e-07,0.201416015625,0.07662853361066464
0.207977294921875,4.91943359375e-07,0.206451416015625,0.07620308215940247
0.2130126953125,4.8980712890625e-07,0.21148681640625,0.07587217547508744
0.218048095703125,4.8828125e-07,0.216522216796875,0.07563581355771958
0.22308349609375,4.8675537109375e-07,0.2215576171875,0.0753994516403517
0.228118896484375,4.8553466796875e-07,0.226593017578125,0.0752103621064574
0.233154296875,4.8492431640625e-07,0.23162841796875,0.07511581733951027
0.238189697265625,4.8370361328125e-07,0.236663818359375,0.07492672780561596
0.24322509765625,4.840087890625e-07,0.24169921875,0.07497400018908952
0.248260498046875,4.84313964843749e-07,0.246734619140625,0.07502127257256296
0.2532958984375,4.83398437499999e-07,0.25177001953125,0.07487945542214224
0.258331298828125,4.84008789062501e-07,0.256805419921875,0.07497400018908969
0.26336669921875,4.8492431640625e-07,0.2618408203125,0.07511581733951027
0.268402099609375,4.86145019531249e-07,0.266876220703125,0.07530490687340441
0.2734375,4.8736572265625e-07,0.27191162109375,0.07549399640729886
0.278472900390625,4.89196777343751e-07,0.276947021484375,0.07577763070814046
0.28350830078125,4.9102783203125e-07,0.281982421875,0.07606126500898175
0.288543701171875,4.931640625e-07,0.287017822265625,0.07639217169329678
0.2935791015625,4.9530029296875e-07,0.29205322265625,0.0767230783776118
0.298614501953125,4.98352050781249e-07,0.297088623046875,0.07719580221234738
0.30364990234375,5.0079345703125e-07,0.3021240234375,0.07757398128013615
0.308685302734375,5.04455566406249e-07,0.307159423828125,0.07814124988181889
0.313720703125,5.0811767578125e-07,0.31219482421875,0.07870851848350194
0.318756103515625,5.11779785156251e-07,0.317230224609375,0.07927578708518498
0.32379150390625,5.16357421875001e-07,0.322265625,0.07998487283728861
0.328826904296875,5.21545410156249e-07,0.327301025390625,0.08078850335633907
0.3338623046875,5.26123046875e-07,0.33233642578125,0.08149758910844283
0.338897705078125,5.31616210937501e-07,0.337371826171875,0.08234849201096735
0.34393310546875,5.37719726562499e-07,0.3424072265625,0.08329393968043852
0.348968505859375,5.43518066406251e-07,0.347442626953125,0.08419211496643676
0.35400390625,5.4901123046875e-07,0.35247802734375,0.08504301786896094
0.359039306640625,5.5572509765625e-07,0.357513427734375,0.0860830103053796
0.36407470703125,5.62133789062501e-07,0.362548828125,0.08707573035832482
0.369110107421875,5.68542480468749e-07,0.367584228515625,0.08806845041126957
0.3741455078125,5.7525634765625e-07,0.37261962890625,0.08910844284768837
0.379180908203125,5.80749511718749e-07,0.377655029296875,0.08995934575021257
0.38421630859375,5.87158203125e-07,0.3826904296875,0.09095206580315779
0.389251708984375,5.92956542968749e-07,0.387725830078125,0.09185024108915556
0.394287109375,5.97534179687499e-07,0.39276123046875,0.09255932684125918
0.399322509765625,6.03027343750001e-07,0.397796630859375,0.09341022974378384
0.40435791015625,6.0882568359375e-07,0.40283203125,0.09430840502978159
0.409393310546875,6.14013671874999e-07,0.407867431640625,0.09511203554883221
0.4144287109375,6.201171875e-07,0.41290283203125,0.09605748321830387
0.419464111328125,6.2591552734375e-07,0.417938232421875,0.09695565850430178
0.42449951171875,6.3201904296875e-07,0.4229736328125,0.09790110617377328
0.429534912109375,6.3934326171875e-07,0.428009033203125,0.09903564337713908
0.4345703125,6.4849853515625e-07,0.43304443359375,0.10045381488134632
0.439605712890625,6.57958984375e-07,0.438079833984375,0.10191925876902713
0.44464111328125,6.689453125e-07,0.443115234375,0.10362106457407581
0.449676513671875,6.82983398437501e-07,0.448150634765625,0.10579559421386041
0.4547119140625,6.98242187500001e-07,0.45318603515625,0.10815921338753914
0.459747314453125,7.16552734375001e-07,0.458221435546875,0.11099555639595363
0.46478271484375,7.38525390625e-07,0.4632568359375,0.11439916800605086
0.469818115234375,7.6324462890625e-07,0.468292236328125,0.11822823106741041
0.474853515625,7.9315185546875e-07,0.47332763671875,0.12286092464782074
0.479888916015625,8.27636718750001e-07,0.478363037109375,0.12820270398033484
0.48492431640625,8.6822509765625e-07,0.4833984375,0.13448993098232012
0.489959716796875,9.173583984375e-07,0.488433837890625,0.14210078472156565
0.4949951171875,9.747314453125e-07,0.49346923828125,0.1509879928145977
0.500030517578125,1.04583740234375e-06,0.498504638671875,0.16200245816394063
0.50506591796875,1.13067626953125e-06,0.5035400390625,0.1751441807695944
0.510101318359375,1.23291015625e-06,0.508575439453125,0.19098042923324193
0.51513671875,1.3568115234375e-06,0.51361083984375,0.21017301692351328
0.520172119140625,1.50665283203125e-06,0.518646240234375,0.23338375720903845
0.52520751953125,1.68701171875e-06,0.523681640625,0.26132173584192114
0.530242919921875,1.90093994140625e-06,0.528717041015625,0.29445967665689704
0.5352783203125,2.1533203125e-06,0.53375244140625,0.33355393778954334
0.540313720703125,2.4456787109375e-06,0.538787841796875,0.37884088115722797
0.54534912109375,2.7801513671875e-06,0.5438232421875,0.43065141344426583
0.550384521484375,3.1610107421875e-06,0.548858642578125,0.48964734801928717
0.555419921875,3.594970703125e-06,0.55389404296875,0.5568686773187104
0.560455322265625,4.08843994140625e-06,0.558929443359375,0.6333081213954808
0.56549072265625,4.6380615234375e-06,0.56396484375,0.7184456840313889
0.570526123046875,5.2557373046875e-06,0.569000244140625,0.8141249881819042
0.5755615234375,5.93048095703125e-06,0.57403564453125,0.9186442280419779
0.580596923828125,6.66473388671875e-06,0.579071044921875,1.0323815826793987
0.58563232421875,7.445068359375e-06,0.5841064453125,1.1532570672213294
0.590667724609375,8.26568603515625e-06,0.589141845703125,1.2803725063817717
0.595703125,9.1192626953125e-06,0.59417724609375,1.4125933629573602
0.600738525390625,9.9871826171875e-06,0.599212646484375,1.547036021556207
0.60577392578125,1.08517456054688e-05,0.604248046875,1.6809586839368518
0.610809326171875,1.17059326171875e-05,0.609283447265625,1.8132740852793796
0.6158447265625,1.2530517578125e-05,0.61431884765625,1.9410040654249787
0.620880126953125,1.3314208984375e-05,0.619354248046875,2.0623995461851186
0.62591552734375,1.40380859375e-05,0.6243896484375,2.174529639784438
0.630950927734375,1.46981811523438e-05,0.629425048828125,2.2767798052377874
0.635986328125,1.52853393554688e-05,0.63446044921875,2.367731871040945
0.641021728515625,1.57958984375e-05,0.639495849609375,2.446818568592228
0.64605712890625,1.62210083007813e-05,0.64453125,2.5126689987709256
0.651092529296875,1.6561279296875e-05,0.649566650390625,2.5653777063439542
0.6561279296875,1.68255615234375e-05,0.65460205078125,2.60631559043207
0.661163330078125,1.6990966796875e-05,0.659637451171875,2.6319372222747472
0.66619873046875,1.70599365234375e-05,0.6646728515625,2.6426207809397746
0.671234130859375,1.70388793945312e-05,0.669708251953125,2.63935898648009
0.67626953125,1.69244384765625e-05,0.67474365234375,2.6216318426775076
0.681304931640625,1.67062377929687e-05,0.679779052734375,2.5878320884938937
0.68634033203125,1.63897705078125e-05,0.684814453125,2.538810626831805
0.691375732421875,1.59695434570313e-05,0.689849853515625,2.4737165547887
0.6964111328125,1.545166015625e-05,0.69488525390625,2.393495320034036
0.701446533203125,1.48312377929687e-05,0.699920654296875,2.2973905644322508
0.70648193359375,1.41030883789063e-05,0.7049560546875,2.184598657464317
0.711517333984375,1.3311767578125e-05,0.709991455078125,2.06202136711733
0.716552734375,1.24542236328125e-05,0.71502685546875,1.9291859695565852
0.721588134765625,1.15570068359375e-05,0.720062255859375,1.7902051621442752
0.72662353515625,1.0650634765625e-05,0.72509765625,1.6498061832277582
0.731658935546875,9.771728515625e-06,0.730133056640625,1.513661718823863
0.7366943359375,8.94775390625e-06,0.73516845703125,1.3860262834452113
0.741729736328125,8.203125e-06,0.740203857421875,1.2706816677696888
0.74676513671875,7.5592041015625e-06,0.7452392578125,1.1709369386404462
0.751800537109375,7.03125e-06,0.750274658203125,1.089155715231162
0.7568359375,6.6314697265625e-06,0.75531005859375,1.027228892880779
0.761871337890625,6.35986328125e-06,0.760345458984375,0.9851564715892975
0.76690673828125,6.2103271484375e-06,0.765380859375,0.9619930036872458
0.771942138671875,6.182861328125e-06,0.770416259765625,0.9577384891746241
0.7769775390625,6.2652587890625e-06,0.77545166015625,0.9705020327124894
0.782012939453125,6.4361572265625e-06,0.780487060546875,0.9969745674576912
0.78704833984375,6.689453125e-06,0.7855224609375,1.0362106457407583
0.792083740234375,7.0068359375e-06,0.790557861328125,1.0853739245532759
0.797119140625,7.36083984375e-06,0.79559326171875,1.1402098893826227
0.802154541015625,7.72705078125e-06,0.800628662109375,1.1969367495509122
0.80718994140625,8.0902099609375e-06,0.8056640625,1.2531908858844663
0.812225341796875,8.4228515625e-06,0.810699462890625,1.3047177838706627
0.8172607421875,8.70361328125e-06,0.81573486328125,1.3482083766663515
0.822296142578125,8.9141845703125e-06,0.820770263671875,1.3808263212631182
0.82733154296875,9.051513671875e-06,0.8258056640625,1.4020988938262267
0.832366943359375,9.100341796875e-06,0.830841064453125,1.4096624751819988
0.83740234375,9.0545654296875e-06,0.83587646484375,1.4025716176609626
0.842437744140625,8.9141845703125e-06,0.840911865234375,1.3808263212631182
0.84747314453125,8.6822509765625e-06,0.845947265625,1.3448993098232012
0.852508544921875,8.3648681640625e-06,0.850982666015625,1.2957360310106836
0.8575439453125,7.9742431640625e-06,0.85601806640625,1.2352273801645077
0.862579345703125,7.5103759765625e-06,0.861053466796875,1.1633733572846743
0.86761474609375,7.0037841796875e-06,0.8660888671875,1.0849012007185403
0.872650146484375,6.4666748046875e-06,0.871124267578125,1.0017018058050486
0.877685546875,5.914306640625e-06,0.87615966796875,0.9161387917178784
0.882720947265625,5.3619384765625e-06,0.881195068359375,0.8305757776307081
0.88775634765625,4.827880859375e-06,0.88623046875,0.7478491065519524
0.892791748046875,4.3212890625e-06,0.891265869140625,0.6693769499858183
0.8978271484375,3.8482666015625e-06,0.89630126953125,0.5961047556017773
0.902862548828125,3.4149169921875e-06,0.901336669921875,0.5289779710693013
0.90789794921875,3.02734375e-06,0.9063720703125,0.4689420440578614
0.912933349609375,2.685546875e-06,0.911407470703125,0.41599697456745766
0.91796875,2.386474609375e-06,0.91644287109375,0.36967003876335447
0.923004150390625,2.1240234375e-06,0.921478271484375,0.32901578897608014
0.92803955078125,1.9012451171875e-06,0.926513671875,0.2945069490403706
0.933074951171875,1.7120361328125e-06,0.931549072265625,0.26519807128675427
0.9381103515625,1.55029296875e-06,0.93658447265625,0.24014370804575966
0.943145751953125,1.416015625e-06,0.941619873046875,0.21934385931738676
0.94818115234375,1.3031005859375e-06,0.9466552734375,0.20185307743216413
0.953216552734375,1.20849609375e-06,0.951690673828125,0.18719863855535598
0.958251953125,1.129150390625e-06,0.95672607421875,0.1749078188522265
0.963287353515625,1.0650634765625e-06,0.961761474609375,0.16498061832277583
0.96832275390625,1.0101318359375e-06,0.966796875,0.15647158929753235
0.973358154296875,9.674072265625e-07,0.971832275390625,0.14985345561123192
0.9783935546875,9.27734375e-07,0.97686767578125,0.1437080457596672
0.983428955078125,8.97216796875e-07,0.981903076171875,0.13898080741230973
0.98846435546875,8.72802734375e-07,0.9869384765625,0.13519901673442375
0.993499755859375,8.544921875e-07,0.991973876953125,0.13236267372600927
0.99853515625,8.33129882812501e-07,0.99700927734375,0.1290536068828592
1.00357055664063,8.20922851562501e-07,1.00204467773438,0.1271627115439162
1.00860595703125,8.08715820312501e-07,1.007080078125,0.1252718162049732
1.01364135742188,7.965087890625e-07,1.01211547851563,0.12338092086603007
1.0186767578125,7.90405273437501e-07,1.01715087890625,0.12243547319655873
1.02371215820313,7.8125e-07,1.02218627929688,0.12101730169235134
1.02874755859375,7.75146484375e-07,1.0272216796875,0.12007185402287983
1.03378295898438,7.720947265625e-07,1.03225708007813,0.11959913018814408
1.038818359375,7.659912109375e-07,1.03729248046875,0.11865368251867259
1.04385375976563,7.62939453125e-07,1.04232788085938,0.11818095868393685
1.04888916015625,7.598876953125e-07,1.04736328125,0.1177082348492011
1.05392456054688,7.568359375e-07,1.05239868164063,0.11723551101446535
1.0589599609375,7.537841796875e-07,1.05743408203125,0.1167627871797296
1.06399536132813,7.50732421874999e-07,1.06246948242188,0.11629006334499369
1.06903076171875,7.537841796875e-07,1.0675048828125,0.1167627871797296
1.07406616210938,7.50732421874999e-07,1.07254028320313,0.11629006334499369
1.0791015625,7.53784179687501e-07,1.07757568359375,0.11676278717972977
1.08413696289063,7.50732421874999e-07,1.08261108398438,0.11629006334499369
1.08917236328125,7.50732421875e-07,1.087646484375,0.11629006334499385
1.09420776367188,7.50732421875e-07,1.09268188476563,0.11629006334499385
1.0992431640625,7.50732421875e-07,1.09771728515625,0.11629006334499385
1.10427856445313,7.50732421874999e-07,1.10275268554688,0.11629006334499369
1.10931396484375,7.50732421874999e-07,1.1077880859375,0.11629006334499369
1.11434936523438,7.537841796875e-07,1.11282348632813,0.1167627871797296
1.119384765625,7.537841796875e-07,1.11785888671875,0.1167627871797296
1.12442016601563,7.537841796875e-07,1.12289428710938,0.1167627871797296
1.12945556640625,7.537841796875e-07,1.1279296875,0.1167627871797296
1.13449096679688,7.568359375e-07,1.13296508789063,0.11723551101446535
1.1395263671875,7.568359375e-07,1.13800048828125,0.11723551101446535
1.14456176757813,7.598876953125e-07,1.14303588867188,0.1177082348492011
1.14959716796875,7.598876953125e-07,1.1480712890625,0.1177082348492011
1.15463256835938,7.598876953125e-07,1.15310668945313,0.1177082348492011
1.15966796875,7.62939453125001e-07,1.15814208984375,0.11818095868393699
