Potential,Current,Normalized_Potential,Normalized_Current
-0.204925537109375,6.72607421875e-07,-0.206451416015625,0.09629500174764069
-0.19989013671875,8.08105468749999e-07,-0.201416015625,0.11569381335197469
-0.194854736328125,8.1207275390625e-07,-0.196380615234375,0.11626179657462427
-0.1898193359375,8.10852050781251e-07,-0.19134521484375,0.11608703250611688
-0.184783935546875,8.10546875e-07,-0.186309814453125,0.11604334148898987
-0.17974853515625,8.1146240234375e-07,-0.1812744140625,0.1161744145403705
-0.174713134765625,8.14208984375001e-07,-0.176239013671875,0.11656763369451255
-0.169677734375,8.1787109375e-07,-0.17120361328125,0.11709192590003496
-0.164642333984375,8.2427978515625e-07,-0.166168212890625,0.11800943725969941
-0.15960693359375,8.31298828124999e-07,-0.1611328125,0.11901433065361747
-0.154571533203125,8.4259033203125e-07,-0.156097412109375,0.12063089828731212
-0.1495361328125,8.5601806640625e-07,-0.15106201171875,0.12255330304089479
-0.144500732421875,8.73718261718751e-07,-0.146026611328125,0.1250873820342539
-0.13946533203125,8.96301269531249e-07,-0.1409912109375,0.12832051730164262
-0.134429931640625,9.22546386718749e-07,-0.135955810546875,0.1320779447745542
-0.12939453125,9.5672607421875e-07,-0.13092041015625,0.1369713386927648
-0.124359130859375,9.967041015625e-07,-0.125885009765625,0.1426948619363859
-0.11932373046875,1.04736328125e-06,-0.120849609375,0.14994757077944776
-0.114288330078125,1.1065673828125e-06,-0.115814208984375,0.15842362810206223
-0.1092529296875,1.17950439453125e-06,-0.11077880859375,0.16886578119538623
-0.104217529296875,1.265869140625e-06,-0.105743408203125,0.1812303390422929
-0.09918212890625,1.36749267578125e-06,-0.1007080078125,0.19577944774554354
-0.094146728515625,1.4910888671875e-06,-0.095672607421875,0.2134743096819294
-0.089111328125,1.6351318359375e-06,-0.09063720703125,0.23409646976581616
-0.084075927734375,1.80511474609375e-06,-0.085601806640625,0.2584323663054876
-0.07904052734375,2.000732421875e-06,-0.08056640625,0.28643830828381683
-0.074005126953125,2.2259521484375e-06,-0.075531005859375,0.31868227892345335
-0.0689697265625,2.48199462890625e-06,-0.07049560546875,0.3553390422929046
-0.063934326171875,2.77008056640625e-06,-0.065460205078125,0.3965833624606781
-0.05889892578125,3.089599609375e-06,-0.0604248046875,0.44232785739252006
-0.053863525390625,3.4375e-06,-0.055389404296875,0.49213561691716184
-0.048828125,3.81103515625e-06,-0.05035400390625,0.5456134218804614
-0.043792724609375,4.21051025390625e-06,-0.045318603515625,0.6028049632995457
-0.03875732421875,4.619140625e-06,-0.040283203125,0.6613072352324362
-0.033721923828125,5.032958984375e-06,-0.035247802734375,0.7205522544564837
-0.0286865234375,5.43853759765625e-06,-0.03021240234375,0.7786176162181055
-0.023651123046875,5.8233642578125e-06,-0.025177001953125,0.8337119888150996
-0.01861572265625,6.17218017578125e-06,-0.0201416015625,0.883650821391122
-0.013580322265625,6.47705078125e-06,-0.015106201171875,0.9272981475008739
-0.008544921875,6.72149658203125e-06,-0.01007080078125,0.9622946522195037
-0.003509521484375,6.8914794921875e-06,-0.005035400390625,0.9866305487591751
0.00152587890625,6.98486328125e-06,0.0,1.0
0.006561279296875,6.981201171875e-06,0.005035400390625,0.9994757077944774
0.0115966796875,6.8975830078125e-06,0.01007080078125,0.9875043691017127
0.016632080078125,6.72576904296875e-06,0.015106201171875,0.96290632645928
0.02166748046875,6.47918701171875e-06,0.0201416015625,0.927603984620762
0.026702880859375,6.1688232421875e-06,0.025177001953125,0.8831702202027263
0.03173828125,5.80413818359375e-06,0.03021240234375,0.8309594547361062
0.036773681640625,5.40374755859375e-06,0.035247802734375,0.7736368402656414
0.04180908203125,4.97772216796875e-06,0.040283203125,0.7126441803565188
0.046844482421875,4.54559326171875e-06,0.045318603515625,0.6507777001048585
0.0518798828125,4.1253662109375e-06,0.05035400390625,0.5906151695211465
0.056915283203125,3.71185302734375e-06,0.055389404296875,0.5314138413142258
0.06195068359375,3.32489013671875e-06,0.0604248046875,0.4760136315973436
0.066986083984375,2.96661376953125e-06,0.065460205078125,0.424720377490388
0.072021484375,2.6416015625e-06,0.07049560546875,0.37818944425026213
0.077056884765625,2.35076904296875e-06,0.075531005859375,0.33655190492834675
0.08209228515625,2.09197998046875e-06,0.08056640625,0.2995019224047536
0.087127685546875,1.8658447265625e-06,0.085601806640625,0.26712687871373647
0.0921630859375,1.671142578125e-06,0.09063720703125,0.23925200978678784
0.097198486328125,1.50299072265625e-06,0.095672607421875,0.21517825934987767
0.10223388671875,1.35955810546875e-06,0.1007080078125,0.19464348130024467
0.107269287109375,1.2371826171875e-06,0.105743408203125,0.1771233834323663
0.1123046875,1.1346435546875e-06,0.11077880859375,0.16244320167773504
0.117340087890625,1.04736328125e-06,0.115814208984375,0.14994757077944776
0.12237548828125,9.74426269531251e-07,0.120849609375,0.13950541768612387
0.127410888671875,9.13085937500001e-07,0.125885009765625,0.13072352324362127
0.1324462890625,8.61511230468751e-07,0.13092041015625,0.12333974134917876
0.137481689453125,8.18481445312499e-07,0.135955810546875,0.11717930793428857
0.14251708984375,7.81860351562501e-07,0.1409912109375,0.1119363858790634
0.147552490234375,7.50427246093749e-07,0.146026611328125,0.10743621111499461
0.152587890625,7.25097656250001e-07,0.15106201171875,0.10380985669346396
0.157623291015625,7.02819824218751e-07,0.156097412109375,0.10062041244320183
0.16265869140625,6.84509277343751e-07,0.1611328125,0.0979989514155891
0.167694091796875,6.68945312500001e-07,0.166168212890625,0.09577070954211829
0.1727294921875,6.55822753906249e-07,0.17120361328125,0.09389199580566221
0.177764892578125,6.439208984375e-07,0.176239013671875,0.09218804613771409
0.18280029296875,6.33850097656251e-07,0.1812744140625,0.09074624257252722
0.187835693359375,6.2591552734375e-07,0.186309814453125,0.08961027612722824
0.19287109375,6.18591308593751e-07,0.19134521484375,0.08856169171618329
0.197906494140625,6.12487792968751e-07,0.196380615234375,0.08768787137364573
0.20294189453125,6.06384277343749e-07,0.201416015625,0.08681405103110786
0.207977294921875,6.02111816406249e-07,0.206451416015625,0.08620237679133155
0.2130126953125,5.9783935546875e-07,0.21148681640625,0.0855907025515554
0.218048095703125,5.938720703125e-07,0.216522216796875,0.08502271932890598
0.22308349609375,5.908203125e-07,0.2215576171875,0.08458580915763718
0.228118896484375,5.88073730468749e-07,0.226593017578125,0.08419259000349515
0.233154296875,5.85021972656251e-07,0.23162841796875,0.08375567983222665
0.238189697265625,5.8258056640625e-07,0.236663818359375,0.08340615169521146
0.24322509765625,5.8135986328125e-07,0.24169921875,0.08323138762670396
0.248260498046875,5.79833984375e-07,0.246734619140625,0.08301293254106955
0.2532958984375,5.77697753906249e-07,0.25177001953125,0.08270709542118126
0.258331298828125,5.77392578124999e-07,0.256805419921875,0.08266340440405438
0.26336669921875,5.767822265625e-07,0.2618408203125,0.08257602236980077
0.268402099609375,5.7586669921875e-07,0.266876220703125,0.08244494931842014
0.2734375,5.7586669921875e-07,0.27191162109375,0.08244494931842014
0.278472900390625,5.755615234375e-07,0.276947021484375,0.08240125830129325
0.28350830078125,5.755615234375e-07,0.281982421875,0.08240125830129325
0.288543701171875,5.76171874999999e-07,0.287017822265625,0.08248864033554687
0.2935791015625,5.7708740234375e-07,0.29205322265625,0.08261971338692764
0.298614501953125,5.7708740234375e-07,0.297088623046875,0.08261971338692764
0.30364990234375,5.78613281250001e-07,0.3021240234375,0.08283816847256219
0.308685302734375,5.79833984375e-07,0.307159423828125,0.08301293254106955
0.313720703125,5.8074951171875e-07,0.31219482421875,0.08314400559245018
0.318756103515625,5.82275390625001e-07,0.317230224609375,0.08336246067808474
0.32379150390625,5.84716796875e-07,0.322265625,0.08371198881509961
0.328826904296875,5.86853027343751e-07,0.327301025390625,0.08401782593498791
0.3338623046875,5.8929443359375e-07,0.33233642578125,0.0843673540720028
0.338897705078125,5.914306640625e-07,0.337371826171875,0.08467319119189096
0.34393310546875,5.94482421874999e-07,0.3424072265625,0.08511010136315958
0.348968505859375,5.97534179687501e-07,0.347442626953125,0.08554701153442866
0.35400390625,6.011962890625e-07,0.35247802734375,0.08607130373995106
0.359039306640625,6.0394287109375e-07,0.357513427734375,0.08646452289409297
0.36407470703125,6.072998046875e-07,0.362548828125,0.08694512408248864
0.369110107421875,6.1065673828125e-07,0.367584228515625,0.08742572527088431
0.3741455078125,6.14318847656249e-07,0.37261962890625,0.08795001747640671
0.379180908203125,6.1798095703125e-07,0.377655029296875,0.0884743096819294
0.38421630859375,6.21337890625e-07,0.3826904296875,0.08895491087032506
0.389251708984375,6.24999999999999e-07,0.387725830078125,0.08947920307584746
0.394287109375,6.28662109375e-07,0.39276123046875,0.09000349528137015
0.399322509765625,6.3201904296875e-07,0.397796630859375,0.09048409646976581
0.40435791015625,6.3568115234375e-07,0.40283203125,0.09100838867528836
0.409393310546875,6.39648437500001e-07,0.407867431640625,0.09157637189793794
0.4144287109375,6.427001953125e-07,0.41290283203125,0.09201328206920657
0.419464111328125,6.4697265625e-07,0.417938232421875,0.09262495630898288
0.42449951171875,6.5185546875e-07,0.4229736328125,0.09332401258301294
0.429534912109375,6.561279296875e-07,0.428009033203125,0.09393568682278923
0.4345703125,6.61621093750001e-07,0.43304443359375,0.0947221251310732
0.439605712890625,6.67724609375001e-07,0.438079833984375,0.09559594547361076
0.44464111328125,6.7474365234375e-07,0.443115234375,0.09660083886752883
0.449676513671875,6.82678222656251e-07,0.448150634765625,0.09773680531282783
0.4547119140625,6.91833496093751e-07,0.45318603515625,0.0990475358266342
0.459747314453125,7.01904296875e-07,0.458221435546875,0.10048933939182104
0.46478271484375,7.13500976562501e-07,0.4632568359375,0.10214959804264258
0.469818115234375,7.275390625e-07,0.468292236328125,0.10415938483047886
0.474853515625,7.43408203125e-07,0.47332763671875,0.10643131772107654
0.479888916015625,7.62023925781251e-07,0.478363037109375,0.1090964697658163
0.48492431640625,7.8399658203125e-07,0.4833984375,0.11224222299895142
0.489959716796875,8.09326171875001e-07,0.488433837890625,0.1158685774204825
0.4949951171875,8.392333984375e-07,0.49346923828125,0.12015029709891646
0.500030517578125,8.746337890625e-07,0.498504638671875,0.1252184550856344
0.50506591796875,9.1705322265625e-07,0.5035400390625,0.13129150646627052
0.510101318359375,9.674072265625e-07,0.508575439453125,0.13850052429220552
0.51513671875,1.0284423828125e-06,0.51361083984375,0.14723872771758126
0.520172119140625,1.1016845703125e-06,0.518646240234375,0.15772457182803215
0.52520751953125,1.18988037109375e-06,0.523681640625,0.1703512757777001
0.530242919921875,1.2957763671875e-06,0.528717041015625,0.185512058720727
0.5352783203125,1.4227294921875e-06,0.53375244140625,0.20368752184550856
0.540313720703125,1.575927734375e-06,0.538787841796875,0.22562041244320166
0.54534912109375,1.7547607421875e-06,0.5438232421875,0.25122334847955263
0.550384521484375,1.96380615234375e-06,0.548858642578125,0.28115169521146455
0.555419921875,2.20550537109375e-06,0.55389404296875,0.3157549807759525
0.560455322265625,2.48321533203125e-06,0.558929443359375,0.3555138063614121
0.56549072265625,2.8009033203125e-06,0.56396484375,0.4009961551904928
0.570526123046875,3.165283203125e-06,0.569000244140625,0.45316322963998606
0.5755615234375,3.58001708984375e-06,0.57403564453125,0.5125393219154142
0.580596923828125,4.0509033203125e-06,0.579071044921875,0.579954561342188
0.58563232421875,4.57305908203125e-06,0.5841064453125,0.6547098916462776
0.590667724609375,5.155029296875e-06,0.589141845703125,0.7380286613072352
0.595703125,5.787353515625e-06,0.59417724609375,0.8285564487941279
0.600738525390625,6.46484375e-06,0.599212646484375,0.9255505068157986
0.60577392578125,7.18505859375e-06,0.604248046875,1.0286613072352324
0.610809326171875,7.93060302734375e-06,0.609283447265625,1.135398462076197
0.6158447265625,8.697509765625e-06,0.61431884765625,1.2451939881160432
0.620880126953125,9.46533203125e-06,0.619354248046875,1.3551205872072702
0.62591552734375,1.02142333984375e-05,0.6243896484375,1.4623383432366306
0.630950927734375,1.09329223632813e-05,0.629425048828125,1.565230688570437
0.635986328125,1.16015625e-05,0.63446044921875,1.6609577070954211
0.641021728515625,1.22024536132812e-05,0.639495849609375,1.7469853198182383
0.64605712890625,1.27252197265625e-05,0.64453125,1.8218280321565887
0.651092529296875,1.31503295898438e-05,0.649566650390625,1.8826896190143378
0.6561279296875,1.34774780273438e-05,0.65460205078125,1.9295263893743517
0.661163330078125,1.36898803710938e-05,0.659637451171875,1.9599353372946595
0.66619873046875,1.37796020507813e-05,0.6646728515625,1.9727804963299618
0.671234130859375,1.37484741210938e-05,0.669708251953125,1.9683240125830201
0.67626953125,1.359619140625e-05,0.67474365234375,1.9465221950367007
0.681304931640625,1.332275390625e-05,0.679779052734375,1.907375043691017
0.68634033203125,1.29275512695312e-05,0.684814453125,1.8507951765117021
0.691375732421875,1.24240112304688e-05,0.689849853515625,1.7787049982523664
0.6964111328125,1.18283081054687e-05,0.69488525390625,1.693420132820685
0.701446533203125,1.11428833007813e-05,0.699920654296875,1.5952901083537296
0.70648193359375,1.04046630859375e-05,0.7049560546875,1.489601537923803
0.711517333984375,9.637451171875e-06,0.709991455078125,1.37976232086683
0.716552734375,8.86016845703125e-06,0.71502685546875,1.2684813002446695
0.721588134765625,8.1060791015625e-06,0.720062255859375,1.1605207969241524
0.72662353515625,7.391357421875e-06,0.72509765625,1.0581964348130024
0.731658935546875,6.73797607421875e-06,0.730133056640625,0.964653967144355
0.7366943359375,6.15966796875e-06,0.73516845703125,0.8818594896889199
0.741729736328125,5.66741943359375e-06,0.740203857421875,0.8113858790632645
0.74676513671875,5.26519775390625e-06,0.7452392578125,0.7538011184900384
0.751800537109375,4.9560546875e-06,0.750274658203125,0.7095421181405103
0.7568359375,4.74761962890625e-06,0.75531005859375,0.6797011534428522
0.761871337890625,4.62890625e-06,0.760345458984375,0.6627053477804964
0.76690673828125,4.60174560546875e-06,0.765380859375,0.6588168472562042
0.771942138671875,4.65484619140625e-06,0.770416259765625,0.666419084236281
0.7769775390625,4.78515625e-06,0.77545166015625,0.6850751485494582
0.782012939453125,4.9810791015625e-06,0.780487060546875,0.7131247815449144
0.78704833984375,5.22552490234375e-06,0.7855224609375,0.7481212862635442
0.792083740234375,5.51361083984375e-06,0.790557861328125,0.7893656064313177
0.797119140625,5.8233642578125e-06,0.79559326171875,0.8337119888150996
0.802154541015625,6.143798828125e-06,0.800628662109375,0.8795875567983222
0.80718994140625,6.446533203125e-06,0.8056640625,0.922929045788186
0.812225341796875,6.72332763671875e-06,0.810699462890625,0.9625567983222649
0.8172607421875,6.95220947265625e-06,0.81573486328125,0.995325061167424
0.822296142578125,7.12310791015625e-06,0.820770263671875,1.019792030758476
0.82733154296875,7.220458984375e-06,0.8258056640625,1.0337294652219504
0.832366943359375,7.24334716796875e-06,0.830841064453125,1.0370062915064664
0.83740234375,7.18292236328125e-06,0.83587646484375,1.0283554701153443
0.842437744140625,7.04071044921875e-06,0.840911865234375,1.0079954561342188
0.84747314453125,6.82281494140625e-06,0.845947265625,0.9768000699056274
0.852508544921875,6.5411376953125e-06,0.850982666015625,0.9364732610975184
0.8575439453125,6.19659423828125e-06,0.85601806640625,0.8871461027612724
0.862579345703125,5.80535888671875e-06,0.861053466796875,0.8311342188046138
0.86761474609375,5.3863525390625e-06,0.8660888671875,0.7711464522894093
0.872650146484375,4.954833984375e-06,0.871124267578125,0.7093673540720028
0.877685546875,4.51812744140625e-06,0.87615966796875,0.6468455085634393
0.882720947265625,4.0887451171875e-06,0.881195068359375,0.585372247465921
0.88775634765625,3.68133544921875e-06,0.88623046875,0.527044739601538
0.892791748046875,3.299560546875e-06,0.891265869140625,0.47238727717581264
0.8978271484375,2.9541015625e-06,0.89630126953125,0.4229290457881859
0.902862548828125,2.630615234375e-06,0.901336669921875,0.3766165676336945
0.90789794921875,2.3468017578125e-06,0.9063720703125,0.3359839217056973
0.912933349609375,2.0965576171875e-06,0.911407470703125,0.3001572876616567
0.91796875,1.8798828125e-06,0.91644287109375,0.2691366655015729
0.923004150390625,1.6876220703125e-06,0.921478271484375,0.2416113247116393
0.92803955078125,1.5289306640625e-06,0.926513671875,0.21889199580566235
0.933074951171875,1.3916015625e-06,0.931549072265625,0.19923103809856693
0.9381103515625,1.2725830078125e-06,0.93658447265625,0.18219154141908425
0.943145751953125,1.1749267578125e-06,0.941619873046875,0.16821041593848304
0.94818115234375,1.092529296875e-06,0.9466552734375,0.15641384131422578
0.953216552734375,1.025390625e-06,0.951690673828125,0.14680181754631247
0.958251953125,9.64355468750001e-07,0.95672607421875,0.13806361412093687
0.963287353515625,9.185791015625e-07,0.961761474609375,0.13150996155190492
0.96832275390625,8.78906250000001e-07,0.966796875,0.12583012932541085
0.973358154296875,8.48388671875e-07,0.971832275390625,0.12146102761272282
0.9783935546875,8.1787109375e-07,0.97686767578125,0.11709192590003496
0.983428955078125,7.93762207031251e-07,0.981903076171875,0.11364033554701168
0.98846435546875,7.73925781250002e-07,0.9869384765625,0.1108004194337647
0.993499755859375,7.56225585937501e-07,0.991973876953125,0.10826634044040559
0.99853515625,7.391357421875e-07,0.99700927734375,0.10581964348130024
1.00357055664063,7.27844238281249e-07,1.00204467773438,0.10420307584760559
1.00860595703125,7.18383789062498e-07,1.007080078125,0.10284865431667221
1.01364135742188,7.08312988281251e-07,1.01211547851563,0.10140685075148563
1.0186767578125,7.012939453125e-07,1.01715087890625,0.10040195735756728
1.02371215820313,6.95495605468749e-07,1.02218627929688,0.09957182803215645
1.02874755859375,6.89392089843749e-07,1.0272216796875,0.09869800768961888
1.03378295898438,6.82373046875001e-07,1.03225708007813,0.09769311429570095
1.038818359375,6.781005859375e-07,1.03729248046875,0.0970814400559245
1.04385375976563,6.72607421874998e-07,1.04232788085938,0.0962950017476404
1.04888916015625,6.6986083984375e-07,1.04736328125,0.09590178259349878
1.05392456054688,6.65893554687499e-07,1.05239868164063,0.09533379937084921
1.0589599609375,6.61010742187501e-07,1.05743408203125,0.09463474309681943
1.06399536132813,6.59179687499999e-07,1.06246948242188,0.09437259699405788
1.06903076171875,6.56738281249999e-07,1.0675048828125,0.09402306885704284
1.07406616210938,6.53381347656251e-07,1.07254028320313,0.09354246766864747
1.0791015625,6.49414062500001e-07,1.07757568359375,0.09297448444599804
1.08413696289063,6.48193359374999e-07,1.08261108398438,0.09279972037749025
1.08917236328125,6.4544677734375e-07,1.087646484375,0.09240650122334847
1.09420776367188,6.43005371093749e-07,1.09268188476563,0.0920569730863333
1.0992431640625,6.3995361328125e-07,1.09771728515625,0.09162006291506467
1.10427856445313,6.39953613281249e-07,1.10275268554688,0.09162006291506453
1.10931396484375,6.38122558593751e-07,1.1077880859375,0.09135791681230353
1.11434936523438,6.3690185546875e-07,1.11282348632813,0.09118315274379588
1.119384765625,6.35070800781251e-07,1.11785888671875,0.09092100664103475
1.12442016601563,6.3232421875e-07,1.12289428710938,0.09052778748689269
1.12945556640625,6.31408691406249e-07,1.1279296875,0.09039671443551192
1.13449096679688,6.29882812499999e-07,1.13296508789063,0.09017825934987753
1.1395263671875,6.292724609375e-07,1.13800048828125,0.0900908773156239
1.14456176757813,6.28662109375e-07,1.14303588867188,0.09000349528137015
1.14959716796875,6.27441406250001e-07,1.1480712890625,0.08982873121286278
1.15463256835938,6.26831054687498e-07,1.15310668945313,0.08974134917860858
