Potential - Start -0.2 V, Upper Vertex 1.5 V, Lower Vertex -0.2 V, Stop -0.19 V; Scan - # end cross 5, Rate 0.1 Vps, Step 0.01 V 
Scan	Index	Time (s)	Potential applied (V)	WE(1).Potential (V)	WE(1).Current (A)	WE(1).Power (W)	WE(1).Resistance (Ω)	WE(1).Charge (C)
1	1	65.6535658342407	-0.189971923828125	-0.189788818359375	-1.94396972656249E-07	3.6894370225582E-08	976295.1875	0
1	2	65.7542738339864	-0.179901123046875	-0.179779052734375	-1.63879394531249E-07	2.94620825513903E-08	1097020.5	-1.80406480865258E-08
1	3	65.8549818337322	-0.169830322265625	-0.169708251953125	-1.4007568359375E-07	2.37719994800045E-08	1211546.875	-3.33460015156106E-08
1	4	65.9556898334779	-0.159759521484375	-0.159698486328125	-1.190185546875E-07	1.90070821304289E-08	1341794.875	-4.63924330063037E-08
1	5	66.0563978332236	-0.149688720703125	-0.149566650390625	-1.007080078125E-07	1.50625591999187E-08	1485151.5	-5.74565426347817E-08
1	6	66.1571058329694	-0.139617919921875	-0.1395263671875	-8.36181640625003E-08	1.1666938526389E-08	1668613.25	-6.67381030439174E-08
1	7	66.2578138327151	-0.129547119140625	-0.129486083984375	-6.83593750000003E-08	8.85158790708829E-09	1894196.375	-7.43907833111734E-08
1	8	66.3585218324608	-0.119476318359375	-0.119415283203125	-5.18798828125E-08	6.19525053480174E-09	2301764.75	-8.04453108571579E-08
1	9	66.4592298322066	-0.109405517578125	-0.10931396484375	-3.662109375E-08	4.00319688509398E-09	2985000.25	-8.49016856818707E-08
1	10	66.5599378319523	-0.099334716796875	-0.099212646484375	-2.01416015624997E-08	1.99830152425307E-09	4925758	-8.77599148907393E-08
1	11	66.660645831698	-0.089263916015625	-0.089202880859375	-3.0517578125E-09	2.72225575415064E-10	29230000	-8.8927791352944E-08
1	12	66.7613538314438	-0.079193115234375	-0.079132080078125	1.678466796875E-08	-1.32820565656999E-09	-4714545.5	-8.8236284057075E-08
1	13	66.8620618311895	-0.069122314453125	-0.069091796875	4.02832031249994E-08	-2.78323875058106E-09	-1715151.625	-8.53626929142592E-08
1	14	66.9627698309353	-0.059051513671875	-0.058929443359375	6.95800781250006E-08	-4.1003151984853E-09	-846929.875	-7.98306345473065E-08
1	15	67.063477830681	-0.048980712890625	-0.048828125	1.06201171875001E-07	-5.18560394624501E-09	-459770.125	-7.09793468445241E-08
1	16	67.1641858304267	-0.038909912109375	-0.038739013671875	1.5594482421875E-07	-6.0411484703593E-09	-248414.890625	-5.77792462763682E-08
1	17	67.2648938301725	-0.028839111328125	-0.028717041015625	2.227783203125E-07	-6.39753405806687E-09	-128904.1171875	-3.8709021765726E-08
1	18	67.3656018299182	-0.018768310546875	-0.0186279296875	3.11889648437499E-07	-5.8098583721744E-09	-59726.03125	-1.17863532267393E-08
1	19	67.4663098296639	-0.008697509765625	-0.00861206054687499	4.29687500000001E-07	-3.70049502151915E-09	-20042.615234375	2.5555022986623E-08
1	20	67.5670178294097	0.001373291015625	0.001446533203125	5.816650390625E-07	8.41397784778763E-10	2486.8837890625	7.64806671327278E-08
1	21	67.6677258291554	0.011444091796875	0.0115447998046875	7.70263671875E-07	8.8925391494854E-09	14988.1142578125	1.44555684755687E-07
1	22	67.7684338289012	0.021514892578125	0.0216094970703125	9.9090576171875E-07	2.14129745046421E-08	21807.822265625	2.33237599900349E-07
1	23	67.8691418286469	0.031585693359375	0.0316802978515625	1.23016357421875E-06	3.8971947446953E-08	25752.9140625	3.45077324936938E-07
1	24	67.9698498283926	0.041656494140625	0.0417633056640625	1.46881103515625E-06	6.13424049333844E-08	28433.41015625	4.80981498185429E-07
1	25	68.0705578281384	0.051727294921875	0.0517578125	1.68121337890625E-06	8.7015926908407E-08	30785.986328125	6.39597828921978E-07
1	26	68.1712658278841	0.061798095703125	0.0618896484375	1.8475341796875E-06	1.14343237100911E-07	33498.515625	8.17284387721884E-07
1	27	68.2719738276298	0.071868896484375	0.071929931640625	1.95465087890625E-06	1.4059789066323E-07	36799.37890625	1.00873955943825E-06
1	28	68.3726818273756	0.081939697265625	0.08197021484375	2.00225830078125E-06	1.6412553804912E-07	40938.8828125	1.20798574698711E-06
1	29	68.4733898271213	0.092010498046875	0.092041015625	1.99981689453125E-06	1.84065157782243E-07	46024.7265625	1.40950623972458E-06
1	30	68.574097826867	0.102081298828125	0.102142333984375	1.96258544921875E-06	2.00463063038114E-07	52044.78515625	1.60902902734961E-06
1	31	68.6748058266128	0.112152099609375	0.11224365234375	1.90277099609375E-06	2.13573954965796E-07	58989.578125	1.80366521362885E-06
1	32	68.7755138263585	0.122222900390625	0.122222900390625	1.834716796875E-06	2.2424440260238E-07	66616.765625	1.99186274585372E-06
1	33	68.8762218261043	0.132293701171875	0.132354736328125	1.7626953125E-06	2.33301079788362E-07	75086.5625	2.17300680560584E-06
1	34	68.97692982585	0.142364501953125	0.14239501953125	1.6937255859375E-06	2.4117807129187E-07	84072.078125	2.34705134971591E-06
1	35	69.0776378255957	0.152435302734375	0.152496337890625	1.62933349609375E-06	2.48467387109486E-07	93594.3046875	2.51438063969545E-06
1	36	69.1783458253415	0.162506103515625	0.162567138671875	1.57012939453125E-06	2.55251450198557E-07	103537.4140625	2.67548648480442E-06
1	37	69.2790538250872	0.172576904296875	0.172576904296875	1.51702880859375E-06	2.61804132151155E-07	113759.8125	2.83093709185778E-06
1	38	69.3797618248329	0.182647705078125	0.1826171875	1.4697265625E-06	2.68397315039692E-07	124252.5	2.98133227261133E-06
1	39	69.4804698245787	0.192718505859375	0.1927490234375	1.427001953125E-06	2.75053224640942E-07	135072.703125	3.12719407702389E-06
1	40	69.5811778243244	0.202789306640625	0.20281982421875	1.38916015625E-06	2.81749208852489E-07	146001.75	3.26899908031919E-06
1	41	69.6818858240702	0.212860107421875	0.212860107421875	1.35498046875E-06	2.88421290406404E-07	157094.59375	3.40717770086485E-06
1	42	69.7825938238159	0.222930908203125	0.22296142578125	1.32415771484375E-06	2.9523607736337E-07	168379.8125	3.54208304997883E-06
1	43	69.8833018235616	0.233001708984375	0.233001708984375	1.29669189453125E-06	3.02131411444861E-07	179689.34375	3.67405323231651E-06
1	44	69.9840098233074	0.243072509765625	0.243072509765625	1.2713623046875E-06	3.09033225676103E-07	191190.59375	3.80336496164091E-06
1	45	70.0847178230531	0.253143310546875	0.253204345703125	1.24908447265625E-06	3.1627359931008E-07	202711.953125	3.93027949030511E-06
1	46	70.1854258227988	0.263214111328125	0.263214111328125	1.22894287109375E-06	3.23475120467265E-07	214179.28125	4.0550580706622E-06
1	47	70.2861338225446	0.273284912109375	0.273284912109375	1.21002197265625E-06	3.30680762772317E-07	225851.1875	4.1778698687267E-06
1	48	70.3868418222903	0.283355712890625	0.283355712890625	1.1932373046875E-06	3.38110595521357E-07	237468.03125	4.2988835957658E-06
1	49	70.487549822036	0.293426513671875	0.293365478515625	1.177978515625E-06	3.4557820072223E-07	249041.46875	4.41828387920395E-06
1	50	70.5882578217818	0.303497314453125	0.303466796875	1.1639404296875E-06	3.53217274096096E-07	260723.65625	4.53620850748848E-06
1	51	70.6889658215275	0.313568115234375	0.313568115234375	1.15081787109375E-06	3.60859786496803E-07	272474.15625	4.65276616523624E-06
1	52	70.7896738212733	0.323638916015625	0.32366943359375	1.1395263671875E-06	3.68829859098696E-07	284038.5625	4.76809418614721E-06
1	53	70.890381821019	0.333709716796875	0.333648681640625	1.129150390625E-06	3.76739535568049E-07	295486.46875	4.88233081341605E-06
1	54	70.9910898207647	0.343780517578125	0.343719482421875	1.11968994140625E-06	3.84859248470093E-07	306977.375	4.99556927024969E-06
1	55	71.0917978205105	0.353851318359375	0.353790283203125	1.1114501953125E-06	3.93220261685201E-07	318314.125	5.10791596752824E-06
1	56	71.1925058202562	0.363922119140625	0.363922119140625	1.10443115234375E-06	4.01926911308692E-07	329510.90625	5.21949459653115E-06
1	57	71.2932138200019	0.373992919921875	0.374053955078125	1.09771728515625E-06	4.10605480283266E-07	340756.1875	5.33038155481336E-06
1	58	71.3939218197477	0.384063720703125	0.384033203125	1.0919189453125E-06	4.19333105128317E-07	351704.875	5.44063823326724E-06
1	59	71.4946298194934	0.394134521484375	0.394134521484375	1.08734130859375E-06	4.28558735166007E-07	362475.46875	5.5503728617623E-06
1	60	71.5953378192391	0.404205322265625	0.404266357421875	1.08367919921875E-06	4.38095042909481E-07	373049.84375	5.659692305926E-06
1	61	71.6960458189849	0.414276123046875	0.414306640625	1.08001708984375E-06	4.47458262442524E-07	383611.1875	5.76864294998813E-06
1	62	71.7967538187306	0.424346923828125	0.424346923828125	1.077880859375E-06	4.57395401554095E-07	393686.3125	5.87730210099835E-06
1	63	71.8974618184764	0.434417724609375	0.434417724609375	1.0760498046875E-06	4.6745509507673E-07	403715.28125	5.98576070842682E-06
1	64	71.9981698182221	0.444488525390625	0.444488525390625	1.07513427734375E-06	4.77884839256149E-07	413426.0625	6.09408152740798E-06
1	65	72.0988778179678	0.454559326171875	0.454559326171875	1.0748291015625E-06	4.88573618895316E-07	422913.09375	6.20234095549677E-06
1	66	72.1995858177136	0.464630126953125	0.464599609375	1.07421875E-06	4.99081636462506E-07	432500	6.31055399935576E-06
1	67	72.3002938174593	0.474700927734375	0.4747314453125	1.07421875E-06	5.09965389028366E-07	441931.8125	6.41873657514225E-06
1	68	72.401001817205	0.484771728515625	0.4847412109375	1.0748291015625E-06	5.21013987508923E-07	450993.75	6.52694961900124E-06
1	69	72.5017098169508	0.494842529296875	0.49481201171875	1.07574462890625E-06	5.32291380750394E-07	459971.625	6.63523951516254E-06
1	70	72.6024178166965	0.504913330078125	0.5048828125	1.0772705078125E-06	5.4389533943322E-07	468668.59375	6.74365264785592E-06
1	71	72.7031258164423	0.514984130859375	0.5150146484375	1.07940673828125E-06	5.5591027603441E-07	477127.5	6.85224995322642E-06
1	72	72.803833816188	0.525054931640625	0.52508544921875	1.08245849609375E-06	5.68383143217943E-07	485086.03125	6.96110828357632E-06
1	73	72.9045418159337	0.535125732421875	0.53509521484375	1.085205078125E-06	5.80688038098742E-07	493082.09375	7.07025901647285E-06
1	74	73.0052498156795	0.545196533203125	0.545135498046875	1.0888671875E-06	5.93580125496374E-07	500644.625	7.17973216524115E-06
1	75	73.1059578154252	0.555267333984375	0.555206298828125	1.09283447265625E-06	6.06748528753087E-07	508042.46875	7.28958957552095E-06
1	76	73.2066658151709	0.565338134765625	0.5653076171875	1.09710693359375E-06	6.20202854406671E-07	515271.25	7.39986171538476E-06
1	77	73.3073738149167	0.575408935546875	0.575347900390625	1.1029052734375E-06	6.34554226053297E-07	521665.75	7.51064135329216E-06
1	78	73.4080818146624	0.585479736328125	0.58544921875	1.112060546875E-06	6.51054961053887E-07	526454.4375	7.62217359806527E-06
1	79	73.5087898144081	0.595550537109375	0.59552001953125	1.12213134765625E-06	6.68251630031591E-07	530704.4375	7.73467399994843E-06
1	80	73.6094978141539	0.605621337890625	0.605560302734375	1.131591796875E-06	6.85247016463109E-07	535140.25	7.84815802035155E-06
1	81	73.7102058138996	0.615692138671875	0.615692138671875	1.1419677734375E-06	7.03100624832587E-07	539150.1875	7.96264066593722E-06
1	82	73.8109138136454	0.625762939453125	0.625762939453125	1.15447998046875E-06	7.22430741006974E-07	542030.125	8.07827655080473E-06
1	83	73.9116218133911	0.635833740234375	0.6357421875	1.168212890625E-06	7.42682175314258E-07	544200.625	8.19523302197922E-06
1	84	74.0123298131368	0.645904541015625	0.6458740234375	1.185302734375E-06	7.65556251280941E-07	544902.1875	8.31374200060964E-06
1	85	74.1130378128826	0.655975341796875	0.6558837890625	1.20574951171875E-06	7.90831563790562E-07	543963.5625	8.43414090923034E-06
1	86	74.2137458126283	0.666046142578125	0.665985107421875	1.23138427734375E-06	8.20083528196847E-07	540842.6875	8.55686084832996E-06
1	87	74.314453812374	0.676116943359375	0.676055908203125	1.260986328125E-06	8.52497237247007E-07	536132.625	8.68236111273291E-06
1	88	74.4151618121198	0.686187744140625	0.6861572265625	1.29241943359375E-06	8.86802865807113E-07	530909.125	8.81093546922784E-06
1	89	74.5158698118655	0.696258544921875	0.6961669921875	1.3262939453125E-06	9.23322090784495E-07	524896.4375	8.94279855856439E-06
1	90	74.6165778116113	0.706329345703125	0.706268310546875	1.35772705078125E-06	9.5891959972505E-07	520184.34375	9.07794947124785E-06
1	91	74.717285811357	0.716400146484375	0.716339111328125	1.38427734375E-06	9.91611955214466E-07	517482.375	9.2160207714187E-06
1	92	74.8179938111027	0.726470947265625	0.726409912109375	1.402587890625E-06	1.01885370895616E-06	517906.90625	9.35635034693405E-06
1	93	74.9187018108485	0.736541748046875	0.7364501953125	1.41326904296875E-06	1.04080231722037E-06	521096.96875	9.49813966144575E-06
1	94	75.0194098105942	0.746612548828125	0.74652099609375	1.41693115234375E-06	1.0577688271951E-06	526857.625	9.64065202424536E-06
1	95	75.1201178103399	0.756683349609375	0.75653076171875	1.414794921875E-06	1.07033577023685E-06	534728.25	9.78324078459991E-06
1	96	75.2208258100857	0.766754150390625	0.7672119140625	1.409912109375E-06	1.0817013844644E-06	544155.875	9.92547575151548E-06
1	97	75.3215338098314	0.776824951171875	0.7769775390625	1.40380859375E-06	1.09072777831898E-06	553478.25	1.00671577456524E-05
1	98	75.4222418095771	0.786895751953125	0.78704833984375	1.39678955078125E-06	1.09934092051844E-06	563469.5	1.02081794466358E-05
1	99	75.5229498093229	0.796966552734375	0.79742431640625	1.3909912109375E-06	1.10921018858789E-06	573277.75	1.03485554063809E-05
1	100	75.6236578090686	0.807037353515625	0.806884765625	1.38427734375E-06	1.11695226223674E-06	582892.4375	1.04883010862977E-05
1	101	75.7243658088144	0.817108154296875	0.81756591796875	1.37969970703125E-06	1.1279954605925E-06	592568	1.06274783320259E-05
1	102	75.8250738085601	0.827178955078125	0.82733154296875	1.37603759765625E-06	1.13843918825296E-06	601242	1.07662408481701E-05
1	103	75.9257818083058	0.837249755859375	0.83709716796875	1.37359619140625E-06	1.14983345156361E-06	609420.125	1.09046959551051E-05
1	104	76.0264898080516	0.847320556640625	0.84716796875	1.37237548828125E-06	1.16263254312798E-06	617300.4375	1.10429664346157E-05
1	105	76.1271978077973	0.857391357421875	0.8575439453125	1.37176513671875E-06	1.1763488600991E-06	625139.0625	1.11811450551613E-05
1	106	76.227905807543	0.867462158203125	0.86761474609375	1.3726806640625E-06	1.19095795980684E-06	632058.6875	1.13193382276222E-05
1	107	76.3286138072888	0.877532958984375	0.87799072265625	1.37420654296875E-06	1.20654055990599E-06	638907.4375	1.14576550913625E-05
1	108	76.4293218070345	0.887603759765625	0.887451171875	1.3763427734375E-06	1.22143694625265E-06	644789.375	1.15961565825273E-05
1	109	76.5300298067802	0.897674560546875	0.89752197265625	1.37939453125E-06	1.23803681617574E-06	650663.75	1.17349190986715E-05
1	110	76.630737806526	0.907745361328125	0.90789794921875	1.383056640625E-06	1.25567430586671E-06	656443.0625	1.18740190373501E-05
1	111	76.7314458062717	0.917816162109375	0.9173583984375	1.3885498046875E-06	1.27379780678893E-06	660659.375	1.20135809993371E-05
1	112	76.8321538060175	0.927886962890625	0.92803955078125	1.39617919921875E-06	1.29570946683089E-06	664699.4375	1.21538032544777E-05
1	113	76.9328618057632	0.937957763671875	0.93780517578125	1.40625E-06	1.3187885770094E-06	666883.6875	1.2294916814426E-05
1	114	77.0335698055089	0.948028564453125	0.9478759765625	1.41937255859375E-06	1.34538913698634E-06	667813.375	1.24371981655713E-05
1	115	77.1342778052547	0.958099365234375	0.958251953125	1.43768310546875E-06	1.37766255647875E-06	666525.1875	1.25810620374978E-05
1	116	77.2349858050004	0.968170166015625	0.96771240234375	1.4617919921875E-06	1.41459418045997E-06	662004.1875	1.27270623124787E-05
1	117	77.3356938047461	0.978240966796875	0.9783935546875	1.4935302734375E-06	1.46126035360794E-06	655087.875	1.28758747450775E-05
1	118	77.4364018044919	0.988311767578125	0.98785400390625	1.534423828125E-06	1.51578660734231E-06	643794.8125	1.30283442558721E-05
1	119	77.5371098042376	0.998382568359375	0.99822998046875	1.58447265625E-06	1.58166812980198E-06	630007.6875	1.31853930724901E-05
1	120	77.6378178039834	1.00845336914063	1.00830078125	1.64337158203125E-06	1.65701283094677E-06	613556.1875	1.33479279611493E-05
1	121	77.7385258037291	1.01852416992188	1.01837158203125	1.7071533203125E-06	1.73851640283829E-06	596532	1.35166401378228E-05
1	122	77.8392338034748	1.02859497070313	1.0284423828125	1.77001953125E-06	1.82036308160605E-06	581034.5	1.36917296913452E-05
1	123	77.9399418032206	1.03866577148438	1.03851318359375	1.82525634765625E-06	1.89555271390418E-06	568968.4375	1.38727664307225E-05
1	124	78.0406498029663	1.04873657226563	1.048583984375	1.86676025390625E-06	1.95745474229625E-06	561713.3125	1.40586744237226E-05
1	125	78.141357802712	1.05880737304688	1.05865478515625	1.89361572265625E-06	2.00468525690667E-06	559065.25	1.42480239446741E-05
1	126	78.2420658024578	1.06887817382813	1.06903076171875	1.90460205078125E-06	2.03607805815409E-06	561288.3125	1.44392797665205E-05
1	127	78.3427738022035	1.07894897460938	1.0784912109375	1.903076171875E-06	2.05245100914908E-06	566709.4375	1.46310112540959E-05
1	128	78.4434818019492	1.08901977539063	1.0888671875	1.89208984375E-06	2.06023446480685E-06	575483.875	1.48221133713378E-05
1	129	78.544189801695	1.09909057617188	1.09893798828125	1.87652587890625E-06	2.06218555831583E-06	585623.6875	1.5011878531368E-05
1	130	78.6448978014407	1.10916137695313	1.10931396484375	1.85882568359375E-06	2.06202116714849E-06	596782.1875	1.51999684021575E-05
1	131	78.7456058011865	1.11923217773438	1.119384765625	1.84112548828125E-06	2.06092772714328E-06	607989.375	1.53862747538369E-05
1	132	78.8463138009322	1.12930297851563	1.129150390625	1.824951171875E-06	2.06064419217E-06	618729.125	1.55708767124452E-05
1	133	78.9470218006779	1.13937377929688	1.13983154296875	1.8096923828125E-06	2.06274444281007E-06	629848.25	1.57538961502723E-05
1	134	79.0477298004237	1.14944458007813	1.14959716796875	1.79718017578125E-06	2.06603317565168E-06	639667.1875	1.59355167852482E-05
1	135	79.1484378001694	1.15951538085938	1.15936279296875	1.78619384765625E-06	2.07084667636082E-06	649068.875	1.61159532581223E-05
1	136	79.2491457999151	1.16958618164063	1.16943359375	1.77764892578125E-06	2.07884227165778E-06	657854.0625	1.62954074767185E-05
1	137	79.3498537996609	1.17965698242188	1.1798095703125	1.77154541015625E-06	2.09008612728212E-06	665977.625	1.64741231856169E-05
1	138	79.4505617994066	1.18972778320313	1.1895751953125	1.76666259765625E-06	2.1015778202127E-06	673346	1.66522859217366E-05
1	139	79.5512697991524	1.19979858398438	1.19964599609375	1.76422119140625E-06	2.11644078262907E-06	679986.1875	1.68300812219968E-05
1	140	79.6519777988981	1.20986938476563	1.21002197265625	1.76300048828125E-06	2.13326939046965E-06	686342.375	1.70076909853378E-05
1	141	79.7526857986438	1.21994018554688	1.21978759765625	1.76361083984375E-06	2.15123054658761E-06	691642.125	1.7185269825859E-05
1	142	79.8533937983896	1.23001098632813	1.23016357421875	1.76605224609375E-06	2.17253295886621E-06	696561.3125	1.73630014614901E-05
1	143	79.9541017981353	1.24008178710938	1.240234375	1.76971435546875E-06	2.19486059904739E-06	700810.5	1.75410423253197E-05
1	144	80.054809797881	1.25015258789063	1.25030517578125	1.77490234375E-06	2.21916957343637E-06	704436.0625	1.77195270225639E-05
1	145	80.1555177976268	1.26022338867188	1.26007080078125	1.781005859375E-06	2.24419341066096E-06	707505.125	1.78985810634913E-05
1	146	80.2562257973725	1.27029418945313	1.27044677734375	1.78924560546875E-06	2.27314126277633E-06	710046.0625	1.80783572432119E-05
1	147	80.3569337971182	1.28036499023438	1.280517578125	1.79779052734375E-06	2.30210230256489E-06	712273	1.82589792530052E-05
1	148	80.457641796864	1.29043579101563	1.29058837890625	1.8072509765625E-06	2.33241689784336E-06	714116.875	1.84405071195215E-05
1	149	80.5583497966097	1.30050659179688	1.30035400390625	1.81732177734375E-06	2.36316168411577E-06	715533.1875	1.86230190593051E-05
1	150	80.6590577963555	1.31057739257813	1.31072998046875	1.82891845703125E-06	2.397218167971E-06	716669.5	1.88066223927308E-05
1	151	80.7597657961012	1.32064819335938	1.32080078125	1.8408203125E-06	2.43135673372308E-06	717506.6875	1.89914080692688E-05
1	152	80.8604737958469	1.33071899414063	1.33087158203125	1.85455322265625E-06	2.46817216975614E-06	717623.875	1.91774852282833E-05
1	153	80.9611817955927	1.34078979492188	1.3409423828125	1.8682861328125E-06	2.50526386480487E-06	717739.3125	1.93649448192446E-05
1	154	81.0618897953384	1.35086059570313	1.3507080078125	1.883544921875E-06	2.54411907008034E-06	717109.5625	1.95538650586968E-05
1	155	81.1625977950841	1.36093139648438	1.361083984375	1.8994140625E-06	2.58526188190444E-06	716581	1.97443514480256E-05
1	156	81.2633057948299	1.37100219726563	1.37115478515625	1.9158935546875E-06	2.626986542964E-06	715673.75	1.99364676518599E-05
1	157	81.3640137945756	1.38107299804688	1.38092041015625	1.9329833984375E-06	2.66929623649048E-06	714398.5	2.01302736968501E-05
1	158	81.4647217943213	1.39114379882813	1.39129638671875	1.95159912109375E-06	2.71525254902372E-06	712900.75	2.03258787223604E-05
1	159	81.5654297940671	1.40121459960938	1.4013671875	1.97052001953125E-06	2.76142191069084E-06	711166.25	2.05233736778609E-05
1	160	81.6661377938128	1.41128540039063	1.4111328125	1.990966796875E-06	2.80951849163102E-06	708767.6875	2.0722849512822E-05
1	161	81.7668457935586	1.42135620117188	1.4215087890625	2.01385498046875E-06	2.86271256300097E-06	705864.5	2.09245081350673E-05
1	162	81.8675537933043	1.43142700195313	1.43157958984375	2.0404052734375E-06	2.92100253318495E-06	701615.3125	2.11286569538061E-05
1	163	81.96826179305	1.44149780273438	1.4410400390625	2.07244873046875E-06	2.98648160423909E-06	695332.0625	2.1335754354368E-05
1	164	82.0689697927958	1.45156860351563	1.45172119140625	2.11273193359375E-06	3.06709762298851E-06	687129.875	2.15464951907052E-05
1	165	82.1696777925415	1.46163940429688	1.46148681640625	2.16461181640625E-06	3.16355158247461E-06	675172.75	2.17618762690108E-05
1	166	82.2703857922872	1.47171020507813	1.47186279296875	2.2314453125E-06	3.2843811368366E-06	659600.6875	2.19832363654859E-05
1	167	82.371093792033	1.48178100585938	1.48162841796875	2.3150634765625E-06	3.43006399816659E-06	639994.6875	2.22121707338374E-05
1	168	82.4718017917787	1.49185180664063	1.49139404296875	2.415771484375E-06	3.60286708200874E-06	617357.25	2.24503874051152E-05
1	169	82.5725097915245	1.50192260742188	1.50177001953125	2.5323486328125E-06	3.80300525648636E-06	593034.5	2.26995452976553E-05
1	170	82.6732177912702	1.49185180664063	1.49200439453125	2.24884033203125E-06	3.35527943207126E-06	663455.0625	2.29402976401616E-05
1	171	82.7739257910159	1.48178100585938	1.48193359375	2.04254150390625E-06	3.02691069009597E-06	725534.1875	2.31563844863558E-05
1	172	82.8746337907617	1.47171020507813	1.47186279296875	1.88232421875E-06	2.77052299679781E-06	781939.0625	2.33540176850511E-05
1	173	82.9753417905074	1.46163940429688	1.4617919921875	1.75201416015625E-06	2.56108023677371E-06	834349.4375	2.35370207519736E-05
1	174	83.0760497902531	1.45156860351563	1.451416015625	1.6455078125E-06	2.38831626120373E-06	882047.5	2.37081003433559E-05
1	175	83.1767577899989	1.44149780273438	1.441650390625	1.556396484375E-06	2.24377959057165E-06	926274.5	2.38693282881286E-05
1	176	83.2774657897446	1.43142700195313	1.43157958984375	1.48223876953125E-06	2.12194277082745E-06	965822.5625	2.40223362197867E-05
1	177	83.3781737894903	1.42135620117188	1.42181396484375	1.419677734375E-06	2.01851753445226E-06	1001504.75	2.41684592765523E-05
1	178	83.4788817892361	1.41128540039063	1.4111328125	1.36627197265625E-06	1.92799120668496E-06	1032834.5	2.43087433773326E-05
1	179	83.5795897889818	1.40121459960938	1.4013671875	1.32110595703125E-06	1.85135456831631E-06	1060753	2.44440634560306E-05
1	180	83.6802977887276	1.39114379882813	1.3909912109375	1.28204345703125E-06	1.78331106326368E-06	1084979.875	2.45751416514395E-05
1	181	83.7810057884733	1.38107299804688	1.380615234375	1.2481689453125E-06	1.72324098457466E-06	1106112.5	2.4702549126232E-05
1	182	83.881713788219	1.37100219726563	1.37054443359375	1.2188720703125E-06	1.67051825883391E-06	1124436.625	2.48267733695684E-05
1	183	83.9824217879648	1.36093139648438	1.36077880859375	1.192626953125E-06	1.62290143634891E-06	1140992.875	2.49482036451809E-05
1	184	84.0831297877105	1.35086059570313	1.35040283203125	1.1700439453125E-06	1.58003058459144E-06	1154147.125	2.50671728281304E-05
1	185	84.1838377874562	1.34078979492188	1.34033203125	1.1492919921875E-06	1.54043277689198E-06	1166224.125	2.51839610427851E-05
1	186	84.284545787202	1.33071899414063	1.33087158203125	1.1297607421875E-06	1.50356640915561E-06	1178012	2.52987192652654E-05
1	187	84.3852537869477	1.32064819335938	1.32080078125	1.11175537109375E-06	1.46840727666131E-06	1188031.875	2.54115893767448E-05
1	188	84.4859617866935	1.31057739257813	1.31103515625	1.09527587890625E-06	1.43594513701828E-06	1196990.875	2.55227223533439E-05
1	189	84.5866697864392	1.30050659179688	1.3006591796875	1.07940673828125E-06	1.40394024583657E-06	1204976	2.56322255154373E-05
1	190	84.6873777861849	1.29043579101563	1.29058837890625	1.0650634765625E-06	1.3745584510616E-06	1211747.875	2.57402080023894E-05
1	191	84.7880857859307	1.28036499023438	1.28082275390625	1.051025390625E-06	1.34617721414543E-06	1218641.125	2.58467625826597E-05
1	192	84.8887937856764	1.27029418945313	1.26983642578125	1.03759765625E-06	1.31757917642972E-06	1223823.625	2.59519329119939E-05
1	193	84.9895017854221	1.26022338867188	1.26007080078125	1.02447509765625E-06	1.29091108647117E-06	1229967.25	2.60557662841165E-05
1	194	85.0902097851679	1.25015258789063	1.25030517578125	1.011962890625E-06	1.26526231269963E-06	1235524.875	2.6158309992752E-05
1	195	85.1909177849136	1.24008178710938	1.23992919921875	9.99755859375E-07	1.23962638554076E-06	1240232.125	2.62596076936461E-05
1	196	85.2916257846593	1.23001098632813	1.23016357421875	9.88159179687501E-07	1.21559742183308E-06	1244904.25	2.63597066805232E-05
1	197	85.3923337844051	1.21994018554688	1.21978759765625	9.7686767578125E-07	1.19157107292267E-06	1248672.25	2.64586542471079E-05
1	198	85.4930417841508	1.20986938476563	1.209716796875	9.6588134765625E-07	1.16844285003026E-06	1252448.625	2.65564794972306E-05
1	199	85.5937497838966	1.19979858398438	1.1993408203125	9.5428466796875E-07	1.14451245281089E-06	1256795.75	2.66531660599867E-05
1	200	85.6944577836423	1.18972778320313	1.1895751953125	9.4329833984375E-07	1.12212421754521E-06	1261080.625	2.6748717573355E-05
1	201	85.795165783388	1.17965698242188	1.17950439453125	9.31701660156251E-07	1.09894619981787E-06	1265967.875	2.6843132218346E-05
1	202	85.8958737831338	1.16958618164063	1.1700439453125	9.2041015625E-07	1.07692028450401E-06	1271220.25	2.69363936240552E-05
1	203	85.9965817828795	1.15951538085938	1.1590576171875	9.0789794921875E-07	1.05230594726891E-06	1276638.75	2.70284563157475E-05
1	204	86.0972897826252	1.14944458007813	1.14959716796875	8.94775390624999E-07	1.02863123174757E-06	1284788.5	2.71192275249632E-05
1	205	86.197997782371	1.13937377929688	1.1395263671875	8.807373046875E-07	1.00362331068027E-06	1293832.375	2.72086308541475E-05
1	206	86.2987057821167	1.12930297851563	1.129150390625	8.648681640625E-07	9.76566184363037E-07	1305575.25	2.7296529879095E-05
1	207	86.3994137818624	1.11923217773438	1.11907958984375	8.4564208984375E-07	9.46340833252179E-07	1323349	2.73826608463423E-05
1	208	86.5001217816082	1.10916137695313	1.10931396484375	8.2427978515625E-07	9.14385054784361E-07	1345797.875	2.74667472695E-05
1	209	86.6008297813539	1.09909057617188	1.09893798828125	7.9620361328125E-07	8.74978411502525E-07	1380222.375	2.75483453151537E-05
1	210	86.7015377810997	1.08901977539063	1.08917236328125	7.62023925781249E-07	8.29975363103586E-07	1429315.25	2.76268092420651E-05
1	211	86.8022457808454	1.07894897460938	1.07879638671875	7.2021484375E-07	7.76965123350237E-07	1497881.375	2.77014460152714E-05
1	212	86.9029537805911	1.06887817382813	1.0687255859375	6.67419433593749E-07	7.13288216047658E-07	1601280.25	2.77713188552298E-05
1	213	87.0036617803369	1.05880737304688	1.05865478515625	6.04858398437499E-07	6.4033622493298E-07	1750252.375	2.78353818430332E-05
1	214	87.1043697800826	1.04873657226563	1.0491943359375	5.340576171875E-07	5.6033024975477E-07	1964571.375	2.78927309409482E-05
1	215	87.2050777798283	1.03866577148438	1.03851318359375	4.58679199218751E-07	4.76344382605021E-07	2264138.5	2.79427204077365E-05
1	216	87.3057857795741	1.02859497070313	1.02783203125	3.8482666015625E-07	3.95537142594549E-07	2670896.25	2.79851938103093E-05
1	217	87.4064937793198	1.01852416992188	1.01806640625	3.19824218750001E-07	3.25602286466165E-07	3183206.25	2.80206750176148E-05
1	218	87.5072017790656	1.00845336914063	1.00830078125	2.6824951171875E-07	2.7047616413256E-07	3758817	2.80502881651046E-05
1	219	87.6079097788113	0.998382568359375	0.99853515625	2.34069824218749E-07	2.33726936471612E-07	4265971.5	2.80755812127609E-05
1	220	87.708617778557	0.988311767578125	0.9881591796875	2.154541015625E-07	2.12902946827853E-07	4586402.5	2.80982167168986E-05
1	221	87.8093257783028	0.978240966796875	0.97808837890625	2.11181640624999E-07	2.06554290116401E-07	4631503	2.81196989817545E-05
1	222	87.9100337780485	0.968170166015625	0.96832275390625	2.17590332031251E-07	2.10697663760584E-07	4450210.5	2.81412903859746E-05
1	223	88.0107417777942	0.958099365234375	0.95794677734375	2.3040771484375E-07	2.20718320065316E-07	4157616	2.81638476735679E-05
1	224	88.11144977754	0.948028564453125	0.94818115234375	2.44140625E-07	2.31489522661832E-07	3883750.25	2.81877437373623E-05
1	225	88.2121577772857	0.937957763671875	0.9381103515625	2.56958007812499E-07	2.41054976868327E-07	3650831.5	2.82129767583683E-05
1	226	88.3128657770314	0.927886962890625	0.9283447265625	2.685546875E-07	2.49311312927603E-07	3456818.25	2.82394375972217E-05
1	227	88.4135737767772	0.917816162109375	0.91796875	2.7923583984375E-07	2.56329769854347E-07	3287432	2.82670207525371E-05
1	228	88.5142817765229	0.907745361328125	0.90789794921875	2.89001464843749E-07	2.62383821336698E-07	3141499.5	2.82956334558548E-05
1	229	88.6149897762687	0.897674560546875	0.89752197265625	2.947998046875E-07	2.64589289145079E-07	3044513.5	2.83250301436055E-05
1	230	88.7156977760144	0.887603759765625	0.88775634765625	3.009033203125E-07	2.67128825726104E-07	2950304.25	2.83550270978594E-05
1	231	88.8164057757601	0.877532958984375	0.877685546875	3.05786132812499E-07	2.68384070523098E-07	2870259.5	2.8385577024892E-05
1	232	88.9171137755059	0.867462158203125	0.86761474609375	3.09143066406251E-07	2.68217064558485E-07	2806515.5	2.84165398625191E-05
1	233	89.0178217752516	0.857391357421875	0.85723876953125	3.11279296875E-07	2.66840658014189E-07	2753921.75	2.8447781005525E-05
1	234	89.1185297749973	0.847320556640625	0.8477783203125	3.125E-07	2.64930719140466E-07	2712890.75	2.84791913145455E-05
1	235	89.2192377747431	0.837249755859375	0.83770751953125	3.1280517578125E-07	2.62039236531564E-07	2678049	2.85106780211208E-05
1	236	89.3199457744888	0.827178955078125	0.8270263671875	3.1280517578125E-07	2.58698122479473E-07	2643902.5	2.85421792796114E-05
1	237	89.4206537742346	0.817108154296875	0.81787109375	3.11889648437499E-07	2.55085524258902E-07	2622309.25	2.8573635063367E-05
1	238	89.5213617739803	0.807037353515625	0.8074951171875	3.094482421875E-07	2.49877956548517E-07	2609467.5	2.8604921681108E-05
1	239	89.622069773726	0.796966552734375	0.79742431640625	3.05786132812499E-07	2.43841299152336E-07	2607784.5	2.86359008896397E-05
1	240	89.7227777734718	0.786895751953125	0.7867431640625	3.0029296875E-07	2.36253427488009E-07	2619918.75	2.86664198938524E-05
1	241	89.8234857732175	0.776824951171875	0.7769775390625	2.91748046875E-07	2.26681677872875E-07	2663179.75	2.86962313111871E-05
1	242	89.9241937729632	0.766754150390625	0.7666015625	2.80151367187501E-07	2.14764483530416E-07	2736383.5	2.87250295514241E-05
1	243	90.024901772709	0.756683349609375	0.75714111328125	2.6397705078125E-07	1.99867884020932E-07	2868208	2.87524289888097E-05
1	244	90.1256097724547	0.746612548828125	0.74658203125	2.43225097656249E-07	1.81587481051793E-07	3069510.75	2.87779676000355E-05
1	245	90.2263177722004	0.736541748046875	0.7364501953125	2.1697998046875E-07	1.59794936394064E-07	3394093	2.88011415250367E-05
1	246	90.3270257719462	0.726470947265625	0.726409912109375	1.85546875000001E-07	1.34783078920009E-07	3914967.25	2.88214105239604E-05
1	247	90.4277337716919	0.716400146484375	0.71630859375	1.4984130859375E-07	1.07332610355115E-07	4780448.5	2.88382980215829E-05
1	248	90.5284417714377	0.706329345703125	0.706268310546875	1.11999511718749E-07	7.9101702965545E-08	6305994.5	2.88514820567798E-05
1	249	90.6291497711834	0.696258544921875	0.6961669921875	7.69042968749994E-08	5.35382298494369E-08	9052381	2.88609953713603E-05
1	250	90.7298577709291	0.686187744140625	0.68609619140625	4.79125976562494E-08	3.28726486031883E-08	14319746	2.88672799797496E-05
1	251	90.8305657706749	0.676116943359375	0.676025390625	2.83813476562506E-08	1.91865119347767E-08	23819356	2.88711216853699E-05
1	252	90.9312737704206	0.666046142578125	0.666046142578125	1.89208984374994E-08	1.26021912905117E-08	35201612	2.88735027424991E-05
1	253	91.0319817701663	0.655975341796875	0.655914306640625	1.92260742187506E-08	1.26106565190298E-08	34115876	2.88754235953093E-05
1	254	91.1326897699121	0.645904541015625	0.6458740234375	2.65502929687494E-08	1.71481442379218E-08	24326438	2.8877730073873E-05
1	255	91.2333977696578	0.635833740234375	0.6358642578125	3.57055664062494E-08	2.27038920996847E-08	17808548	2.88808641926153E-05
1	256	91.3341057694035	0.625762939453125	0.625732421875	4.54711914062503E-08	2.84527974514504E-08	13761074	2.8884951461805E-05
1	257	91.4348137691493	0.615692138671875	0.61572265625	5.4931640625E-08	3.38226548990406E-08	11208889	2.88900082523469E-05
1	258	91.535521768895	0.605621337890625	0.60552978515625	6.34765625000006E-08	3.84369478467761E-08	9539423	2.88959690806223E-05
1	259	91.6362297686408	0.595550537109375	0.595489501953125	7.171630859375E-08	4.27063078234369E-08	8303404.5	2.89027775579598E-05
1	260	91.7369377683865	0.585479736328125	0.585479736328125	7.90405273437503E-08	4.62766251985158E-08	7407336	2.89103682007408E-05
1	261	91.8376457681322	0.575408935546875	0.57537841796875	8.66699218750003E-08	4.98680030602827E-08	6638732.5	2.89187119051348E-05
1	262	91.938353767878	0.565338134765625	0.5653076171875	9.27734375000003E-08	5.24455288086756E-08	6093421.5	2.89277486444917E-05
1	263	92.0390617676237	0.555267333984375	0.555206298828125	9.79614257812497E-08	5.43887992421332E-08	5667601.5	2.89373529085424E-05
1	264	92.1397697673694	0.545196533203125	0.54510498046875	1.03149414062501E-07	5.62272575166389E-08	5284615.5	2.89474792225519E-05
1	265	92.2404777671152	0.535125732421875	0.53509521484375	1.07421874999999E-07	5.7480928461473E-08	4981250.5	2.89580821117852E-05
1	266	92.3411857668609	0.525054931640625	0.524993896484375	1.1138916015625E-07	5.84786263857495E-08	4713151	2.89690997306025E-05
1	267	92.4418937666067	0.514984130859375	0.51495361328125	1.1474609375E-07	5.90889150942076E-08	4487766	2.89804866042687E-05
1	268	92.5426017663524	0.504913330078125	0.504913330078125	1.1749267578125E-07	5.93236180179701E-08	4297402.5	2.89921808871441E-05
1	269	92.6433097660981	0.494842529296875	0.49481201171875	1.2054443359375E-07	5.96468296976127E-08	4104810.25	2.90041680273134E-05
1	270	92.7440177658439	0.484771728515625	0.4847412109375	1.22985839843751E-07	5.96163047816844E-08	3941439.25	2.90164298348827E-05
1	271	92.8447257655896	0.474700927734375	0.474700927734375	1.2481689453125E-07	5.92506950169991E-08	3803178.5	2.90289081021911E-05
1	272	92.9454337653353	0.464630126953125	0.464630126953125	1.2664794921875E-07	5.88444528659693E-08	3668674.75	2.90415700874291E-05
1	273	93.0461417650811	0.454559326171875	0.45452880859375	1.2786865234375E-07	5.81199834925883E-08	3554654.25	2.90543866867665E-05
1	274	93.1468497648268	0.444488525390625	0.444488525390625	1.2847900390625E-07	5.71074423305618E-08	3459620	2.90672942355741E-05
1	275	93.2475577645725	0.434417724609375	0.4344482421875	1.2939453125E-07	5.62152209226952E-08	3357547.5	2.9080280000926E-05
1	276	93.3482657643183	0.424346923828125	0.42431640625	1.29089355468751E-07	5.4774734081775E-08	3286997.5	2.90932948701084E-05
1	277	93.448973764064	0.414276123046875	0.414306640625	1.2939453125E-07	5.36090105640596E-08	3201887	2.91063115582801E-05
1	278	93.5496817638098	0.404205322265625	0.404205322265625	1.300048828125E-07	5.25486640867712E-08	3109155	2.91193719021976E-05
1	279	93.6503897635555	0.394134521484375	0.3941650390625	1.30310058593749E-07	5.13636670973483E-08	3024824.5	2.9132481358829E-05
1	280	93.7510977633012	0.384063720703125	0.38409423828125	1.30310058593749E-07	5.00513408496772E-08	2947541	2.91456035483861E-05
1	281	93.851805763047	0.373992919921875	0.3740234375	1.3092041015625E-07	4.89673013248648E-08	2856876.5	2.91587584797526E-05
1	282	93.9525137627927	0.363922119140625	0.363922119140625	1.312255859375E-07	4.77558899092401E-08	2773256	2.91719570668647E-05
1	283	94.0532217625384	0.353851318359375	0.353912353515625	1.312255859375E-07	4.64423521862045E-08	2696977	2.91851738438709E-05
1	284	94.1539297622842	0.343780517578125	0.343719482421875	1.312255859375E-07	4.51047874605592E-08	2619302.5	2.91983888018876E-05
1	285	94.2546377620299	0.333709716796875	0.333740234375	1.30310058593749E-07	4.34897096113218E-08	2561124.25	2.92115582851693E-05
1	286	94.3553457617757	0.323638916015625	0.323638916015625	1.2939453125E-07	4.18771044508048E-08	2501179.5	2.92246349999914E-05
1	287	94.4560537615214	0.313568115234375	0.31353759765625	1.29089355468751E-07	4.04743687454356E-08	2428841.5	2.92376516881632E-05
1	288	94.5567617612671	0.303497314453125	0.303436279296875	1.27563476562501E-07	3.87073839647201E-08	2378708.25	2.9250573788886E-05
1	289	94.6574697610129	0.293426513671875	0.29339599609375	1.26037597656251E-07	3.69789248111374E-08	2327845.25	2.92633449134883E-05
1	290	94.7581777607586	0.283355712890625	0.283355712890625	1.239013671875E-07	3.51081581584367E-08	2286946	2.92759305011714E-05
1	291	94.8588857605043	0.273284912109375	0.273193359375	1.21459960937501E-07	3.3182054437475E-08	2249246.25	2.92882850772003E-05
1	292	94.9595937602501	0.263214111328125	0.263214111328125	1.18103027343749E-07	3.10863832453379E-08	2228682.25	2.93003467959352E-05
1	293	95.0603017599958	0.253143310546875	0.25311279296875	1.15051269531249E-07	2.91209474312382E-08	2200000	2.93120883725351E-05
1	294	95.1610097597415	0.243072509765625	0.243072509765625	1.1138916015625E-07	2.70756412845685E-08	2182191.75	2.93234897981165E-05
1	295	95.2617177594873	0.233001708984375	0.2330322265625	1.07421874999999E-07	2.50327580886278E-08	2169318.25	2.93345074169338E-05
1	296	95.362425759233	0.222930908203125	0.222900390625	1.025390625E-07	2.2855996206772E-08	2173809.5	2.93450812023366E-05
1	297	95.4631337589788	0.212860107421875	0.212890625	9.765625E-08	2.07901003079769E-08	2180000	2.93551602226216E-05
1	298	95.5638417587245	0.202789306640625	0.2027587890625	9.06372070312494E-08	1.83774897521971E-08	2237037	2.93646426143823E-05
1	299	95.6645497584702	0.192718505859375	0.1927490234375	8.33129882812506E-08	1.60584967545674E-08	2313553.25	2.93734010483604E-05
1	300	95.765257758216	0.182647705078125	0.1826171875	7.35473632812497E-08	1.34310127464232E-08	2482987.5	2.938130091934E-05
1	301	95.8659657579617	0.172576904296875	0.172576904296875	6.13403320312497E-08	1.05859241372741E-08	2813433	2.93880930257728E-05
1	302	95.9666737577074	0.162506103515625	0.162506103515625	4.57763671875E-08	7.43893924237682E-09	3550000	2.93934863293543E-05
1	303	96.0673817574532	0.152435302734375	0.152435302734375	2.50244140624994E-08	3.81460374399012E-09	6091463.5	2.93970515485853E-05
1	304	96.1680897571989	0.142364501953125	0.14239501953125	-3.35693359374972E-09	-4.78010575566401E-10	-42418184	2.93981429422274E-05
1	305	96.2687977569447	0.132293701171875	0.13238525390625	-4.02832031249994E-08	-5.33290167581413E-09	-3286363.75	2.93959437840385E-05
1	306	96.3695057566904	0.122222900390625	0.122283935546875	-9.12475585937503E-08	-1.1158109991527E-08	-1340133.75	2.93893208436202E-05
1	307	96.4702137564361	0.112152099609375	0.112152099609375	-1.617431640625E-07	-1.81398345233674E-08	-693396.25	2.93765824608272E-05
1	308	96.5709217561819	0.102081298828125	0.10211181640625	-2.55737304687501E-07	-2.61137991230953E-08	-399284.03125	2.93555604002904E-05
1	309	96.6716297559276	0.092010498046875	0.092010498046875	-3.814697265625E-07	-3.50992159781072E-08	-241200.015625	2.93234752462013E-05
1	310	96.7723377556733	0.081939697265625	0.082000732421875	-5.43212890625E-07	-4.45438530505271E-08	-150955.0625	2.92769127554493E-05
1	311	96.8730457554191	0.071868896484375	0.071929931640625	-7.421875E-07	-5.33854951356716E-08	-96916.125	2.92121876555029E-05
1	312	96.9737537551648	0.061798095703125	0.06182861328125	-9.722900390625E-07	-6.01153402612908E-08	-63590.71484375	2.91258565994212E-05
1	313	97.0744617549105	0.051727294921875	0.0517578125	-1.2213134765625E-06	-6.32125107813408E-08	-42378.80859375	2.90154002868803E-05
1	314	97.1751697546563	0.041656494140625	0.0417083740234375	-1.46484375E-06	-6.1096251613435E-08	-28472.916015625	2.88801420538221E-05
1	315	97.275877754402	0.031585693359375	0.031646728515625	-1.67816162109375E-06	-5.31083230725926E-08	-18857.974609375	2.87218790617771E-05
1	316	97.3765857541478	0.021514892578125	0.021624755859375	-1.83868408203125E-06	-3.97610939728565E-08	-11760.99609375	2.85447913483949E-05
1	317	97.4772937538935	0.011444091796875	0.0115631103515625	-1.93603515625E-06	-2.23865868065332E-08	-5972.57275390625	2.83547196886502E-05
1	318	97.5780017536392	0.001373291015625	0.00144042968749999	-1.97113037109375E-06	-2.83927481525836E-09	-730.763305664063	2.81579777947627E-05
1	319	97.678709753385	-0.008697509765625	-0.008587646484375	-1.95556640625E-06	1.67937130868268E-08	4391.3857421875	2.79602536465973E-05
1	320	97.7794177531307	-0.018768310546875	-0.01864013671875	-1.9061279296875E-06	3.55304834442904E-08	9779.05859375	2.77658018603688E-05
1	321	97.8801257528764	-0.028839111328125	-0.028680419921875	-1.83685302734375E-06	5.26817167667559E-08	15613.8896484375	2.75773272733204E-05
1	322	97.9808337526222	-0.038909912109375	-0.038775634765625	-1.76025390625E-06	6.82549625707907E-08	22028.431640625	2.73961995844729E-05
1	323	98.0815417523679	-0.048980712890625	-0.04888916015625	-1.683349609375E-06	8.229754655531E-08	29042.78515625	2.72227989626117E-05
1	324	98.1822497521136	-0.059051513671875	-0.058990478515625	-1.61041259765625E-06	9.49990095477915E-08	36630.66015625	2.70569453277858E-05
1	325	98.2829577518594	-0.069122314453125	-0.06903076171875	-1.54388427734375E-06	1.06575498648454E-07	44712.39453125	2.6898114811047E-05
1	326	98.3836657516051	-0.079193115234375	-0.07916259765625	-1.48406982421875E-06	1.17482819916859E-07	53341.55859375	2.67456453002524E-05
1	327	98.4843737513509	-0.089263916015625	-0.089202880859375	-1.43096923828125E-06	1.27646572423146E-07	62337.38671875	2.65988601313438E-05
1	328	98.5850817510966	-0.099334716796875	-0.0992431640625	-1.38458251953125E-06	1.37410339107191E-07	71677.3203125	2.64570862782421E-05
1	329	98.6857897508423	-0.109405517578125	-0.10931396484375	-1.34368896484375E-06	1.46883962770517E-07	81353.625	2.63197071035393E-05
1	330	98.7864977505881	-0.119476318359375	-0.119415283203125	-1.30859375E-06	1.56266082740331E-07	91254.6640625	2.61861532635521E-05
1	331	98.8872057503338	-0.129547119140625	-0.129425048828125	-1.27777099609375E-06	1.65375567462434E-07	101289.7109375	2.60559208982158E-05
1	332	98.9879137500795	-0.139617919921875	-0.1395263671875	-1.25152587890625E-06	1.7462086532305E-07	111485.0078125	2.59285607171478E-05
1	333	99.0886217498253	-0.149688720703125	-0.149566650390625	-1.2286376953125E-06	1.83763219752109E-07	121733.734375	2.58036743616685E-05
1	334	99.189329749571	-0.159759521484375	-0.159637451171875	-1.21002197265625E-06	1.93164822803737E-07	131929.375	2.5680878025014E-05
1	335	99.2900377493168	-0.169830322265625	-0.169708251953125	-1.19415283203125E-06	2.02657588488364E-07	142116.03125	2.55598170042504E-05
1	336	99.3907457490625	-0.179901123046875	-0.1798095703125	-1.1798095703125E-06	2.12141031852298E-07	152405.59375	2.54402784776175E-05
1	337	99.4914537488082	-0.189971923828125	-0.189849853515625	-1.16943359375E-06	2.22016780071499E-07	162343.4375	2.53219859587261E-05
1	338	99.592161748554	-0.200042724609375	-0.1998291015625	-1.1614990234375E-06	2.32101299957321E-07	172044.15625	2.52046138484729E-05
1	339	99.6928697482997	-0.189971923828125	-0.189849853515625	-1.01959228515625E-06	1.93569434259189E-07	186201.75	2.50947869062657E-05
2	340	99.7935777480454	-0.179901123046875	-0.179779052734375	-9.2376708984375E-07	1.66073974128267E-07	194615.140625	2.49969307333231E-05
2	341	99.8942857477912	-0.169830322265625	-0.16961669921875	-8.47778320312501E-07	1.43797365126375E-07	200072	2.49077256739838E-05
2	342	99.9949937475369	-0.159759521484375	-0.159637451171875	-7.8338623046875E-07	1.25057781019677E-07	203778.734375	2.48255910264561E-05
2	343	100.095701747283	-0.149688720703125	-0.1495361328125	-7.275390625E-07	1.08793372533E-07	205536.921875	2.47495099756634E-05
2	344	100.196409747028	-0.139617919921875	-0.13946533203125	-6.78100585937499E-07	9.45715186162488E-08	205670.578125	2.46787294599926E-05
2	345	100.297117746774	-0.129547119140625	-0.129486083984375	-6.32324218749999E-07	8.18771823674069E-08	204778	2.4612745619379E-05
2	346	100.39782574652	-0.119476318359375	-0.11944580078125	-5.9173583984375E-07	7.0680364672171E-08	201856.625	2.45511091634398E-05
2	347	100.498533746266	-0.109405517578125	-0.1092529296875	-5.5206298828125E-07	6.0314498284697E-08	197899.390625	2.44935145019554E-05
2	348	100.599241746011	-0.099334716796875	-0.0992431640625	-5.14831542968749E-07	5.10935080910713E-08	192768.234375	2.44397906499216E-05
2	349	100.699949745757	-0.089263916015625	-0.08917236328125	-4.78210449218749E-07	4.26431547850825E-08	186470.96875	2.43897884502076E-05
2	350	100.800657745503	-0.079193115234375	-0.07916259765625	-4.39453125E-07	3.47882505025154E-08	180138.890625	2.43435806623893E-05
2	351	100.901365745249	-0.069122314453125	-0.069061279296875	-3.9825439453125E-07	2.75039564456847E-08	173409.96875	2.43013982981211E-05
2	352	101.002073744994	-0.059051513671875	-0.058929443359375	-3.53088378906249E-07	2.08073025476097E-08	166897.140625	2.42635651375167E-05
2	353	101.10278174474	-0.048980712890625	-0.04884033203125	-2.99987792968751E-07	1.46515031218541E-08	162807.734375	2.423067962809E-05
2	354	101.203489744486	-0.038909912109375	-0.0387786865234375	-2.349853515625E-07	9.1124228163153E-09	165025.96875	2.42037422140129E-05
2	355	101.304197744231	-0.028839111328125	-0.0286895751953125	-1.544189453125E-07	4.43021352936057E-09	185790.515625	2.41841335082427E-05
2	356	101.404905743977	-0.018768310546875	-0.018621826171875	-5.06591796874997E-08	9.43366385008915E-10	367590.375	2.41738071053987E-05
2	357	101.505613743723	-0.008697509765625	-0.0086029052734375	8.27026367187497E-08	-7.11482928128504E-10	-104022.140625	2.41754205489997E-05
2	358	101.606321743469	0.001373291015625	0.00144042968749999	2.5054931640625E-07	3.60898672058241E-10	5749.0869140625	2.41922007262474E-05
2	359	101.707029743214	0.011444091796875	0.0115478515625	4.547119140625E-07	5.25094545622551E-09	25395.97265625	2.42277146753622E-05
2	360	101.80773774296	0.021514892578125	0.0216156005859375	6.9091796875E-07	1.49346064404199E-08	31285.3359375	2.42854002863169E-05
2	361	101.908445742706	0.031585693359375	0.03165283203125	9.4573974609375E-07	2.99353395405433E-08	33468.859375	2.43678132392233E-05
2	362	102.009153742452	0.041656494140625	0.0417694091796875	1.19964599609375E-06	5.01085040127691E-08	34818.109375	2.44758412009105E-05
2	363	102.109861742197	0.051727294921875	0.051788330078125	1.42669677734375E-06	7.38862411253649E-08	36299.46875	2.46080890065059E-05
2	364	102.210569741943	0.061798095703125	0.061859130859375	1.60491943359375E-06	9.9278913978651E-08	38543.44921875	2.47607422352303E-05
2	365	102.311277741689	0.071868896484375	0.071868896484375	1.722412109375E-06	1.23787856409763E-07	41725.7265625	2.49282875302015E-05
2	366	102.411985741435	0.081939697265625	0.08203125	1.778564453125E-06	1.45897857350974E-07	46122.171875	2.51045748882461E-05
2	367	102.51269374118	0.092010498046875	0.092041015625	1.7822265625E-06	1.64037942340656E-07	51643.8359375	2.52838763117325E-05
2	368	102.613401740926	0.102081298828125	0.10211181640625	1.7498779296875E-06	1.78683208673647E-07	58353.6796875	2.5461731638643E-05
2	369	102.714109740672	0.112152099609375	0.1121826171875	1.695556640625E-06	1.90211977724175E-07	66162.703125	2.56352232099744E-05
2	370	102.814817740418	0.122222900390625	0.122283935546875	1.6302490234375E-06	1.99353266339131E-07	75009.359375	2.58026902884012E-05
2	371	102.915525740163	0.132293701171875	0.13238525390625	1.56219482421875E-06	2.06811563430165E-07	84743.1171875	2.59634416579502E-05
2	372	103.016233739909	0.142364501953125	0.142425537109375	1.49658203125E-06	2.13151480465967E-07	95167.21875	2.61174645856954E-05
2	373	103.116941739655	0.152435302734375	0.1524658203125	1.435546875E-06	2.18871832657896E-07	106207.484375	2.62651083176024E-05
2	374	103.2176497394	0.162506103515625	0.1624755859375	1.3800048828125E-06	2.24217089339618E-07	117735.515625	2.64068821707042E-05
2	375	103.318357739146	0.172576904296875	0.172637939453125	1.33148193359375E-06	2.29864298262328E-07	129658.4921875	2.65434173343237E-05
2	376	103.419065738892	0.182647705078125	0.1826171875	1.28692626953125E-06	2.35014852023596E-07	141901.828125	2.66752649622504E-05
2	377	103.519773738638	0.192718505859375	0.192779541015625	1.24847412109375E-06	2.40680265051196E-07	154412.125	2.68029325525276E-05
2	378	103.620481738383	0.202789306640625	0.202789306640625	1.21429443359375E-06	2.46245917878696E-07	167001.75	2.69269421551144E-05
2	379	103.721189738129	0.212860107421875	0.212890625	1.1834716796875E-06	2.51950012852831E-07	179886.546875	2.70476793957641E-05
2	380	103.821897737875	0.222930908203125	0.222900390625	1.15692138671875E-06	2.57878213005824E-07	192666.84375	2.71655280812411E-05
2	381	103.922605737621	0.233001708984375	0.233001708984375	1.13250732421875E-06	2.6387616003376E-07	205739.6875	2.72808101726696E-05
2	382	104.023313737366	0.243072509765625	0.243072509765625	1.11114501953125E-06	2.70088804654733E-07	218758.578125	2.73937857855344E-05
2	383	104.124021737112	0.253143310546875	0.253143310546875	1.09161376953125E-06	2.7633470267574E-07	231898.25	2.75047041213838E-05
2	384	104.224729736858	0.263214111328125	0.263214111328125	1.0748291015625E-06	2.82910207261011E-07	244889.265625	2.76137925538933E-05
2	385	104.325437736604	0.273284912109375	0.2733154296875	1.0595703125E-06	2.89596925995284E-07	257949.3125	2.77212693617912E-05
2	386	104.426145736349	0.283355712890625	0.283355712890625	1.04522705078125E-06	2.96171037916793E-07	271094.90625	2.78272527793888E-05
2	387	104.526853736095	0.293426513671875	0.29339599609375	1.03302001953125E-06	3.03083936614712E-07	284017.71875	2.79319010587642E-05
2	388	104.627561735841	0.303497314453125	0.303436279296875	1.0211181640625E-06	3.09844295998118E-07	297160.8125	2.80353360722074E-05
2	389	104.728269735587	0.313568115234375	0.313568115234375	1.01104736328125E-06	3.17032203156487E-07	310141.875	2.81376633211039E-05
2	390	104.828977735332	0.323638916015625	0.32366943359375	1.00189208984375E-06	3.24281842267737E-07	323058.1875	2.82390228676377E-05
2	391	104.929685735078	0.333709716796875	0.333709716796875	9.930419921875E-07	3.31387781216108E-07	336047.9375	2.83394765574485E-05
2	392	105.030393734824	0.343780517578125	0.343780517578125	9.86328124999999E-07	3.39080401090541E-07	348545.78125	2.8439144443837E-05
2	393	105.131101734569	0.353851318359375	0.35382080078125	9.7930908203125E-07	3.46499945180767E-07	361296.34375	2.85381229332415E-05
2	394	105.231809734315	0.363922119140625	0.363922119140625	9.735107421875E-07	3.54282093439906E-07	373824.46875	2.86364556814078E-05
2	395	105.332517734061	0.373992919921875	0.3740234375	9.6893310546875E-07	3.62403710596482E-07	386015.75	2.87342645606259E-05
2	396	105.433225733807	0.384063720703125	0.384002685546875	9.6435546875E-07	3.70315063946691E-07	398196.21875	2.88316132355249E-05
2	397	105.533933733552	0.394134521484375	0.394134521484375	9.6160888671875E-07	3.79003239459053E-07	409869.90625	2.89285944745643E-05
2	398	105.634641733298	0.404205322265625	0.4041748046875	9.59167480468751E-07	3.87671320822847E-07	421380.875	2.90253119601402E-05
2	399	105.735349733044	0.414276123046875	0.41424560546875	9.5794677734375E-07	3.96825242887644E-07	432430.71875	2.91218475467758E-05
2	400	105.83605773279	0.424346923828125	0.42431640625	9.564208984375E-07	4.0582506244391E-07	443650.3125	2.92182430712273E-05
2	401	105.936765732535	0.434417724609375	0.434417724609375	9.55810546875E-07	4.15221023786216E-07	454501.9375	2.9314531275304E-05
2	402	106.037473732281	0.444488525390625	0.44439697265625	9.5489501953125E-07	4.24352435857145E-07	465388.3125	2.94107430818258E-05
2	403	106.138181732027	0.454559326171875	0.454559326171875	9.5428466796875E-07	4.33778950537089E-07	476335.1875	2.95068784907926E-05
2	404	106.238889731773	0.464630126953125	0.46466064453125	9.5489501953125E-07	4.43702106167621E-07	486609.15625	2.960301208077E-05
2	405	106.339597731518	0.474700927734375	0.474700927734375	9.5489501953125E-07	4.5328951614465E-07	497123.71875	2.96991784125566E-05
2	406	106.440305731264	0.484771728515625	0.4847412109375	9.5489501953125E-07	4.6287695454339E-07	507638.25	2.97953429253539E-05
2	407	106.54101373101	0.494842529296875	0.494873046875	9.56115722656251E-07	4.7315592155428E-07	517586.96875	2.98915711027803E-05
2	408	106.641721730756	0.504913330078125	0.5048828125	9.5703125E-07	4.83188614452956E-07	527551	2.99879047815921E-05
2	409	106.742429730501	0.514984130859375	0.51495361328125	9.59167480468751E-07	4.93926734179695E-07	536875.625	3.00843930745032E-05
2	410	106.843137730247	0.525054931640625	0.524993896484375	9.6099853515625E-07	5.0451831157261E-07	546300.4375	3.01810814562486E-05
2	411	106.943845729993	0.535125732421875	0.53509521484375	9.63439941406249E-07	5.15532065037405E-07	555400.75	3.02779844787437E-05
2	412	107.044553729738	0.545196533203125	0.545166015625	9.66796875000001E-07	5.27064798916399E-07	563888.875	3.03751803585328E-05
2	413	107.145261729484	0.555267333984375	0.555267333984375	9.70458984375E-07	5.3886412842985E-07	572169.875	3.04727291222662E-05
2	414	107.24596972923	0.565338134765625	0.5653076171875	9.74426269531251E-07	5.50850586478191E-07	580144.0625	3.05706598737743E-05
2	415	107.346677728976	0.575408935546875	0.575408935546875	9.7991943359375E-07	5.63854371193884E-07	587200.3125	3.06690708384849E-05
2	416	107.447385728721	0.585479736328125	0.58544921875	9.8480224609375E-07	5.76551713038498E-07	594484.0625	3.0768002034165E-05
2	417	107.548093728467	0.595550537109375	0.59552001953125	9.9151611328125E-07	5.90467720940069E-07	600615.5625	3.0867518944433E-05
2	418	107.648801728213	0.605621337890625	0.605560302734375	9.991455078125E-07	6.0504288512675E-07	606078.1875	3.09677561745048E-05
2	419	107.749509727959	0.615692138671875	0.615631103515625	1.00860595703125E-06	6.20929199612874E-07	610378.1875	3.1068851967575E-05
2	420	107.850217727704	0.625762939453125	0.62567138671875	1.0198974609375E-06	6.38120638996043E-07	613465	3.11709954985417E-05
2	421	107.95092572745	0.635833740234375	0.635833740234375	1.033935546875E-06	6.57411078464065E-07	614964.625	3.12744159600697E-05
2	422	108.051633727196	0.645904541015625	0.645782470703125	1.05133056640625E-06	6.78930803132971E-07	614252.5625	3.13794189423788E-05
2	423	108.152341726942	0.655975341796875	0.655914306640625	1.07208251953125E-06	7.0319424594345E-07	611813.3125	3.14863391395193E-05
2	424	108.253049726687	0.666046142578125	0.665985107421875	1.09771728515625E-06	7.3106332365569E-07	606700.0625	3.15955985570326E-05
2	425	108.353757726433	0.676116943359375	0.676055908203125	1.12762451171875E-06	7.62337208470854E-07	599539.9375	3.17076519422699E-05
2	426	108.454465726179	0.686187744140625	0.686065673828125	1.16058349609375E-06	7.96236463429523E-07	591138.625	3.18228740070481E-05
2	427	108.555173725925	0.696258544921875	0.696136474609375	1.19415283203125E-06	8.31293334613292E-07	582954.25	3.19414430123288E-05
2	428	108.65588172567	0.706329345703125	0.70623779296875	1.22528076171875E-06	8.65339529809717E-07	576388.5625	3.20632716466207E-05
2	429	108.756589725416	0.716400146484375	0.716339111328125	1.251220703125E-06	8.96298274710716E-07	572512.25	3.21879742841702E-05
2	430	108.857297725162	0.726470947265625	0.72637939453125	1.26983642578125E-06	9.22382980661496E-07	572026	3.23149179166649E-05
2	431	108.958005724907	0.736541748046875	0.736419677734375	1.2799072265625E-06	9.42548865623394E-07	575369.5625	3.24433094647247E-05
2	432	109.058713724653	0.746612548828125	0.74658203125	1.28448486328125E-06	9.58973259912455E-07	581230.6875	3.25724358845036E-05
2	433	109.159421724399	0.756683349609375	0.7568359375	1.2823486328125E-06	9.70527594290616E-07	590195.125	3.2701685995562E-05
2	434	109.260129724145	0.766754150390625	0.76690673828125	1.278076171875E-06	9.80165282271628E-07	600047.75	3.28306123265065E-05
2	435	109.36083772389	0.776824951171875	0.77728271484375	1.27197265625E-06	9.88682359093218E-07	611084.4375	3.29590184264816E-05
2	436	109.461545723636	0.786895751953125	0.787353515625	1.2652587890625E-06	9.96205926639959E-07	622286.5625	3.30867769662291E-05
2	437	109.562253723382	0.796966552734375	0.79681396484375	1.2579345703125E-06	1.00233978628239E-06	633430.375	3.3213829738088E-05
2	438	109.662961723128	0.807037353515625	0.80657958984375	1.25244140625E-06	1.01019361409271E-06	644005.875	3.3340238587698E-05
2	439	109.763669722873	0.817108154296875	0.81695556640625	1.24725341796875E-06	1.0189505701419E-06	655003.6875	3.34661090164445E-05
2	440	109.864377722619	0.827178955078125	0.82794189453125	1.2432861328125E-06	1.02936860457703E-06	665930.3125	3.35915174218826E-05
2	441	109.965085722365	0.837249755859375	0.83740234375	1.23992919921875E-06	1.03831951037137E-06	675363.0625	3.37165583914611E-05
2	442	110.065793722111	0.847320556640625	0.84686279296875	1.23779296875E-06	1.04824084701249E-06	684171.625	3.38413192366716E-05
2	443	110.166501721856	0.857391357421875	0.85784912109375	1.23626708984375E-06	1.06053062154388E-06	693902.75	3.39658981829416E-05
2	444	110.267209721602	0.867462158203125	0.867919921875	1.2359619140625E-06	1.07271591787139E-06	702222.25	3.40903861797415E-05
2	445	110.367917721348	0.877532958984375	0.8782958984375	1.23626708984375E-06	1.08580832147709E-06	710441.875	3.42148705385625E-05
2	446	110.468625721094	0.887603759765625	0.8880615234375	1.23748779296875E-06	1.09896518551977E-06	717632.625	3.43394349329174E-05
2	447	110.569333720839	0.897674560546875	0.89813232421875	1.240234375E-06	1.11389454104938E-06	724163.375	3.44641994161066E-05
2	448	110.670041720585	0.907745361328125	0.908203125	1.24420166015625E-06	1.12998782242357E-06	729948.5	3.4589298593346E-05
2	449	110.770749720331	0.917816162109375	0.91796875	1.24969482421875E-06	1.14718079657905E-06	734554.3125	3.4714877983788E-05
2	450	110.871457720076	0.927886962890625	0.92803955078125	1.25762939453125E-06	1.16712976705458E-06	737927.6875	3.48411304003093E-05
2	451	110.972165719822	0.937957763671875	0.93841552734375	1.26861572265625E-06	1.19048866054072E-06	739716.125	3.49683396052569E-05
2	452	111.072873719568	0.948028564453125	0.94818115234375	1.28326416015625E-06	1.21676691833272E-06	738882.25	3.50968366547022E-05
2	453	111.173581719314	0.958099365234375	0.958251953125	1.3031005859375E-06	1.24869870887778E-06	735363	3.52270690200385E-05
2	454	111.274289719059	0.968170166015625	0.96832275390625	1.3287353515625E-06	1.28664464682515E-06	728755.1875	3.53595933120232E-05
2	455	111.374997718805	0.978240966796875	0.9783935546875	1.3629150390625E-06	1.33346725306183E-06	717868.375	3.54951298504602E-05
2	456	111.475705718551	0.988311767578125	0.98846435546875	1.405029296875E-06	1.38882137434848E-06	703518.6875	3.56345044565387E-05
2	457	111.576413718297	0.998382568359375	0.99853515625	1.45660400390625E-06	1.45447029353818E-06	685522.75	3.57786011591088E-05
2	458	111.677121718042	1.00845336914063	1.0089111328125	1.5155029296875E-06	1.5290077044483E-06	665727	3.59282566932961E-05
2	459	111.777829717788	1.01852416992188	1.01806640625	1.57928466796875E-06	1.60781655722531E-06	644637.75	3.60840931534767E-05
2	460	111.878537717534	1.02859497070313	1.029052734375	1.6412353515625E-06	1.68891767771129E-06	626998.9375	3.62462596967816E-05
2	461	111.97924571728	1.03866577148438	1.038818359375	1.69525146484375E-06	1.76105822902173E-06	612781.3125	3.64142651960719E-05
2	462	112.079953717025	1.04873657226563	1.04949951171875	1.73675537109375E-06	1.82272378879134E-06	604287.5	3.65870801033452E-05
2	463	112.180661716771	1.05880737304688	1.0589599609375	1.76239013671875E-06	1.86630052212422E-06	600865.8125	3.67632746929303E-05
2	464	112.281369716517	1.06887817382813	1.06903076171875	1.7730712890625E-06	1.8954677898364E-06	602926	3.69412991858553E-05
2	465	112.382077716263	1.07894897460938	1.0791015625	1.77154541015625E-06	1.91167737284559E-06	609130.0625	3.71197857020888E-05
2	466	112.482785716008	1.08901977539063	1.08856201171875	1.76116943359375E-06	1.91714207176119E-06	618090.4375	3.72976719518192E-05
2	467	112.583493715754	1.09909057617188	1.0992431640625	1.74560546875E-06	1.91884487321659E-06	629720.3125	3.74742521671578E-05
2	468	112.6842017155	1.10916137695313	1.10931396484375	1.7279052734375E-06	1.91678941519058E-06	641999.3125	3.76491552742664E-05
2	469	112.784909715245	1.11923217773438	1.1187744140625	1.70928955078125E-06	1.91230947166332E-06	654526	3.78222321160138E-05
2	470	112.885617714991	1.12930297851563	1.129150390625	1.6912841796875E-06	1.90971422853181E-06	667629	3.7993464502506E-05
2	471	112.986325714737	1.13937377929688	1.1395263671875	1.6748046875E-06	1.90848390957399E-06	680393.625	3.81629615731072E-05
2	472	113.087033714483	1.14944458007813	1.1492919921875	1.66015625E-06	1.9080041511188E-06	692279.4375	3.83308906748425E-05
2	473	113.187741714228	1.15951538085938	1.15997314453125	1.64703369140625E-06	1.91051481124305E-06	704280.1875	3.84974191547371E-05
2	474	113.288449713974	1.16958618164063	1.16973876953125	1.63604736328125E-06	1.91374783753417E-06	714978.5625	3.8662736187689E-05
2	475	113.38915771372	1.17965698242188	1.1798095703125	1.6265869140625E-06	1.91906269719766E-06	725328.375	3.88270236726385E-05
2	476	113.489865713466	1.18972778320313	1.1895751953125	1.62078857421875E-06	1.92804986909323E-06	733948.4375	3.89905435440596E-05
2	477	113.590573713211	1.19979858398438	1.19903564453125	1.614990234375E-06	1.93643086277007E-06	742441.4375	3.91534777008928E-05
2	478	113.691281712957	1.20986938476563	1.21002197265625	1.611328125E-06	1.94974245459889E-06	750947	3.93159352825023E-05
2	479	113.791989712703	1.21994018554688	1.2200927734375	1.60980224609375E-06	1.96410815078707E-06	757914.6875	3.94781309296377E-05
2	480	113.892697712449	1.23001098632813	1.2298583984375	1.60858154296875E-06	1.97832764570194E-06	764560.8125	3.96401883335784E-05
2	481	113.993405712194	1.24008178710938	1.23992919921875	1.60980224609375E-06	1.99604073713999E-06	770237	3.98022493754979E-05
2	482	114.09411371194	1.25015258789063	1.2506103515625	1.61224365234375E-06	2.01628859031189E-06	775695.625	3.99644923163578E-05
2	483	114.194821711686	1.26022338867188	1.26068115234375	1.61590576171875E-06	2.03714193958149E-06	780170	4.01270408474375E-05
2	484	114.295529711432	1.27029418945313	1.2701416015625	1.62078857421875E-06	2.05863102564763E-06	783656.5625	4.02900222979952E-05
2	485	114.396237711177	1.28036499023438	1.2799072265625	1.62750244140625E-06	2.08305209525861E-06	786424.125	4.0453585825162E-05
2	486	114.496945710923	1.29043579101563	1.29058837890625	1.63543701171875E-06	2.11067595046188E-06	789139.75	4.06178878620267E-05
2	487	114.597653710669	1.30050659179688	1.30035400390625	1.64398193359375E-06	2.13775842894393E-06	790978.3125	4.07830193580594E-05
2	488	114.698361710414	1.31057739257813	1.31103515625	1.6546630859375E-06	2.16932130570058E-06	792327.5625	4.09491185564548E-05
2	489	114.79906971016	1.32064819335938	1.32080078125	1.666259765625E-06	2.20079732571321E-06	792674	4.11163418903016E-05
2	490	114.899777709906	1.33071899414063	1.33087158203125	1.67999267578125E-06	2.23585448111407E-06	792188.9375	4.12848385167308E-05
2	491	115.000485709652	1.34078979492188	1.3409423828125	1.6949462890625E-06	2.27282521336747E-06	791141.5625	4.14547794207465E-05
2	492	115.101193709397	1.35086059570313	1.351318359375	1.71112060546875E-06	2.31226863434131E-06	789727.125	4.1626288293628E-05
2	493	115.201901709143	1.36093139648438	1.361083984375	1.728515625E-06	2.35265497394721E-06	787429.375	4.17994888266549E-05
2	494	115.302609708889	1.37100219726563	1.3714599609375	1.74713134765625E-06	2.39612063523964E-06	784978.1875	4.19745010731276E-05
2	495	115.403317708635	1.38107299804688	1.38092041015625	1.76666259765625E-06	2.43962040258339E-06	781654.875	4.21514341724105E-05
2	496	115.50402570838	1.39114379882813	1.39129638671875	1.785888671875E-06	2.48470041697146E-06	779049.9375	4.23303208663128E-05
2	497	115.604733708126	1.40121459960938	1.4007568359375	1.80694580078125E-06	2.53109169534582E-06	775206.9375	4.25112339144107E-05
2	498	115.705441707872	1.41128540039063	1.4111328125	1.8292236328125E-06	2.58127738561598E-06	771438.125	4.26943297497928E-05
2	499	115.806149707618	1.42135620117188	1.4215087890625	1.85333251953125E-06	2.63452852777846E-06	767001.5	4.28797611675691E-05
2	500	115.906857707363	1.43142700195313	1.4312744140625	1.87957763671875E-06	2.69019119514269E-06	761487.3125	4.30677282565739E-05
2	501	116.007565707109	1.44149780273438	1.44134521484375	1.910400390625E-06	2.75354659606819E-06	754472.8125	4.32585693488363E-05
2	502	116.108273706855	1.45156860351563	1.4520263671875	1.949462890625E-06	2.83067129203118E-06	744834.125	4.34529283666052E-05
2	503	116.208981706601	1.46163940429688	1.4617919921875	2.00042724609375E-06	2.9242085020087E-06	730739.875	4.36518203059677E-05
2	504	116.309689706346	1.47171020507813	1.47125244140625	2.06695556640625E-06	3.04101308756799E-06	711796.875	4.38566312368494E-05
2	505	116.410397706092	1.48178100585938	1.48193359375	2.1502685546875E-06	3.18655520459288E-06	689185.375	4.40689836977981E-05
2	506	116.511105705838	1.49185180664063	1.49200439453125	2.2515869140625E-06	3.35937761519745E-06	662645.6875	4.42906348325778E-05
2	507	116.611813705583	1.50192260742188	1.5020751953125	2.3681640625E-06	3.55716019839747E-06	634278.375	4.45232581114396E-05
2	508	116.712521705329	1.49185180664063	1.49200439453125	2.0977783203125E-06	3.12989436679345E-06	711230.75	4.47481361334212E-05
2	509	116.813229705075	1.48178100585938	1.48162841796875	1.90185546875E-06	2.81784309663635E-06	779043.6875	4.49495346401818E-05
2	510	116.913937704821	1.47171020507813	1.4715576171875	1.749267578125E-06	2.57414808402245E-06	841242.1875	4.5133383537177E-05
2	511	117.014645704566	1.46163940429688	1.46148681640625	1.6265869140625E-06	2.377235205131E-06	898499.125	4.53033717349172E-05
2	512	117.115353704312	1.45156860351563	1.45172119140625	1.52679443359375E-06	2.21647997022956E-06	950829.5	4.54621549579315E-05
2	513	117.216061704058	1.44149780273438	1.44134521484375	1.44378662109375E-06	2.0809948182432E-06	998309.0625	4.56117377325427E-05
2	514	117.316769703804	1.43142700195313	1.43157958984375	1.3751220703125E-06	1.96859650714032E-06	1041056.4375	4.5753680751659E-05
2	515	117.417477703549	1.42135620117188	1.42181396484375	1.31744384765625E-06	1.87315993116499E-06	1079221.75	4.58892609458417E-05
2	516	117.518185703295	1.41128540039063	1.4117431640625	1.26922607421875E-06	1.79182109150133E-06	1112286.625	4.6019511501072E-05
2	517	117.618893703041	1.40121459960938	1.40167236328125	1.22833251953125E-06	1.72171974099911E-06	1141118	4.61452727904543E-05
2	518	117.719601702787	1.39114379882813	1.3909912109375	1.19354248046875E-06	1.6602069763394E-06	1165430.875	4.62672251160257E-05
2	519	117.820309702532	1.38107299804688	1.38092041015625	1.1639404296875E-06	1.60730905918172E-06	1186418.5	4.63859323645011E-05
2	520	117.921017702278	1.37100219726563	1.37115478515625	1.13861083984375E-06	1.56121177496971E-06	1204234.75	4.65018747490831E-05
2	521	118.021725702024	1.36093139648438	1.361083984375	1.11602783203125E-06	1.5190074691418E-06	1219579	4.6615405153716E-05
2	522	118.12243370177	1.35086059570313	1.351318359375	1.09588623046875E-06	1.48089111462468E-06	1233082.75	4.67267818748951E-05
2	523	118.223141701515	1.34078979492188	1.34063720703125	1.07757568359375E-06	1.44463808737783E-06	1244123.5	4.68362268293276E-05
2	524	118.323849701261	1.33071899414063	1.33087158203125	1.06109619140625E-06	1.41218276894506E-06	1254242.125	4.69439182779752E-05
2	525	118.424557701007	1.32064819335938	1.32049560546875	1.0455322265625E-06	1.38062057430943E-06	1262989	4.70499944640324E-05
2	526	118.525265700752	1.31057739257813	1.3104248046875	1.0302734375E-06	1.35009588575485E-06	1271919.375	4.71545208711177E-05
2	527	118.625973700498	1.30050659179688	1.30096435546875	1.016845703125E-06	1.32287993892533E-06	1279411.875	4.72575993626378E-05
2	528	118.726681700244	1.29043579101563	1.290283203125	1.00372314453125E-06	1.2950871450812E-06	1285497.125	4.73593427159358E-05
2	529	118.82738969999	1.28036499023438	1.280517578125	9.906005859375E-07	1.26848146919656E-06	1292667.875	4.74597654829267E-05
2	530	118.928097699735	1.27029418945313	1.27105712890625	9.7808837890625E-07	1.24320615668694E-06	1299532	4.75588967674412E-05
2	531	119.028805699481	1.26022338867188	1.2603759765625	9.6588134765625E-07	1.21737366498564E-06	1304897.375	4.76567838632036E-05
2	532	119.129513699227	1.25015258789063	1.25	9.539794921875E-07	1.19247431484837E-06	1310300.75	4.77534558740444E-05
2	533	119.230221698973	1.24008178710938	1.24053955078125	9.42382812500001E-07	1.16906312541687E-06	1316386.125	4.7848945541773E-05
2	534	119.330929698718	1.23001098632813	1.22955322265625	9.307861328125E-07	1.14445106191852E-06	1320983.625	4.79432674183045E-05
2	535	119.431637698464	1.21994018554688	1.21978759765625	9.19494628906251E-07	1.12158807041851E-06	1326584.875	4.80364360555541E-05
2	536	119.53234569821	1.20986938476563	1.21002197265625	9.08203125E-07	1.09894574507052E-06	1332325.25	4.81284696434159E-05
2	537	119.633053697956	1.19979858398438	1.199951171875	8.97216796875E-07	1.07661628589995E-06	1337415	4.82193790958263E-05
2	538	119.733761697701	1.18972778320313	1.18927001953125	8.85925292968751E-07	1.05360436464252E-06	1342404.5	4.83091680507641E-05
2	539	119.834469697447	1.17965698242188	1.1798095703125	8.73718261718751E-07	1.0308211813026E-06	1350331.875	4.83977710246108E-05
2	540	119.935177697193	1.16958618164063	1.16912841796875	8.6181640625E-07	1.00757404197793E-06	1356586.5	4.84851625515148E-05
2	541	120.035885696939	1.15951538085938	1.15966796875	8.4869384765625E-07	9.84203097686986E-07	1366415	4.85712953377515E-05
2	542	120.136593696684	1.14944458007813	1.14959716796875	8.3526611328125E-07	9.60219495027559E-07	1376324.5	4.86560893477872E-05
2	543	120.23730169643	1.13937377929688	1.1395263671875	8.2061767578125E-07	9.35115451738966E-07	1388620.375	4.87394681840669E-05
2	544	120.338009696176	1.12930297851563	1.12945556640625	8.03527832031251E-07	9.07548951545323E-07	1405621	4.88212499476504E-05
2	545	120.438717695921	1.11923217773438	1.11907958984375	7.83691406250001E-07	8.77013064837229E-07	1427959.5	4.89011727040634E-05
2	546	120.539425695667	1.10916137695313	1.109619140625	7.60803222656251E-07	8.44201792915555E-07	1458483.875	4.89789454150014E-05
2	547	120.640133695413	1.09909057617188	1.0986328125	7.3272705078125E-07	8.04997966952214E-07	1499375.375	4.90541497129016E-05
2	548	120.740841695159	1.08901977539063	1.0888671875	6.98242187500001E-07	7.60293005441781E-07	1559440.625	4.91262035211548E-05
2	549	120.841549694904	1.07894897460938	1.07879638671875	6.561279296875E-07	7.07828405666078E-07	1644186.125	4.91944047098514E-05
2	550	120.94225769465	1.06887817382813	1.06842041015625	6.04858398437499E-07	6.46243051960482E-07	1766397.625	4.92578983539715E-05
2	551	121.042965694396	1.05880737304688	1.05926513671875	5.43823242187499E-07	5.76052968881413E-07	1947811.625	4.93157385790255E-05
2	552	121.143673694142	1.04873657226563	1.048583984375	4.7454833984375E-07	4.97603764415544E-07	2209646.25	4.93670195282903E-05
2	553	121.244381693887	1.03866577148438	1.03912353515625	4.010009765625E-07	4.16689545090776E-07	2591324.25	4.94111045554746E-05
2	554	121.345089693633	1.02859497070313	1.0284423828125	3.2928466796875E-07	3.38650295361731E-07	3123262.25	4.94478772452567E-05
2	555	121.445797693379	1.01852416992188	1.01837158203125	2.6580810546875E-07	2.70691401738077E-07	3831228.5	4.94778432766907E-05
2	556	121.546505693125	1.00845336914063	1.00830078125	2.1484375E-07	2.16627128679647E-07	4693182	4.95020467496943E-05
2	557	121.64721369287	0.998382568359375	0.99822998046875	1.7974853515625E-07	1.79430372782008E-07	5553481	4.95219173899386E-05
2	558	121.747921692616	0.988311767578125	0.9881591796875	1.61132812500001E-07	1.59224853746309E-07	6132576	4.95390813739505E-05
2	559	121.848629692362	0.978240966796875	0.9783935546875	1.54724121093749E-07	1.51381087221125E-07	6323471.5	4.95549866172951E-05
2	560	121.949337692108	0.968170166015625	0.96832275390625	1.59606933593751E-07	1.54551017317317E-07	6066922	4.95708118251059E-05
2	561	122.050045691853	0.958099365234375	0.95794677734375	1.708984375E-07	1.63711604272976E-07	5605357.5	4.95874555781484E-05
2	562	122.150753691599	0.948028564453125	0.948486328125	1.849365234375E-07	1.75409766711709E-07	5128713	4.96053726237733E-05
2	563	122.251461691345	0.937957763671875	0.93780517578125	1.97448730468749E-07	1.85168431698912E-07	4749613.5	4.96246284455992E-05
2	564	122.35216969109	0.927886962890625	0.92803955078125	2.093505859375E-07	1.94285618704271E-07	4432945	4.96451102662832E-05
2	565	122.452877690836	0.917816162109375	0.91796875	2.2003173828125E-07	2.01982260250588E-07	4171983.5	4.96667344123125E-05
2	566	122.553585690582	0.907745361328125	0.90789794921875	2.29492187499999E-07	2.08355487529843E-07	3956117	4.96893699164502E-05
2	567	122.654293690328	0.897674560546875	0.8978271484375	2.3773193359375E-07	2.13442177710021E-07	3776636.75	4.97128967253957E-05
2	568	122.755001690073	0.887603759765625	0.88775634765625	2.4444580078125E-07	2.17008306435673E-07	3631710.25	4.97371729579754E-05
2	569	122.855709689819	0.877532958984375	0.87799072265625	2.490234375E-07	2.18640266780312E-07	3525735.5	4.97620239912067E-05
2	570	122.956417689565	0.867462158203125	0.86761474609375	2.5299072265625E-07	2.19498460296563E-07	3429433.25	4.97873006679583E-05
2	571	123.057125689311	0.857391357421875	0.85784912109375	2.55737304687501E-07	2.19384006072687E-07	3354415.5	4.98129193147179E-05
2	572	123.157833689056	0.847320556640625	0.84716796875	2.57263183593751E-07	2.17945114400209E-07	3293001.5	4.98387489642482E-05
2	573	123.258541688802	0.837249755859375	0.83740234375	2.56958007812499E-07	2.15177237805619E-07	3258907.5	4.98646440973971E-05
2	574	123.359249688548	0.827178955078125	0.82733154296875	2.5634765625E-07	2.12084501072241E-07	3227381	4.98904882988427E-05
2	575	123.459957688294	0.817108154296875	0.8172607421875	2.53906249999999E-07	2.07507611094115E-07	3218750	4.99161833431572E-05
2	576	123.560665688039	0.807037353515625	0.806884765625	2.5054931640625E-07	2.02164414986328E-07	3220463	4.99415837111883E-05
2	577	123.661373687785	0.796966552734375	0.797119140625	2.4566650390625E-07	1.95825450077791E-07	3244720.75	4.99665693496354E-05
2	578	123.762081687531	0.786895751953125	0.787353515625	2.38952636718751E-07	1.88140191426101E-07	3295019.25	4.99909729114734E-05
2	579	123.862789687277	0.776824951171875	0.7763671875	2.29797363281251E-07	1.7840712018824E-07	3378486.25	5.00145761179738E-05
2	580	123.963497687022	0.766754150390625	0.76690673828125	2.17285156249999E-07	1.66637448728579E-07	3529494.5	5.00370879308321E-05
2	581	124.064205686768	0.756683349609375	0.75714111328125	2.00805664062501E-07	1.52038225564866E-07	3770516.75	5.00581409141887E-05
2	582	124.164913686514	0.746612548828125	0.746551513671875	1.800537109375E-07	1.34419366304428E-07	4146271.25	5.00773203384597E-05
2	583	124.265621686259	0.736541748046875	0.736480712890625	1.53503417968751E-07	1.130523017423E-07	4797813.5	5.0094116886612E-05
2	584	124.366329686005	0.726470947265625	0.72637939453125	1.220703125E-07	8.86693527490934E-08	5950500.5	5.01079921377823E-05
2	585	124.467037685751	0.716400146484375	0.716339111328125	8.63647460937506E-08	6.18664444118622E-08	8294346.5	5.01184877066407E-05
2	586	124.567745685497	0.706329345703125	0.70623779296875	4.91333007812497E-08	3.4699791484627E-08	14373914	5.0125308916904E-05
2	587	124.668453685242	0.696258544921875	0.6961669921875	1.31225585937506E-08	9.13549147441017E-09	53051164	5.01284448546357E-05
2	588	124.769161684988	0.686187744140625	0.686126708984375	-1.678466796875E-08	-1.15164091596398E-08	-40878184	5.01282593177166E-05
2	589	124.869869684734	0.676116943359375	0.676055908203125	-3.84521484374997E-08	-2.59958010673245E-08	-17581746	5.0125479901908E-05
2	590	124.97057768448	0.666046142578125	0.665985107421875	-5.00488281250003E-08	-3.3331772897327E-08	-13306708	5.01210233778693E-05
2	591	125.071285684225	0.655975341796875	0.655914306640625	-5.18798828125E-08	-3.40287549249751E-08	-12642942	5.01158901897725E-05
2	592	125.171993683971	0.645904541015625	0.645904541015625	-4.66918945312506E-08	-3.01585068029908E-08	-13833333	5.01109279866796E-05
2	593	125.272701683717	0.635833740234375	0.6357421875	-3.814697265625E-08	-2.42516389192815E-08	-16665600	5.01066533615813E-05
2	594	125.373409683463	0.625762939453125	0.625732421875	-2.899169921875E-08	-1.81410459987319E-08	-21583158	5.01032736792695E-05
2	595	125.474117683208	0.615692138671875	0.615631103515625	-1.89208984374994E-08	-1.16482938850027E-08	-32537096	5.01008616993204E-05
2	596	125.574825682954	0.605621337890625	0.605621337890625	-9.46044921874972E-09	-5.72944980348211E-09	-64016128	5.00994319736492E-05
2	597	125.6755336827	0.595550537109375	0.595489501953125	3.05175781249722E-10	1.81728965209516E-10	1951300096	5.00989699503407E-05
2	598	125.776241682446	0.585479736328125	0.58544921875	8.85009765625028E-09	5.18128251414396E-09	66151724	5.00994319736492E-05
2	599	125.876949682191	0.575408935546875	0.57537841796875	1.73950195312494E-08	1.00087182985931E-08	33077194	5.01007525599562E-05
2	600	125.977657681937	0.565338134765625	0.5653076171875	2.53295898437506E-08	1.43190099777257E-08	22318072	5.010290624341E-05
2	601	126.078365681683	0.555267333984375	0.55523681640625	3.23486328124997E-08	1.79611507888922E-08	17164152	5.0105809350498E-05
2	602	126.179073681428	0.545196533203125	0.545135498046875	3.93676757812503E-08	2.14607158710578E-08	13847288	5.01094218634535E-05
2	603	126.279781681174	0.535125732421875	0.53509521484375	4.54711914062503E-08	2.4331415104939E-08	11767786	5.0113692850573E-05
2	604	126.38048968092	0.525054931640625	0.525054931640625	5.09643554687494E-08	2.67590856140032E-08	10302396	5.01185495522805E-05
2	605	126.481197680666	0.514984130859375	0.514984130859375	5.61523437500003E-08	2.89175652312679E-08	9171196	5.01239410368726E-05
2	606	126.581905680411	0.504913330078125	0.504913330078125	6.04248046875006E-08	3.05092875407809E-08	8356061	5.01298127346672E-05
2	607	126.682613680157	0.494842529296875	0.494842529296875	6.46972656249994E-08	3.20149560195659E-08	7648585.5	5.01361137139611E-05
2	608	126.783321679903	0.484771728515625	0.484710693359375	6.83593750000003E-08	3.31345226811663E-08	7090625	5.0142811232945E-05
2	609	126.884029679649	0.474700927734375	0.474700927734375	7.23266601562494E-08	3.43335315733384E-08	6563291.5	5.01498980156612E-05
2	610	126.984737679394	0.464630126953125	0.464630126953125	7.50732421874997E-08	3.48812889683359E-08	6189024.5	5.01573194924276E-05
2	611	127.08544567914	0.454559326171875	0.454620361328125	7.72094726562506E-08	3.51009958876602E-08	5888142.5	5.0164988351753E-05
2	612	127.186153678886	0.444488525390625	0.44451904296875	7.96508789062497E-08	3.54063303120711E-08	5580843	5.01728864037432E-05
2	613	127.286861678632	0.434417724609375	0.43438720703125	8.11767578124997E-08	3.5262143427417E-08	5351128	5.01809845445678E-05
2	614	127.387569678377	0.424346923828125	0.424285888671875	8.27026367187497E-08	3.50895597023282E-08	5130258.5	5.01892354805022E-05
2	615	127.488277678123	0.414276123046875	0.41424560546875	8.42285156249997E-08	3.48912898573417E-08	4918116	5.01976428495254E-05
2	616	127.588985677869	0.404205322265625	0.404144287109375	8.57543945312497E-08	3.46571482623403E-08	4712811.5	5.02061993756797E-05
2	617	127.689693677615	0.394134521484375	0.394134521484375	8.72802734374997E-08	3.4400166271098E-08	4515734.5	5.02149123349227E-05
2	618	127.79040167736	0.384063720703125	0.384063720703125	8.85009765625E-08	3.39900125823078E-08	4339655	5.02237635373604E-05
2	619	127.891109677106	0.373992919921875	0.37396240234375	9.002685546875E-08	3.36666587941181E-08	4153898.5	5.02327529829927E-05
2	620	127.991817676852	0.363922119140625	0.3638916015625	9.18579101562497E-08	3.34263212664609E-08	3961462	5.02419134136289E-05
2	621	128.092525676597	0.353851318359375	0.3538818359375	9.307861328125E-08	3.2938828553597E-08	3801967.25	5.02512266393751E-05
2	622	128.193233676343	0.343780517578125	0.343780517578125	9.42993164062503E-08	3.24182671818107E-08	3645631	5.02606599184219E-05
2	623	128.293941676089	0.333709716796875	0.333709716796875	9.55200195312506E-08	3.18759560968829E-08	3493610.5	5.02702205267269E-05
2	624	128.394649675835	0.323638916015625	0.323699951171875	9.52148437499995E-08	3.08210417188093E-08	3399679.5	5.02798247907776E-05
2	625	128.49535767558	0.313568115234375	0.313568115234375	9.58251953125003E-08	3.00477260850585E-08	3272293	5.02894436067436E-05
2	626	128.596065675326	0.303497314453125	0.303466796875	9.58251953125003E-08	2.90797643742735E-08	3166879	5.029909152654E-05
2	627	128.696773675072	0.293426513671875	0.293426513671875	9.52148437499995E-08	2.79385599100124E-08	3081730.75	5.03087139804848E-05
2	628	128.797481674818	0.283355712890625	0.283294677734375	9.46044921875E-08	2.68009472392805E-08	2994516.25	5.0318270950811E-05
2	629	128.898189674563	0.273284912109375	0.27325439453125	9.33837890624997E-08	2.55175311991707E-08	2926143.75	5.0327736971667E-05
2	630	128.998897674309	0.263214111328125	0.26324462890625	9.1552734375E-08	2.41007658274839E-08	2875333.25	5.03370501974132E-05
2	631	129.099605674055	0.253143310546875	0.253082275390625	8.97216796875003E-08	2.27069669733737E-08	2820748.25	5.03461778862402E-05
2	632	129.200313673801	0.243072509765625	0.243072509765625	8.75854492187494E-08	2.12896154039299E-08	2775261.25	5.03551054862328E-05
2	633	129.301021673546	0.233001708984375	0.233062744140625	8.392333984375E-08	1.95594029861468E-08	2777091	5.03637420479208E-05
2	634	129.401729673292	0.222930908203125	0.2230224609375	8.02612304687506E-08	1.79000565481147E-08	2778707.25	5.03720075357705E-05
2	635	129.502437673038	0.212860107421875	0.212860107421875	7.59887695312503E-08	1.61749760252405E-08	2801205	5.03798764839303E-05
2	636	129.603145672784	0.202789306640625	0.202911376953125	7.08007812499994E-08	1.43662841622927E-08	2865948.25	5.03872688568663E-05
2	637	129.703853672529	0.192718505859375	0.192718505859375	6.34765625000006E-08	1.22331087482053E-08	3036057.75	5.03940282214899E-05
2	638	129.804561672275	0.182647705078125	0.1826171875	5.40161132812494E-08	9.86427028948356E-09	3380791	5.0399947213009E-05
2	639	129.905269672021	0.172576904296875	0.172515869140625	4.24194335937503E-08	7.3180252968541E-09	4066906.5	5.04048002767377E-05
2	640	130.005977671766	0.162506103515625	0.162567138671875	2.77709960937497E-08	4.51465131945383E-09	5853846	5.04083363921382E-05
2	641	130.106685671512	0.152435302734375	0.1524658203125	7.01904296875056E-09	1.07016406847293E-09	21721740	5.04100862599444E-05
2	642	130.207393671258	0.142364501953125	0.142425537109375	-2.07519531250006E-08	-2.95560798058148E-09	-6863235.5	5.0409395043971E-05
2	643	130.308101671004	0.132293701171875	0.132354736328125	-5.85937499999994E-08	-7.75516006967791E-09	-2258854.25	5.04054005432408E-05
2	644	130.408809670749	0.122222900390625	0.12225341796875	-1.11083984375E-07	-1.35803972511894E-08	-1100549.5	5.03968585690018E-05
2	645	130.509517670495	0.112152099609375	0.112213134765625	-1.81884765625E-07	-2.04098586920054E-08	-616946.3125	5.03821029269602E-05
2	646	130.610225670241	0.102081298828125	0.102081298828125	-2.7740478515625E-07	-2.83178405169338E-08	-367986.8125	5.03589762956835E-05
2	647	130.710933669987	0.092010498046875	0.09210205078125	-4.04968261718749E-07	-3.72984061414172E-08	-227430.296875	5.03246155858506E-05
2	648	130.811641669732	0.081939697265625	0.082000732421875	-5.6793212890625E-07	-4.65708467345394E-08	-144384.75	5.02756265632343E-05
2	649	130.912349669478	0.071868896484375	0.07196044921875	-7.6904296875E-07	-5.53406778180943E-08	-93571.4296875	5.0208305765409E-05
2	650	131.013057669224	0.061798095703125	0.061859130859375	-1.0003662109375E-06	-6.18817850295272E-08	-61836.48828125	5.01192080264445E-05
2	651	131.11376566897	0.051727294921875	0.051849365234375	-1.248779296875E-06	-6.47484128535325E-08	-41520.0390625	5.0005954108201E-05
2	652	131.214473668715	0.041656494140625	0.0417755126953125	-1.49169921875E-06	-6.23165021806926E-08	-28005.3203125	4.98679619340692E-05
2	653	131.315181668461	0.031585693359375	0.0316497802734375	-1.70379638671875E-06	-5.39247793085451E-08	-18576.03515625	4.97070541314315E-05
2	654	131.415889668207	0.021514892578125	0.0215972900390625	-1.864013671875E-06	-4.02576425528878E-08	-11586.4443359375	4.95274034619797E-05
2	655	131.516597667953	0.011444091796875	0.0115478515625	-1.9610595703125E-06	-2.26460237229276E-08	-5888.57763671875	4.9334794312017E-05
2	656	131.617305667698	0.001373291015625	0.00146484375	-1.99676513671875E-06	-2.92494894971185E-09	-733.608459472656	4.91355021949857E-05
2	657	131.718013667444	-0.008697509765625	-0.0086029052734375	-1.9818115234375E-06	1.7049336165087E-08	4340.93017578125	4.89351659780368E-05
2	658	131.81872166719	-0.018768310546875	-0.01864013671875	-1.9329833984375E-06	3.60310750124881E-08	9643.1953125	4.87380384583957E-05
2	659	131.919429666935	-0.028839111328125	-0.02872314453125	-1.865234375E-06	5.35753983399445E-08	15399.21484375	4.85467826365493E-05
2	660	132.020137666681	-0.038909912109375	-0.0387725830078125	-1.78985595703125E-06	6.9397337654209E-08	21662.404296875	4.83627336507197E-05
2	661	132.120845666427	-0.048980712890625	-0.048828125	-1.71417236328125E-06	8.36998168551872E-08	28484.95703125	4.81862953165546E-05
2	662	132.221553666173	-0.059051513671875	-0.05902099609375	-1.6424560546875E-06	9.69393880723146E-08	35934.59765625	4.80172748211771E-05
2	663	132.322261665918	-0.069122314453125	-0.069091796875	-1.57806396484375E-06	1.0903126934636E-07	43782.63671875	4.78551082778722E-05
2	664	132.422969665664	-0.079193115234375	-0.079132080078125	-1.52191162109375E-06	1.20432034123041E-07	51995.1875	4.76990098832175E-05
2	665	132.52367766541	-0.089263916015625	-0.0892333984375	-1.4703369140625E-06	1.31203151454429E-07	60689.08203125	4.7548339352943E-05
2	666	132.624385665156	-0.099334716796875	-0.099212646484375	-1.424560546875E-06	1.41334425052264E-07	69644.390625	4.74025691801216E-05
2	667	132.725093664901	-0.109405517578125	-0.10931396484375	-1.38427734375E-06	1.51320847407987E-07	78968.2578125	4.72611354780383E-05
2	668	132.825801664647	-0.119476318359375	-0.119384765625	-1.34979248046875E-06	1.61144654953205E-07	88446.7578125	4.71234634460416E-05
2	669	132.926509664393	-0.129547119140625	-0.1295166015625	-1.3201904296875E-06	1.70986581338184E-07	98104.484375	4.69890183012467E-05
2	670	133.027217664139	-0.139617919921875	-0.139495849609375	-1.29486083984375E-06	1.80627708346037E-07	107730.3828125	4.6857341658324E-05
2	671	133.127925663884	-0.149688720703125	-0.149627685546875	-1.2738037109375E-06	1.90596296079093E-07	117465.2578125	4.67279969598167E-05
2	672	133.22863366363	-0.159759521484375	-0.159576416015625	-1.256103515625E-06	2.00444489451002E-07	127040.8203125	4.66006058559287E-05
2	673	133.329341663376	-0.169830322265625	-0.16973876953125	-1.24176025390625E-06	2.10774842912542E-07	136692.078125	4.64748300146312E-05
2	674	133.430049663122	-0.179901123046875	-0.1796875	-1.23077392578125E-06	2.21154692781056E-07	145995.53125	4.63503274659161E-05
2	675	133.530757662867	-0.189971923828125	-0.189727783203125	-1.22314453125E-06	2.32064493843609E-07	155114.765625	4.62267635157332E-05
2	676	133.631465662613	-0.200042724609375	-0.199920654296875	-1.2188720703125E-06	2.43677703792855E-07	164021.03125	4.61037961940747E-05
2	677	133.732173662359	-0.189971923828125	-0.189849853515625	-1.06689453125E-06	2.02549756522785E-07	177946.234375	4.59887014585547E-05
