Potential - OCP -0.00745933383118873 V
Time (s)	WE(1).Potential (V)
6.84930598270716	-0.0063629150390625
6.94930598245469	-0.00637207031250001
7.04930598220221	-0.0063812255859375
7.14930598194974	-0.006390380859375
7.24930598169726	-0.00639953613281249
7.34930598144479	-0.00640869140625
7.44930598119231	-0.00641784667968751
7.54930598093983	-0.006427001953125
7.64930598068736	-0.00643310546875001
7.74930598043488	-0.006439208984375
7.84930598018241	-0.00644836425781251
7.94930597992993	-0.0064544677734375
8.04930597967746	-0.00646057128906249
8.14930597942498	-0.0064666748046875
8.2493059791725	-0.0064727783203125
8.34930597892003	-0.00647583007812499
8.44930597866755	-0.00648193359375
8.54930597841508	-0.0064849853515625
8.6493059781626	-0.006488037109375
8.74930597791013	-0.00649108886718749
8.84930597765765	-0.0064971923828125
8.94930597740517	-0.006500244140625
9.0493059771527	-0.0065032958984375
9.14930597690022	-0.0065032958984375
9.24930597664775	-0.00650634765624999
9.34930597639527	-0.00650634765624999
9.4493059761428	-0.00650634765624999
9.54930597589032	-0.00650939941406251
9.64930597563784	-0.00650634765624999
9.74930597538537	-0.006512451171875
9.84930597513289	-0.006512451171875
9.94930597488042	-0.0065155029296875
10.0493059746279	-0.0065155029296875
10.1493059743755	-0.0065185546875
10.249305974123	-0.0065185546875
10.3493059738705	-0.00652160644531249
10.449305973618	-0.00652160644531249
10.5493059733656	-0.00652160644531249
10.6493059731131	-0.00652465820312501
10.7493059728606	-0.0065277099609375
10.8493059726081	-0.0065277099609375
10.9493059723557	-0.00653076171875
11.0493059721032	-0.00653686523437499
11.1493059718507	-0.00653686523437499
11.2493059715982	-0.00653991699218751
11.3493059713458	-0.00653991699218751
11.4493059710933	-0.00654296875
11.5493059708408	-0.0065460205078125
11.6493059705883	-0.0065460205078125
11.7493059703359	-0.006549072265625
11.8493059700834	-0.00655212402343749
11.9493059698309	-0.00655517578125001
12.0493059695784	-0.0065582275390625
12.149305969326	-0.006561279296875
12.2493059690735	-0.0065643310546875
12.349305968821	-0.00656738281249999
12.4493059685685	-0.00657043457031251
12.549305968316	-0.006573486328125
12.6493059680636	-0.0065765380859375
12.7493059678111	-0.00657958984375
12.8493059675586	-0.00658264160156249
12.9493059673061	-0.00658569335937501
13.0493059670537	-0.0065887451171875
13.1493059668012	-0.0065948486328125
13.2493059665487	-0.00659790039062499
13.3493059662962	-0.00660095214843751
13.4493059660438	-0.0066070556640625
13.5493059657913	-0.00661315917968749
13.6493059655388	-0.00661621093750001
13.7493059652863	-0.006622314453125
13.8493059650339	-0.0066253662109375
13.9493059647814	-0.00663146972656251
14.0493059645289	-0.0066375732421875
14.1493059642764	-0.00664367675781249
14.249305964024	-0.0066497802734375
14.3493059637715	-0.0066558837890625
14.449305963519	-0.00666198730468751
14.5493059632665	-0.0066680908203125
14.6493059630141	-0.00667419433593749
14.7493059627616	-0.0066802978515625
14.8493059625091	-0.0066864013671875
14.9493059622566	-0.006695556640625
15.0493059620042	-0.00670166015625
15.1493059617517	-0.00670776367187501
15.2493059614992	-0.0067138671875
15.3493059612467	-0.00671997070312499
15.4493059609943	-0.00672302246093751
15.5493059607418	-0.0067291259765625
15.6493059604893	-0.00673522949218749
15.7493059602368	-0.0067413330078125
15.8493059599843	-0.0067474365234375
15.9493059597319	-0.00675048828124999
16.0493059594794	-0.006756591796875
16.1493059592269	-0.0067626953125
16.2493059589744	-0.00676574707031249
16.349305958722	-0.0067718505859375
16.4493059584695	-0.0067779541015625
16.549305958217	-0.00678100585937499
16.6493059579645	-0.006787109375
16.7493059577121	-0.0067901611328125
16.8493059574596	-0.00679626464843749
16.9493059572071	-0.00679931640625001
17.0493059569546	-0.006805419921875
17.1493059567022	-0.0068084716796875
17.2493059564497	-0.00681457519531251
17.3493059561972	-0.006817626953125
17.4493059559447	-0.00682373046875
17.5493059556923	-0.00682678222656249
17.6493059554398	-0.0068328857421875
17.7493059551873	-0.0068359375
17.8493059549348	-0.00684204101562499
17.9493059546824	-0.00684509277343751
18.0493059544299	-0.0068511962890625
18.1493059541774	-0.006854248046875
18.2493059539249	-0.00685729980468749
18.3493059536725	-0.0068634033203125
18.44930595342	-0.006866455078125
18.5493059531675	-0.00687255859374999
18.649305952915	-0.00687561035156251
18.7493059526626	-0.006878662109375
18.8493059524101	-0.006884765625
18.9493059521576	-0.00688781738281249
19.0493059519051	-0.00689086914062501
19.1493059516527	-0.0068939208984375
19.2493059514002	-0.0069000244140625
19.3493059511477	-0.00690307617187499
19.4493059508952	-0.00690612792968751
19.5493059506427	-0.0069091796875
19.6493059503903	-0.0069122314453125
19.7493059501378	-0.00691833496093749
19.8493059498853	-0.00692138671875001
19.9493059496328	-0.0069244384765625
20.0493059493804	-0.0069305419921875
20.1493059491279	-0.00693359374999999
20.2493059488754	-0.006939697265625
20.3493059486229	-0.0069427490234375
20.4493059483705	-0.00694885253906249
20.549305948118	-0.00695190429687501
20.6493059478655	-0.0069549560546875
20.749305947613	-0.0069610595703125
20.8493059473606	-0.00696411132812499
20.9493059471081	-0.00696716308593751
21.0493059468556	-0.00697021484375
21.1493059466031	-0.006976318359375
21.2493059463507	-0.00697937011718749
21.3493059460982	-0.00698242187500001
21.4493059458457	-0.0069854736328125
21.5493059455932	-0.006988525390625
21.6493059453408	-0.00699462890624999
21.7493059450883	-0.00699768066406251
21.8493059448358	-0.0070037841796875
21.9493059445833	-0.0070068359375
22.0493059443309	-0.00700988769531249
22.1493059440784	-0.00701293945312501
22.2493059438259	-0.00701904296875
22.3493059435734	-0.0070220947265625
22.449305943321	-0.00702819824218751
22.5493059430685	-0.00703125
22.649305942816	-0.0070343017578125
22.7493059425635	-0.007037353515625
22.849305942311	-0.00704040527343749
22.9493059420586	-0.0070465087890625
23.0493059418061	-0.007049560546875
23.1493059415536	-0.0070526123046875
23.2493059413011	-0.00705566406249999
23.3493059410487	-0.00705871582031251
23.4493059407962	-0.007061767578125
23.5493059405437	-0.0070648193359375
23.6493059402912	-0.00706787109375
23.7493059400388	-0.00707092285156249
23.8493059397863	-0.0070770263671875
23.9493059395338	-0.007080078125
24.0493059392813	-0.0070831298828125
24.1493059390289	-0.00708618164062499
24.2493059387764	-0.00709228515625
24.3493059385239	-0.0070953369140625
24.4493059382714	-0.00710144042968749
24.549305938019	-0.00710449218750001
24.6493059377665	-0.007110595703125
24.749305937514	-0.0071136474609375
24.8493059372615	-0.00711975097656251
24.9493059370091	-0.0071258544921875
25.0493059367566	-0.00712890625
25.1493059365041	-0.00713500976562501
25.2493059362516	-0.00714111328125
25.3493059359992	-0.00714721679687499
25.4493059357467	-0.0071533203125
25.5493059354942	-0.0071563720703125
25.6493059352417	-0.00716247558593749
25.7493059349893	-0.0071685791015625
25.8493059347368	-0.0071746826171875
25.9493059344843	-0.00718078613281251
26.0493059342318	-0.007183837890625
26.1493059339793	-0.00718994140625
26.2493059337269	-0.00719604492187501
26.3493059334744	-0.0072021484375
26.4493059332219	-0.0072052001953125
26.5493059329694	-0.00721130371093751
26.649305932717	-0.00721435546875
26.7493059324645	-0.007220458984375
26.849305932212	-0.00722351074218749
26.9493059319595	-0.0072296142578125
27.0493059317071	-0.007232666015625
27.1493059314546	-0.00723876953124999
27.2493059312021	-0.00724182128906251
27.3493059309496	-0.0072479248046875
27.4493059306972	-0.0072509765625
27.5493059304447	-0.00725402832031249
27.6493059301922	-0.00725708007812501
27.7493059299397	-0.0072601318359375
27.8493059296873	-0.00726318359375
27.9493059294348	-0.0072662353515625
28.0493059291823	-0.00726928710937499
28.1493059289298	-0.00727233886718751
28.2493059286774	-0.007275390625
28.3493059284249	-0.0072784423828125
28.4493059281724	-0.0072784423828125
28.5493059279199	-0.007281494140625
28.6493059276675	-0.00728454589843749
28.749305927415	-0.00728759765625001
28.8493059271625	-0.0072906494140625
28.94930592691	-0.0072906494140625
29.0493059266576	-0.007293701171875
29.1493059264051	-0.0072967529296875
29.2493059261526	-0.00729980468749999
29.3493059259001	-0.00730285644531251
29.4493059256476	-0.007305908203125
29.5493059253952	-0.007305908203125
29.6493059251427	-0.0073089599609375
29.7493059248902	-0.00731201171875
29.8493059246377	-0.00731506347656249
29.9493059243853	-0.00731811523437501
30.0493059241328	-0.0073211669921875
30.1493059238803	-0.00732421875
30.2493059236278	-0.00732421875
30.3493059233754	-0.0073272705078125
30.4493059231229	-0.00733032226562499
30.5493059228704	-0.00733337402343751
30.6493059226179	-0.00733642578125
30.7493059223655	-0.0073394775390625
30.849305922113	-0.0073394775390625
30.9493059218605	-0.007342529296875
31.049305921608	-0.00734558105468749
31.1493059213556	-0.00734863281250001
31.2493059211031	-0.0073516845703125
31.3493059208506	-0.007354736328125
31.4493059205981	-0.0073577880859375
31.5493059203457	-0.00736083984374999
31.6493059200932	-0.00736389160156251
31.7493059198407	-0.007366943359375
31.8493059195882	-0.0073699951171875
31.9493059193358	-0.007373046875
32.0493059190833	-0.00737609863281249
32.1493059188308	-0.0073822021484375
32.2493059185783	-0.00738525390625
32.3493059183259	-0.0073883056640625
32.4493059180734	-0.00739135742187499
32.5493059178209	-0.00739440917968751
32.6493059175684	-0.0074005126953125
32.749305917316	-0.007403564453125
32.8493059170635	-0.00740661621093749
32.949305916811	-0.0074127197265625
33.0493059165585	-0.007415771484375
33.149305916306	-0.00742187499999999
33.2493059160536	-0.00742492675781251
33.3493059158011	-0.0074310302734375
33.4493059155486	-0.00743408203125
33.5493059152961	-0.00744018554687501
33.6493059150437	-0.0074432373046875
33.7493059147912	-0.0074462890625
33.8493059145387	-0.00745239257812499
33.9493059142862	-0.00745544433593751
34.0493059140338	-0.0074615478515625
34.1493059137813	-0.007464599609375
34.2493059135288	-0.00746765136718749
34.3493059132763	-0.0074737548828125
34.4493059130239	-0.007476806640625
34.5493059127714	-0.0074798583984375
34.6493059125189	-0.00748291015624999
34.7493059122664	-0.007489013671875
34.849305912014	-0.0074920654296875
34.9493059117615	-0.0074951171875
35.049305911509	-0.00749816894531249
35.1493059112565	-0.00750122070312501
35.2493059110041	-0.0075042724609375
35.3493059107516	-0.00750732421875
35.4493059104991	-0.0075103759765625
35.5493059102466	-0.0075103759765625
35.6493059099942	-0.00751342773437499
35.7493059097417	-0.00751647949218751
35.8493059094892	-0.00751953125
35.9493059092367	-0.00751953125
36.0493059089843	-0.0075225830078125
36.1493059087318	-0.0075225830078125
36.2493059084793	-0.007525634765625
36.3493059082268	-0.007525634765625
36.4493059079743	-0.007525634765625
36.5493059077219	-0.00752868652343749
36.6493059074694	-0.00752868652343749
36.7493059072169	-0.00752868652343749
