Potential - Start -0.2 V, Upper Vertex 1.5 V, Lower Vertex -0.2 V, Stop -0.19 V; Scan - # end cross 5, Rate 0.1 Vps, Step 0.01 V 
Scan	Index	Time (s)	Potential applied (V)	WE(1).Potential (V)	WE(1).Current (A)	WE(1).Power (W)	WE(1).Resistance (Ω)	WE(1).Charge (C)
1	1	66.748577831476	-0.189971923828125	-0.189788818359375	-2.0477294921875E-07	3.88636145487453E-08	926825.625	0
1	2	66.8492858312218	-0.179901123046875	-0.17974853515625	-1.7364501953125E-07	3.12124370793754E-08	1035149.375	-1.90548590239814E-08
1	3	66.9499938309675	-0.169830322265625	-0.169677734375	-1.483154296875E-07	2.51658249794673E-08	1144033	-3.5266854325755E-08
1	4	67.0507018307133	-0.159759521484375	-0.159637451171875	-1.2664794921875E-07	2.02177563579653E-08	1260482	-4.91123586243702E-08
1	5	67.151409830459	-0.149688720703125	-0.1495361328125	-1.06201171875001E-07	1.58809125849757E-08	1408046	-6.08372445753957E-08
1	6	67.2521178302047	-0.139617919921875	-0.139495849609375	-8.63647460937506E-08	1.20475229792305E-08	1615194.375	-7.05337086515101E-08
1	7	67.3528258299505	-0.129547119140625	-0.129486083984375	-6.62231445312494E-08	8.57497539641372E-09	1955299.5	-7.82171198920878E-08
1	8	67.4535338296962	-0.119476318359375	-0.119354248046875	-4.60815429687497E-08	5.50002798860305E-09	2590066.25	-8.38721092577543E-08
1	9	67.5542418294419	-0.109405517578125	-0.10931396484375	-2.50244140624994E-08	2.73551781226899E-09	4368293	-8.74525767358136E-08
1	10	67.6549498291877	-0.099334716796875	-0.099273681640625	-6.10351562499445E-10	6.05918440421682E-11	162650000	-8.87433913021596E-08
1	11	67.7556578289334	-0.089263916015625	-0.089202880859375	2.83813476562506E-08	-2.5316979623824E-09	-3143010.75	-8.73450076710469E-08
1	12	67.8563658286791	-0.079193115234375	-0.0791015625	6.37817382812503E-08	-5.04523489652797E-09	-1240191.5	-8.27042327955496E-08
1	13	67.9570738284249	-0.069122314453125	-0.069000244140625	1.1016845703125E-07	-7.60165086433062E-09	-626315.8125	-7.39451451181594E-08
1	14	68.0577818281706	-0.059051513671875	-0.05889892578125	1.7059326171875E-07	-1.00477590692094E-08	-345259.40625	-5.98076681512794E-08
1	15	68.1584898279164	-0.048980712890625	-0.048858642578125	2.5054931640625E-07	-1.22414993697362E-08	-195006.09375	-3.86014562536729E-08
1	16	68.2591978276621	-0.038909912109375	-0.0387847900390625	3.558349609375E-07	-1.38009834671493E-08	-108996.578125	-8.06758304605637E-09
1	17	68.3599058274078	-0.028839111328125	-0.028704833984375	4.90722656250001E-07	-1.4086111832512E-08	-58495.0234375	3.45599779905115E-08
1	18	68.4606138271536	-0.018768310546875	-0.018646240234375	6.57958984375E-07	-1.2268461802023E-08	-28339.517578125	9.24006897662366E-08
1	19	68.5613218268993	-0.008697509765625	-0.00856628417968749	8.544921875E-07	-7.31982296997558E-09	-10025.0009765625	1.68558656810092E-07
1	20	68.662029826645	0.001373291015625	0.00147399902343751	1.07177734375E-06	1.57979873627312E-09	1375.28479003906	2.65554035649984E-07
1	21	68.7627378263908	0.011444091796875	0.01153564453125	1.29364013671875E-06	1.49229730794787E-08	8917.197265625	3.84662257602031E-07
1	22	68.8634458261365	0.021514892578125	0.0216156005859375	1.49993896484375E-06	3.24220792435881E-08	14410.9873046875	5.25330165146443E-07
1	23	68.9641538258822	0.031585693359375	0.031695556640625	1.66778564453125E-06	5.28613917083476E-08	19004.57421875	6.84837743847311E-07
1	24	69.064861825628	0.041656494140625	0.04178466796875	1.78680419921875E-06	7.46610169244377E-08	23385.140625	8.58790144775412E-07
1	25	69.1655698253737	0.051727294921875	0.051788330078125	1.8487548828125E-06	9.57439283411077E-08	28012.544921875	1.04185505733767E-06
1	26	69.2662778251195	0.061798095703125	0.06182861328125	1.86004638671875E-06	1.1500409158316E-07	33240.359375	1.22860808460246E-06
1	27	69.3669858248652	0.071868896484375	0.071929931640625	1.8353271484375E-06	1.32014960740889E-07	39191.88671875	1.41468490255647E-06
1	28	69.4676938246109	0.081939697265625	0.082000732421875	1.7864990234375E-06	1.46494215869097E-07	45900.2421875	1.59705837177171E-06
1	29	69.5684018243567	0.092010498046875	0.092071533203125	1.72515869140625E-06	1.58838005859252E-07	53369.89453125	1.77388437805348E-06
1	30	69.6691098241024	0.102081298828125	0.10211181640625	1.66015625E-06	1.69521555903884E-07	61507.35546875	1.94434846889635E-06
1	31	69.7698178238481	0.112152099609375	0.1121826171875	1.59576416015625E-06	1.79016993229197E-07	70300.25	2.1082971670694E-06
1	32	69.8705258235939	0.122222900390625	0.1221923828125	1.53533935546875E-06	1.87606758572656E-07	79586.5703125	2.26596057473216E-06
1	33	69.9712338233396	0.132293701171875	0.13232421875	1.47979736328125E-06	1.9581302979077E-07	89420.5	2.41778479903587E-06
1	34	70.0719418230854	0.142364501953125	0.1424560546875	1.42974853515625E-06	2.03676336241188E-07	99637.140625	2.56429211731302E-06
1	35	70.1726498228311	0.152435302734375	0.1524658203125	1.38427734375E-06	2.11054981491543E-07	110141.09375	2.70598957285983E-06
1	36	70.2733578225768	0.162506103515625	0.16253662109375	1.3446044921875E-06	2.18547469899022E-07	120880.6171875	2.8433996703825E-06
1	37	70.3740658223226	0.172576904296875	0.172607421875	1.3092041015625E-06	2.25978340040456E-07	131841.5	2.97702968055091E-06
1	38	70.4747738220683	0.182647705078125	0.182708740234375	1.2774658203125E-06	2.33404165328466E-07	143024.375	3.10727887153917E-06
1	39	70.575481821814	0.192718505859375	0.192718505859375	1.248779296875E-06	2.40662870965025E-07	154325.515625	3.23448534800264E-06
1	40	70.6761898215598	0.202789306640625	0.202789306640625	1.22344970703125E-06	2.48102509203818E-07	165752.0625	3.35897198056045E-06
1	41	70.7768978213055	0.212860107421875	0.21295166015625	1.19964599609375E-06	2.55466602538945E-07	177512.078125	3.48098456015578E-06
1	42	70.8776058210512	0.222930908203125	0.222930908203125	1.17889404296875E-06	2.62811909124139E-07	189101.75	3.60075341632182E-06
1	43	70.978313820797	0.233001708984375	0.2330322265625	1.1602783203125E-06	2.70382230382893E-07	200841.65625	3.71854025615903E-06
1	44	71.0790218205427	0.243072509765625	0.24310302734375	1.143798828125E-06	2.78060952041415E-07	212540.015625	3.83455972041702E-06
1	45	71.1797298202885	0.253143310546875	0.253204345703125	1.1285400390625E-06	2.85751241335674E-07	224364.53125	3.94898097511032E-06
1	46	71.2804378200342	0.263214111328125	0.26318359375	1.1151123046875E-06	2.93479246238348E-07	236015.34375	4.0619579522172E-06
1	47	71.3811458197799	0.273284912109375	0.27325439453125	1.102294921875E-06	3.01206910080509E-07	247895.921875	4.17361343352241E-06
1	48	71.4818538195257	0.283355712890625	0.2833251953125	1.09100341796875E-06	3.0910874215806E-07	259692.328125	4.28405473940074E-06
1	49	71.5825618192714	0.293426513671875	0.293365478515625	1.0809326171875E-06	3.17108316494341E-07	271400.34375	4.39342011304689E-06
1	50	71.6832698190171	0.303497314453125	0.303466796875	1.07147216796875E-06	3.25156236158364E-07	283224.15625	4.50180232292041E-06
1	51	71.7839778187629	0.313568115234375	0.3135986328125	1.0638427734375E-06	3.33619652792549E-07	294779.125	4.60932415080606E-06
1	52	71.8846858185086	0.323638916015625	0.323638916015625	1.05621337890625E-06	3.41831736250242E-07	306414.34375	4.71607745566871E-06
1	53	71.9853938182544	0.333709716796875	0.333770751953125	1.05072021484375E-06	3.50699679074751E-07	317659	4.82217001263052E-06
1	54	72.0861018180001	0.343780517578125	0.343841552734375	1.044921875E-06	3.59287554374532E-07	329059.59375	4.92769368065638E-06
1	55	72.1868098177458	0.353851318359375	0.35394287109375	1.04034423828125E-06	3.6822240190304E-07	340217.09375	5.03269529872341E-06
1	56	72.2875178174916	0.363922119140625	0.3638916015625	1.03668212890625E-06	3.77239899762571E-07	351015.625	5.13728173245909E-06
1	57	72.3882258172373	0.373992919921875	0.373931884765625	1.03271484375E-06	3.86165027066454E-07	362086.28125	5.24148435943061E-06
1	58	72.488933816983	0.384063720703125	0.38409423828125	1.02996826171875E-06	3.95604843106412E-07	372918.53125	5.34534865437308E-06
1	59	72.5896418167288	0.394134521484375	0.394134521484375	1.02813720703125E-06	4.05224341193389E-07	383348.1875	5.44898239240865E-06
1	60	72.6903498164745	0.404205322265625	0.4041748046875	1.02630615234375E-06	4.14807061588363E-07	393815.0625	5.55243195776711E-06
1	61	72.7910578162202	0.414276123046875	0.414306640625	1.02508544921875E-06	4.24699720724675E-07	404167.90625	5.65572781852097E-06
1	62	72.891765815966	0.424346923828125	0.424346923828125	1.02447509765625E-06	4.34732839948992E-07	414209.125	5.7589313655626E-06
1	63	72.9924738157117	0.434417724609375	0.4344482421875	1.024169921875E-06	4.44948824451785E-07	424195.46875	5.86208898312179E-06
1	64	73.0931818154575	0.444488525390625	0.444488525390625	1.02386474609375E-06	4.55096113682885E-07	434128.1875	5.96521567786112E-06
1	65	73.1938898152032	0.454559326171875	0.45452880859375	1.02447509765625E-06	4.65653442915936E-07	443669.96875	6.06835737926303E-06
1	66	73.2945978149489	0.464630126953125	0.464630126953125	1.02569580078125E-06	4.76569141483196E-07	452990.21875	6.17159184912452E-06
1	67	73.3953058146947	0.474700927734375	0.474700927734375	1.02813720703125E-06	4.88057651182316E-07	461709.71875	6.27501049166312E-06
1	68	73.4960138144404	0.484771728515625	0.484771728515625	1.03118896484375E-06	4.99891257277341E-07	470109.5	6.37870607533841E-06
1	69	73.5967218141861	0.494842529296875	0.494781494140625	1.0357666015625E-06	5.12478152359108E-07	477695.96875	6.48278546577785E-06
1	70	73.6974298139319	0.504913330078125	0.504852294921875	1.04156494140625E-06	5.25836469478236E-07	484705.53125	6.58738736092346E-06
1	71	73.7981378136776	0.514984130859375	0.514984130859375	1.0491943359375E-06	5.40318410457985E-07	490837.6875	6.69266546537983E-06
1	72	73.8988458134233	0.525054931640625	0.5250244140625	1.058349609375E-06	5.55659369183559E-07	496078.46875	6.79878849041415E-06
1	73	73.9995538131691	0.535125732421875	0.53509521484375	1.07147216796875E-06	5.7333966196893E-07	499401.875	6.90603383191046E-06
1	74	74.1002618129148	0.545196533203125	0.545135498046875	1.08856201171875E-06	5.93413744809368E-07	500785	7.01480030329549E-06
1	75	74.2009698126606	0.555267333984375	0.555267333984375	1.1114501953125E-06	6.17151954429573E-07	499588.15625	7.12557948645554E-06
1	76	74.3016778124063	0.565338134765625	0.565338134765625	1.14410400390625E-06	6.46805631276948E-07	494131.78125	7.23915582057089E-06
1	77	74.402385812152	0.575408935546875	0.575439453125	1.18896484375E-06	6.84177280163567E-07	483983.59375	7.35663479645154E-06
1	78	74.5030938118978	0.585479736328125	0.58544921875	1.2530517578125E-06	7.33598199076368E-07	467218.6875	7.47960029912065E-06
1	79	74.6038018116435	0.595550537109375	0.5955810546875	1.3427734375E-06	7.99730401013221E-07	443545.46875	7.6103106039227E-06
1	80	74.7045098113892	0.605621337890625	0.6055908203125	1.4678955078125E-06	8.88943986865343E-07	412557.1875	7.75183889345499E-06
1	81	74.805217811135	0.615692138671875	0.615631103515625	1.63543701171875E-06	1.00682586889889E-06	376432.1875	7.9081037256401E-06
1	82	74.9059258108807	0.625762939453125	0.625701904296875	1.8560791015625E-06	1.16135220196156E-06	337109.5	8.08391632745042E-06
1	83	75.0066338106265	0.635833740234375	0.6357421875	2.1319580078125E-06	1.35537561618548E-06	298196.40625	8.28472911962308E-06
1	84	75.1073418103722	0.645904541015625	0.645904541015625	2.4609375E-06	1.58953059781197E-06	262462.8125	8.51599997986341E-06
1	85	75.2080498101179	0.655975341796875	0.65594482421875	2.83233642578125E-06	1.85785631856561E-06	231591.421875	8.78253740665969E-06
1	86	75.3087578098637	0.666046142578125	0.665985107421875	3.22845458984375E-06	2.15010254578374E-06	206286.046875	9.0877229013131E-06
1	87	75.4094658096094	0.676116943359375	0.67608642578125	3.61846923828125E-06	2.446397957101E-06	186843.21875	9.43249233387178E-06
1	88	75.5101738093551	0.686187744140625	0.68609619140625	3.97369384765625E-06	2.72633610620687E-06	172659.546875	9.81478842732031E-06
1	89	75.6108818091009	0.696258544921875	0.69622802734375	4.26239013671875E-06	2.96759549200942E-06	163342.171875	1.0229508006887E-05
1	90	75.7115898088466	0.706329345703125	0.706268310546875	4.46746826171875E-06	3.15523107019544E-06	158091.40625	1.06690913526108E-05
1	91	75.8122978085923	0.716400146484375	0.71630859375	4.5782470703125E-06	3.27943780575879E-06	156459.140625	1.11245799416793E-05
1	92	75.9130058083381	0.726470947265625	0.72637939453125	4.605712890625E-06	3.34549463332223E-06	157712.703125	1.15870288937003E-05
1	93	76.0137138080838	0.736541748046875	0.736419677734375	4.57305908203125E-06	3.36769062414533E-06	161034.375	1.2049216820742E-05
1	94	76.1144218078296	0.746612548828125	0.7464599609375	4.51019287109375E-06	3.36667835654225E-06	165505.109375	1.2506594430306E-05
1	95	76.2151298075753	0.756683349609375	0.75653076171875	4.44366455078125E-06	3.36176867676841E-06	170249.3125	1.29574573293212E-05
1	96	76.315837807321	0.766754150390625	0.7672119140625	4.39666748046875E-06	3.37317555931804E-06	174498.515625	1.3402603144641E-05
1	97	76.4165458070668	0.776824951171875	0.7763671875	4.388427734375E-06	3.40703104484419E-06	176912.390625	1.38449677251629E-05
1	98	76.5172538068125	0.786895751953125	0.787353515625	4.4342041015625E-06	3.49128617926908E-06	177563.65625	1.4289222235675E-05
1	99	76.6179618065582	0.796966552734375	0.79681396484375	4.54620361328125E-06	3.6224782888894E-06	175270.203125	1.47414220919018E-05
1	100	76.718669806304	0.807037353515625	0.8074951171875	4.72900390625E-06	3.8186472011148E-06	170753.75	1.52084658111562E-05
1	101	76.8193778060497	0.817108154296875	0.8172607421875	4.98046875E-06	4.07034121963079E-06	164093.140625	1.56973765115254E-05
1	102	76.9200858057955	0.827178955078125	0.8270263671875	5.28564453125E-06	4.37136714026565E-06	156466.515625	1.62143169291085E-05
1	103	77.0207938055412	0.837249755859375	0.83770751953125	5.621337890625E-06	4.70903660243494E-06	149022.8125	1.67635262187105E-05
1	104	77.1215018052869	0.847320556640625	0.8477783203125	5.95703125E-06	5.05024172525737E-06	142315.578125	1.73465432453668E-05
1	105	77.2222098050327	0.857391357421875	0.85723876953125	6.2591552734375E-06	5.36559036845574E-06	136957.578125	1.79616781679215E-05
1	106	77.3229178047784	0.867462158203125	0.8673095703125	6.500244140625E-06	5.63772391615203E-06	133427.234375	1.86041652341373E-05
1	107	77.4236258045241	0.877532958984375	0.87738037109375	6.65283203125E-06	5.83706423640251E-06	131880.734375	1.92664738278836E-05
1	108	77.5243338042699	0.887603759765625	0.887451171875	6.7047119140625E-06	5.95010442339117E-06	132362.3125	1.99390797206433E-05
1	109	77.6250418040156	0.897674560546875	0.8978271484375	6.6650390625E-06	5.98405313212425E-06	134706.953125	2.06123004318215E-05
1	110	77.7257498037613	0.907745361328125	0.90789794921875	6.5521240234375E-06	5.94866014580475E-06	138565.4375	2.12778377317591E-05
1	111	77.8264578035071	0.917816162109375	0.91796875	6.3995361328125E-06	5.87457407164038E-06	143443.015625	2.19300054595806E-05
1	112	77.9271658032528	0.927886962890625	0.9283447265625	6.2255859375E-06	5.77948958380148E-06	149117.65625	2.25657313421834E-05
1	113	78.0278738029986	0.937957763671875	0.9381103515625	6.048583984375E-06	5.67423921893351E-06	155095.859375	2.31837839237414E-05
1	114	78.1285818027443	0.948028564453125	0.948486328125	5.877685546875E-06	5.57490420760587E-06	161370.71875	2.37843196373433E-05
1	115	78.22928980249	0.958099365234375	0.95794677734375	5.7220458984375E-06	5.48141542822123E-06	167413.328125	2.43684135057265E-05
1	116	78.3299978022358	0.968170166015625	0.968017578125	5.57861328125E-06	5.4001957323635E-06	173522.984375	2.49374461418483E-05
1	117	78.4307058019815	0.978240966796875	0.97869873046875	5.4473876953125E-06	5.3313515309128E-06	179663.875	2.5492649001535E-05
1	118	78.5314138017272	0.988311767578125	0.9881591796875	5.3314208984375E-06	5.26829217051272E-06	185346.3125	2.60354045167333E-05
1	119	78.632121801473	0.998382568359375	0.99884033203125	5.224609375E-06	5.21855054103071E-06	191179.921875	2.65669441432692E-05
1	120	78.7328298012187	1.00845336914063	1.00830078125	5.1300048828125E-06	5.17258786203456E-06	196549.671875	2.70883392659016E-05
1	121	78.8335378009645	1.01852416992188	1.01806640625	5.0445556640625E-06	5.13569239046774E-06	201814.890625	2.76006703643361E-05
1	122	78.9342458007102	1.02859497070313	1.02874755859375	4.9652099609375E-06	5.10794734509545E-06	207191.15625	2.81047014141222E-05
1	123	79.0349538004559	1.03866577148438	1.038818359375	4.89501953125E-06	5.08503626406309E-06	212219.453125	2.86012036667671E-05
1	124	79.1356618002017	1.04873657226563	1.048583984375	4.83062744140625E-06	5.06531841892865E-06	217069.9375	2.90909283648944E-05
1	125	79.2363697999474	1.05880737304688	1.05865478515625	4.7711181640625E-06	5.05096704728203E-06	221888.1875	2.95744157483568E-05
1	126	79.3370777996931	1.06887817382813	1.0687255859375	4.71649169921875E-06	5.04063518746989E-06	226593.328125	3.00521533063147E-05
1	127	79.4377857994389	1.07894897460938	1.0791015625	4.6661376953125E-06	5.03523642692016E-06	231262.265625	3.05246067000553E-05
1	128	79.5384937991846	1.08901977539063	1.08917236328125	4.619140625E-06	5.03104001836618E-06	235795.46875	3.09921597363427E-05
1	129	79.6392017989303	1.09909057617188	1.09893798828125	4.576416015625E-06	5.02919738210039E-06	240130.703125	3.14551907649729E-05
1	130	79.7399097986761	1.10916137695313	1.1090087890625	4.5367431640625E-06	5.03128785567242E-06	244450.4375	3.19140744977631E-05
1	131	79.8406177984218	1.11923217773438	1.11907958984375	4.49920654296875E-06	5.0349703997199E-06	248728.203125	3.23690728691872E-05
1	132	79.9413257981676	1.12930297851563	1.12945556640625	4.464111328125E-06	5.04201489093248E-06	253007.953125	3.28204114339314E-05
1	133	80.0420337979133	1.13937377929688	1.13922119140625	4.43084716796875E-06	5.04771514897584E-06	257111.375	3.32683084707242E-05
1	134	80.142741797659	1.14944458007813	1.14959716796875	4.39971923828125E-06	5.05790467286715E-06	261288.75	3.37129604304209E-05
1	135	80.2434497974048	1.15951538085938	1.15966796875	4.3707275390625E-06	5.06859259985504E-06	265326.09375	3.4154589229729E-05
1	136	80.3441577971505	1.16958618164063	1.16973876953125	4.3438720703125E-06	5.08119501319015E-06	269284.84375	3.45934022334404E-05
1	137	80.4448657968962	1.17965698242188	1.17919921875	4.31915283203125E-06	5.09314122609794E-06	273016.34375	3.50296213582624E-05
1	138	80.545573796642	1.18972778320313	1.18927001953125	4.296875E-06	5.11014468429494E-06	276775.5625	3.54634721588809E-05
1	139	80.6462817963877	1.19979858398438	1.19964599609375	4.276123046875E-06	5.12983388034627E-06	280545.25	3.58951583621092E-05
1	140	80.7469897961334	1.20986938476563	1.20941162109375	4.2572021484375E-06	5.14870953338686E-06	284086.03125	3.63248436769936E-05
1	141	80.8476977958792	1.21994018554688	1.21978759765625	4.23980712890625E-06	5.17166381541756E-06	287698.84375	3.67527027265169E-05
1	142	80.9484057956249	1.23001098632813	1.229248046875	4.22393798828125E-06	5.19226750839152E-06	291019.4375	3.71788846678101E-05
1	143	81.0491137953707	1.24008178710938	1.23992919921875	4.210205078125E-06	5.22035634276108E-06	294505.65625	3.76035786757711E-05
1	144	81.1498217951164	1.25015258789063	1.25	4.1986083984375E-06	5.24826009495882E-06	297717.71875	3.80269957531709E-05
1	145	81.2505297948621	1.26022338867188	1.26007080078125	4.189453125E-06	5.27900783708901E-06	300772.125	3.84493687306531E-05
1	146	81.3512377946079	1.27029418945313	1.2701416015625	4.18212890625E-06	5.31189562025247E-06	303706.96875	3.88709122489672E-05
1	147	81.4519457943536	1.28036499023438	1.280517578125	4.17755126953125E-06	5.34942773811053E-06	306523.5	3.92918555007782E-05
1	148	81.5526537940993	1.29043579101563	1.2908935546875	4.17388916015625E-06	5.38804624738987E-06	309278.375	3.97123840230051E-05
1	149	81.6533617938451	1.30050659179688	1.3006591796875	4.17236328125E-06	5.42682255399995E-06	311732	4.0132650610758E-05
1	150	81.7540697935908	1.31057739257813	1.31072998046875	4.17266845703125E-06	5.469241841638E-06	314122.71875	4.05528553528711E-05
1	151	81.8547777933366	1.32064819335938	1.32049560546875	4.17449951171875E-06	5.51240782442619E-06	316324.3125	4.09731692343485E-05
1	152	81.9554857930823	1.33071899414063	1.33087158203125	4.17816162109375E-06	5.56059603695758E-06	318530.4375	4.13937596022151E-05
1	153	82.056193792828	1.34078979492188	1.3409423828125	4.18426513671875E-06	5.61085835215636E-06	320472.625	4.18148410972208E-05
1	154	82.1569017925738	1.35086059570313	1.3507080078125	4.1912841796875E-06	5.66120070288889E-06	322265.9375	4.22365847043693E-05
1	155	82.2576097923195	1.36093139648438	1.361083984375	4.200439453125E-06	5.71715099795256E-06	324033.71875	4.26591395807918E-05
1	156	82.3583177920652	1.37100219726563	1.37115478515625	4.210205078125E-06	5.77284299652092E-06	325674.09375	4.30826512456406E-05
1	157	82.459025791811	1.38107299804688	1.38092041015625	4.22119140625E-06	5.82912934987689E-06	327139.96875	4.35072033724282E-05
1	158	82.5597337915567	1.39114379882813	1.39129638671875	4.23431396484375E-06	5.89118599236826E-06	328576.5625	4.39329742221162E-05
1	159	82.6604417913024	1.40121459960938	1.4007568359375	4.249267578125E-06	5.95219034948968E-06	329646.65625	4.43601566075813E-05
1	160	82.7611497910482	1.41128540039063	1.41143798828125	4.26849365234375E-06	6.02471436650376E-06	330664.1875	4.47890597570222E-05
1	161	82.8618577907939	1.42135620117188	1.42181396484375	4.293212890625E-06	6.10415008850396E-06	331177.125	4.52201747975778E-05
1	162	82.9625657905397	1.43142700195313	1.4312744140625	4.322509765625E-06	6.18669719187892E-06	331121.15625	4.56540110462811E-05
1	163	83.0632737902854	1.44149780273438	1.44134521484375	4.3585205078125E-06	6.28213274467271E-06	330695.96875	4.6091136027826E-05
1	164	83.1639817900311	1.45156860351563	1.45172119140625	4.40277099609375E-06	6.39159588899929E-06	329728.96875	4.65323028038256E-05
1	165	83.2646897897769	1.46163940429688	1.4617919921875	4.45404052734375E-06	6.51088021186297E-06	328194.625	4.69782753498293E-05
1	166	83.3653977895226	1.47171020507813	1.4715576171875	4.515380859375E-06	6.64464278088417E-06	325898.90625	4.74299231427722E-05
1	167	83.4661057892683	1.48178100585938	1.48162841796875	4.5867919921875E-06	6.79592130836681E-06	323020.625	4.78882539027836E-05
1	168	83.5668137890141	1.49185180664063	1.49169921875	4.6710205078125E-06	6.96775714459363E-06	319351.90625	4.83544208691455E-05
1	169	83.6675217887598	1.50192260742188	1.50146484375	4.76806640625E-06	7.15908436177415E-06	314900.15625	4.88297191623133E-05
1	170	83.7682297885056	1.49185180664063	1.49139404296875	4.48028564453125E-06	6.68187112751184E-06	332879.25	4.92954095534515E-05
1	171	83.8689377882513	1.48178100585938	1.48193359375	4.26849365234375E-06	6.32562432656414E-06	347179.53125	4.97359469591174E-05
1	172	83.969645787997	1.47171020507813	1.47125244140625	4.10064697265625E-06	6.03308671998093E-06	358785.4375	5.01573667861521E-05
1	173	84.0703537877428	1.46163940429688	1.46148681640625	3.96392822265625E-06	5.79322841076646E-06	368696.59375	5.05634488945361E-05
1	174	84.1710617874885	1.45156860351563	1.45111083984375	3.85009765625E-06	5.58691817786894E-06	376902.34375	5.09569144924171E-05
1	175	84.2717697872342	1.44149780273438	1.44134521484375	3.7542724609375E-06	5.41120243724436E-06	383921.34375	5.13398263137788E-05
1	176	84.37247778698	1.43142700195313	1.4312744140625	3.6724853515625E-06	5.25633413417381E-06	389729.125	5.17137923452538E-05
1	177	84.4731857867257	1.42135620117188	1.4215087890625	3.60260009765625E-06	5.1211272875662E-06	394578.59375	5.20801222592127E-05
1	178	84.5738937864714	1.41128540039063	1.4111328125	3.54156494140625E-06	4.99761836181278E-06	398448.9375	5.24398601555731E-05
1	179	84.6746017862172	1.40121459960938	1.4013671875	3.48968505859375E-06	4.89033027406549E-06	401574.125	5.27939118910581E-05
1	180	84.7753097859629	1.39114379882813	1.3909912109375	3.44390869140625E-06	4.79044638268533E-06	403899	5.31430450791959E-05
1	181	84.8760177857087	1.38107299804688	1.3812255859375	3.40423583984375E-06	4.702017577074E-06	405737.34375	5.34878781763837E-05
1	182	84.9767257854544	1.37100219726563	1.3702392578125	3.3697509765625E-06	4.61736499346443E-06	406629.25	5.38289750693366E-05
1	183	85.0774337852001	1.36093139648438	1.36138916015625	3.34075927734375E-06	4.54807332062046E-06	407508.9375	5.41668741789181E-05
1	184	85.1781417849459	1.35086059570313	1.35040283203125	3.31787109375E-06	4.48046239398536E-06	407008.84375	5.45021648576949E-05
1	185	85.2788497846916	1.34078979492188	1.3409423828125	3.29833984375E-06	4.42288364865817E-06	406550.71875	5.48353164049331E-05
1	186	85.3795577844373	1.33071899414063	1.33026123046875	3.28399658203125E-06	4.3685731725418E-06	405073.90625	5.51667653780896E-05
1	187	85.4802657841831	1.32064819335938	1.32049560546875	3.27301025390625E-06	4.32199567512725E-06	403449.90625	5.54969374206848E-05
1	188	85.5809737839288	1.31057739257813	1.3104248046875	3.26324462890625E-06	4.2762367229443E-06	401571.125	5.58260617253836E-05
1	189	85.6816817836745	1.30050659179688	1.300048828125	3.25439453125E-06	4.23087158196722E-06	399474.875	5.6154251069529E-05
1	190	85.7823897834203	1.29043579101563	1.29058837890625	3.2452392578125E-06	4.18826812165207E-06	397686.65625	5.64815345569514E-05
1	191	85.883097783166	1.28036499023438	1.280517578125	3.2366943359375E-06	4.14464375353418E-06	395625.125	5.6807926739566E-05
1	192	85.9838057829118	1.27029418945313	1.270751953125	3.2281494140625E-06	4.10217717217165E-06	393647.1875	5.71334567212034E-05
1	193	86.0845137826575	1.26022338867188	1.26007080078125	3.2196044921875E-06	4.0569293560111E-06	391374.40625	5.74581245018635E-05
1	194	86.1852217824032	1.25015258789063	1.25030517578125	3.2110595703125E-06	4.01480428990908E-06	389374.65625	5.77819373575039E-05
1	195	86.285929782149	1.24008178710938	1.2396240234375	3.20281982421875E-06	3.97029225496226E-06	387041.46875	5.81048989261035E-05
1	196	86.3866377818947	1.23001098632813	1.2298583984375	3.19427490234375E-06	3.9285055208893E-06	385019.59375	5.84270201215986E-05
1	197	86.4873457816404	1.21994018554688	1.219482421875	3.18359375E-06	3.88233638659585E-06	383052.15625	5.87481699767523E-05
1	198	86.5880537813862	1.20986938476563	1.21002197265625	3.1744384765625E-06	3.8411403693317E-06	381176.6875	5.90683230257127E-05
1	199	86.6887617811319	1.19979858398438	1.19964599609375	3.16375732421875E-06	3.79538892048004E-06	379183.9375	5.93874756305013E-05
1	200	86.7894697808777	1.18972778320313	1.1895751953125	3.15277099609375E-06	3.75045806322305E-06	377311.03125	5.97055404796265E-05
1	201	86.8901777806234	1.17965698242188	1.17919921875	3.14178466796875E-06	3.70479006051028E-06	375327.84375	6.00224957452156E-05
1	202	86.9908857803691	1.16958618164063	1.16943359375	3.13018798828125E-06	3.66054678124783E-06	373598.53125	6.0338312323438E-05
1	203	87.0915937801149	1.15951538085938	1.15966796875	3.11859130859375E-06	3.6165301935398E-06	371856.375	6.06529647484422E-05
1	204	87.1923017798606	1.14944458007813	1.1492919921875	3.106689453125E-06	3.57049316335178E-06	369941.09375	6.09664311923552E-05
1	205	87.2930097796063	1.13937377929688	1.1395263671875	3.0938720703125E-06	3.52554866367427E-06	368317.21875	6.12786534475163E-05
1	206	87.3937177793521	1.12930297851563	1.12945556640625	3.079833984375E-06	3.47853551829758E-06	366726.125	6.15895260125399E-05
1	207	87.4944257790978	1.11923217773438	1.11968994140625	3.0657958984375E-06	3.43274086844758E-06	365220	6.18989870417863E-05
1	208	87.5951337788435	1.10916137695313	1.10931396484375	3.0517578125E-06	3.38535733135359E-06	363500.03125	6.2207029259298E-05
1	209	87.6958417785893	1.09909057617188	1.09893798828125	3.0377197265625E-06	3.33826551468519E-06	361764.125	6.25136599410325E-05
1	210	87.796549778335	1.08901977539063	1.08917236328125	3.02398681640625E-06	3.29364274875843E-06	360177.625	6.28188863629475E-05
1	211	87.8972577780808	1.07894897460938	1.0784912109375	3.0096435546875E-06	3.24587404065824E-06	358345.1875	6.3122708525043E-05
1	212	87.9979657778265	1.06887817382813	1.06903076171875	2.99591064453125E-06	3.20272056342219E-06	356830	6.34251118754037E-05
1	213	88.0986737775722	1.05880737304688	1.0589599609375	2.98187255859375E-06	3.15768352265877E-06	355132.53125	6.37261109659448E-05
1	214	88.199381777318	1.04873657226563	1.04888916015625	2.96722412109375E-06	3.11228905047756E-06	353491.75	6.4025676692836E-05
1	215	88.3000897770637	1.03866577148438	1.038818359375	2.9522705078125E-06	3.0668727504235E-06	351871	6.43237435724586E-05
1	216	88.4007977768094	1.02859497070313	1.0284423828125	2.9376220703125E-06	3.02117496175924E-06	350093.5	6.4620326156728E-05
1	217	88.5015057765552	1.01852416992188	1.01806640625	2.92144775390625E-06	2.97422775474843E-06	348480.09375	6.49153516860679E-05
1	218	88.6022137763009	1.00845336914063	1.00830078125	2.90557861328125E-06	2.9296973025339E-06	347022.375	6.52087692287751E-05
1	219	88.7029217760467	0.998382568359375	0.99853515625	2.8887939453125E-06	2.88456226371636E-06	345658.15625	6.55005351291038E-05
1	220	88.8036297757924	0.988311767578125	0.98846435546875	2.86895751953125E-06	2.83586200566788E-06	344537.84375	6.57904602121562E-05
1	221	88.9043377755381	0.978240966796875	0.97900390625	2.8466796875E-06	2.78691027233435E-06	343910.8125	6.60782679915428E-05
1	222	89.0050457752839	0.968170166015625	0.96832275390625	2.81890869140625E-06	2.72961324299104E-06	343509.8125	6.63635510136373E-05
1	223	89.1057537750296	0.958099365234375	0.95794677734375	2.783203125E-06	2.66616029875877E-06	344188.625	6.66456398903392E-05
1	224	89.2064617747753	0.948028564453125	0.948486328125	2.73773193359375E-06	2.59670127888967E-06	346449.6875	6.69236396788619E-05
1	225	89.3071697745211	0.937957763671875	0.93780517578125	2.67669677734375E-06	2.51022015618219E-06	350359.125	6.7196277086623E-05
1	226	89.4078777742668	0.927886962890625	0.92803955078125	2.5958251953125E-06	2.40902841142088E-06	357512.34375	6.7461769504007E-05
1	227	89.5085857740125	0.917816162109375	0.91766357421875	2.48748779296875E-06	2.28267685997707E-06	368911.78125	6.77177376928739E-05
1	228	89.6092937737583	0.907745361328125	0.908203125	2.34130859375E-06	2.1263838334562E-06	387904.0625	6.79608856444247E-05
1	229	89.710001773504	0.897674560546875	0.8978271484375	2.14874267578125E-06	1.92919947039627E-06	417838.375	6.81869787513278E-05
1	230	89.8107097732498	0.887603759765625	0.8880615234375	1.90155029296875E-06	1.68869360095414E-06	467019.75	6.8390931119211E-05
1	231	89.9114177729955	0.877532958984375	0.87738037109375	1.59515380859375E-06	1.39955659506086E-06	550028.6875	6.85670020175166E-05
1	232	90.0121257727412	0.867462158203125	0.8673095703125	1.234130859375E-06	1.07037351426698E-06	702769.5	6.87094652676024E-05
1	233	90.112833772487	0.857391357421875	0.85723876953125	8.306884765625E-07	7.12098369604064E-07	1031961.8125	6.8813438701909E-05
1	234	90.2135417722327	0.847320556640625	0.8477783203125	4.1015625E-07	3.47721567095505E-07	2066964.25	6.8875917349942E-05
1	235	90.3142497719784	0.837249755859375	0.8380126953125	-1.83105468749972E-09	-1.5344470138956E-09	-457666688	6.88964792061597E-05
1	236	90.4149577717242	0.827178955078125	0.82733154296875	-3.72924804687499E-07	-3.08532463577649E-07	-2218494.25	6.88776126480661E-05
1	237	90.5156657714699	0.817108154296875	0.81756591796875	-6.7626953125E-07	-5.52894903194101E-07	-1208935	6.88247819198295E-05
1	238	90.6163737712156	0.807037353515625	0.8074951171875	-8.88977050781251E-07	-7.17844613973284E-07	-908341.9375	6.87459614709951E-05
1	239	90.7170817709614	0.796966552734375	0.797119140625	-1.00921630859375E-06	-8.04465571491164E-07	-789839.75	6.86503844917752E-05
1	240	90.8177897707071	0.786895751953125	0.787353515625	-1.046142578125E-06	-8.2368399034749E-07	-752625.5	6.85468839947134E-05
1	241	90.9184977704529	0.776824951171875	0.77667236328125	-1.02203369140625E-06	-7.93785261521407E-07	-759928.375	6.84427432133816E-05
1	242	91.0192057701986	0.766754150390625	0.7666015625	-9.6435546875E-07	-7.39276401873212E-07	-794936.75	6.83427206240594E-05
1	243	91.1199137699443	0.756683349609375	0.75653076171875	-9.0087890625E-07	-6.81542587699369E-07	-839769.6875	6.82488025631756E-05
1	244	91.2206217696901	0.746612548828125	0.74652099609375	-8.53271484375E-07	-6.36985021174041E-07	-874892.75	6.81604724377394E-05
1	245	91.3213297694358	0.736541748046875	0.7364501953125	-8.404541015625E-07	-6.18952583408827E-07	-876252.6875	6.80751836625859E-05
1	246	91.4220377691815	0.726470947265625	0.726348876953125	-8.7615966796875E-07	-6.36397544440115E-07	-829014.3125	6.79887452861294E-05
1	247	91.5227457689273	0.716400146484375	0.716278076171875	-9.7381591796875E-07	-6.97522978043708E-07	-735537.5	6.7895591200795E-05
1	248	91.623453768673	0.706329345703125	0.706298828125	-1.138916015625E-06	-8.04415037691797E-07	-620150.0625	6.7789209424518E-05
1	249	91.7241617684188	0.696258544921875	0.6961669921875	-1.3690185546875E-06	-9.53065466546832E-07	-508515.40625	6.76629279041663E-05
1	250	91.8248697681645	0.686187744140625	0.68609619140625	-1.65069580078125E-06	-1.13253599920426E-06	-415640.625	6.75108676659875E-05
1	251	91.9255777679102	0.676116943359375	0.676116943359375	-1.96258544921875E-06	-1.32693730847677E-06	-344503.1875	6.73289250698872E-05
1	252	92.026285767656	0.666046142578125	0.66595458984375	-2.27203369140625E-06	-1.51307131091016E-06	-293109.46875	6.71156958560459E-05
1	253	92.1269937674017	0.655975341796875	0.6558837890625	-2.54730224609375E-06	-1.67073415013874E-06	-257481.75	6.68730208417401E-05
1	254	92.2277017671474	0.645904541015625	0.645904541015625	-2.75634765625E-06	-1.78033747033624E-06	-234333.484375	6.66059640934691E-05
1	255	92.3284097668932	0.635833740234375	0.63580322265625	-2.87811279296875E-06	-1.82991334440885E-06	-220909.765625	6.63222454022616E-05
1	256	92.4291177666389	0.625762939453125	0.625701904296875	-2.9083251953125E-06	-1.819744511522E-06	-215141.671875	6.60308796796016E-05
1	257	92.5298257663846	0.615692138671875	0.6156005859375	-2.85797119140625E-06	-1.75936872892635E-06	-215397.765625	6.57405180390924E-05
1	258	92.6305337661304	0.605621337890625	0.605560302734375	-2.74810791015625E-06	-1.66414497471123E-06	-220355.359375	6.54582327115349E-05
1	259	92.7312417658761	0.595550537109375	0.5955810546875	-2.603759765625E-06	-1.55074985741521E-06	-228738.875	6.51887457934208E-05
1	260	92.8319497656219	0.585479736328125	0.585479736328125	-2.44415283203125E-06	-1.43100203331414E-06	-239543.015625	6.49345602141693E-05
1	261	92.9326577653676	0.575408935546875	0.575408935546875	-2.28271484375E-06	-1.31349452203722E-06	-252072.1875	6.46965418127365E-05
1	262	93.0333657651133	0.565338134765625	0.56536865234375	-2.1282958984375E-06	-1.20327172226098E-06	-265643.84375	6.44744286546484E-05
1	263	93.1340737648591	0.555267333984375	0.55523681640625	-1.98486328125E-06	-1.10206917725009E-06	-279735.5625	6.42673185211606E-05
1	264	93.2347817646048	0.545196533203125	0.545196533203125	-1.85333251953125E-06	-1.01043042377569E-06	-294170.9375	6.40740472590551E-05
1	265	93.3354897643505	0.535125732421875	0.53509521484375	-1.7340087890625E-06	-9.27859787225316E-07	-308588.53125	6.38934143353254E-05
1	266	93.4361977640963	0.525054931640625	0.5250244140625	-1.6253662109375E-06	-8.53356937113858E-07	-323019.15625	6.37242555967532E-05
1	267	93.536905763842	0.514984130859375	0.514892578125	-1.5264892578125E-06	-7.85977931627713E-07	-337305.09375	6.3565545133315E-05
1	268	93.6376137635878	0.504913330078125	0.504852294921875	-1.4373779296875E-06	-7.25663539924426E-07	-351231.4375	6.34163006907329E-05
1	269	93.7383217633335	0.494842529296875	0.494873046875	-1.35528564453125E-06	-6.70694305426878E-07	-365143	6.32756855338812E-05
1	270	93.8390297630792	0.484771728515625	0.4847412109375	-1.2799072265625E-06	-6.20423804775783E-07	-378731.53125	6.31429866189137E-05
1	271	93.939737762825	0.474700927734375	0.474639892578125	-1.2103271484375E-06	-5.74469538605626E-07	-392158.34375	6.30175927653909E-05
1	272	94.0404457625707	0.464630126953125	0.464599609375	-1.1468505859375E-06	-5.32826334165293E-07	-405109.125	6.28989000688307E-05
1	273	94.1411537623164	0.454559326171875	0.454620361328125	-1.08795166015625E-06	-4.94604989853542E-07	-417868.15625	6.27863701083697E-05
1	274	94.2418617620622	0.444488525390625	0.44451904296875	-1.03363037109375E-06	-4.5946839577482E-07	-430056.09375	6.26795444986783E-05
1	275	94.3425697618079	0.434417724609375	0.4344482421875	-9.83581542968751E-07	-4.27315285378427E-07	-441700.28125	6.25779648544267E-05
1	276	94.4432777615536	0.424346923828125	0.424407958984375	-9.35974121093749E-07	-3.97234856563955E-07	-453439.875	6.24813110334799E-05
1	277	94.5439857612994	0.414276123046875	0.414337158203125	-8.9141845703125E-07	-3.69347787909646E-07	-464806.59375	6.23892919975333E-05
1	278	94.6446937610451	0.404205322265625	0.40423583984375	-8.49609375E-07	-3.4344256505392E-07	-475790.25	6.230162398424E-05
1	279	94.7454017607909	0.394134521484375	0.394195556640625	-8.11157226562501E-07	-3.19754548172568E-07	-485966.90625	6.22180014033802E-05
1	280	94.8461097605366	0.384063720703125	0.384033203125	-7.7362060546875E-07	-2.97095994028496E-07	-496410.28125	6.21381987002678E-05
1	281	94.9468177602823	0.373992919921875	0.374053955078125	-7.391357421875E-07	-2.76476640692636E-07	-506069.375	6.20620267000049E-05
1	282	95.0475257600281	0.363922119140625	0.363983154296875	-7.07397460937501E-07	-2.5748073539944E-07	-514538.4375	6.19891870883293E-05
1	283	95.1482337597738	0.353851318359375	0.353851318359375	-6.76879882812501E-07	-2.39514832856003E-07	-522768.25	6.19194834143855E-05
1	284	95.2489417595195	0.343780517578125	0.34381103515625	-6.48193359375E-07	-2.22856030518415E-07	-530414.3125	6.18527628830634E-05
1	285	95.3496497592653	0.333709716796875	0.33367919921875	-6.20422363281251E-07	-2.07022026188497E-07	-537825.875	6.17888799752109E-05
1	286	95.450357759011	0.323638916015625	0.3236083984375	-5.9417724609375E-07	-1.92280737110195E-07	-544632.8125	6.1727718275506E-05
1	287	95.5510657587567	0.313568115234375	0.31353759765625	-5.694580078125E-07	-1.78546486040432E-07	-550589.5	6.1669124988839E-05
1	288	95.6517737585025	0.303497314453125	0.303497314453125	-5.462646484375E-07	-1.65789842299091E-07	-555586.625	6.16129473200999E-05
1	289	95.7524817582482	0.293426513671875	0.293426513671875	-5.2459716796875E-07	-1.53930713508998E-07	-559336.8125	6.15590251982212E-05
1	290	95.853189757994	0.283355712890625	0.283355712890625	-5.04455566406251E-07	-1.4294036532192E-07	-561706	6.1507205828093E-05
1	291	95.9538977577397	0.273284912109375	0.273284912109375	-4.85839843749999E-07	-1.32772697725159E-07	-562500	6.1457343690563E-05
1	292	96.0546057574854	0.263214111328125	0.263214111328125	-4.681396484375E-07	-1.23220956993464E-07	-562255.5625	6.14093078183942E-05
1	293	96.1553137572312	0.253143310546875	0.253082275390625	-4.5166015625E-07	-1.14307177057071E-07	-560337.8125	6.13629890722223E-05
1	294	96.2560217569769	0.243072509765625	0.243072509765625	-4.35791015625001E-07	-1.05928812388356E-07	-557773.125	6.13183001405559E-05
1	295	96.3567297567226	0.233001708984375	0.233001708984375	-4.2144775390625E-07	-9.81980434744401E-08	-552860.25	6.12751391599886E-05
1	296	96.4574377564684	0.222930908203125	0.222930908203125	-4.08020019531249E-07	-9.09602704268764E-08	-546372.5	6.12333678873256E-05
1	297	96.5581457562141	0.212860107421875	0.212890625	-3.96728515625E-07	-8.44597778382195E-08	-536615.4375	6.11928480793722E-05
1	298	96.6588537559599	0.202789306640625	0.20281982421875	-3.86962890625001E-07	-7.84837439482544E-08	-524132.5	6.11533832852729E-05
1	299	96.7595617557056	0.192718505859375	0.192718505859375	-3.79333496093751E-07	-7.31045872726099E-08	-508045.0625	6.11147988820449E-05
1	300	96.8602697554513	0.182647705078125	0.18267822265625	-3.7200927734375E-07	-6.79579912343797E-08	-491058.25	6.10769639024511E-05
1	301	96.9609777551971	0.172576904296875	0.172576904296875	-3.67126464843751E-07	-6.33575467645642E-08	-470074.8125	6.10397473792545E-05
1	302	97.0616857549428	0.162506103515625	0.162567138671875	-3.6468505859375E-07	-5.9285802933573E-08	-445774.09375	6.10028982919175E-05
1	303	97.1623937546885	0.152435302734375	0.15252685546875	-3.64074707031251E-07	-5.55311707728379E-08	-418943.84375	6.09662019996904E-05
1	304	97.2631017544343	0.142364501953125	0.1424560546875	-3.67431640625E-07	-5.23428589360719E-08	-387707.65625	6.09293674642686E-05
1	305	97.36380975418	0.132293701171875	0.13238525390625	-3.74755859375001E-07	-4.96121472792765E-08	-353257.34375	6.08919945079833E-05
1	306	97.4645177539257	0.122222900390625	0.12225341796875	-3.8726806640625E-07	-4.73448409366028E-08	-315681.65625	6.08536247455049E-05
1	307	97.5652257536715	0.112152099609375	0.11212158203125	-4.06494140624999E-07	-4.55767654727879E-08	-275825.8125	6.08136542723514E-05
1	308	97.6659337534172	0.102081298828125	0.10211181640625	-4.33959960937499E-07	-4.43124363869174E-08	-235302.40625	6.07713373028673E-05
1	309	97.766641753163	0.092010498046875	0.092041015625	-4.73632812499999E-07	-4.35936442499951E-08	-194329.890625	6.07256333751138E-05
1	310	97.8673497529087	0.081939697265625	0.08197021484375	-5.291748046875E-07	-4.33765698915067E-08	-154901.96875	6.06751382292714E-05
1	311	97.9680577526544	0.071868896484375	0.0718994140625	-6.060791015625E-07	-4.35767297801704E-08	-118630.4140625	6.06179746682756E-05
1	312	98.0687657524002	0.061798095703125	0.06182861328125	-7.08923339843751E-07	-4.38317471207483E-08	-87214.8125	6.05517598160077E-05
1	313	98.1694737521459	0.051727294921875	0.0517578125	-8.43505859375E-07	-4.3658019421855E-08	-61360.34765625	6.04735869274009E-05
1	314	98.2701817518916	0.041656494140625	0.0417388916015625	-1.0101318359375E-06	-4.21617798451734E-08	-41320.2421875	6.03802509431262E-05
1	315	98.3708897516374	0.031585693359375	0.0317169189453125	-1.2060546875E-06	-3.82523381858846E-08	-26298.078125	6.02686559432186E-05
1	316	98.4715977513831	0.021514892578125	0.0216094970703125	-1.41845703125E-06	-3.06521421578054E-08	-15234.5087890625	6.01365027250722E-05
1	317	98.5723057511289	0.011444091796875	0.0115264892578125	-1.63116455078125E-06	-1.88016002766744E-08	-7066.41748046875	5.99829400016461E-05
1	318	98.6730137508746	0.001373291015625	0.00145874023437501	-1.82220458984375E-06	-2.65812305499935E-09	-800.535888671875	5.98090482526459E-05
1	319	98.7737217506203	-0.008697509765625	-0.0086029052734375	-1.9720458984375E-06	1.69653233683675E-08	4362.4267578125	5.96179961576127E-05
1	320	98.8744297503661	-0.018768310546875	-0.0186676025390625	-2.0684814453125E-06	3.86135887708861E-08	9024.787109375	5.94145385548472E-05
1	321	98.9751377501118	-0.028839111328125	-0.028717041015625	-2.110595703125E-06	6.06100627464912E-08	13606.130859375	5.92041033087298E-05
1	322	99.0758457498575	-0.038909912109375	-0.0387939453125	-2.10693359375E-06	8.1736267532051E-08	18412.513671875	5.89917362958658E-05
1	323	99.1765537496033	-0.048980712890625	-0.0488555908203125	-2.069091796875E-06	1.01086705228681E-07	23612.09375	5.87814538448583E-05
1	324	99.277261749349	-0.059051513671875	-0.058929443359375	-2.012939453125E-06	1.18621393596641E-07	29275.3203125	5.85759080422577E-05
1	325	99.3779697490947	-0.069122314453125	-0.06903076171875	-1.94610595703125E-06	1.3434116397093E-07	35471.2265625	5.83765540795866E-05
1	326	99.4786777488405	-0.079193115234375	-0.0791015625	-1.87896728515625E-06	1.48629254681509E-07	42098.42578125	5.81839485676028E-05
1	327	99.5793857485862	-0.089263916015625	-0.089202880859375	-1.81396484375E-06	1.61810888243963E-07	49175.640625	5.79979932808783E-05
1	328	99.680093748332	-0.099334716796875	-0.0992431640625	-1.75567626953125E-06	1.7423886333745E-07	56527.03125	5.78182480239775E-05
1	329	99.7808017480777	-0.109405517578125	-0.109283447265625	-1.702880859375E-06	1.86096684728909E-07	64175.62890625	5.76440943405032E-05
1	330	99.8815097478234	-0.119476318359375	-0.119354248046875	-1.65802001953125E-06	1.97891722564236E-07	71986.015625	5.74748592043761E-05
1	331	99.9822177475692	-0.129547119140625	-0.129486083984375	-1.61956787109375E-06	2.09711487286768E-07	79951.015625	5.73098222957924E-05
1	332	100.082925747315	-0.139617919921875	-0.1395263671875	-1.5869140625E-06	2.21416343038072E-07	87923.078125	5.71483615203761E-05
1	333	100.183633747061	-0.149688720703125	-0.1495361328125	-1.56158447265625E-06	2.33513304692679E-07	95759.234375	5.69898220419418E-05
1	334	100.284341746806	-0.159759521484375	-0.159637451171875	-1.54083251953125E-06	2.45974575818764E-07	103604.671875	5.68336035939865E-05
1	335	100.385049746552	-0.169830322265625	-0.169677734375	-1.52435302734375E-06	2.58648753970192E-07	111311.3125	5.66792587051168E-05
1	336	100.485757746298	-0.179901123046875	-0.179718017578125	-1.51214599609375E-06	2.71759887482403E-07	118849.6484375	5.65263580938336E-05
1	337	100.586465746044	-0.189971923828125	-0.189788818359375	-1.50421142578125E-06	2.85482485651301E-07	126171.640625	5.63744724786375E-05
1	338	100.687173745789	-0.200042724609375	-0.199859619140625	-1.49932861328125E-06	2.99655255275866E-07	133299.40625	5.62232344236691E-05
1	339	100.787881745535	-0.189971923828125	-0.1898193359375	-1.31378173828125E-06	2.49381173489382E-07	144483.15625	5.60815824428573E-05
2	340	100.888589745281	-0.179901123046875	-0.179718017578125	-1.181640625E-06	2.12362110119102E-07	152091.9375	5.59559266548604E-05
2	341	100.989297745027	-0.169830322265625	-0.16973876953125	-1.0748291015625E-06	1.82440174967269E-07	157921.625	5.58423053007573E-05
2	342	101.090005744772	-0.159759521484375	-0.15966796875	-9.83581542968751E-07	1.57046471827016E-07	162333.21875	5.57386556465644E-05
2	343	101.190713744518	-0.149688720703125	-0.149566650390625	-9.03930664062499E-07	1.35197879558291E-07	165462.53125	5.56436134502292E-05
2	344	101.291421744264	-0.139617919921875	-0.139495849609375	-8.31298828125E-07	1.15962734525965E-07	167804.703125	5.55562364752404E-05
2	345	101.392129744009	-0.129547119140625	-0.12945556640625	-7.6446533203125E-07	9.89642927606837E-08	169341.328125	5.54758844373282E-05
2	346	101.492837743755	-0.119476318359375	-0.11944580078125	-7.01904296875E-07	8.38395237678924E-08	170173.90625	5.54020443814807E-05
2	347	101.593545743501	-0.109405517578125	-0.109283447265625	-6.4056396484375E-07	7.00030327038803E-08	170605.0625	5.53344470972661E-05
2	348	101.694253743247	-0.099334716796875	-0.0992431640625	-5.8013916015625E-07	5.75748444475721E-08	171067.859375	5.52729798073415E-05
2	349	101.794961742992	-0.089263916015625	-0.089202880859375	-5.17883300781249E-07	4.61966820353155E-08	172245.140625	5.52176898054313E-05
2	350	101.895669742738	-0.079193115234375	-0.079132080078125	-4.50744628906249E-07	3.56683571567373E-08	175558.578125	5.51689154235646E-05
2	351	101.996377742484	-0.069122314453125	-0.069061279296875	-3.74755859375001E-07	2.58811176934159E-08	184283.390625	5.51273478777148E-05
2	352	102.09708574223	-0.059051513671875	-0.058929443359375	-2.84423828124999E-07	1.6760937526783E-08	207188.84375	5.50941549590789E-05
2	353	102.197793741975	-0.048980712890625	-0.048870849609375	-1.74560546874999E-07	8.53092174679659E-09	279965.0625	5.50710428797174E-05
2	354	102.298501741721	-0.038909912109375	-0.0388031005859375	-3.93676757812503E-08	1.52758783400486E-09	985659	5.50602708244696E-05
2	355	102.399209741467	-0.028839111328125	-0.0287506103515625	1.2664794921875E-07	-3.64120578133509E-09	-227012.046875	5.50646655028686E-05
2	356	102.499917741213	-0.018768310546875	-0.0186676025390625	3.2318115234375E-07	-6.03301764101616E-09	-57762.0390625	5.50873191969004E-05
2	357	102.600625740958	-0.008697509765625	-0.00858154296874999	5.45654296875001E-07	-4.68255612062762E-09	-15727.0703125	5.51310658920556E-05
2	358	102.701333740704	0.001373291015625	0.00148620605468749	7.8277587890625E-07	1.16336629218949E-09	1898.63549804688	5.51979574083816E-05
2	359	102.80204174045	0.011444091796875	0.0115814208984375	1.01806640625E-06	1.17906555630043E-08	11375.8994140625	5.52886376681272E-05
2	360	102.902749740196	0.021514892578125	0.021624755859375	1.22894287109375E-06	2.657558972885E-08	17596.224609375	5.54017860849854E-05
2	361	103.003457739941	0.031585693359375	0.0317047119140625	1.3970947265625E-06	4.42944845246984E-08	22693.31640625	5.55340157006867E-05
2	362	103.104165739687	0.041656494140625	0.04178466796875	1.5118408203125E-06	6.3171761155445E-08	27638.271484375	5.56804916413967E-05
2	363	103.204873739433	0.051727294921875	0.05169677734375	1.57012939453125E-06	8.11706257763944E-08	32925.171875	5.58356805413496E-05
2	364	103.305581739178	0.061798095703125	0.061859130859375	1.58050537109375E-06	9.77686838155023E-08	39138.83203125	5.5994329159148E-05
2	365	103.406289738924	0.071868896484375	0.071929931640625	1.55548095703125E-06	1.11885640308174E-07	46242.88671875	5.61522392672487E-05
2	366	103.50699773867	0.081939697265625	0.082061767578125	1.510009765625E-06	1.23914063010488E-07	54345.19140625	5.63065987080336E-05
2	367	103.607705738416	0.092010498046875	0.092071533203125	1.4544677734375E-06	1.33915079914004E-07	63302.55859375	5.64558722544461E-05
2	368	103.708413738161	0.102081298828125	0.10211181640625	1.395263671875E-06	1.42472913466918E-07	73184.6015625	5.65993650525343E-05
2	369	103.809121737907	0.112152099609375	0.112213134765625	1.3385009765625E-06	1.50197394077622E-07	83834.9296875	5.67370225326158E-05
2	370	103.909829737653	0.122222900390625	0.122314453125	1.28662109375E-06	1.57372355147345E-07	95066.4140625	5.68692084925715E-05
2	371	104.010537737399	0.132293701171875	0.13238525390625	1.23931884765625E-06	1.64067543551027E-07	106820.9765625	5.6996399507625E-05
2	372	104.111245737144	0.142364501953125	0.1424560546875	1.19720458984375E-06	1.70549043332358E-07	118990.5703125	5.71190867049154E-05
2	373	104.21195373689	0.152435302734375	0.1524658203125	1.16058349609375E-06	1.76949313868136E-07	131369.96875	5.72378121432848E-05
2	374	104.312661736636	0.162506103515625	0.16253662109375	1.126708984375E-06	1.83131476205745E-07	144257.859375	5.73529869143385E-05
2	375	104.413369736382	0.172576904296875	0.172637939453125	1.09771728515625E-06	1.89507645131926E-07	157269.953125	5.74649966438301E-05
2	376	104.514077736127	0.182647705078125	0.182586669921875	1.0723876953125E-06	1.95803693259222E-07	170261.8125	5.75742669752799E-05
2	377	104.614785735873	0.192718505859375	0.19268798828125	1.05010986328125E-06	2.02343557020868E-07	183493.171875	5.76811435166746E-05
2	378	104.715493735619	0.202789306640625	0.202880859375	1.0308837890625E-06	2.09146577390129E-07	196802.859375	5.77859318582341E-05
2	379	104.816201735365	0.212860107421875	0.212860107421875	1.0137939453125E-06	2.15796291058723E-07	209963.875	5.78888902964536E-05
2	380	104.91690973511	0.222930908203125	0.22296142578125	9.991455078125E-07	2.22770907498671E-07	223152.109375	5.7990248023998E-05
2	381	105.017617734856	0.233001708984375	0.2330322265625	9.8541259765625E-07	2.29632888704145E-07	236481.875	5.809017966385E-05
2	382	105.118325734602	0.243072509765625	0.243133544921875	9.72900390625001E-07	2.36544707377107E-07	249905.90625	5.81887870794162E-05
2	383	105.219033734347	0.253143310546875	0.253204345703125	9.60693359375001E-07	2.43251719211912E-07	263564.1875	5.82861503062304E-05
2	384	105.319741734093	0.263214111328125	0.26318359375	9.50927734375E-07	2.50268556101219E-07	276765.09375	5.83824112254661E-05
2	385	105.420449733839	0.273284912109375	0.2733154296875	9.4146728515625E-07	2.57317537943891E-07	290307.9375	5.84777008043602E-05
2	386	105.521157733585	0.283355712890625	0.283355712890625	9.33837890625E-07	2.64608274846978E-07	303431.375	5.85721281822771E-05
2	387	105.62186573333	0.293426513671875	0.29345703125	9.2681884765625E-07	2.71981491550832E-07	316628.25	5.86658206884749E-05
2	388	105.722573733076	0.303497314453125	0.303558349609375	9.2132568359375E-07	2.79676100944926E-07	329479.96875	5.87588801863603E-05
2	389	105.823281732822	0.313568115234375	0.313629150390625	9.1583251953125E-07	2.87231785023323E-07	342452.53125	5.88513903494459E-05
2	390	105.923989732568	0.323638916015625	0.32366943359375	9.112548828125E-07	2.94945351697606E-07	355190.90625	5.89433911954984E-05
2	391	106.024697732313	0.333709716796875	0.33367919921875	9.075927734375E-07	3.02844824773274E-07	367653	5.90349773119669E-05
2	392	106.125405732059	0.343780517578125	0.343780517578125	9.03930664062499E-07	3.10753733856473E-07	380317.375	5.9126195992576E-05
2	393	106.226113731805	0.353851318359375	0.353851318359375	9.0179443359375E-07	3.19101133072763E-07	392385.8125	5.92171199969016E-05
2	394	106.326821731551	0.363922119140625	0.36395263671875	8.9996337890625E-07	3.2754402923274E-07	404408.28125	5.93078475503717E-05
2	395	106.427529731296	0.373992919921875	0.3740234375	8.9874267578125E-07	3.36150804969293E-07	416163	5.9398418670753E-05
2	396	106.528237731042	0.384063720703125	0.3841552734375	8.9874267578125E-07	3.45256722766862E-07	427436.34375	5.94889279454947E-05
2	397	106.628945730788	0.394134521484375	0.394134521484375	8.9874267578125E-07	3.5422550581643E-07	438539.90625	5.95794408582151E-05
2	398	106.729653730534	0.404205322265625	0.404205322265625	8.9874267578125E-07	3.63276569714799E-07	449745.34375	5.96699501329567E-05
2	399	106.830361730279	0.414276123046875	0.414276123046875	8.99353027343749E-07	3.7258047314026E-07	460637.96875	5.97604921495076E-05
2	400	106.931069730025	0.424346923828125	0.42431640625	8.99658203125001E-07	3.81739710064721E-07	471641.8125	5.98510778218042E-05
2	401	107.031777729771	0.434417724609375	0.43438720703125	9.0087890625E-07	3.91330274851498E-07	482181.59375	5.99417435296346E-05
2	402	107.132485729516	0.444488525390625	0.44451904296875	9.02404785156249E-07	4.01136077243791E-07	492593.875	6.00325438426808E-05
2	403	107.233193729262	0.454559326171875	0.454559326171875	9.04541015625E-07	4.11167519587252E-07	502530.40625	6.01235333306249E-05
2	404	107.333901729008	0.464630126953125	0.46466064453125	9.0667724609375E-07	4.21297215780214E-07	512487.40625	6.02147338213399E-05
2	405	107.434609728754	0.474700927734375	0.474700927734375	9.0972900390625E-07	4.31849173310184E-07	521804.78125	6.0306196246529E-05
2	406	107.535317728499	0.484771728515625	0.48468017578125	9.130859375E-07	4.42554636492787E-07	530815.5	6.03979824518319E-05
2	407	107.636025728245	0.494842529296875	0.494842529296875	9.17968750000001E-07	4.54249970971432E-07	539062.5	6.04901833867189E-05
2	408	107.736733727991	0.504913330078125	0.504913330078125	9.2315673828125E-07	4.66114130404094E-07	546942.125	6.05828936386388E-05
2	409	107.837441727737	0.514984130859375	0.514984130859375	9.3048095703125E-07	4.79182915569254E-07	553460.125	6.06762296229135E-05
2	410	107.938149727482	0.525054931640625	0.525054931640625	9.4024658203125E-07	4.93681056923378E-07	558422.625	6.07704278081656E-05
2	411	108.038857727228	0.535125732421875	0.53515625	9.53369140625E-07	5.10201459746895E-07	561331.625	6.08657792326994E-05
2	412	108.139565726974	0.545196533203125	0.545166015625	9.71374511718751E-07	5.29560338691226E-07	561231.5625	6.09626986260992E-05
2	413	108.24027372672	0.555267333984375	0.555267333984375	9.9700927734375E-07	5.53606639641657E-07	556933	6.10618153586984E-05
2	414	108.340981726465	0.565338134765625	0.565277099609375	1.03179931640625E-06	5.83252528940648E-07	547855.625	6.11639698036015E-05
2	415	108.441689726211	0.575408935546875	0.575408935546875	1.08123779296875E-06	6.2215389107223E-07	532176.125	6.12703734077513E-05
2	416	108.542397725957	0.585479736328125	0.585479736328125	1.151123046875E-06	6.73959164032567E-07	508616.125	6.13827796769328E-05
2	417	108.643105725703	0.595550537109375	0.595550537109375	1.2506103515625E-06	7.44801695873321E-07	476207.90625	6.15037206443958E-05
2	418	108.743813725448	0.605621337890625	0.605560302734375	1.3873291015625E-06	8.40111454181169E-07	436493.625	6.16365505266003E-05
2	419	108.844521725194	0.615692138671875	0.61572265625	1.56951904296875E-06	9.66388370216009E-07	392300.21875	6.17854384472594E-05
2	420	108.94522972494	0.625762939453125	0.625701904296875	1.80511474609375E-06	1.12946372610168E-06	346627.21875	6.1955361161381E-05
2	421	109.045937724685	0.635833740234375	0.635772705078125	2.09564208984375E-06	1.33235198518378E-06	303378.5	6.21517829131335E-05
2	422	109.146645724431	0.645904541015625	0.64581298828125	2.43804931640625E-06	1.57452382154588E-06	264889.21875	6.23800733592361E-05
2	423	109.247353724177	0.655975341796875	0.6558837890625	2.81768798828125E-06	1.84807595360326E-06	232773.75	6.26447217655368E-05
2	424	109.348061723923	0.666046142578125	0.665924072265625	3.21502685546875E-06	2.14096371564665E-06	207128.625	6.2948492995929E-05
2	425	109.448769723668	0.676116943359375	0.67608642578125	3.59893798828125E-06	2.43319300352596E-06	187857.21875	6.3291605329141E-05
2	426	109.549477723414	0.686187744140625	0.686126708984375	3.94073486328125E-06	2.70384316536365E-06	174111.375	6.36712575214915E-05
2	427	109.65018572316	0.696258544921875	0.696197509765625	4.21142578125E-06	2.93198399958783E-06	165311.59375	6.40817452222109E-05
2	428	109.750893722906	0.706329345703125	0.70623779296875	4.3963623046875E-06	3.10487712340546E-06	160641.40625	6.4515188569203E-05
2	429	109.851601722651	0.716400146484375	0.71630859375	4.4891357421875E-06	3.21560651173058E-06	159564.921875	6.4962609030772E-05
2	430	109.952309722397	0.726470947265625	0.7264404296875	4.50469970703125E-06	3.27239581565664E-06	161262.796875	6.5415479184594E-05
2	431	110.053017722143	0.736541748046875	0.7364501953125	4.46807861328125E-06	3.29051749758946E-06	164824.796875	6.5867294324562E-05
2	432	110.153725721889	0.746612548828125	0.746490478515625	4.40887451171875E-06	3.29118256559013E-06	169315.4375	6.63142855046317E-05
2	433	110.254433721634	0.756683349609375	0.75714111328125	4.34967041015625E-06	3.29331419379741E-06	174068.625	6.67553176754154E-05
2	434	110.35514172138	0.766754150390625	0.7666015625	4.3157958984375E-06	3.30849570673308E-06	177626.9375	6.7191656853538E-05
2	435	110.455849721126	0.776824951171875	0.77667236328125	4.32159423828125E-06	3.35646268467826E-06	179718.953125	6.76265844958834E-05
2	436	110.556557720872	0.786895751953125	0.7867431640625	4.38262939453125E-06	3.44800378115906E-06	179513.953125	6.80648736306466E-05
2	437	110.657265720617	0.796966552734375	0.797119140625	4.5062255859375E-06	3.59199862032256E-06	176892.859375	6.85124614392407E-05
2	438	110.757973720363	0.807037353515625	0.806884765625	4.69879150390625E-06	3.79138327843975E-06	171721.765625	6.89759763190523E-05
2	439	110.858681720109	0.817108154296875	0.81756591796875	4.9530029296875E-06	4.04940601583803E-06	165064.703125	6.94619811838493E-05
2	440	110.959389719854	0.827178955078125	0.82733154296875	5.255126953125E-06	4.34773210145067E-06	157433.21875	6.99759984854609E-05
2	441	111.0600977196	0.837249755859375	0.83740234375	5.57861328125E-06	4.67154359284905E-06	150109.40625	7.05215206835419E-05
2	442	111.160805719346	0.847320556640625	0.84747314453125	5.8929443359375E-06	4.9941118049901E-06	143811.5	7.10991589585319E-05
2	443	111.261513719092	0.857391357421875	0.85784912109375	6.1676025390625E-06	5.29087219547364E-06	139089.5625	7.1706461312715E-05
2	444	111.362221718837	0.867462158203125	0.86761474609375	6.3751220703125E-06	5.53114978174563E-06	136093.828125	7.23380362614989E-05
2	445	111.462929718583	0.877532958984375	0.877685546875	6.4910888671875E-06	5.69713483855594E-06	135213.921875	7.2985902079381E-05
2	446	111.563637718329	0.887603759765625	0.88775634765625	6.5155029296875E-06	5.78417893848382E-06	136252.9375	7.36408328521065E-05
2	447	111.664345718075	0.897674560546875	0.89752197265625	6.45751953125E-06	5.79576544623706E-06	138988.65625	7.42940756026655E-05
2	448	111.76505371782	0.907745361328125	0.9075927734375	6.341552734375E-06	5.75554759052466E-06	143118.375	7.49385581002571E-05
2	449	111.865761717566	0.917816162109375	0.91796875	6.1859130859375E-06	5.67847473575966E-06	148396.65625	7.55693690734915E-05
2	450	111.966469717312	0.927886962890625	0.92803955078125	6.01806640625E-06	5.58500369152171E-06	154208.921875	7.61838891776279E-05
2	451	112.067177717058	0.937957763671875	0.93780517578125	5.8502197265625E-06	5.48636626263033E-06	160302.5625	7.67815072322264E-05
2	452	112.167885716803	0.948028564453125	0.94818115234375	5.6884765625E-06	5.393706032919E-06	166684.546875	7.73625215515494E-05
2	453	112.268593716549	0.958099365234375	0.9576416015625	5.5419921875E-06	5.30724219061085E-06	172797.359375	7.7928023529239E-05
2	454	112.369301716295	0.968170166015625	0.96832275390625	5.40771484375E-06	5.23641301697353E-06	179063.21875	7.84793810453266E-05
2	455	112.470009716041	0.978240966796875	0.9783935546875	5.2825927734375E-06	5.16845466336235E-06	185210.859375	7.90176854934543E-05
2	456	112.570717715786	0.988311767578125	0.9881591796875	5.1727294921875E-06	5.11147982251714E-06	191032.453125	7.95441519585438E-05
2	457	112.671425715532	0.998382568359375	0.99822998046875	5.072021484375E-06	5.06304377267952E-06	196811.078125	8.00600173533894E-05
2	458	112.772133715278	1.00845336914063	1.00860595703125	4.98046875E-06	5.02333023177925E-06	202512.265625	8.05661984486505E-05
2	459	112.872841715023	1.01852416992188	1.0186767578125	4.89654541015625E-06	4.98799681736273E-06	208039.890625	8.1063546531368E-05
2	460	112.973549714769	1.02859497070313	1.02874755859375	4.8211669921875E-06	4.95976382808294E-06	213381.453125	8.15528692328371E-05
2	461	113.074257714515	1.03866577148438	1.03851318359375	4.75250244140625E-06	4.93553625346976E-06	218519.234375	8.20349450805224E-05
2	462	113.174965714261	1.04873657226563	1.04827880859375	4.69024658203125E-06	4.91668606628082E-06	223501.859375	8.25104216346517E-05
2	463	113.275673714006	1.05880737304688	1.058349609375	4.6319580078125E-06	4.90223055749084E-06	228488.609375	8.29798373160884E-05
2	464	113.376381713752	1.06887817382813	1.06842041015625	4.57916259765625E-06	4.89247076984611E-06	233322.234375	8.34436505101621E-05
2	465	113.477089713498	1.07894897460938	1.07879638671875	4.53033447265625E-06	4.88730847791885E-06	238127.3125	8.39023487060331E-05
2	466	113.577797713244	1.08901977539063	1.0888671875	4.483642578125E-06	4.88209116156213E-06	242853.265625	8.43562374939211E-05
2	467	113.678505712989	1.09909057617188	1.0986328125	4.44122314453125E-06	4.87927354697604E-06	247371.671875	8.48056442919187E-05
2	468	113.779213712735	1.10916137695313	1.10870361328125	4.40216064453125E-06	4.88069099446875E-06	251854.4375	8.52509401738644E-05
2	469	113.879921712481	1.11923217773438	1.11846923828125	4.36492919921875E-06	4.88203932036413E-06	256239.9375	8.56924016261473E-05
2	470	113.980629712227	1.12930297851563	1.129150390625	4.33074951171875E-06	4.89006743009668E-06	260728.625	8.61302614794113E-05
2	471	114.081337711972	1.13937377929688	1.13922119140625	4.2999267578125E-06	4.89856756757945E-06	264939.65625	8.65648544277065E-05
2	472	114.182045711718	1.14944458007813	1.1492919921875	4.2706298828125E-06	4.90820048071328E-06	269115.34375	8.69964133016765E-05
2	473	114.282753711464	1.15951538085938	1.15936279296875	4.2437744140625E-06	4.92007393404492E-06	273191.4375	8.74251491040923E-05
2	474	114.38346171121	1.16958618164063	1.16973876953125	4.21844482421875E-06	4.9344785111316E-06	277291.46875	8.78512510098517E-05
2	475	114.484169710955	1.17965698242188	1.1798095703125	4.1937255859375E-06	4.94779760629172E-06	281327.3125	8.82748427102342E-05
2	476	114.584877710701	1.18972778320313	1.18927001953125	4.17144775390625E-06	4.96097754876246E-06	285097.6875	8.86960624484345E-05
2	477	114.685585710447	1.19979858398438	1.19964599609375	4.150390625E-06	4.97899918627809E-06	289044.125	8.91150993993506E-05
2	478	114.786293710192	1.20986938476563	1.209716796875	4.13116455078125E-06	4.99753923577373E-06	292827.0625	8.95321063580923E-05
2	479	114.887001709938	1.21994018554688	1.21978759765625	4.11346435546875E-06	5.01755312143359E-06	296535.34375	8.99472579476424E-05
2	480	114.987709709684	1.23001098632813	1.2298583984375	4.0972900390625E-06	5.03908631799277E-06	300163.875	9.03606996871531E-05
2	481	115.08841770943	1.24008178710938	1.23992919921875	4.08203125E-06	5.06142941958387E-06	303753	9.07725625438616E-05
2	482	115.189125709175	1.25015258789063	1.25	4.068603515625E-06	5.08575431013014E-06	307230.71875	9.11829847609624E-05
2	483	115.289833708921	1.26022338867188	1.2603759765625	4.05670166015625E-06	5.11296912009129E-06	310689.84375	9.15921264095232E-05
2	484	115.390541708667	1.27029418945313	1.2701416015625	4.0447998046875E-06	5.1374686336203E-06	314018.40625	9.20000675250776E-05
2	485	115.491249708413	1.28036499023438	1.27960205078125	4.0350341796875E-06	5.16323780175298E-06	317122.96875	9.24069172469899E-05
2	486	115.591957708158	1.29043579101563	1.290283203125	4.02740478515625E-06	5.19649302077596E-06	320375.84375	9.28128938539885E-05
2	487	115.692665707904	1.30050659179688	1.30035400390625	4.0216064453125E-06	5.22951177117648E-06	323341.9375	9.3218193796929E-05
2	488	115.79337370765	1.31057739257813	1.3104248046875	4.0179443359375E-06	5.26521398569457E-06	326143.09375	9.36230208026245E-05
2	489	115.894081707396	1.32064819335938	1.3201904296875	4.0167236328125E-06	5.30283978150692E-06	328673.46875	9.40275931498036E-05
2	490	115.994789707141	1.33071899414063	1.33056640625	4.01702880859375E-06	5.34492392034736E-06	331231.46875	9.44321291171946E-05
2	491	116.095497706887	1.34078979492188	1.3409423828125	4.0191650390625E-06	5.38946869710344E-06	333637.0625	9.48367814999074E-05
2	492	116.196205706633	1.35086059570313	1.35101318359375	4.022216796875E-06	5.43406758879428E-06	335887.71875	9.52416958170943E-05
2	493	116.296913706379	1.36093139648438	1.36077880859375	4.0283203125E-06	5.48165280633839E-06	337803.03125	9.56470757955685E-05
2	494	116.397621706124	1.37100219726563	1.37115478515625	4.03656005859375E-06	5.53474819753319E-06	339684	9.60531688178889E-05
2	495	116.49832970587	1.38107299804688	1.3812255859375	4.04632568359375E-06	5.58888859814033E-06	341353.0625	9.64601786108688E-05
2	496	116.599037705616	1.39114379882813	1.3909912109375	4.0594482421875E-06	5.64665697311284E-06	342655.25	9.68683380051516E-05
2	497	116.699745705361	1.40121459960938	1.4013671875	4.07318115234375E-06	5.70802239963086E-06	344047.34375	9.72778434515931E-05
2	498	116.800453705107	1.41128540039063	1.4117431640625	4.08966064453125E-06	5.7735505833989E-06	345198.125	9.76888768491335E-05
2	499	116.901161704853	1.42135620117188	1.4208984375	4.1082763671875E-06	5.83744349569315E-06	345862.4375	9.81016783043742E-05
2	500	117.001869704599	1.43142700195313	1.43096923828125	4.1302490234375E-06	5.91025900575914E-06	346460.78125	9.85165170277469E-05
2	501	117.102577704344	1.44149780273438	1.44134521484375	4.15557861328125E-06	5.98962333242525E-06	346845.84375	9.8933742265217E-05
2	502	117.20328570409	1.45156860351563	1.45172119140625	4.18701171875E-06	6.07837364441366E-06	346720.125	9.93538269540295E-05
2	503	117.303993703836	1.46163940429688	1.46209716796875	4.22576904296875E-06	6.17848490946926E-06	345995.53125	9.97774477582425E-05
2	504	117.404701703582	1.47171020507813	1.47216796875	4.2724609375E-06	6.28978023087257E-06	344571.4375	0.000100205361377448
2	505	117.505409703327	1.48178100585938	1.48162841796875	4.327392578125E-06	6.41158794678631E-06	342383.625	0.000100638404546771
2	506	117.606117703073	1.49185180664063	1.49200439453125	4.390869140625E-06	6.55119583825581E-06	339797.0625	0.000101077399449423
2	507	117.706825702819	1.50192260742188	1.50146484375	4.46563720703125E-06	6.70499730404117E-06	336226.34375	0.000101523364719469
2	508	117.807533702565	1.49185180664063	1.49169921875	4.2242431640625E-06	6.30130034551257E-06	353128.15625	0.000101960933534428
2	509	117.90824170231	1.48178100585938	1.48193359375	4.0472412109375E-06	5.99774239162798E-06	366158.96875	0.000102377431176137
2	510	118.008949702056	1.47171020507813	1.47125244140625	3.90655517578125E-06	5.74752857573912E-06	376611.21875	0.00010277793626301
2	511	118.109657701802	1.46163940429688	1.46209716796875	3.790283203125E-06	5.54176222067326E-06	385748.8125	0.000103165504697245
2	512	118.210365701548	1.45156860351563	1.45172119140625	3.692626953125E-06	5.36066454515094E-06	393140.5	0.000103542297438253
2	513	118.311073701293	1.44149780273438	1.44134521484375	3.6090087890625E-06	5.20182720720186E-06	399374.28125	0.000103909966128413
2	514	118.411781701039	1.43142700195313	1.4312744140625	3.5369873046875E-06	5.06239939568331E-06	404659.21875	0.000104269798612222
2	515	118.512489700785	1.42135620117188	1.4215087890625	3.4735107421875E-06	4.93762581754709E-06	409242.6875	0.000104622806247789
2	516	118.61319770053	1.41128540039063	1.4111328125	3.41705322265625E-06	4.82191580886138E-06	412967.75	0.000104969767562579
2	517	118.713905700276	1.40121459960938	1.4007568359375	3.36639404296875E-06	4.71549947178573E-06	416100.09375	0.000105311344668735
2	518	118.814613700022	1.39114379882813	1.3909912109375	3.3209228515625E-06	4.619374522008E-06	418856.84375	0.000105648075987119
2	519	118.915321699768	1.38107299804688	1.3812255859375	3.280029296875E-06	4.53046004622593E-06	421101.625	0.000105980463558808
2	520	119.016029699513	1.37100219726563	1.37115478515625	3.24310302734375E-06	4.44679608335719E-06	422791	0.000106308929389343
2	521	119.116737699259	1.36093139648438	1.361083984375	3.21014404296875E-06	4.36927530245157E-06	423994.6875	0.000106633873656392
2	522	119.217445699005	1.35086059570313	1.35040283203125	3.1805419921875E-06	4.29501278631506E-06	424582.625	0.000106955667433795
2	523	119.318153698751	1.34078979492188	1.34063720703125	3.15338134765625E-06	4.22754010287463E-06	425142.78125	0.000107274609035812
2	524	119.418861698496	1.33071899414063	1.33026123046875	3.1280517578125E-06	4.16112607126706E-06	425268.28125	0.000107590902189258
2	525	119.519569698242	1.32064819335938	1.32080078125	3.10516357421875E-06	4.10130223826854E-06	425356.28125	0.000107904772448819
2	526	119.620277697988	1.31057739257813	1.31072998046875	3.0853271484375E-06	4.04403090215055E-06	424826.90625	0.000108216489024926
2	527	119.720985697734	1.30050659179688	1.30126953125	3.0670166015625E-06	3.99101509174216E-06	424278.625	0.000108526284748223
2	528	119.821693697479	1.29043579101563	1.28997802734375	3.0511474609375E-06	3.93591290048789E-06	422784.5625	0.000108834356069565
2	529	119.922401697225	1.28036499023438	1.28021240234375	3.0377197265625E-06	3.88892613045755E-06	421438.625	0.000109140957647469
2	530	120.023109696971	1.27029418945313	1.270751953125	3.02520751953125E-06	3.84428813049453E-06	420054.5	0.000109446249553002
2	531	120.123817696717	1.26022338867188	1.2603759765625	3.01483154296875E-06	3.79982111553545E-06	418058.53125	0.000109750384581275
2	532	120.224525696462	1.25015258789063	1.25030517578125	3.00384521484375E-06	3.75572312805161E-06	416234.875	0.000110053450043779
2	533	120.325233696208	1.24008178710938	1.240234375	2.99346923828125E-06	3.71260352949321E-06	414313.375	0.000110355438664556
2	534	120.425941695954	1.23001098632813	1.23016357421875	2.98370361328125E-06	3.67044344784517E-06	412294.15625	0.000110656415927224
2	535	120.526649695699	1.21994018554688	1.21978759765625	2.9730224609375E-06	3.6264559639676E-06	410285.375	0.000110956360003911
2	536	120.627357695445	1.20986938476563	1.20941162109375	2.9632568359375E-06	3.58379725184932E-06	408135.96875	0.000111255278170574
2	537	120.728065695191	1.19979858398438	1.199951171875	2.95379638671875E-06	3.54441135641537E-06	406240.3125	0.000111553221358918
2	538	120.828773694937	1.18972778320313	1.18988037109375	2.9449462890625E-06	3.50413347405265E-06	404041.46875	0.000111850247776601
2	539	120.929481694682	1.17965698242188	1.1798095703125	2.93609619140625E-06	3.46403430739883E-06	401829.34375	0.000112146386527456
2	540	121.030189694428	1.16958618164063	1.16973876953125	2.92724609375E-06	3.42411317433289E-06	399603.84375	0.000112441623059567
2	541	121.130897694174	1.15951538085938	1.15966796875	2.91839599609375E-06	3.38437030222849E-06	397364.84375	0.000112735979200806
2	542	121.23160569392	1.14944458007813	1.14959716796875	2.90924072265625E-06	3.34445485350443E-06	395153.6875	0.000113029418571386
2	543	121.332313693665	1.13937377929688	1.13922119140625	2.90008544921875E-06	3.30383863911266E-06	392823.34375	0.000113321941171307
2	544	121.433021693411	1.12930297851563	1.12945556640625	2.89031982421875E-06	3.26448775922472E-06	390771.84375	0.000113613517896738
2	545	121.533729693157	1.11923217773438	1.119384765625	2.882080078125E-06	3.22615642289747E-06	388394.75	0.000113904177851509
2	546	121.634437692903	1.10916137695313	1.10931396484375	2.87322998046875E-06	3.18731417792151E-06	386086.03125	0.000114193979243282
2	547	121.735145692648	1.09909057617188	1.09893798828125	2.864990234375E-06	3.14844646709389E-06	383574.78125	0.000114482922072057
2	548	121.835853692394	1.08901977539063	1.0888671875	2.8564453125E-06	3.11028952637571E-06	381196.59375	0.000114771020889748
2	549	121.93656169214	1.07894897460938	1.0791015625	2.8485107421875E-06	3.07383220388147E-06	378830.09375	0.000115058290248271
2	550	122.037269691886	1.06887817382813	1.0687255859375	2.83905029296875E-06	3.03416572933202E-06	376437.71875	0.000115344679215923
2	551	122.137977691631	1.05880737304688	1.0589599609375	2.82958984375E-06	2.99642215395579E-06	374245.0625	0.000115630115033127
2	552	122.238685691377	1.04873657226563	1.04827880859375	2.81982421875E-06	2.95596191790537E-06	371753.25	0.000115914590423927
2	553	122.339393691123	1.03866577148438	1.0394287109375	2.80914306640625E-06	2.91990409095888E-06	370016.28125	0.000116198032628745
2	554	122.440101690868	1.02859497070313	1.0284423828125	2.79876708984375E-06	2.87837065116037E-06	367462.65625	0.000116480412543751
2	555	122.540809690614	1.01852416992188	1.0186767578125	2.78778076171875E-06	2.83984741145105E-06	365407.78125	0.000116761715617031
2	556	122.64151769036	1.00845336914063	1.00830078125	2.7752685546875E-06	2.79830533145287E-06	363316.46875	0.000117041839985177
2	557	122.742225690106	0.998382568359375	0.99853515625	2.76123046875E-06	2.75718571174366E-06	361626.875	0.000117320625577122
2	558	122.842933689851	0.988311767578125	0.98846435546875	2.744140625E-06	2.7124851840199E-06	360209.0625	0.000117597839562222
2	559	122.943641689597	0.978240966796875	0.977783203125	2.72430419921875E-06	2.66377878688218E-06	358911.1875	0.000117873198178131
2	560	123.044349689343	0.968170166015625	0.9686279296875	2.698974609375E-06	2.61430227510573E-06	358887.375	0.000118146279419307
2	561	123.145057689089	0.958099365234375	0.958251953125	2.667236328125E-06	2.55588429354248E-06	359267.75	0.000118416493933182
2	562	123.245765688834	0.948028564453125	0.9478759765625	2.62481689453125E-06	2.48800074587052E-06	361120.8125	0.000118682968604844
2	563	123.34647368858	0.937957763671875	0.9381103515625	2.56805419921875E-06	2.40911822402268E-06	365300.0625	0.000118944451969583
2	564	123.447181688326	0.927886962890625	0.92803955078125	2.4908447265625E-06	2.31160242947226E-06	372580.25	0.000119199183245655
2	565	123.547889688072	0.917816162109375	0.91796875	2.386474609375E-06	2.19070898310747E-06	384654.75	0.000119444775918964
2	566	123.648597687817	0.907745361328125	0.9075927734375	2.24517822265625E-06	2.03770741791232E-06	404240.875	0.000119677999464329
2	567	123.749305687563	0.897674560546875	0.89752197265625	2.0562744140625E-06	1.84555130999797E-06	436479.6875	0.000119894597446546
2	568	123.850013687309	0.887603759765625	0.88775634765625	1.81365966796875E-06	1.61008790655615E-06	489483.4375	0.000120089462143369
2	569	123.950721687055	0.877532958984375	0.87738037109375	1.51153564453125E-06	1.32619163650816E-06	580456.3125	0.000120256896479987
2	570	124.0514296868	0.867462158203125	0.8673095703125	1.1541748046875E-06	1.00102681699354E-06	751454.25	0.000120391130622011
2	571	124.152137686546	0.857391357421875	0.8575439453125	7.5225830078125E-07	6.450945306824E-07	1139959.375	0.000120487122330815
2	572	124.252845686292	0.847320556640625	0.84747314453125	3.30810546875E-07	2.80353049220139E-07	2561808.25	0.000120541662909091
2	573	124.353553686037	0.837249755859375	0.83770751953125	-8.66699218750003E-08	-7.26040454424037E-08	-9665493	0.000120553952001501
2	574	124.454261685783	0.827178955078125	0.82763671875	-4.669189453125E-07	-3.86439239719039E-07	-1772549.125	0.000120526077807881
2	575	124.554969685529	0.817108154296875	0.81695556640625	-7.81860351562499E-07	-6.38745120795647E-07	-1044886.875	0.000120463198982179
2	576	124.655677685275	0.807037353515625	0.806884765625	-1.0089111328125E-06	-8.14075008293003E-07	-799758.0625	0.000120373028039467
2	577	124.75638568502	0.796966552734375	0.79742431640625	-1.14288330078125E-06	-9.11362974420626E-07	-697730.3125	0.000120264674478676
2	578	124.857093684766	0.786895751953125	0.787353515625	-1.18896484375E-06	-9.36135620577261E-07	-662217.6875	0.000120147255074698
2	579	124.957801684512	0.776824951171875	0.777587890625	-1.17034912109375E-06	-9.10049266167334E-07	-664406.8125	0.000120028453238774
2	580	125.058509684258	0.766754150390625	0.76690673828125	-1.11297607421875E-06	-8.53548840495932E-07	-689059.5	0.000119913478556555
2	581	125.159217684003	0.756683349609375	0.75714111328125	-1.046142578125E-06	-7.92077514688572E-07	-723745.6875	0.000119804761197884
2	582	125.259925683749	0.746612548828125	0.746490478515625	-9.92431640625E-07	-7.40840789603681E-07	-752183.25	0.000119702111987863
2	583	125.360633683495	0.736541748046875	0.736480712890625	-9.71069335937499E-07	-7.15173825938109E-07	-758422.375	0.000119603238999844
2	584	125.461341683241	0.726470947265625	0.726409912109375	-9.9700927734375E-07	-7.24237395388627E-07	-728588.9375	0.000119504140457138
2	585	125.562049682986	0.716400146484375	0.71630859375	-1.082763671875E-06	-7.75592923218937E-07	-661555.8125	0.000119399417599197
2	586	125.662757682732	0.706329345703125	0.706268310546875	-1.23779296875E-06	-8.74213924362266E-07	-570586.8125	0.000119282565719914
2	587	125.763465682478	0.696258544921875	0.6961669921875	-1.45965576171875E-06	-1.01616421943618E-06	-476939.15625	0.000119146738143172
2	588	125.864173682224	0.686187744140625	0.6861572265625	-1.7352294921875E-06	-1.19064020509541E-06	-395427.375	0.000118985859444365
2	589	125.964881681969	0.676116943359375	0.67608642578125	-2.047119140625E-06	-1.38402947413852E-06	-330262.375	0.000118795403977856
2	590	126.065589681715	0.666046142578125	0.666015625	-2.3626708984375E-06	-1.57357567331928E-06	-281891	0.000118573356303386
2	591	126.166297681461	0.655975341796875	0.65594482421875	-2.64984130859375E-06	-1.7381496490998E-06	-247541.171875	0.00011832095333375
2	592	126.267005681206	0.645904541015625	0.6458740234375	-2.8729248046875E-06	-1.85554756626516E-06	-224814.109375	0.000118042866233736
2	593	126.367713680952	0.635833740234375	0.6357421875	-3.01177978515625E-06	-1.91471531252319E-06	-211085.21875	0.000117746545583941
2	594	126.468421680698	0.625762939453125	0.625732421875	-3.055419921875E-06	-1.9118754153169E-06	-204794.25	0.000117441035399679
2	595	126.569129680444	0.615692138671875	0.61566162109375	-3.013916015625E-06	-1.85555234111234E-06	-204273	0.000117135423352011
2	596	126.669837680189	0.605621337890625	0.6055908203125	-2.90771484375E-06	-1.76088542502839E-06	-208270.359375	0.000116837240057066
2	597	126.770545679935	0.595550537109375	0.595489501953125	-2.76123046875E-06	-1.64428377047443E-06	-215660.921875	0.000116551789687946
2	598	126.871253679681	0.585479736328125	0.585479736328125	-2.59765625E-06	-1.52087511651189E-06	-225387.6875	0.000116281946247909
2	599	126.971961679427	0.575408935546875	0.575347900390625	-2.4310302734375E-06	-1.3986881413075E-06	-236668.34375	0.000116028735646978
2	600	127.072669679172	0.565338134765625	0.5653076171875	-2.27081298828125E-06	-1.28370788843313E-06	-248945.03125	0.000115791975986212
2	601	127.173377678918	0.555267333984375	0.555206298828125	-2.1221923828125E-06	-1.17825459255982E-06	-261619.203125	0.000115570772322826
2	602	127.274085678664	0.545196533203125	0.545166015625	-1.98638916015625E-06	-1.08291192191245E-06	-274450.75	0.000115363887744024
2	603	127.37479367841	0.535125732421875	0.535125732421875	-1.8634033203125E-06	-9.97155098048097E-07	-287176.53125	0.00011517003440531
2	604	127.475501678155	0.525054931640625	0.525054931640625	-1.75140380859375E-06	-9.19583158065507E-07	-299790.90625	0.000114988019049633
2	605	127.576209677901	0.514984130859375	0.514984130859375	-1.65130615234375E-06	-8.5039641817275E-07	-311864.71875	0.000114816677523777
2	606	127.676917677647	0.504913330078125	0.504913330078125	-1.56005859375E-06	-7.87694375503634E-07	-323650.25	0.000114654969365802
2	607	127.777625677393	0.494842529296875	0.494873046875	-1.47796630859375E-06	-7.31405691567488E-07	-334833.78125	0.000114501992356963
2	608	127.878333677138	0.484771728515625	0.484710693359375	-1.40289306640625E-06	-6.79997299357638E-07	-345507.9375	0.000114356931590009
2	609	127.979041676884	0.474700927734375	0.47467041015625	-1.3348388671875E-06	-6.33608522093709E-07	-355601.28125	0.000114219074021094
2	610	128.07974967663	0.464630126953125	0.464630126953125	-1.27288818359375E-06	-5.91422178786161E-07	-365020.375	0.00011408776481403
2	611	128.180457676375	0.454559326171875	0.45458984375	-1.21551513671875E-06	-5.52560834421456E-07	-373989.46875	0.000113962465547957
2	612	128.281165676121	0.444488525390625	0.4444580078125	-1.1627197265625E-06	-5.16780119141913E-07	-382257.21875	0.000113842710561585
2	613	128.381873675867	0.434417724609375	0.434417724609375	-1.11358642578125E-06	-4.83761709801911E-07	-390106.875	0.000113728092401288
2	614	128.482581675613	0.424346923828125	0.424346923828125	-1.06719970703125E-06	-4.528629062861E-07	-397626.53125	0.000113618276373018
2	615	128.583289675358	0.414276123046875	0.414276123046875	-1.0247802734375E-06	-4.24541980237336E-07	-404258.5	0.000113512942334637
2	616	128.683997675104	0.404205322265625	0.40423583984375	-9.844970703125E-07	-3.97969017740252E-07	-410601.34375	0.000113411762868054
2	617	128.78470567485	0.394134521484375	0.394195556640625	-9.4757080078125E-07	-3.73528195041217E-07	-416006.46875	0.000113314476038795
2	618	128.885413674596	0.384063720703125	0.38409423828125	-9.1278076171875E-07	-3.50593836628832E-07	-420795.71875	0.000113220798084512
2	619	128.986121674341	0.373992919921875	0.373992919921875	-8.80126953125E-07	-3.2916125292104E-07	-424930.65625	0.000113130518002436
2	620	129.086829674087	0.363922119140625	0.36395263671875	-8.489990234375E-07	-3.08995424802561E-07	-428684.40625	0.000113043453893624
2	621	129.187537673833	0.353851318359375	0.353790283203125	-8.197021484375E-07	-2.90002645897403E-07	-431608.375	0.000112959423859138
2	622	129.288245673579	0.343780517578125	0.343780517578125	-7.916259765625E-07	-2.72145570079374E-07	-434271.40625	0.000112878289655782
2	623	129.388953673324	0.333709716796875	0.333740234375	-7.647705078125E-07	-2.55234681389993E-07	-436392.65625	0.00011279992031632
2	624	129.48966167307	0.323638916015625	0.32366943359375	-7.4005126953125E-07	-2.39531971146789E-07	-437360.84375	0.000112724141217768
2	625	129.590369672816	0.313568115234375	0.313568115234375	-7.1624755859375E-07	-2.24592398012646E-07	-437792.9375	0.000112650814116932
2	626	129.691077672562	0.303497314453125	0.30352783203125	-6.94885253906249E-07	-2.10917008303113E-07	-436802.84375	0.000112579757114872
2	627	129.791785672307	0.293426513671875	0.293426513671875	-6.7474365234375E-07	-1.97987674255273E-07	-434871.09375	0.000112510788312647
2	628	129.892493672053	0.283355712890625	0.28338623046875	-6.55517578125001E-07	-1.85764648108488E-07	-432309.125	0.000112443805846851
2	629	129.993201671799	0.273284912109375	0.273223876953125	-6.3812255859375E-07	-1.74350304860127E-07	-428168.375	0.000112378664198332
2	630	130.093909671544	0.263214111328125	0.263214111328125	-6.21643066406249E-07	-1.63625216487162E-07	-423416.8125	0.000112315232399851
2	631	130.19461767129	0.253143310546875	0.253143310546875	-6.060791015625E-07	-1.53424863924556E-07	-417673.71875	0.000112253415863961
2	632	130.295325671036	0.243072509765625	0.24310302734375	-5.92651367187499E-07	-1.44075343655459E-07	-410195.6875	0.000112193054519594
2	633	130.396033670782	0.233001708984375	0.233001708984375	-5.80444335937499E-07	-1.35244505372611E-07	-401419.59375	0.000112133981019724
2	634	130.496741670527	0.222930908203125	0.222930908203125	-5.70068359375001E-07	-1.27085854728648E-07	-391059.96875	0.0001120760498452
2	635	130.597449670273	0.212860107421875	0.212890625	-5.60913085937501E-07	-1.19413130050816E-07	-379543	0.000112019100924954
2	636	130.698157670019	0.202789306640625	0.2027587890625	-5.53283691406251E-07	-1.12183123235354E-07	-366464.4375	0.000111962996015791
2	637	130.798865669765	0.192718505859375	0.1927490234375	-5.4779052734375E-07	-1.0558608920519E-07	-351866.28125	0.000111907553218771
2	638	130.89957366951	0.182647705078125	0.18267822265625	-5.44128417968751E-07	-9.94004096810386E-08	-335726.3125	0.00011185256880708
2	639	131.000281669256	0.172576904296875	0.172576904296875	-5.419921875E-07	-9.35353270392625E-08	-318412.1875	0.000111797875433695
2	640	131.100989669002	0.162506103515625	0.162506103515625	-5.42602539062501E-07	-8.81762289850485E-08	-299493.8125	0.000111743262095843
2	641	131.201697668748	0.152435302734375	0.1524658203125	-5.4595947265625E-07	-8.32401525485693E-08	-279262.1875	0.000111688452307135
2	642	131.302405668493	0.142364501953125	0.14239501953125	-5.535888671875E-07	-7.88282932262518E-08	-257221.625	0.000111633082269691
2	643	131.403113668239	0.132293701171875	0.13232421875	-5.65185546875E-07	-7.47877351159332E-08	-234125.28125	0.000111576751805842
2	644	131.503821667985	0.122222900390625	0.122283935546875	-5.816650390625E-07	-7.11282837073668E-08	-210230.859375	0.000111519002530258
2	645	131.604529667731	0.112152099609375	0.112213134765625	-6.04248046875E-07	-6.78045637414471E-08	-185707.078125	0.000111459288746119
2	646	131.705237667476	0.102081298828125	0.10211181640625	-6.33544921875E-07	-6.46924220859546E-08	-161175.34375	0.000111396955617238
2	647	131.805945667222	0.092010498046875	0.092071533203125	-6.72302246093751E-07	-6.18998967638618E-08	-136949.609375	0.000111331202788278
2	648	131.906653666968	0.081939697265625	0.08203125	-7.23876953125E-07	-5.93805324911045E-08	-113322.09375	0.00011126090248581
2	649	132.007361666713	0.071868896484375	0.071929931640625	-7.94677734375E-07	-5.71611131761074E-08	-90514.59375	0.000111184432171285
2	650	132.108069666459	0.061798095703125	0.061767578125	-8.88977050781251E-07	-5.49099574698175E-08	-69481.640625	0.000111099659989122
2	651	132.208777666205	0.051727294921875	0.05181884765625	-1.01409912109375E-06	-5.25494456837805E-08	-51098.40625	0.000111003828351386
2	652	132.309485665951	0.041656494140625	0.0417633056640625	-1.17156982421875E-06	-4.89286264837574E-08	-35647.3046875	0.000110893772216514
2	653	132.410193665696	0.031585693359375	0.0316864013671875	-1.3580322265625E-06	-4.30311537513717E-08	-23332.5859375	0.00011076639930252
2	654	132.510901665442	0.021514892578125	0.021624755859375	-1.5625E-06	-3.37886802981302E-08	-13839.84375	0.000110619337647222
2	655	132.611609665188	0.011444091796875	0.01151123046875	-1.77001953125E-06	-2.03751024940857E-08	-6503.44873046875	0.000110451532236766
2	656	132.712317664934	0.001373291015625	0.00148925781250001	-1.9586181640625E-06	-2.91688739828544E-09	-760.361450195313	0.000110263776150532
2	657	132.813025664679	-0.008697509765625	-0.0085906982421875	-2.1087646484375E-06	1.81157613354799E-08	4073.80615234375	0.000110058972495608
2	658	132.913733664425	-0.018768310546875	-0.01864013671875	-2.20794677734375E-06	4.11564258229191E-08	8442.294921875	0.000109841603261884
2	659	133.014441664171	-0.028839111328125	-0.028668212890625	-2.25372314453125E-06	6.46102122914272E-08	12720.3798828125	0.000109616943518631
2	660	133.115149663917	-0.038909912109375	-0.038787841796875	-2.25372314453125E-06	8.7417056704453E-08	17210.5625	0.000109389977296814
2	661	133.215857663662	-0.048980712890625	-0.048858642578125	-2.21893310546875E-06	1.08414056398942E-07	22018.98046875	0.000109164757304825
2	662	133.316565663408	-0.059051513671875	-0.0589599609375	-2.1630859375E-06	1.27535457750128E-07	27257.337890625	0.000108944106614217
2	663	133.417273663154	-0.069122314453125	-0.069061279296875	-2.09747314453125E-06	1.44854169548125E-07	32925.9453125	0.000108729567728005
2	664	133.5179816629	-0.079193115234375	-0.07916259765625	-2.0294189453125E-06	1.60654082037581E-07	39007.51953125	0.000108521766378544
2	665	133.618689662645	-0.089263916015625	-0.0892333984375	-1.96380615234375E-06	1.7523710482692E-07	45439.00390625	0.000108320688013919
2	666	133.719397662391	-0.099334716796875	-0.099212646484375	-1.9036865234375E-06	1.88869776707179E-07	52116.06640625	0.000108125947008375
2	667	133.820105662137	-0.109405517578125	-0.1092529296875	-1.8505859375E-06	2.02181936970192E-07	59036.94140625	0.000107936903077643
2	668	133.920813661882	-0.119476318359375	-0.119415283203125	-1.80419921875E-06	2.15448963558629E-07	66187.4140625	0.000107752872281708
2	669	134.021521661628	-0.129547119140625	-0.12945556640625	-1.76483154296875E-06	2.28467257556986E-07	73352.9296875	0.000107573156128637
2	670	134.122229661374	-0.139617919921875	-0.13946533203125	-1.73126220703125E-06	2.41451061810949E-07	80557.0234375	0.000107397114334162
2	671	134.22293766112	-0.149688720703125	-0.149505615234375	-1.70318603515625E-06	2.54635864394004E-07	87779.96875	0.000107224172097631
2	672	134.323645660865	-0.159759521484375	-0.159637451171875	-1.6802978515625E-06	2.68238466105686E-07	95005.453125	0.000107053805550095
2	673	134.424353660611	-0.169830322265625	-0.16973876953125	-1.661376953125E-06	2.82000087281631E-07	102167.5234375	0.000106885534478351
2	674	134.525061660357	-0.179901123046875	-0.17974853515625	-1.646728515625E-06	2.9599704021166E-07	109154.9296875	0.000106718958704732
2	675	134.625769660103	-0.189971923828125	-0.189849853515625	-1.63665771484375E-06	3.10719229901224E-07	115998.515625	0.000106553627119865
2	676	134.726477659848	-0.200042724609375	-0.199859619140625	-1.63055419921875E-06	3.2588192766525E-07	122571.59375	0.000106389110442251
2	677	134.827185659594	-0.189971923828125	-0.1898193359375	-1.43096923828125E-06	2.71625623327054E-07	132650.890625	0.000106234954728279
