Potential - Start -0.2 V, Upper Vertex 1.5 V, Lower Vertex -0.2 V, Stop -0.19 V; Scan - # end cross 5, Rate 0.1 Vps, Step 0.01 V 
Scan	Index	Time (s)	Potential applied (V)	WE(1).Potential (V)	WE(1).Current (A)	WE(1).Power (W)	WE(1).Resistance (Ω)	WE(1).Charge (C)
1	1	66.0925828331323	-0.189971923828125	-0.18975830078125	-2.67639160156249E-07	5.07867525811889E-08	709007.9375	0
1	2	66.193290832878	-0.179901123046875	-0.179718017578125	-2.337646484375E-07	4.20117167720946E-08	768799	-2.52476866080542E-08
1	3	66.2939988326237	-0.169830322265625	-0.16961669921875	-2.0599365234375E-07	3.49399620347413E-08	823407.4375	-4.73912749043848E-08
1	4	66.3947068323695	-0.159759521484375	-0.15966796875	-1.81884765625E-07	2.90411694692239E-08	877852.375	-6.69225030947018E-08
1	5	66.4954148321152	-0.149688720703125	-0.149627685546875	-1.59606933593751E-07	2.38816149078502E-08	937476.125	-8.41179783606094E-08
1	6	66.596122831861	-0.139617919921875	-0.139556884765625	-1.3916015625E-07	1.94207565584747E-08	1002850.9375	-9.91620936474646E-08
1	7	66.6968308316067	-0.129547119140625	-0.129425048828125	-1.19934082031251E-07	1.55224757492078E-08	1079134.875	-1.12208525138158E-07
1	8	66.7975388313524	-0.119476318359375	-0.119384765625	-1.019287109375E-07	1.21687344645238E-08	1171257.5	-1.23380203831402E-07
1	9	66.8982468310982	-0.109405517578125	-0.10931396484375	-8.23974609375E-08	9.00719232532765E-09	1326666.75	-1.32661767793252E-07
1	10	66.9989548308439	-0.099334716796875	-0.0992431640625	-5.950927734375E-08	5.90588866700159E-09	1667692.375	-1.39807340815423E-07
1	11	67.0996628305896	-0.089263916015625	-0.08917236328125	-3.29589843750006E-08	2.93903035242238E-09	2705555.75	-1.44463484730295E-07
1	12	67.2003708303354	-0.079193115234375	-0.079071044921875	-6.10351562499445E-10	4.82611346719342E-11	129550000	-1.46153837476959E-07
1	13	67.3010788300811	-0.069122314453125	-0.06903076171875	4.08935546875003E-08	-2.82291323649986E-09	-1688059.75	-1.4412540849662E-07
1	14	67.4017868298268	-0.059051513671875	-0.05902099609375	9.39941406250006E-08	-5.54762769056083E-09	-627922.0625	-1.37333273642071E-07
1	15	67.5024948295726	-0.048980712890625	-0.0488189697265625	1.62353515624999E-07	-7.92593102261208E-09	-300695.46875	-1.24425142189466E-07
1	16	67.6032028293183	-0.038909912109375	-0.0387420654296875	2.520751953125E-07	-9.76591341128596E-09	-153692.5	-1.03557006525534E-07
1	17	67.7039108290641	-0.028839111328125	-0.028704833984375	3.6773681640625E-07	-1.05558237706305E-08	-78058.0859375	-7.23469923968878E-08
1	18	67.8046188288098	-0.018768310546875	-0.018682861328125	5.1422119140625E-07	-9.60712398523356E-09	-36332.34375	-2.79368777000855E-08
1	19	67.9053268285555	-0.008697509765625	-0.008648681640625	6.9000244140625E-07	-5.96761129401102E-09	-12534.27734375	3.27005977851513E-08
1	20	68.0060348283013	0.001373291015625	0.0014923095703125	8.9141845703125E-07	1.33027233673033E-09	1674.08435058594	1.12331463242299E-07
1	21	68.106742828047	0.011444091796875	0.0114990234375	1.10382080078125E-06	1.26928600963083E-08	10417.4736328125	2.12799733390057E-07
1	22	68.2074508277927	0.021514892578125	0.021575927734375	1.30889892578125E-06	2.82407075502533E-08	16484.029296875	3.34289808279209E-07
1	23	68.3081588275385	0.031585693359375	0.0316619873046875	1.4849853515625E-06	4.70175862687938E-08	21321.4140625	4.74973063546713E-07
1	24	68.4088668272842	0.041656494140625	0.0417144775390625	1.61590576171875E-06	6.74066669148488E-08	25814.921875	6.31115312899055E-07
1	25	68.50957482703	0.051727294921875	0.05169677734375	1.69342041015625E-06	8.75443717518465E-08	30528.0234375	7.97753159531567E-07
1	26	68.6102828267757	0.061798095703125	0.061920166015625	1.7193603515625E-06	1.06463076576802E-07	36013.4921875	9.6960025075532E-07
1	27	68.7109908265214	0.071868896484375	0.0718994140625	1.70562744140625E-06	1.2263360815723E-07	42154.234375	1.14206216039747E-06
1	28	68.8116988262672	0.081939697265625	0.082000732421875	1.66534423828125E-06	1.36559435759409E-07	49239.51171875	1.3118039987603E-06
1	29	68.9124068260129	0.092010498046875	0.09210205078125	1.610107421875E-06	1.48294191149034E-07	57202.4296875	1.47673608807963E-06
1	30	69.0131148257586	0.102081298828125	0.102142333984375	1.54815673828125E-06	1.58132337446659E-07	65976.7421875	1.63576737577387E-06
1	31	69.1138228255044	0.112152099609375	0.11224365234375	1.48651123046875E-06	1.66851449989736E-07	75508.109375	1.78857499122387E-06
1	32	69.2145308252501	0.122222900390625	0.1221923828125	1.4276123046875E-06	1.74443343325947E-07	85592.140625	1.93531286640791E-06
1	33	69.3152388249958	0.132293701171875	0.132354736328125	1.37237548828125E-06	1.81640388063897E-07	96442.078125	2.07630341719778E-06
1	34	69.4159468247416	0.142364501953125	0.14239501953125	1.32232666015625E-06	1.88292730740613E-07	107685.2109375	2.21199229599733E-06
1	35	69.5166548244873	0.152435302734375	0.1524658203125	1.27777099609375E-06	1.94816394127884E-07	119321.71875	2.34291769629635E-06
1	36	69.6173628242331	0.162506103515625	0.16253662109375	1.2384033203125E-06	2.01285899947834E-07	131246.921875	2.46961712946359E-06
1	37	69.7180708239788	0.172576904296875	0.172607421875	1.20391845703125E-06	2.07805243235271E-07	143371.359375	2.59259786616894E-06
1	38	69.8187788237245	0.182647705078125	0.1826171875	1.17431640625E-06	2.14450352586937E-07	155509.359375	2.71235148829874E-06
1	39	69.9194868234703	0.192718505859375	0.192718505859375	1.14898681640625E-06	2.21431022850993E-07	167729.078125	2.82933910966676E-06
1	40	70.020194823216	0.202789306640625	0.202789306640625	1.12579345703125E-06	2.28298873139465E-07	180130.109375	2.94388337351847E-06
1	41	70.1209028229617	0.212860107421875	0.212860107421875	1.10443115234375E-06	2.35089331113159E-07	192732.796875	3.05618414131459E-06
1	42	70.2216108227075	0.222930908203125	0.222930908203125	1.08489990234375E-06	2.41857719629479E-07	205485.234375	3.16642558573221E-06
1	43	70.3223188224532	0.233001708984375	0.2330322265625	1.06719970703125E-06	2.48691918613986E-07	218358.59375	3.27479256156948E-06
1	44	70.4230268221989	0.243072509765625	0.243133544921875	1.0516357421875E-06	2.5568792239028E-07	231195.578125	3.38148424816609E-06
1	45	70.5237348219447	0.253143310546875	0.25311279296875	1.0369873046875E-06	2.62474770806875E-07	244084.75	3.48665480487398E-06
1	46	70.6244428216904	0.263214111328125	0.26312255859375	1.024169921875E-06	2.6948220011036E-07	256912.984375	3.59044224751415E-06
1	47	70.7251508214362	0.273284912109375	0.2733154296875	1.01348876953125E-06	2.77002101256585E-07	269677.8125	3.69304666492098E-06
1	48	70.8258588211819	0.283355712890625	0.2833251953125	1.0028076171875E-06	2.84120659443943E-07	282531.96875	3.79457515009562E-06
1	49	70.9265668209276	0.293426513671875	0.29339599609375	9.92431640625E-07	2.91175467737048E-07	295633.46875	3.89504339182167E-06
1	50	71.0272748206734	0.303497314453125	0.303436279296875	9.8297119140625E-07	2.98269128506945E-07	308692.96875	3.99451300836517E-06
1	51	71.1279828204191	0.313568115234375	0.31353759765625	9.735107421875E-07	3.05232219943719E-07	322068.96875	4.09302947446122E-06
1	52	71.2286908201648	0.323638916015625	0.323638916015625	9.6466064453125E-07	3.12201734686823E-07	335495.09375	4.19062416767702E-06
1	53	71.3293988199106	0.333709716796875	0.333709716796875	9.57336425781249E-07	3.19472462706472E-07	348581.46875	4.28740440838737E-06
1	54	71.4301068196563	0.343780517578125	0.343780517578125	9.503173828125E-07	3.26700586583684E-07	361753.375	4.38346251030453E-06
1	55	71.5308148194021	0.353851318359375	0.35382080078125	9.4573974609375E-07	3.34622370701254E-07	374120.6875	4.47893671662314E-06
1	56	71.6315228191478	0.363922119140625	0.36395263671875	9.4207763671875E-07	3.42871629754882E-07	386329.78125	4.57399573861039E-06
1	57	71.7322308188935	0.373992919921875	0.373931884765625	9.3902587890625E-07	3.51131717479802E-07	398212.53125	4.66871688331594E-06
1	58	71.8329388186393	0.384063720703125	0.384033203125	9.368896484375E-07	3.59796729298978E-07	409902.28125	4.76317654829472E-06
1	59	71.933646818385	0.394134521484375	0.394134521484375	9.3505859375E-07	3.68538849215838E-07	421507.84375	4.85743657918647E-06
1	60	72.0343548181307	0.404205322265625	0.4041748046875	9.33227539062501E-07	3.77187035383031E-07	433093.53125	4.95151243740111E-06
1	61	72.1350628178765	0.414276123046875	0.414306640625	9.3231201171875E-07	3.8626305354228E-07	444386.25	5.04544959767372E-06
1	62	72.2357708176222	0.424346923828125	0.424346923828125	9.31701660156251E-07	3.95364736505144E-07	455453.65625	5.13931036039139E-06
1	63	72.3364788173679	0.434417724609375	0.4344482421875	9.33227539062501E-07	4.05439038786426E-07	465533.03125	5.2332170525915E-06
1	64	72.4371868171137	0.444488525390625	0.444549560546875	9.3505859375E-07	4.15679863863261E-07	475424.3125	5.32729245605879E-06
1	65	72.5378948168594	0.454559326171875	0.454559326171875	9.37499999999999E-07	4.26149370014173E-07	484863.28125	5.42158340977039E-06
1	66	72.6386028166052	0.464630126953125	0.464569091796875	9.4024658203125E-07	4.36809472148525E-07	494092.84375	5.51613538846141E-06
1	67	72.7393108163509	0.474700927734375	0.47467041015625	9.43603515624999E-07	4.47900646349808E-07	503040.125	5.61099477636162E-06
1	68	72.8400188160966	0.484771728515625	0.484710693359375	9.46655273437499E-07	4.58853918416935E-07	512024.53125	5.70617703488097E-06
1	69	72.9407268158424	0.494842529296875	0.494781494140625	9.5062255859375E-07	4.70350414616405E-07	520481.5625	5.80171263209195E-06
1	70	73.0414348155881	0.504913330078125	0.50494384765625	9.5428466796875E-07	4.8186012691076E-07	529133.375	5.89763203606708E-06
1	71	73.1421428153338	0.514984130859375	0.5150146484375	9.58251953125E-07	4.93513766741671E-07	537452.25	5.99393615630106E-06
1	72	73.2428508150796	0.525054931640625	0.52508544921875	9.6435546875E-07	5.06369019603881E-07	544493.6875	6.09074686508393E-06
1	73	73.3435588148253	0.535125732421875	0.53509521484375	9.7015380859375E-07	5.19124625952827E-07	551557.125	6.18815738562262E-06
1	74	73.4442668145711	0.545196533203125	0.545135498046875	9.75952148437501E-07	5.32026149357989E-07	558567.875	6.28615134701249E-06
1	75	73.5449748143168	0.555267333984375	0.555206298828125	9.82666015625E-07	5.45582338418171E-07	565000.0625	6.3847755882307E-06
1	76	73.6456828140625	0.565338134765625	0.56536865234375	9.88159179687501E-07	5.58674230433098E-07	572143.3125	6.4840146478673E-06
1	77	73.7463908138083	0.575408935546875	0.57537841796875	9.94873046875E-07	5.72428461964591E-07	578343.5625	6.5838685259223E-06
1	78	73.847098813554	0.585479736328125	0.58544921875	1.0003662109375E-06	5.85663599395048E-07	585234.9375	6.68433676764835E-06
1	79	73.9478068132997	0.595550537109375	0.59552001953125	1.0076904296875E-06	6.00099838266033E-07	590975.125	6.7854502958653E-06
1	80	74.0485148130455	0.605621337890625	0.6055908203125	1.015625E-06	6.15053181718395E-07	596274.0625	6.88733234710526E-06
1	81	74.1492228127912	0.615692138671875	0.615631103515625	1.02447509765625E-06	6.30698707482225E-07	600923.4375	6.99005931892316E-06
1	82	74.2499308125369	0.625762939453125	0.62567138671875	1.03515625E-06	6.47667604880553E-07	604422.1875	7.09377036400838E-06
1	83	74.3506388122827	0.635833740234375	0.6357421875	1.04736328125E-06	6.65853008285922E-07	606993	7.19863328413339E-06
1	84	74.4513468120284	0.645904541015625	0.6458740234375	1.0595703125E-06	6.84348947288527E-07	609562.1875	7.30472584109521E-06
1	85	74.5520548117742	0.655975341796875	0.65594482421875	1.072998046875E-06	7.0382748162956E-07	611319.75	7.41210942578618E-06
1	86	74.6527628115199	0.666046142578125	0.665924072265625	1.08642578125E-06	7.23477057817945E-07	612949.4375	7.52084497435135E-06
1	87	74.7534708112656	0.676116943359375	0.676025390625	1.0992431640625E-06	7.43116288504098E-07	614991.6875	7.63090247346554E-06
1	88	74.8541788110114	0.686187744140625	0.6861572265625	1.11297607421875E-06	7.63676553106052E-07	616506.75	7.74229647504399E-06
1	89	74.9548868107571	0.696258544921875	0.696197509765625	1.1248779296875E-06	7.83137238613563E-07	618909.375	7.85498104960425E-06
1	90	75.0555948105028	0.706329345703125	0.706207275390625	1.13677978515625E-06	8.02802105681621E-07	621234.9375	7.96886433818145E-06
1	91	75.1563028102486	0.716400146484375	0.71636962890625	1.1492919921875E-06	8.23317861886608E-07	623313.875	8.08397726359544E-06
1	92	75.2570108099943	0.726470947265625	0.7264404296875	1.160888671875E-06	8.43316399823379E-07	625762.375	8.20030436443631E-06
1	93	75.35771880974	0.736541748046875	0.736419677734375	1.173095703125E-06	8.63890761593211E-07	627757.5625	8.3178292697994E-06
1	94	75.4584268094858	0.746612548828125	0.746490478515625	1.1871337890625E-06	8.86184068349394E-07	628817.5	8.43667658045888E-06
1	95	75.5591348092315	0.756683349609375	0.7568359375	1.20361328125E-06	9.10937728804129E-07	628803.25	8.55706002766965E-06
1	96	75.6598428089773	0.766754150390625	0.76629638671875	1.22589111328125E-06	9.39395931709441E-07	625093.375	8.67939525051042E-06
1	97	75.760550808723	0.776824951171875	0.77728271484375	1.25457763671875E-06	9.75161469796149E-07	619557.3125	8.8042970673996E-06
1	98	75.8612588084687	0.786895751953125	0.78704833984375	1.29486083984375E-06	1.01911803085386E-06	607824.6875	8.93267133506015E-06
1	99	75.9619668082145	0.796966552734375	0.79681396484375	1.3470458984375E-06	1.07334494714451E-06	591526.9375	9.06570221559377E-06
1	100	76.0626748079602	0.807037353515625	0.806884765625	1.412353515625E-06	1.13960652470269E-06	571305.125	9.20464844966773E-06
1	101	76.1633828077059	0.817108154296875	0.8172607421875	1.48956298828125E-06	1.21736127312033E-06	548658.0625	9.35077241592808E-06
1	102	76.2640908074517	0.827178955078125	0.8270263671875	1.57684326171875E-06	1.30409091525507E-06	524482.3125	9.50517824094277E-06
1	103	76.3647988071974	0.837249755859375	0.83770751953125	1.66595458984375E-06	1.3955826716483E-06	502839.375	9.66846528172027E-06
1	104	76.4655068069432	0.847320556640625	0.84808349609375	1.7510986328125E-06	1.48507785979746E-06	484315.09375	9.84052803687518E-06
1	105	76.5662148066889	0.857391357421875	0.85784912109375	1.82159423828125E-06	1.5626529830115E-06	470933.15625	1.00204269983806E-05
1	106	76.6669228064346	0.867462158203125	0.86700439453125	1.87530517578125E-06	1.6258977666439E-06	462327.125	1.02065805549501E-05
1	107	76.7676308061804	0.877532958984375	0.87799072265625	1.90887451171875E-06	1.67597409017617E-06	459952.03125	1.03971296994132E-05
1	108	76.8683388059261	0.887603759765625	0.88775634765625	1.92474365234375E-06	1.70870339388784E-06	461233.5625	1.05901672213804E-05
1	109	76.9690468056718	0.897674560546875	0.8978271484375	1.92596435546875E-06	1.72918316820869E-06	466170.15625	1.07840660348302E-05
1	110	77.0697548054176	0.907745361328125	0.90789794921875	1.91864013671875E-06	1.74192928170669E-06	473198.6875	1.09776574390708E-05
1	111	77.1704628051633	0.917816162109375	0.9173583984375	1.90643310546875E-06	1.74888248238858E-06	481190.96875	1.1170264770044E-05
1	112	77.271170804909	0.927886962890625	0.92803955078125	1.8939208984375E-06	1.75763341303536E-06	490009.6875	1.13616279122652E-05
1	113	77.3718788046548	0.937957763671875	0.93841552734375	1.88690185546875E-06	1.77069796336582E-06	497331.40625	1.15520078907139E-05
1	114	77.4725868044005	0.948028564453125	0.94818115234375	1.88568115234375E-06	1.78796722138941E-06	502832.1875	1.17419722300838E-05
1	115	77.5732948041463	0.958099365234375	0.95794677734375	1.8927001953125E-06	1.81310610969376E-06	506127.0625	1.1932228517253E-05
1	116	77.674002803892	0.968170166015625	0.9686279296875	1.91131591796875E-06	1.85135388619528E-06	506785.90625	1.21237762868986E-05
1	117	77.7747108036377	0.978240966796875	0.97808837890625	1.939697265625E-06	1.89719537502242E-06	504247.9375	1.23176905617584E-05
1	118	77.8754188033835	0.988311767578125	0.9881591796875	1.97662353515625E-06	1.95321854334907E-06	499922.8125	1.2514892659965E-05
1	119	77.9761268031292	0.998382568359375	0.99884033203125	2.017822265625E-06	2.01548232325877E-06	495009.09375	1.27160292322515E-05
1	120	78.0768348028749	1.00845336914063	1.0089111328125	2.0574951171875E-06	2.07582957045815E-06	490358.96875	1.29212376123178E-05
1	121	78.1775428026207	1.01852416992188	1.0186767578125	2.09136962890625E-06	2.13042972063704E-06	487085.9375	1.31301494548097E-05
1	122	78.2782508023664	1.02859497070313	1.0284423828125	2.11517333984375E-06	2.17533374780032E-06	486221.375	1.33419653138844E-05
1	123	78.3789588021122	1.03866577148438	1.038818359375	2.1258544921875E-06	2.20837659981044E-06	488659.1875	1.35555183078395E-05
1	124	78.4796668018579	1.04873657226563	1.04888916015625	2.125244140625E-06	2.22914536607277E-06	493538.21875	1.37695778903435E-05
1	125	78.5803748016036	1.05880737304688	1.0589599609375	2.11639404296875E-06	2.2411763893615E-06	500360.5	1.39831618071184E-05
1	126	78.6810828013494	1.06887817382813	1.0687255859375	2.100830078125E-06	2.24521068048489E-06	508715.875	1.41955160870566E-05
1	127	78.7817908010951	1.07894897460938	1.0791015625	2.08160400390625E-06	2.24626205636014E-06	518399.0625	1.44061177707044E-05
1	128	78.8824988008408	1.08901977539063	1.08856201171875	2.06024169921875E-06	2.24270092985535E-06	528366.1875	1.46146767292521E-05
1	129	78.9832068005866	1.09909057617188	1.09893798828125	2.03857421875E-06	2.24026666728605E-06	539071.875	1.48210683619254E-05
1	130	79.0839148003323	1.10916137695313	1.109619140625	2.01812744140625E-06	2.23935285248444E-06	549826.125	1.50253390529542E-05
1	131	79.184622800078	1.11923217773438	1.119384765625	1.99951171875E-06	2.23822280531749E-06	559829.125	1.52276434164378E-05
1	132	79.2853307998238	1.12930297851563	1.129150390625	1.983642578125E-06	2.23983079195023E-06	569230.8125	1.54282115545357E-05
1	133	79.3860387995695	1.13937377929688	1.1395263671875	1.96990966796875E-06	2.24476389121264E-06	578466.3125	1.56272890308173E-05
1	134	79.4867467993153	1.14944458007813	1.14898681640625	1.959228515625E-06	2.25112762564095E-06	586448.625	1.58251368702622E-05
1	135	79.587454799061	1.15951538085938	1.15997314453125	1.95037841796875E-06	2.26238648792787E-06	594742.625	1.60220006364398E-05
1	136	79.6881627988067	1.16958618164063	1.16943359375	1.94305419921875E-06	2.27227292270982E-06	601853.3125	1.62180513143539E-05
1	137	79.7888707985525	1.17965698242188	1.18011474609375	1.9366455078125E-06	2.28546400649066E-06	609360.25	1.64134089573054E-05
1	138	79.8895787982982	1.18972778320313	1.18988037109375	1.93206787109375E-06	2.29892953029776E-06	615858.5	1.66082136274781E-05
1	139	79.9902867980439	1.19979858398438	1.1993408203125	1.9287109375E-06	2.31318153964821E-06	621835.5	1.68026199389715E-05
1	140	80.0909947977897	1.20986938476563	1.209716796875	1.92718505859375E-06	2.3313480141951E-06	627711.8125	1.6996778867906E-05
1	141	80.1917027975354	1.21994018554688	1.2200927734375	1.92718505859375E-06	2.35134439208196E-06	633095.8125	1.71908632182749E-05
1	142	80.2924107972811	1.23001098632813	1.23016357421875	1.92962646484375E-06	2.37375616052304E-06	637513.8125	1.73850676219445E-05
1	143	80.3931187970269	1.24008178710938	1.2396240234375	1.93359375E-06	2.39692917602952E-06	641098.5	1.75795976247173E-05
1	144	80.4938267967726	1.25015258789063	1.25030517578125	1.93817138671875E-06	2.42330565924931E-06	645095.25	1.77745550899999E-05
1	145	80.5945347965184	1.26022338867188	1.2603759765625	1.94305419921875E-06	2.44897887569095E-06	648657.125	1.79699909494957E-05
1	146	80.6952427962641	1.27029418945313	1.2701416015625	1.9476318359375E-06	2.47376806328248E-06	652146.6875	1.81659033842152E-05
1	147	80.7959507960098	1.28036499023438	1.28021240234375	1.95220947265625E-06	2.49924278250546E-06	655776.125	1.83622760232538E-05
1	148	80.8966587957556	1.29043579101563	1.29058837890625	1.9561767578125E-06	2.5246188215533E-06	659750.4375	1.85590779437916E-05
1	149	80.9973667955013	1.30050659179688	1.30126953125	1.9610595703125E-06	2.55186705544475E-06	663554.3125	1.87563273357227E-05
1	150	81.098074795247	1.31057739257813	1.31103515625	1.9659423828125E-06	2.57741953646473E-06	666873.625	1.89540678547928E-05
1	151	81.1987827949928	1.32064819335938	1.31988525390625	1.97174072265625E-06	2.60247134065139E-06	669401.0625	1.91523449757369E-05
1	152	81.2994907947385	1.33071899414063	1.33056640625	1.9775390625E-06	2.63124707089446E-06	672839.5	1.9351207811269E-05
1	153	81.4001987944843	1.34078979492188	1.34063720703125	1.98272705078125E-06	2.65811763711099E-06	676158.1875	1.95506218005903E-05
1	154	81.50090679423	1.35086059570313	1.3507080078125	1.9866943359375E-06	2.68344388132391E-06	679877.125	1.97504978132201E-05
1	155	81.6016147939757	1.36093139648438	1.3604736328125	1.99005126953125E-06	2.70741224994708E-06	683637.5	1.99507430806989E-05
1	156	81.7023227937215	1.37100219726563	1.370849609375	1.99371337890625E-06	2.7330811462889E-06	687586.125	2.01513412321219E-05
1	157	81.8030307934672	1.38107299804688	1.38092041015625	1.99737548828125E-06	2.75821639661444E-06	691367.5	2.03523086383939E-05
1	158	81.9037387932129	1.39114379882813	1.39129638671875	2.00225830078125E-06	2.78573475043231E-06	694863.625	2.05537071451545E-05
1	159	82.0044467929587	1.40121459960938	1.40106201171875	2.008056640625E-06	2.81341181107564E-06	697720.375	2.07556422537891E-05
1	160	82.1051547927044	1.41128540039063	1.4111328125	2.0135498046875E-06	2.84138604911277E-06	700818.5	2.09581467061071E-05
1	161	82.2058627924501	1.42135620117188	1.4215087890625	2.02056884765625E-06	2.87225634565402E-06	703519.0625	2.11612805287587E-05
1	162	82.3065707921959	1.43142700195313	1.43096923828125	2.0269775390625E-06	2.90054231300019E-06	705962.125	2.13650910154684E-05
1	163	82.4072787919416	1.44149780273438	1.44195556640625	2.03338623046875E-06	2.93205243906414E-06	709140.0625	2.15695454244269E-05
1	164	82.5079867916874	1.45156860351563	1.4520263671875	2.04010009765625E-06	2.96227904073021E-06	711742.6875	2.17746619455284E-05
1	165	82.6086947914331	1.46163940429688	1.46148681640625	2.04742431640625E-06	2.99228349831537E-06	713817.3125	2.19804860535078E-05
1	166	82.7094027911788	1.47171020507813	1.47125244140625	2.056884765625E-06	3.02619673675508E-06	715281.875	2.21871541725704E-05
1	167	82.8101107909246	1.48178100585938	1.48162841796875	2.0684814453125E-06	3.06472065858543E-06	716288.0625	2.23948827624554E-05
1	168	82.9108187906703	1.49185180664063	1.49139404296875	2.0831298828125E-06	3.10676750814309E-06	715939.0625	2.26039319386473E-05
1	169	83.011526790416	1.50192260742188	1.50177001953125	2.099609375E-06	3.15313013743435E-06	715261.6875	2.28145509026945E-05
1	170	83.1122347901618	1.49185180664063	1.49169921875	1.95648193359375E-06	2.91848232336633E-06	762439.625	2.30187906709034E-05
1	171	83.2129427899075	1.48178100585938	1.48223876953125	1.85394287109375E-06	2.74798594546155E-06	799506.1875	2.32106613111682E-05
1	172	83.3136507896533	1.47171020507813	1.4715576171875	1.7724609375E-06	2.60827823694854E-06	830234.1875	2.3393264200422E-05
1	173	83.414358789399	1.46163940429688	1.46240234375	1.70379638671875E-06	2.49163576881983E-06	858319.9375	2.3568309188704E-05
1	174	83.5150667891447	1.45156860351563	1.451416015625	1.6448974609375E-06	2.3874304133642E-06	882374.75	2.37369276874233E-05
1	175	83.6157747888905	1.44149780273438	1.441650390625	1.5936279296875E-06	2.29745432989148E-06	904634.25	2.39000019064406E-05
1	176	83.7164827886362	1.43142700195313	1.43096923828125	1.5484619140625E-06	2.21580125980836E-06	924123	2.4058217604761E-05
1	177	83.8171907883819	1.42135620117188	1.42120361328125	1.5069580078125E-06	2.14169403989217E-06	943094.4375	2.42120713664917E-05
1	178	83.9178987881277	1.41128540039063	1.4117431640625	1.47064208984375E-06	2.07616881198192E-06	959950.25	2.43620052060578E-05
1	179	84.0186067878734	1.40121459960938	1.40106201171875	1.43585205078125E-06	2.01171769731445E-06	975770.5	2.45083574554883E-05
1	180	84.1193147876191	1.39114379882813	1.3916015625	1.40228271484375E-06	1.95141888070793E-06	992383.0625	2.46512699959567E-05
1	181	84.2200227873649	1.38107299804688	1.38092041015625	1.36993408203125E-06	1.89176978437899E-06	1008019.625	2.47908610617742E-05
1	182	84.3207307871106	1.37100219726563	1.37115478515625	1.33941650390625E-06	1.83654731245042E-06	1023695.625	2.49272889050189E-05
1	183	84.4214387868564	1.36093139648438	1.36138916015625	1.31103515625E-06	1.78482900992094E-06	1038407.8125	2.50607499765465E-05
1	184	84.5221467866021	1.35086059570313	1.3507080078125	1.28448486328125E-06	1.73496391653316E-06	1051556.25	2.51914443651913E-05
1	185	84.6228547863478	1.34078979492188	1.34063720703125	1.26068115234375E-06	1.69011593698087E-06	1063423	2.53196030826075E-05
1	186	84.7235627860936	1.33071899414063	1.33056640625	1.23779296875E-06	1.64696575666312E-06	1074950.75	2.54454116657143E-05
1	187	84.8242707858393	1.32064819335938	1.32080078125	1.2164306640625E-06	1.60666252213559E-06	1085800.375	2.55689919868018E-05
1	188	84.924978785585	1.31057739257813	1.3104248046875	1.19598388671875E-06	1.56724684075016E-06	1095687.75	2.569046591816E-05
1	189	85.0256867853308	1.30050659179688	1.3006591796875	1.17584228515625E-06	1.52937002440012E-06	1106151.125	2.58098971244181E-05
1	190	85.1263947850765	1.29043579101563	1.29058837890625	1.1572265625E-06	1.49350307765417E-06	1115242.625	2.59273765550461E-05
1	191	85.2271027848223	1.28036499023438	1.280517578125	1.13922119140625E-06	1.45879266710836E-06	1124029	2.60430115304189E-05
1	192	85.327810784568	1.27029418945313	1.27044677734375	1.12213134765625E-06	1.4256080476116E-06	1132173	2.61568802670809E-05
1	193	85.4285187843137	1.26022338867188	1.2603759765625	1.10748291015625E-06	1.39584471980925E-06	1138054.625	2.62691501120571E-05
1	194	85.5292267840595	1.25015258789063	1.2506103515625	1.09344482421875E-06	1.36747337364795E-06	1143734.375	2.63799756794469E-05
1	195	85.6299347838052	1.24008178710938	1.23992919921875	1.08062744140625E-06	1.33990147332952E-06	1147416	2.64894479187205E-05
1	196	85.7306427835509	1.23001098632813	1.23016357421875	1.06903076171875E-06	1.31508272716019E-06	1150728	2.65976923401468E-05
1	197	85.8313507832967	1.21994018554688	1.21978759765625	1.05712890625E-06	1.28947272060032E-06	1153868.375	2.67047525994712E-05
1	198	85.9320587830424	1.20986938476563	1.209716796875	1.044921875E-06	1.26405950595654E-06	1157710.25	2.68105995928636E-05
1	199	86.0327667827881	1.19979858398438	1.199951171875	1.0321044921875E-06	1.23847496524832E-06	1162625.625	2.69151860265993E-05
1	200	86.1334747825339	1.18972778320313	1.1895751953125	1.0198974609375E-06	1.21324467272643E-06	1166367.375	2.70185137196677E-05
1	201	86.2341827822796	1.17965698242188	1.17950439453125	1.00738525390625E-06	1.1882152648468E-06	1170857.375	2.71205954049947E-05
1	202	86.3348907820254	1.16958618164063	1.16973876953125	9.95788574218751E-07	1.1648124882413E-06	1174685.875	2.72214620054001E-05
1	203	86.4355987817711	1.15951538085938	1.15936279296875	9.8419189453125E-07	1.14103545456601E-06	1177984.5	2.73211626335979E-05
1	204	86.5363067815168	1.14944458007813	1.14898681640625	9.72900390625001E-07	1.11784970613371E-06	1180991.25	2.74197100225138E-05
1	205	86.6370147812626	1.13937377929688	1.13922119140625	9.5947265625E-07	1.09305165096885E-06	1187340.875	2.75170132226776E-05
1	206	86.7377227810083	1.12930297851563	1.12945556640625	9.45434570312501E-07	1.06782624698099E-06	1194641.75	2.76129321719054E-05
1	207	86.838430780754	1.11923217773438	1.1187744140625	9.28955078125E-07	1.03929119177337E-06	1204336.5	2.77073158940766E-05
1	208	86.9391387804998	1.10916137695313	1.1090087890625	9.1094970703125E-07	1.0102511396326E-06	1217420.5	2.77999624813674E-05
1	209	87.0398467802455	1.09909057617188	1.0992431640625	8.9141845703125E-07	9.79885612650833E-07	1233139.375	2.78907191386679E-05
1	210	87.1405547799912	1.08901977539063	1.0888671875	8.697509765625E-07	9.47043304222461E-07	1251929.875	2.7979400329059E-05
1	211	87.241262779737	1.07894897460938	1.0791015625	8.4503173828125E-07	9.11875019937725E-07	1276995.375	2.80657459370559E-05
1	212	87.3419707794827	1.06887817382813	1.0687255859375	8.15429687499999E-07	8.71470547281206E-07	1310628.875	2.81493576039793E-05
1	213	87.4426787792285	1.05880737304688	1.05865478515625	7.80029296875E-07	8.25781739877129E-07	1357198.75	2.82296950899763E-05
1	214	87.5433867789742	1.04873657226563	1.048583984375	7.366943359375E-07	7.72485805100587E-07	1423363.75	2.8306068998063E-05
1	215	87.6440947787199	1.03866577148438	1.03912353515625	6.84509277343751E-07	7.11289658283931E-07	1518056.25	2.83776316791773E-05
1	216	87.7448027784657	1.02859497070313	1.02874755859375	6.24694824218749E-07	6.42653219529166E-07	1646800.25	2.84435554931406E-05
1	217	87.8455107782114	1.01852416992188	1.01806640625	5.59387207031251E-07	5.69493352031714E-07	1819967.25	2.850317832781E-05
1	218	87.9462187779571	1.00845336914063	1.00860595703125	4.9407958984375E-07	4.98331587550638E-07	2041383.625	2.85562255157856E-05
1	219	88.0469267777029	0.998382568359375	0.99884033203125	4.3487548828125E-07	4.34371173696491E-07	2296842	2.86030008282978E-05
1	220	88.1476347774486	0.988311767578125	0.98846435546875	3.8726806640625E-07	3.82800664056049E-07	2552403.5	2.86443992081331E-05
1	221	88.2483427771944	0.978240966796875	0.9783935546875	3.5430908203125E-07	3.46653706628786E-07	2761412.75	2.86817412415985E-05
1	222	88.3490507769401	0.968170166015625	0.968017578125	3.338623046875E-07	3.23184565331758E-07	2899451.75	2.87163929897361E-05
1	223	88.4497587766858	0.958099365234375	0.9576416015625	3.24096679687499E-07	3.10368449163434E-07	2954802.25	2.87495240627322E-05
1	224	88.5504667764316	0.948028564453125	0.94818115234375	3.17993164062499E-07	3.01515143519282E-07	2981765.75	2.87818565993803E-05
1	225	88.6511747761773	0.937957763671875	0.93780517578125	3.131103515625E-07	2.93636503556627E-07	2995126.75	2.88136343442602E-05
1	226	88.751882775923	0.927886962890625	0.92803955078125	3.0548095703125E-07	2.83498394537673E-07	3037962.25	2.88447827188065E-05
1	227	88.8525907756688	0.917816162109375	0.91766357421875	2.9266357421875E-07	2.68566708427898E-07	3135558	2.88749015453504E-05
1	228	88.9532987754145	0.907745361328125	0.90789794921875	2.72521972656251E-07	2.47422121901764E-07	3331467.25	2.89033614535583E-05
1	229	89.0540067751602	0.897674560546875	0.8978271484375	2.4139404296875E-07	2.16730128954623E-07	3719342.5	2.89292383968132E-05
1	230	89.154714774906	0.887603759765625	0.887451171875	1.96228027343751E-07	1.74142797959576E-07	4522550.5	2.89512754534371E-05
1	231	89.2554227746517	0.877532958984375	0.877685546875	1.3580322265625E-07	1.19192520742217E-07	6462921.5	2.89679937850451E-05
1	232	89.3561307743975	0.867462158203125	0.8673095703125	6.04248046875006E-08	5.240701028697E-08	14353536	2.89778745354852E-05
1	233	89.4568387741432	0.857391357421875	0.85723876953125	-2.80761718749994E-08	-2.40679813856559E-08	-30532610	2.89795043499907E-05
1	234	89.5575467738889	0.847320556640625	0.8477783203125	-1.1932373046875E-07	-1.01160068766148E-07	-7104859.5	2.89720810542349E-05
1	235	89.6582547736347	0.837249755859375	0.83709716796875	-2.0782470703125E-07	-1.73969468164614E-07	-4027900.25	2.89556082861964E-05
1	236	89.7589627733804	0.827178955078125	0.82733154296875	-2.81372070312499E-07	-2.3278796845716E-07	-2940347.25	2.89309755316935E-05
1	237	89.8596707731261	0.817108154296875	0.816650390625	-3.3599853515625E-07	-2.74393329391387E-07	-2430517.75	2.88998890027869E-05
1	238	89.9603787728719	0.807037353515625	0.80718994140625	-3.680419921875E-07	-2.9707979365412E-07	-2193200.75	2.88644368993118E-05
1	239	90.0610867726176	0.796966552734375	0.79681396484375	-3.80554199218749E-07	-3.03230876852467E-07	-2093825.25	2.88267419819022E-05
1	240	90.1617947723634	0.786895751953125	0.787353515625	-3.77197265625E-07	-2.96987593628728E-07	-2087378.625	2.87885868601734E-05
1	241	90.2625027721091	0.776824951171875	0.777587890625	-3.6346435546875E-07	-2.82625478575937E-07	-2139378.75	2.87512903014431E-05
1	242	90.3632107718548	0.766754150390625	0.76690673828125	-3.43017578125E-07	-2.63062503336187E-07	-2235765.25	2.87157163256779E-05
1	243	90.4639187716006	0.756683349609375	0.7568359375	-3.19824218750001E-07	-2.42054454702156E-07	-2366412.25	2.86823396891123E-05
1	244	90.5646267713463	0.746612548828125	0.7464599609375	-2.95410156250001E-07	-2.20511850557159E-07	-2526859.5	2.86513604805805E-05
1	245	90.665334771092	0.736541748046875	0.736480712890625	-2.70690917968749E-07	-1.99358638042213E-07	-2720744	2.86228550976375E-05
1	246	90.7660427708378	0.726470947265625	0.72637939453125	-2.471923828125E-07	-1.79555456725211E-07	-2938518.5	2.85967780655483E-05
1	247	90.8667507705835	0.716400146484375	0.71636962890625	-2.2552490234375E-07	-1.61559185585247E-07	-3176454.75	2.85729747702135E-05
1	248	90.9674587703292	0.706329345703125	0.706268310546875	-2.06909179687501E-07	-1.46133402267878E-07	-3413421.75	2.85511996480636E-05
1	249	91.068166770075	0.696258544921875	0.69622802734375	-1.92871093749999E-07	-1.34282259978136E-07	-3609810.25	2.85310688923346E-05
1	250	91.1688747698207	0.686187744140625	0.68609619140625	-1.82189941406249E-07	-1.24999814943294E-07	-3765829.25	2.8512184144347E-05
1	251	91.2695827695665	0.676116943359375	0.676116943359375	-1.74560546874999E-07	-1.18023336881379E-07	-3873252	2.84942198049976E-05
1	252	91.3702907693122	0.666046142578125	0.666015625	-1.6754150390625E-07	-1.11585258366631E-07	-3975227.75	2.8476993975346E-05
1	253	91.4709987690579	0.655975341796875	0.655914306640625	-1.605224609375E-07	-1.05288975760232E-07	-4086121.75	2.8460473913583E-05
1	254	91.5717067688037	0.645904541015625	0.64593505859375	-1.5228271484375E-07	-9.83647439056767E-08	-4241683.5	2.84447232843377E-05
1	255	91.6724147685494	0.635833740234375	0.635772705078125	-1.42822265625001E-07	-9.08024944124008E-08	-4451496	2.84298639599001E-05
1	256	91.7731227682951	0.625762939453125	0.625732421875	-1.33666992187501E-07	-8.36397688885882E-08	-4681278.5	2.84159414150054E-05
1	257	91.8738307680409	0.615692138671875	0.615631103515625	-1.25732421874999E-07	-7.74047848040027E-08	-4896359.5	2.84028792520985E-05
1	258	91.9745387677866	0.605621337890625	0.605621337890625	-1.19934082031251E-07	-7.26346414126056E-08	-5049618	2.8390508305165E-05
1	259	92.0752467675323	0.595550537109375	0.595550537109375	-1.15356445312501E-07	-6.87005936583773E-08	-5162698.5	2.83786612271797E-05
1	260	92.1759547672781	0.585479736328125	0.58544921875	-1.11083984375E-07	-6.5034029717026E-08	-5270329.5	2.83672598015983E-05
1	261	92.2766627670238	0.575408935546875	0.575347900390625	-1.0650634765625E-07	-6.12782002917811E-08	-5402006	2.83563022094313E-05
1	262	92.3773707667696	0.565338134765625	0.5653076171875	-1.007080078125E-07	-5.69310039111315E-08	-5613333.5	2.83458684862126E-05
1	263	92.4780787665153	0.555267333984375	0.555206298828125	-9.49096679687497E-08	-5.26944425871534E-08	-5849839.5	2.83360186585924E-05
1	264	92.578786766261	0.545196533203125	0.545196533203125	-8.85009765625E-08	-4.82504241006154E-08	-6160345	2.83267836493906E-05
1	265	92.6794947660068	0.535125732421875	0.535186767578125	-8.23974609375E-08	-4.40980265636881E-08	-6495185.5	2.83181780105224E-05
1	266	92.7802027657525	0.525054931640625	0.5250244140625	-7.72094726562506E-08	-4.05368574263321E-08	-6800000	2.83101398963481E-05
1	267	92.8809107654982	0.514984130859375	0.515045166015625	-7.29370117187503E-08	-3.75658544271573E-08	-7061506	2.8302580176387E-05
1	268	92.981618765244	0.504913330078125	0.504913330078125	-6.83593750000003E-08	-3.45155619640991E-08	-7386160.5	2.82954642898403E-05
1	269	93.0823267649897	0.494842529296875	0.494781494140625	-6.46972656249994E-08	-3.20110089546688E-08	-7647642	2.82887649518671E-05
1	270	93.1830347647355	0.484771728515625	0.4847412109375	-6.04248046875006E-08	-2.92903923337917E-08	-8022222.5	2.82824639725732E-05
1	271	93.2837427644812	0.474700927734375	0.4747314453125	-5.61523437500003E-08	-2.66572826035372E-08	-8454348	2.82765940937679E-05
1	272	93.3844507642269	0.464630126953125	0.46466064453125	-5.09643554687494E-08	-2.36811281695282E-08	-9117366	2.82712007901864E-05
1	273	93.4851587639727	0.454559326171875	0.45458984375	-4.66918945312506E-08	-2.1225661228641E-08	-9735948	2.82662840618286E-05
1	274	93.5858667637184	0.444488525390625	0.444427490234375	-4.24194335937503E-08	-1.88523614497171E-08	-10476978	2.82617966149701E-05
1	275	93.6865747634641	0.434417724609375	0.4344482421875	-3.93676757812503E-08	-1.71032166207397E-08	-11035660	2.82576784229605E-05
1	276	93.7872827632099	0.424346923828125	0.424285888671875	-3.69262695312497E-08	-1.56672950168968E-08	-11490082	2.82538367173402E-05
1	277	93.8879907629556	0.414276123046875	0.41424560546875	-3.54003906249997E-08	-1.46644563159271E-08	-11701724	2.82501951005543E-05
1	278	93.9886987627013	0.404205322265625	0.4041748046875	-3.38745117187497E-08	-1.36912232662212E-08	-11931532	2.82467062788783E-05
1	279	94.0894067624471	0.394134521484375	0.394134521484375	-3.23486328124997E-08	-1.27497123969533E-08	-12183963	2.82433720713016E-05
1	280	94.1901147621928	0.384063720703125	0.384002685546875	-3.0517578125E-08	-1.17188312387384E-08	-12583001	2.824020521075E-05
1	281	94.2908227619386	0.373992919921875	0.373931884765625	-2.86865234375003E-08	-1.07268061100285E-08	-13035106	2.8237225706107E-05
1	282	94.3915307616843	0.363922119140625	0.364013671875	-2.68554687500006E-08	-9.77575798088992E-09	-13554545	2.82344281004043E-05
1	283	94.49223876143	0.353851318359375	0.3538818359375	-2.65502929687494E-08	-9.39566646707135E-09	-13328736	2.82317396340659E-05
1	284	94.5929467611758	0.343780517578125	0.34368896484375	-2.65502929687494E-08	-9.12504294348082E-09	-12944828	2.82290657196427E-05
1	285	94.6936547609215	0.333709716796875	0.33380126953125	-2.77709960937497E-08	-9.26999366157588E-09	-12019780	2.82263299595797E-05
1	286	94.7943627606672	0.323638916015625	0.323699951171875	-2.86865234375003E-08	-9.28582633008546E-09	-11284043	2.8223486879142E-05
1	287	94.895070760413	0.313568115234375	0.313629150390625	-3.0517578125E-08	-9.57120160904879E-09	-10277001	2.82205055555096E-05
1	288	94.9957787601587	0.303497314453125	0.303466796875	-3.14331054687506E-08	-9.53890300081639E-09	-9654370	2.82173859886825E-05
1	289	95.0964867599045	0.293426513671875	0.293426513671875	-3.204345703125E-08	-9.4023997476711E-09	-9157143	2.82141900243005E-05
1	290	95.1971947596502	0.283355712890625	0.28338623046875	-3.29589843750006E-08	-9.34012156506014E-09	-8598148	2.82109176623635E-05
1	291	95.2979027593959	0.273284912109375	0.273284912109375	-3.41796874999994E-08	-9.34079213976702E-09	-7995536.5	2.82075361610623E-05
1	292	95.3986107591417	0.263214111328125	0.263214111328125	-3.57055664062494E-08	-9.39820843370853E-09	-7371795	2.82040164165664E-05
1	293	95.4993187588874	0.253143310546875	0.253204345703125	-3.814697265625E-08	-9.65897939408933E-09	-6637600	2.82002984022256E-05
1	294	95.6000267586331	0.243072509765625	0.2430419921875	-4.119873046875E-08	-1.00130206348581E-08	-5899259.5	2.81963039014954E-05
1	295	95.7007347583789	0.233001708984375	0.23297119140625	-4.39453125000003E-08	-1.0237991787676E-08	-5301389	2.81920165434713E-05
1	296	95.8014427581246	0.222930908203125	0.222930908203125	-4.69970703125003E-08	-1.04770991882219E-08	-4743506.5	2.81874363281531E-05
1	297	95.9021507578703	0.212860107421875	0.212860107421875	-4.94384765624994E-08	-1.05234789771202E-08	-4305555.5	2.81825796264457E-05
1	298	96.0028587576161	0.202789306640625	0.2027587890625	-5.12695312500006E-08	-1.0395347693759E-08	-3954762	2.8177510102978E-05
1	299	96.1035667573618	0.192718505859375	0.1927490234375	-5.46264648437503E-08	-1.05291979579647E-08	-3528491.5	2.81721768260468E-05
1	300	96.2042747571076	0.182647705078125	0.182647705078125	-5.82885742187497E-08	-1.06462740845359E-08	-3133507.75	2.81664906651713E-05
1	301	96.3049827568533	0.172576904296875	0.172607421875	-6.37817382812503E-08	-1.10092006622153E-08	-2706220.25	2.81603442999767E-05
1	302	96.405690756599	0.162506103515625	0.162506103515625	-7.04956054687497E-08	-1.1455965953644E-08	-2305195	2.81535831163637E-05
1	303	96.5063987563448	0.152435302734375	0.152435302734375	-7.99560546874995E-08	-1.21881251757827E-08	-1906488.625	2.8146007025498E-05
1	304	96.6071067560905	0.142364501953125	0.142364501953125	-9.27734375000003E-08	-1.32076438674744E-08	-1534539.5	2.81373104371596E-05
1	305	96.7078147558362	0.132293701171875	0.13238525390625	-1.080322265625E-07	-1.4301873463296E-08	-1225423.75	2.81271986750653E-05
1	306	96.808522755582	0.122222900390625	0.122222900390625	-1.28784179687499E-07	-1.57403761136266E-08	-949052.125	2.81152733805357E-05
1	307	96.9092307553277	0.112152099609375	0.11224365234375	-1.568603515625E-07	-1.76065793056068E-08	-715564.1875	2.81008906313218E-05
1	308	97.0099387550734	0.102081298828125	0.102081298828125	-1.953125E-07	-1.99377527820843E-08	-522656.25	2.80831573036266E-05
1	309	97.1106467548192	0.092010498046875	0.092071533203125	-2.4871826171875E-07	-2.28998722207052E-08	-370184.03125	2.80607982858783E-05
1	310	97.2113547545649	0.081939697265625	0.08197021484375	-3.216552734375E-07	-2.63661519284142E-08	-254838.703125	2.80320782621857E-05
1	311	97.3120627543107	0.071868896484375	0.071868896484375	-4.2083740234375E-07	-3.02451184097663E-08	-170775.9375	2.79946907539852E-05
1	312	97.4127707540564	0.061798095703125	0.0618896484375	-5.48400878906249E-07	-3.39403349869372E-08	-112854.7578125	2.79458854492987E-05
1	313	97.5134787538021	0.051727294921875	0.05181884765625	-7.086181640625E-07	-3.6719775664551E-08	-73126.6171875	2.78825900750235E-05
1	314	97.6141867535479	0.041656494140625	0.0417633056640625	-8.984375E-07	-3.75217190651256E-08	-46484.375	2.78016668744385E-05
1	315	97.7148947532936	0.031585693359375	0.0316741943359375	-1.10931396484375E-06	-3.51366260531449E-08	-28552.95703125	2.77005692623788E-05
1	316	97.8156027530393	0.021514892578125	0.021612548828125	-1.32659912109375E-06	-2.86711880903567E-08	-16291.6962890625	2.75779111689189E-05
1	317	97.9163107527851	0.011444091796875	0.0115447998046875	-1.52984619140625E-06	-1.76617671598933E-08	-7546.37939453125	2.74340782198124E-05
1	318	98.0170187525308	0.001373291015625	0.00148925781250001	-1.700439453125E-06	-2.5323925179066E-09	-875.8076171875	2.72714205493685E-05
1	319	98.1177267522766	-0.008697509765625	-0.008575439453125	-1.822509765625E-06	1.56288209041122E-08	4705.29150390625	2.70940254267771E-05
1	320	98.2184347520223	-0.018768310546875	-0.01864013671875	-1.89056396484375E-06	3.52403688452796E-08	9859.564453125	2.69070569629548E-05
1	321	98.319142751768	-0.028839111328125	-0.0286956787109375	-1.910400390625E-06	5.48202372385731E-08	15020.7666015625	2.67156628979137E-05
1	322	98.4198507515138	-0.038909912109375	-0.038812255859375	-1.89239501953125E-06	7.34481204744952E-08	20509.59765625	2.65241778834024E-05
1	323	98.5205587512595	-0.048980712890625	-0.0488372802734375	-1.84967041015625E-06	9.03328754020549E-08	26403.234375	2.63357505900785E-05
1	324	98.6212667510052	-0.059051513671875	-0.058990478515625	-1.79443359375E-06	1.05854489618196E-07	32874.15234375	2.61522545770276E-05
1	325	98.721974750751	-0.069122314453125	-0.069000244140625	-1.73492431640625E-06	1.19710193757783E-07	39771.328125	2.59745374933118E-05
1	326	98.8226827504967	-0.079193115234375	-0.079193115234375	-1.67755126953125E-06	1.32850516365579E-07	47207.56640625	2.58027048403164E-05
1	327	98.9233907502424	-0.089263916015625	-0.08917236328125	-1.62567138671875E-06	1.44964957371485E-07	54852.640625	2.56363746302668E-05
1	328	99.0240987499882	-0.099334716796875	-0.09930419921875	-1.57989501953125E-06	1.56890209268568E-07	62854.9375	2.54749611485749E-05
1	329	99.1248067497339	-0.109405517578125	-0.109283447265625	-1.541748046875E-06	1.68487531482242E-07	70882.8203125	2.53177749982569E-05
1	330	99.2255147494797	-0.119476318359375	-0.119415283203125	-1.51092529296875E-06	1.80427562668228E-07	79034.5390625	2.51640612987103E-05
1	331	99.3262227492254	-0.129547119140625	-0.1295166015625	-1.4862060546875E-06	1.9248834348673E-07	87145.796875	2.50131433858769E-05
1	332	99.4269307489711	-0.139617919921875	-0.1395263671875	-1.466064453125E-06	2.04554638116861E-07	95170.6953125	2.48644846578827E-05
1	333	99.5276387487169	-0.149688720703125	-0.14959716796875	-1.45172119140625E-06	2.1717336551319E-07	103048.1484375	2.47175630647689E-05
1	334	99.6283467484626	-0.159759521484375	-0.159576416015625	-1.44287109375E-06	2.30248190291604E-07	110596.453125	2.45718074438628E-05
1	335	99.7290547482083	-0.169830322265625	-0.169677734375	-1.439208984375E-06	2.44201714849623E-07	117896.5234375	2.44266830122797E-05
1	336	99.8297627479541	-0.179901123046875	-0.17974853515625	-1.441650390625E-06	2.59134537827777E-07	124682.46875	2.42816204263363E-05
1	337	99.9304707476998	-0.189971923828125	-0.189849853515625	-1.4483642578125E-06	2.74971739600005E-07	131078.8125	2.41360976360738E-05
1	338	100.031178747446	-0.200042724609375	-0.199951171875	-1.45965576171875E-06	2.91859890921842E-07	136985.15625	2.3989667170099E-05
1	339	100.131886747191	-0.189971923828125	-0.1898193359375	-1.27227783203125E-06	2.41502931430659E-07	149196.453125	2.3852102458477E-05
2	340	100.232594746937	-0.179901123046875	-0.1798095703125	-1.14044189453125E-06	2.05062363534125E-07	157666.578125	2.37306121562142E-05
2	341	100.333302746683	-0.169830322265625	-0.169708251953125	-1.0345458984375E-06	1.75570974647599E-07	164041.296875	2.36210926232161E-05
2	342	100.434010746428	-0.159759521484375	-0.159637451171875	-9.4482421875E-07	1.50829322365098E-07	168959.953125	2.35214247368276E-05
2	343	100.534718746174	-0.149688720703125	-0.1495361328125	-8.6669921875E-07	1.29602852894095E-07	172535.203125	2.34302060562186E-05
2	344	100.63542674592	-0.139617919921875	-0.1395263671875	-7.98645019531249E-07	1.11432029825664E-07	174703.875	2.33463506447151E-05
2	345	100.736134745666	-0.129547119140625	-0.12945556640625	-7.373046875E-07	9.5448193349057E-08	175579.46875	2.32690090342658E-05
2	346	100.836842745411	-0.119476318359375	-0.119415283203125	-6.81152343749999E-07	8.13399978483176E-08	175313.625	2.31975845963461E-05
2	347	100.937550745157	-0.109405517578125	-0.109283447265625	-6.2774658203125E-07	6.86023042817396E-08	174088.484375	2.31316753342981E-05
2	348	101.038258744903	-0.099334716796875	-0.09918212890625	-5.74645996093751E-07	5.69946116968367E-08	172596.921875	2.3071130272001E-05
2	349	101.138966744649	-0.089263916015625	-0.089141845703125	-5.2001953125E-07	4.63554989948989E-08	171420.1875	2.30160094361054E-05
2	350	101.239674744394	-0.079193115234375	-0.079071044921875	-4.61425781249999E-07	3.64854173540152E-08	171362.4375	2.29665893130004E-05
2	351	101.34038274414	-0.069122314453125	-0.06903076171875	-3.94287109374999E-07	2.72179381255455E-08	175077.40625	2.29235010920092E-05
2	352	101.441090743886	-0.059051513671875	-0.058990478515625	-3.17993164062499E-07	1.87585698085968E-08	185508.640625	2.28876342589501E-05
2	353	101.541798743632	-0.048980712890625	-0.048883056640625	-2.25830078125E-07	1.10392646135438E-08	216459.46875	2.28602511924691E-05
2	354	101.642506743377	-0.038909912109375	-0.038818359375	-1.13830566406251E-07	4.41871561562834E-09	341018.78125	2.28431472351076E-05
2	355	101.743214743123	-0.028839111328125	-0.02872314453125	2.53295898437506E-08	-7.27545468315327E-10	-1133976	2.28386925300583E-05
2	356	101.843922742869	-0.018768310546875	-0.018670654296875	1.94396972656249E-07	-3.62951846355486E-09	-96043.9609375	2.28497556236107E-05
2	357	101.944630742615	-0.008697509765625	-0.00858459472656251	3.9215087890625E-07	-3.36645622489584E-09	-21891.05078125	2.28792905545561E-05
2	358	102.04533874236	0.001373291015625	0.00145263671875	6.1309814453125E-07	8.90608808923332E-10	2369.33813476563	2.29299093916779E-05
2	359	102.146046742106	0.011444091796875	0.01156005859375	8.41369628906249E-07	9.72628200202053E-09	13739.5712890625	2.30031473620329E-05
2	360	102.246754741852	0.021514892578125	0.02161865234375	1.05804443359375E-06	2.2873495097997E-08	20432.65234375	2.30987898248713E-05
2	361	102.347462741597	0.031585693359375	0.0316375732421875	1.2420654296875E-06	3.92959336181775E-08	25471.744140625	2.32146103371633E-05
2	362	102.448170741343	0.041656494140625	0.041748046875	1.37786865234375E-06	5.75233265465158E-08	30299.001953125	2.33465343626449E-05
2	363	102.548878741089	0.051727294921875	0.051727294921875	1.4581298828125E-06	7.54251132661921E-08	35475.09375	2.34893377637491E-05
2	364	102.649586740835	0.061798095703125	0.061859130859375	1.48651123046875E-06	9.19542912924953E-08	41613.6328125	2.36376126849791E-05
2	365	102.75029474058	0.071868896484375	0.0718994140625	1.47552490234375E-06	1.06089373730356E-07	48728.02734375	2.37867625401122E-05
2	366	102.851002740326	0.081939697265625	0.08203125	1.43798828125E-06	1.17959970680204E-07	57045.84375	2.39334694924764E-05
2	367	102.951710740072	0.092010498046875	0.09210205078125	1.38641357421875E-06	1.2769152135661E-07	66431.875	2.40756908169715E-05
2	368	103.052418739818	0.102081298828125	0.102142333984375	1.32965087890625E-06	1.35813650103955E-07	76818.9140625	2.42124551732559E-05
2	369	103.153126739563	0.112152099609375	0.112213134765625	1.27227783203125E-06	1.42766282351658E-07	88198.609375	2.43434715230251E-05
2	370	103.253834739309	0.122222900390625	0.122314453125	1.2176513671875E-06	1.48936351251905E-07	100451.1328125	2.44688508246327E-05
2	371	103.354542739055	0.132293701171875	0.132293701171875	1.1669921875E-06	1.5438571665527E-07	113362.96875	2.45889259531396E-05
2	372	103.455250738801	0.142364501953125	0.142364501953125	1.12213134765625E-06	1.59751664341456E-07	126869.7421875	2.47041934926528E-05
2	373	103.555958738546	0.152435302734375	0.152557373046875	1.0821533203125E-06	1.65090469295137E-07	140975.75	2.48151882260572E-05
2	374	103.656666738292	0.162506103515625	0.162506103515625	1.0467529296875E-06	1.70103731989002E-07	155247.8125	2.49223867285764E-05
2	375	103.757374738038	0.172576904296875	0.172607421875	1.0174560546875E-06	1.75620471054572E-07	169646.078125	2.50263274210738E-05
2	376	103.858082737784	0.182647705078125	0.182647705078125	9.92431640625E-07	1.81265363607963E-07	184040.59375	2.51275341724977E-05
2	377	103.958790737529	0.192718505859375	0.192779541015625	9.71374511718751E-07	1.87261122164273E-07	198460.578125	2.52264198934427E-05
2	378	104.059498737275	0.202789306640625	0.202850341796875	9.5245361328125E-07	1.93205536902497E-07	212976.609375	2.53232919931179E-05
2	379	104.160206737021	0.212860107421875	0.212921142578125	9.3505859375E-07	1.99093733499467E-07	227708.890625	2.54183360084426E-05
2	380	104.260914736766	0.222930908203125	0.22296142578125	9.2010498046875E-07	2.05147912879511E-07	242321.71875	2.55117502092617E-05
2	381	104.361622736512	0.233001708984375	0.233001708984375	9.051513671875E-07	2.10901816899423E-07	257417.40625	2.56036582868546E-05
2	382	104.462330736258	0.243072509765625	0.243072509765625	8.9263916015625E-07	2.16976033584615E-07	272307.6875	2.56941857514903E-05
2	383	104.563038736004	0.253143310546875	0.25311279296875	8.8165283203125E-07	2.23157599066326E-07	287088.96875	2.57835272350349E-05
2	384	104.663746735749	0.263214111328125	0.26318359375	8.7188720703125E-07	2.29466408541157E-07	301855.09375	2.58718264376512E-05
2	385	104.764454735495	0.273284912109375	0.273284912109375	8.63037109375001E-07	2.35855011965214E-07	316654.875	2.59591852227459E-05
2	386	104.865162735241	0.283355712890625	0.28338623046875	8.55407714843751E-07	2.42410749251576E-07	331287.90625	2.6045716367662E-05
2	387	104.965870734987	0.293426513671875	0.293365478515625	8.47778320312501E-07	2.48708886374516E-07	346040.3125	2.61314780800603E-05
2	388	105.066578734732	0.303497314453125	0.30352783203125	8.40148925781251E-07	2.55008586691474E-07	361278.625	2.62164721789304E-05
2	389	105.167286734478	0.313568115234375	0.313629150390625	8.3282470703125E-07	2.61198096040971E-07	376584.84375	2.63007132161874E-05
2	390	105.267994734224	0.323638916015625	0.32366943359375	8.258056640625E-07	2.67288044142333E-07	391943.8125	2.63842321146512E-05
2	391	105.36870273397	0.333709716796875	0.33380126953125	8.197021484375E-07	2.73617615675903E-07	407222.65625	2.64670907199616E-05
2	392	105.469410733715	0.343780517578125	0.34381103515625	8.15429687499999E-07	2.80353702919456E-07	421631.75	2.65494254563237E-05
2	393	105.570118733461	0.353851318359375	0.3538818359375	8.123779296875E-07	2.87485789840503E-07	435612.34375	2.66313927568262E-05
2	394	105.670826733207	0.363922119140625	0.363983154296875	8.1024169921875E-07	2.94914315190908E-07	449227.90625	2.67130981228547E-05
2	395	105.771534732953	0.373992919921875	0.3740234375	8.08105468750001E-07	3.02250356298828E-07	462839.90625	2.67945870291442E-05
2	396	105.872242732698	0.384063720703125	0.383941650390625	8.06884765625E-07	3.09796661213113E-07	475832.0625	2.68759085884085E-05
2	397	105.972950732444	0.394134521484375	0.394134521484375	8.0596923828125E-07	3.17660294513189E-07	489019.34375	2.6957122827298E-05
2	398	106.07365873219	0.404205322265625	0.404205322265625	8.0535888671875E-07	3.25530351119596E-07	501894.65625	2.70382588496432E-05
2	399	106.174366731935	0.414276123046875	0.414215087890625	8.056640625E-07	3.33718219280854E-07	514128.78125	2.71193803200731E-05
2	400	106.275074731681	0.424346923828125	0.42431640625	8.06579589843751E-07	3.42244959483651E-07	526068.875	2.72005636361428E-05
2	401	106.375782731427	0.434417724609375	0.4344482421875	8.0841064453125E-07	3.51212577243132E-07	537410.375	2.72818851954071E-05
2	402	106.476490731173	0.444488525390625	0.444549560546875	8.11157226562501E-07	3.60599557325259E-07	548043.6875	2.73634359473363E-05
2	403	106.577198730918	0.454559326171875	0.454559326171875	8.14208984375001E-07	3.70106278069215E-07	558283.375	2.74452795565594E-05
2	404	106.677906730664	0.464630126953125	0.46466064453125	8.17260742187501E-07	3.79748911427669E-07	568558.625	2.75274305749917E-05
2	405	106.77861473041	0.474700927734375	0.474609375	8.20312500000001E-07	3.89327993843835E-07	578571.4375	2.76098890026333E-05
2	406	106.879322730156	0.484771728515625	0.4847412109375	8.23364257812501E-07	3.99118590621583E-07	588732.375	2.7692654839484E-05
2	407	106.980030729901	0.494842529296875	0.494842529296875	8.258056640625E-07	4.08643757054961E-07	599223.9375	2.77756971627241E-05
2	408	107.080738729647	0.504913330078125	0.504852294921875	8.29467773437501E-07	4.18758702380728E-07	608646.0625	2.78590468951734E-05
2	409	107.181446729393	0.514984130859375	0.5150146484375	8.3343505859375E-07	4.29231249654549E-07	617942.1875	2.79427804343868E-05
2	410	107.282154729139	0.525054931640625	0.525054931640625	8.380126953125E-07	4.4000267962474E-07	626547.6875	2.80269450740889E-05
2	411	107.382862728884	0.535125732421875	0.535186767578125	8.43505859375E-07	4.51433180614913E-07	634479	2.81116172118345E-05
2	412	107.48357072863	0.545196533203125	0.545135498046875	8.4869384765625E-07	4.62653133581625E-07	642322.9375	2.81968259514542E-05
2	413	107.584278728376	0.555267333984375	0.55523681640625	8.53881835937501E-07	4.74106627734727E-07	650250.1875	2.82825567410327E-05
2	414	107.684986728122	0.565338134765625	0.56524658203125	8.58459472656251E-07	4.8524123030802E-07	658443	2.83687804767396E-05
2	415	107.785694727867	0.575408935546875	0.575439453125	8.63037109375001E-07	4.96625602863787E-07	666761	2.84554644167656E-05
2	416	107.886402727613	0.585479736328125	0.585418701171875	8.67919921875E-07	5.08096547946479E-07	674507.75	2.85426249320153E-05
2	417	107.987110727359	0.595550537109375	0.595489501953125	8.7432861328125E-07	5.20653486546507E-07	681082.0625	2.86303547909483E-05
2	418	108.087818727104	0.605621337890625	0.6055908203125	8.82873535156251E-07	5.34660102857742E-07	685931.5625	2.8718835892505E-05
2	419	108.18852672685	0.615692138671875	0.615692138671875	8.91723632812499E-07	5.49027220131393E-07	690451.75	2.88081937469542E-05
2	420	108.289234726596	0.625762939453125	0.625701904296875	9.02404785156249E-07	5.64636366107152E-07	693371.6875	2.88985356746707E-05
2	421	108.389942726342	0.635833740234375	0.635772705078125	9.14611816406249E-07	5.81485210204846E-07	695128.5	2.89900308416691E-05
2	422	108.490650726087	0.645904541015625	0.6458740234375	9.27734375E-07	5.99199495354696E-07	696184.25	2.90827993012499E-05
2	423	108.591358725833	0.655975341796875	0.655914306640625	9.417724609375E-07	6.17722037077328E-07	696467.9375	2.91769374598516E-05
2	424	108.692066725579	0.666046142578125	0.66595458984375	9.5703125E-07	6.3733938304722E-07	695854.5625	2.92725489998702E-05
2	425	108.792774725325	0.676116943359375	0.67608642578125	9.72900390625001E-07	6.57764701372798E-07	694918.5	2.93697285087546E-05
2	426	108.89348272507	0.686187744140625	0.686126708984375	9.89379882812499E-07	6.78839910506213E-07	693491.6875	2.94685378321446E-05
2	427	108.994190724816	0.696258544921875	0.6961669921875	1.0064697265625E-06	7.00670966580219E-07	691691.9375	2.95690369966906E-05
2	428	109.094898724562	0.706329345703125	0.70623779296875	1.024169921875E-06	7.23307493899483E-07	689570.9375	2.96712878480321E-05
2	429	109.195606724308	0.716400146484375	0.716339111328125	1.04278564453125E-06	7.46988121136383E-07	686947.625	2.97753667837242E-05
2	430	109.296314724053	0.726470947265625	0.72637939453125	1.06231689453125E-06	7.71645090935635E-07	683769.0625	2.98813665722264E-05
2	431	109.397022723799	0.736541748046875	0.736419677734375	1.08306884765625E-06	7.97593202150892E-07	679938.0625	2.9989396352903E-05
2	432	109.497730723545	0.746612548828125	0.74652099609375	1.10504150390625E-06	8.24936705612345E-07	675559.25	3.00995761790546E-05
2	433	109.598438723291	0.756683349609375	0.75714111328125	1.12884521484375E-06	8.54695088037261E-07	670721.875	3.02120606647804E-05
2	434	109.699146723036	0.766754150390625	0.7666015625	1.15753173828125E-06	8.87365672497253E-07	662272.625	3.03271899610991E-05
2	435	109.799854722782	0.776824951171875	0.7769775390625	1.19140625E-06	9.25695871956123E-07	652151.625	3.04454679280752E-05
2	436	109.900562722528	0.786895751953125	0.78643798828125	1.23138427734375E-06	9.68407334767107E-07	638661.75	3.05674657283816E-05
2	437	110.001270722273	0.796966552734375	0.797119140625	1.2811279296875E-06	1.0212115739705E-06	622201.0625	3.06939800793771E-05
2	438	110.101978722019	0.807037353515625	0.80718994140625	1.33941650390625E-06	1.08116353203513E-06	602643	3.08259332086891E-05
2	439	110.202686721765	0.817108154296875	0.8172607421875	1.40716552734375E-06	1.15002114853269E-06	580785.0625	3.09642346110195E-05
2	440	110.303394721511	0.827178955078125	0.82763671875	1.48101806640625E-06	1.22574488159444E-06	558829.625	3.11096664518118E-05
2	441	110.404102721256	0.837249755859375	0.83740234375	1.55609130859375E-06	1.30307455492584E-06	538144.75	3.12625998049043E-05
2	442	110.504810721002	0.847320556640625	0.84747314453125	1.62567138671875E-06	1.37771280606103E-06	521306.59375	3.14228127535898E-05
2	443	110.605518720748	0.857391357421875	0.85723876953125	1.68487548828125E-06	1.44434056892351E-06	508784.65625	3.15895122184884E-05
2	444	110.706226720494	0.867462158203125	0.8673095703125	1.728515625E-06	1.49915808833612E-06	501765.53125	3.17613885272294E-05
2	445	110.806934720239	0.877532958984375	0.8770751953125	1.75567626953125E-06	1.53986002260353E-06	499565.46875	3.19368336931802E-05
2	446	110.907642719985	0.887603759765625	0.88775634765625	1.768798828125E-06	1.57026238412072E-06	501897.875	3.21143052133266E-05
2	447	111.008350719731	0.897674560546875	0.897216796875	1.7706298828125E-06	1.58863883825688E-06	506721.8125	3.2292529795086E-05
2	448	111.109058719477	0.907745361328125	0.90789794921875	1.76666259765625E-06	1.60394927206653E-06	513905.6875	3.24706452374812E-05
2	449	111.209766719222	0.917816162109375	0.91796875	1.759033203125E-06	1.61473747084528E-06	521859.84375	3.26481786032673E-05
2	450	111.310474718968	0.927886962890625	0.92803955078125	1.7535400390625E-06	1.62735443609563E-06	529237.75	3.28250498569105E-05
2	451	111.411182718714	0.937957763671875	0.9381103515625	1.751708984375E-06	1.64329628660198E-06	535540.0625	3.30015536746942E-05
2	452	111.51189071846	0.948028564453125	0.9478759765625	1.7572021484375E-06	1.6656096022416E-06	539423.4375	3.3178243029397E-05
2	453	111.612598718205	0.958099365234375	0.958251953125	1.77093505859375E-06	1.69700194874167E-06	541099.4375	3.33558964484837E-05
2	454	111.713306717951	0.968170166015625	0.96832275390625	1.79443359375E-06	1.73759076460556E-06	539625.875	3.35354270646349E-05
2	455	111.814014717697	0.978240966796875	0.9783935546875	1.82708740234375E-06	1.78761047209264E-06	535493.625	3.37177880282979E-05
2	456	111.914722717442	0.988311767578125	0.9881591796875	1.866455078125E-06	1.84435464234411E-06	529431	3.39037724188529E-05
2	457	112.015430717188	0.998382568359375	0.99822998046875	1.907958984375E-06	1.90458172255603E-06	523192.59375	3.4093827707693E-05
2	458	112.116138716934	1.00845336914063	1.00860595703125	1.9476318359375E-06	1.9643930500024E-06	517862.75	3.42879720847122E-05
2	459	112.21684671668	1.01852416992188	1.01837158203125	1.97906494140625E-06	2.01542343347683E-06	514572.125	3.44856962328777E-05
2	460	112.317554716425	1.02859497070313	1.0284423828125	2.0001220703125E-06	2.05701030608907E-06	514189.8125	3.46860651916359E-05
2	461	112.418262716171	1.03866577148438	1.0382080078125	2.00927734375E-06	2.08604774343257E-06	516707.1875	3.48879548255354E-05
2	462	112.518970715917	1.04873657226563	1.048583984375	2.0074462890625E-06	2.1049759197922E-06	522347.21875	3.50902118952945E-05
2	463	112.619678715663	1.05880737304688	1.0589599609375	1.9976806640625E-06	2.11546375794569E-06	530094.75	3.52918868884444E-05
2	464	112.720386715408	1.06887817382813	1.06903076171875	1.98150634765625E-06	2.11829114959983E-06	539504.0625	3.54922558472026E-05
2	465	112.821094715154	1.07894897460938	1.07879638671875	1.96136474609375E-06	2.11591304832837E-06	550023.375	3.56907949026208E-05
2	466	112.9218027149	1.08901977539063	1.0894775390625	1.9384765625E-06	2.1119267330505E-06	562027.6875	3.588716572267E-05
2	467	113.022510714646	1.09909057617188	1.0992431640625	1.9158935546875E-06	2.10603298000933E-06	573749.625	3.60812482540496E-05
2	468	113.123218714391	1.10916137695313	1.1090087890625	1.89422607421875E-06	2.10071334549866E-06	585468.0625	3.62731043423992E-05
2	469	113.223926714137	1.11923217773438	1.11907958984375	1.87408447265625E-06	2.09724953492696E-06	597134	3.64628540410195E-05
2	470	113.324634713883	1.12930297851563	1.129150390625	1.85699462890625E-06	2.09682616514328E-06	608052.625	3.66507301805541E-05
2	471	113.425342713629	1.13937377929688	1.1395263671875	1.84234619140625E-06	2.09940208151238E-06	618519.125	3.68370056094136E-05
2	472	113.526050713374	1.14944458007813	1.1492919921875	1.8292236328125E-06	2.1023120098107E-06	628295	3.70218840544112E-05
2	473	113.62675871312	1.15951538085938	1.15997314453125	1.81793212890625E-06	2.10875236916763E-06	638072.875	3.7205532862572E-05
2	474	113.727466712866	1.16958618164063	1.16973876953125	1.80816650390625E-06	2.11508245229197E-06	646919.875	3.73881193809211E-05
2	475	113.828174712611	1.17965698242188	1.1798095703125	1.79901123046875E-06	2.12249074138526E-06	655810	3.75697563868016E-05
2	476	113.928882712357	1.18972778320313	1.1895751953125	1.79168701171875E-06	2.13134626392275E-06	663941.4375	3.77505639335141E-05
2	477	114.029590712103	1.19979858398438	1.199951171875	1.78619384765625E-06	2.14334545489692E-06	671792.25	3.79307239199989E-05
2	478	114.130298711849	1.20986938476563	1.209716796875	1.78253173828125E-06	2.15635850508988E-06	678650.9375	3.81104218831751E-05
2	479	114.231006711594	1.21994018554688	1.21978759765625	1.78131103515625E-06	2.172821041313E-06	684769.625	3.82898761017714E-05
2	480	114.33171471134	1.23001098632813	1.23016357421875	1.78131103515625E-06	2.19130379264243E-06	690594.5	3.84692684747279E-05
2	481	114.432422711086	1.24008178710938	1.240234375	1.78436279296875E-06	2.21302798308898E-06	695057.3125	3.86488136427943E-05
2	482	114.533130710832	1.25015258789063	1.25030517578125	1.785888671875E-06	2.23290567191725E-06	700102.5625	3.88285916415043E-05
2	483	114.633838710577	1.26022338867188	1.259765625	1.7889404296875E-06	2.25364556172281E-06	704196.5625	3.90085988328792E-05
2	484	114.734546710323	1.27029418945313	1.26953125	1.7919921875E-06	2.27499003813136E-06	708446.875	3.91889116144739E-05
2	485	114.835254710069	1.28036499023438	1.280517578125	1.79595947265625E-06	2.29975762522372E-06	712999.1875	3.93695809179917E-05
2	486	114.935962709815	1.29043579101563	1.290283203125	1.79931640625E-06	2.32162756219623E-06	717096.375	3.9550617657369E-05
2	487	115.03667070956	1.30050659179688	1.3006591796875	1.80511474609375E-06	2.34783897212765E-06	720541	3.9732112782076E-05
2	488	115.137378709306	1.31057739257813	1.31072998046875	1.8115234375E-06	2.37441804529226E-06	723551.25	3.99142263631802E-05
2	489	115.238086709052	1.32064819335938	1.32049560546875	1.81854248046875E-06	2.40137728724221E-06	726128.5625	4.00970129703637E-05
2	490	115.338794708798	1.33071899414063	1.33026123046875	1.82525634765625E-06	2.42806777350779E-06	728807.9375	4.02804944314994E-05
2	491	115.439502708543	1.34078979492188	1.34063720703125	1.83197021484375E-06	2.45600745074626E-06	731800.8125	4.04646489187144E-05
2	492	115.540210708289	1.35086059570313	1.3507080078125	1.83746337890625E-06	2.48187643592246E-06	735093.875	4.06494218623266E-05
2	493	115.640918708035	1.36093139648438	1.361083984375	1.84326171875E-06	2.50883385888301E-06	738410.625	4.08347586926538E-05
2	494	115.74162670778	1.37100219726563	1.370849609375	1.8487548828125E-06	2.5343649667775E-06	741498.8125	4.10206666856539E-05
2	495	115.842334707526	1.38107299804688	1.380615234375	1.8548583984375E-06	2.56084581451432E-06	744323.8125	4.12071603932418E-05
2	496	115.943042707272	1.39114379882813	1.39129638671875	1.86248779296875E-06	2.59127250501479E-06	747009.6875	4.13943416788243E-05
2	497	116.043750707018	1.40121459960938	1.4013671875	1.86981201171875E-06	2.62029311670631E-06	749469.5625	4.15822796639986E-05
2	498	116.144458706763	1.41128540039063	1.4117431640625	1.87774658203125E-06	2.65089579443156E-06	751828.375	4.17709852627013E-05
2	499	116.245166706509	1.42135620117188	1.4215087890625	1.885986328125E-06	2.68094618149917E-06	753721.6875	4.19605021306779E-05
2	500	116.345874706255	1.43142700195313	1.4312744140625	1.89300537109375E-06	2.7094101824332E-06	756085.75	4.21507902501617E-05
2	501	116.446582706001	1.44149780273438	1.44195556640625	1.9000244140625E-06	2.73975069831067E-06	758914.25	4.2341784137534E-05
2	502	116.547290705746	1.45156860351563	1.451416015625	1.907958984375E-06	2.76924220088404E-06	760716.625	4.25335310865194E-05
2	503	116.647998705492	1.46163940429688	1.46209716796875	1.91741943359375E-06	2.80345352621225E-06	762533.8125	4.27261547883973E-05
2	504	116.748706705238	1.47171020507813	1.47186279296875	1.9287109375E-06	2.83879762719152E-06	763132.9375	4.29198225901928E-05
2	505	116.849414704984	1.48178100585938	1.48162841796875	1.94305419921875E-06	2.87888451566687E-06	762525.5	4.31147818744648E-05
2	506	116.950122704729	1.49185180664063	1.49139404296875	1.959228515625E-06	2.92198160423141E-06	761214.9375	4.33112763857935E-05
2	507	117.050830704475	1.50192260742188	1.50177001953125	1.9781494140625E-06	2.97072551802557E-06	759179.25	4.35095389548223E-05
2	508	117.151538704221	1.49185180664063	1.49139404296875	1.8524169921875E-06	2.76268360721588E-06	805107.0625	4.37024245911743E-05
2	509	117.252246703967	1.48178100585938	1.48223876953125	1.76300048828125E-06	2.61318768934871E-06	840747.8125	4.38844763266388E-05
2	510	117.352954703712	1.47171020507813	1.47186279296875	1.690673828125E-06	2.4884398044378E-06	870577.625	4.40583826275542E-05
2	511	117.453662703458	1.46163940429688	1.4617919921875	1.6302490234375E-06	2.38308484767913E-06	896667.9375	4.42256023234222E-05
2	512	117.554370703204	1.45156860351563	1.451416015625	1.57806396484375E-06	2.29042734645191E-06	919744.75	4.43871540483087E-05
2	513	117.655078702949	1.44149780273438	1.44134521484375	1.53289794921875E-06	2.20943502426962E-06	940274.75	4.45438054157421E-05
2	514	117.755786702695	1.43142700195313	1.43157958984375	1.4923095703125E-06	2.13635985346627E-06	959304.75	4.46961348643526E-05
2	515	117.856494702441	1.42135620117188	1.42120361328125	1.45538330078125E-06	2.06839604288689E-06	976515	4.4844564399682E-05
2	516	117.957202702187	1.41128540039063	1.41143798828125	1.42181396484375E-06	2.00680233319872E-06	992702.3125	4.49894432676956E-05
2	517	118.057910701932	1.40121459960938	1.4007568359375	1.38946533203125E-06	1.94630297301046E-06	1008126.5625	4.51310006610584E-05
2	518	118.158618701678	1.39114379882813	1.39068603515625	1.358642578125E-06	1.8894452296081E-06	1023584.9375	4.52693784609437E-05
2	519	118.259326701424	1.38107299804688	1.38153076171875	1.3287353515625E-06	1.83568863576511E-06	1039733.625	4.54047003586311E-05
2	520	118.36003470117	1.37100219726563	1.3714599609375	1.30126953125E-06	1.78463903921511E-06	1053940	4.55371300631668E-05
2	521	118.460742700915	1.36093139648438	1.361083984375	1.2750244140625E-06	1.73541525327892E-06	1067496.5	4.56668567494489E-05
2	522	118.561450700661	1.35086059570313	1.35101318359375	1.25152587890625E-06	1.69082795764552E-06	1079492.75	4.57940805063117E-05
2	523	118.662158700407	1.34078979492188	1.34063720703125	1.229248046875E-06	1.6479756368426E-06	1090615.75	4.5918994146632E-05
2	524	118.762866700153	1.33071899414063	1.33026123046875	1.2091064453125E-06	1.60842728291755E-06	1100202	4.60417759313714E-05
2	525	118.863574699898	1.32064819335938	1.32049560546875	1.1895751953125E-06	1.57082877194625E-06	1110056.5	4.61625604657456E-05
2	526	118.964282699644	1.31057739257813	1.3104248046875	1.17095947265625E-06	1.53445432715671E-06	1119103.5	4.62814241473097E-05
2	527	119.06499069939	1.30050659179688	1.30035400390625	1.15203857421875E-06	1.49805794080748E-06	1128741.75	4.63983960798942E-05
2	528	119.165698699136	1.29043579101563	1.28997802734375	1.134033203125E-06	1.46287788993504E-06	1137513.5	4.65135090053082E-05
2	529	119.266406698881	1.28036499023438	1.28021240234375	1.1181640625E-06	1.43148747611122E-06	1144923.625	4.66269157186616E-05
2	530	119.367114698627	1.27029418945313	1.2701416015625	1.10321044921875E-06	1.40123336223041E-06	1151314	4.67387690150645E-05
2	531	119.467822698373	1.26022338867188	1.2603759765625	1.090087890625E-06	1.37392055421515E-06	1156215.125	4.68492107756902E-05
2	532	119.568530698118	1.25015258789063	1.25	1.0784912109375E-06	1.34811398311285E-06	1159026.625	4.69584083475638E-05
2	533	119.669238697864	1.24008178710938	1.2396240234375	1.0675048828125E-06	1.32330467295105E-06	1161235	4.70664672320709E-05
2	534	119.76994669761	1.23001098632813	1.23016357421875	1.05560302734375E-06	1.29856437069975E-06	1165365.75	4.71733728772961E-05
2	535	119.870654697356	1.21994018554688	1.21978759765625	1.04400634765625E-06	1.27346595490962E-06	1168371.875	4.7279096179409E-05
2	536	119.971362697101	1.20986938476563	1.20941162109375	1.0321044921875E-06	1.24823918667971E-06	1171791.875	4.73836371384095E-05
2	537	120.072070696847	1.19979858398438	1.199951171875	1.0198974609375E-06	1.22382721201575E-06	1176541	4.74869666504674E-05
2	538	120.172778696593	1.18972778320313	1.18988037109375	1.00738525390625E-06	1.1986678600806E-06	1181157.25	4.75890483357944E-05
2	539	120.273486696339	1.17965698242188	1.17950439453125	9.95788574218751E-07	1.17453703296633E-06	1184492.75	4.76899149361998E-05
2	540	120.374194696084	1.16958618164063	1.16943359375	9.844970703125E-07	1.15130399080954E-06	1187848.75	4.77896282973234E-05
2	541	120.47490269583	1.15951538085938	1.15936279296875	9.7320556640625E-07	1.12829820864135E-06	1191282.625	4.78882066090591E-05
2	542	120.575610695576	1.14944458007813	1.14898681640625	9.6038818359375E-07	1.10347343706962E-06	1196377.5	4.79855734738521E-05
2	543	120.676318695322	1.13937377929688	1.1395263671875	9.46044921875E-07	1.07804316940019E-06	1204516.125	4.80815688206349E-05
2	544	120.777026695067	1.12930297851563	1.1297607421875	9.29870605468749E-07	1.05053129573207E-06	1214965.625	4.8176028940361E-05
2	545	120.877734694813	1.11923217773438	1.119384765625	9.13391113281251E-07	1.0224360948996E-06	1225526.25	4.82688446936663E-05
2	546	120.978442694559	1.10916137695313	1.1090087890625	8.94775390624999E-07	9.92313744063722E-07	1239427	4.83598923892714E-05
2	547	121.079150694305	1.09909057617188	1.0992431640625	8.7615966796875E-07	9.63112483987061E-07	1254615.25	4.84490665257908E-05
2	548	121.17985869405	1.08901977539063	1.0894775390625	8.55102539062499E-07	9.31615034005517E-07	1274089.875	4.85362434119452E-05
2	549	121.280566693796	1.07894897460938	1.0791015625	8.31298828125E-07	8.97055826953874E-07	1298091.125	4.86211574752815E-05
2	550	121.381274693542	1.06887817382813	1.06903076171875	8.0230712890625E-07	8.57690963584901E-07	1332445.875	4.87034194520675E-05
2	551	121.481982693287	1.05880737304688	1.0589599609375	7.672119140625E-07	8.12446671716316E-07	1380270.5	4.87824509036727E-05
2	552	121.582690693033	1.04873657226563	1.04888916015625	7.23876953125E-07	7.59266697514249E-07	1448988.25	4.88575315102935E-05
2	553	121.683398692779	1.03866577148438	1.038818359375	6.719970703125E-07	6.98082885719487E-07	1545867.5	4.89278208988253E-05
2	554	121.784106692525	1.02859497070313	1.0284423828125	6.14013671874999E-07	6.31477632850874E-07	1674950.375	4.89925769215915E-05
2	555	121.88481469227	1.01852416992188	1.0186767578125	5.499267578125E-07	5.60197634058568E-07	1852386.25	4.90511847601738E-05
2	556	121.985522692016	1.00845336914063	1.00830078125	4.864501953125E-07	4.90488105242548E-07	2072773	4.91033715661615E-05
2	557	122.086230691762	0.998382568359375	0.99853515625	4.28161621093751E-07	4.27534416758135E-07	2332145.5	4.91494247398805E-05
2	558	122.186938691508	0.988311767578125	0.9881591796875	3.79638671875E-07	3.75143429209857E-07	2602894	4.91901009809226E-05
2	559	122.287646691253	0.978240966796875	0.97869873046875	3.44238281250001E-07	3.36905543463217E-07	2843085.25	4.92265498905908E-05
2	560	122.388354690999	0.968170166015625	0.96832275390625	3.21044921874999E-07	3.1087509455574E-07	3016159.75	4.92600483994465E-05
2	561	122.489062690745	0.958099365234375	0.95855712890625	3.07312011718749E-07	2.94576125270396E-07	3119166	4.92916915391106E-05
2	562	122.589770690491	0.948028564453125	0.9478759765625	2.99072265625E-07	2.83483416296804E-07	3169387.75	4.93222250952385E-05
2	563	122.690478690236	0.937957763671875	0.9381103515625	2.9266357421875E-07	2.74550728818213E-07	3205422.25	4.93520201416686E-05
2	564	122.791186689982	0.927886962890625	0.92803955078125	2.84423828124999E-07	2.63956565049739E-07	3262875.5	4.93810803163797E-05
2	565	122.891894689728	0.917816162109375	0.9173583984375	2.72521972656251E-07	2.50000312007614E-07	3366181.5	4.94091218570247E-05
2	566	122.992602689474	0.907745361328125	0.90789794921875	2.53906249999999E-07	2.30520967647863E-07	3575721.25	4.9435631808592E-05
2	567	123.093310689219	0.897674560546875	0.8978271484375	2.25219726562501E-07	2.02208383370817E-07	3986450	4.94597588840406E-05
2	568	123.194018688965	0.887603759765625	0.88775634765625	1.8341064453125E-07	1.628239516549E-07	4840266.5	4.94803352921735E-05
2	569	123.294726688711	0.877532958984375	0.8770751953125	1.27563476562501E-07	1.11882755504666E-07	6875598.5	4.94959931529593E-05
2	570	123.395434688456	0.867462158203125	0.8673095703125	5.76782226562503E-08	5.00248731327702E-08	15037037	4.95053209306207E-05
2	571	123.496142688202	0.857391357421875	0.8575439453125	-2.41088867187503E-08	-2.06744292796657E-08	-35569620	4.95070089527871E-05
2	572	123.596850687948	0.847320556640625	0.84747314453125	-1.0986328125E-07	-9.31061805431455E-08	-7713889	4.95002641400788E-05
2	573	123.697558687694	0.837249755859375	0.83709716796875	-1.91345214843749E-07	-1.60174536745217E-07	-4374801	4.9485097406432E-05
2	574	123.798266687439	0.827178955078125	0.82733154296875	-2.61535644531249E-07	-2.16376676576147E-07	-3163360.75	4.94622945552692E-05
2	575	123.898974687185	0.817108154296875	0.81695556640625	-3.1463623046875E-07	-2.57043808460367E-07	-2596508.25	4.94332816742826E-05
2	576	123.999682686931	0.807037353515625	0.8074951171875	-3.47900390625E-07	-2.80927849871659E-07	-2321052.75	4.93999177706428E-05
2	577	124.100390686677	0.796966552734375	0.79681396484375	-3.63769531249999E-07	-2.89856643576059E-07	-2190436.25	4.93640836793929E-05
2	578	124.201098686422	0.786895751953125	0.7867431640625	-3.65295410156249E-07	-2.87393646658529E-07	-2153717.75	4.93273728352506E-05
2	579	124.301806686168	0.776824951171875	0.77667236328125	-3.56445312500001E-07	-2.76841205959499E-07	-2178938.5	4.92910294269677E-05
2	580	124.402514685914	0.766754150390625	0.76751708984375	-3.40881347656249E-07	-2.6163226607423E-07	-2251566.75	4.92559156555217E-05
2	581	124.50322268566	0.756683349609375	0.75714111328125	-3.22265625E-07	-2.44000545990275E-07	-2349432	4.92225226480514E-05
2	582	124.603930685405	0.746612548828125	0.74652099609375	-3.01513671875001E-07	-2.25086282057418E-07	-2475911	4.91911159770098E-05
2	583	124.704638685151	0.736541748046875	0.736541748046875	-2.80151367187501E-07	-2.06343173658752E-07	-2629085	4.91618266096339E-05
2	584	124.805346684897	0.726470947265625	0.726409912109375	-2.593994140625E-07	-1.88430291814257E-07	-2800353	4.91346581839025E-05
2	585	124.906054684643	0.716400146484375	0.71636962890625	-2.41699218749999E-07	-1.73145977555578E-07	-2963889	4.91094251628965E-05
2	586	125.006762684388	0.706329345703125	0.70635986328125	-2.2705078125E-07	-1.60379556746193E-07	-3111021.5	4.90858219563961E-05
2	587	125.107470684134	0.696258544921875	0.69622802734375	-2.166748046875E-07	-1.50855072433842E-07	-3213239.5	4.90634774905629E-05
2	588	125.20817868388	0.686187744140625	0.68609619140625	-2.09960937500001E-07	-1.44053387884924E-07	-3267732.75	4.90419952257071E-05
2	589	125.308886683625	0.676116943359375	0.67608642578125	-2.0477294921875E-07	-1.38444207209432E-07	-3301639.5	4.90211132273544E-05
2	590	125.409594683371	0.666046142578125	0.665985107421875	-2.00805664062501E-07	-1.33733578877582E-07	-3316565.5	4.90006896143313E-05
2	591	125.510302683117	0.655975341796875	0.65594482421875	-1.95922851562499E-07	-1.28514585640005E-07	-3347975	4.89807134727016E-05
2	592	125.611010682863	0.645904541015625	0.6458740234375	-1.89819335937499E-07	-1.22599374208221E-07	-3402572.5	4.89612866658717E-05
2	593	125.711718682608	0.635833740234375	0.635833740234375	-1.8310546875E-07	-1.16424637042201E-07	-3472500	4.89425110572483E-05
2	594	125.812426682354	0.625762939453125	0.625762939453125	-1.7730712890625E-07	-1.10952228737915E-07	-3529260	4.89243611809798E-05
2	595	125.9131346821	0.615692138671875	0.6156005859375	-1.7242431640625E-07	-1.06144504741223E-07	-3570265.75	4.89067533635534E-05
2	596	126.013842681846	0.605621337890625	0.605621337890625	-1.68457031249999E-07	-1.02021168402189E-07	-3595109	4.88895857415628E-05
2	597	126.114550681591	0.595550537109375	0.595458984375	-1.64184570312501E-07	-9.77651737343876E-08	-3626765.75	4.88728364871349E-05
2	598	126.215258681337	0.585479736328125	0.585418701171875	-1.5838623046875E-07	-9.27222600921596E-08	-3696146.5	4.88565929117613E-05
2	599	126.315966681083	0.575408935546875	0.575408935546875	-1.513671875E-07	-8.70980301215241E-08	-3801411.25	4.88409968966153E-05
2	600	126.416674680829	0.565338134765625	0.5653076171875	-1.4373779296875E-07	-8.12560685403696E-08	-3932908.75	4.88261357531883E-05
2	601	126.517382680574	0.555267333984375	0.5552978515625	-1.35192871093751E-07	-7.50723074816051E-08	-4107449.5	4.88120931549929E-05
2	602	126.61809068032	0.545196533203125	0.545166015625	-1.2847900390625E-07	-7.00423825605867E-08	-4243230.5	4.8798814532347E-05
2	603	126.718798680066	0.535125732421875	0.535125732421875	-1.20849609375E-07	-6.46697344564018E-08	-4428030.5	4.87862598674837E-05
2	604	126.819506679812	0.525054931640625	0.52496337890625	-1.141357421875E-07	-5.99170846271591E-08	-4599465.5	4.87744291604031E-05
2	605	126.920214679557	0.514984130859375	0.514984130859375	-1.080322265625E-07	-5.56348815905494E-08	-4766949	4.87632423755713E-05
2	606	127.020922679303	0.504913330078125	0.504974365234375	-1.0223388671875E-07	-5.16254914373349E-08	-4939403	4.87526522192638E-05
2	607	127.121630679049	0.494842529296875	0.494781494140625	-9.613037109375E-08	-4.75635282271014E-08	-5146984	4.87426659674384E-05
2	608	127.222338678794	0.484771728515625	0.4847412109375	-8.91113281249995E-08	-4.31959321645081E-08	-5439726	4.8733338189777E-05
2	609	127.32304667854	0.474700927734375	0.474609375	-8.23974609375E-08	-3.91066059535206E-08	-5760000.5	4.8724701628089E-05
2	610	127.423754678286	0.464630126953125	0.464599609375	-7.62939453125E-08	-3.54461349161284E-08	-6089600	4.87167089886498E-05
2	611	127.524462678032	0.454559326171875	0.45452880859375	-7.04956054687497E-08	-3.20422834931833E-08	-6447619.5	4.87093202536926E-05
2	612	127.625170677777	0.444488525390625	0.444427490234375	-6.65283203125006E-08	-2.95670119498936E-08	-6680275.5	4.87024190078955E-05
2	613	127.725878677523	0.434417724609375	0.434417724609375	-6.28662109374997E-08	-2.73101949943566E-08	-6910194.5	4.8695903387852E-05
2	614	127.826586677269	0.424346923828125	0.42431640625	-6.04248046875006E-08	-2.56392347353085E-08	-7022222.5	4.86896969960071E-05
2	615	127.927294677015	0.414276123046875	0.414306640625	-5.79833984375E-08	-2.40229063308561E-08	-7145263.5	4.86837343487423E-05
2	616	128.02800267676	0.404205322265625	0.404266357421875	-5.55419921874995E-08	-2.24537597404151E-08	-7278571.5	4.86780154460575E-05
2	617	128.128710676506	0.394134521484375	0.394134521484375	-5.31005859375003E-08	-2.09287733810015E-08	-7422414	4.86725475639105E-05
2	618	128.229418676252	0.384063720703125	0.384033203125	-5.09643554687494E-08	-1.95720044615655E-08	-7535329.5	4.86673052364495E-05
2	619	128.330126675998	0.373992919921875	0.373992919921875	-4.94384765624994E-08	-1.84896400412526E-08	-7564815	4.86622484459076E-05
2	620	128.430834675743	0.363922119140625	0.363983154296875	-4.82177734375006E-08	-1.75504570876228E-08	-7548734.5	4.86573335365392E-05
2	621	128.531542675489	0.353851318359375	0.35394287109375	-4.91333007812497E-08	-1.73903806910403E-08	-7203727	4.86524295411073E-05
2	622	128.632250675235	0.343780517578125	0.34381103515625	-4.91333007812497E-08	-1.68925708976531E-08	-6997516	4.86474818899296E-05
2	623	128.732958674981	0.333709716796875	0.333709716796875	-4.97436523437506E-08	-1.65999392010008E-08	-6708589	4.86425051349215E-05
2	624	128.833666674726	0.323638916015625	0.323699951171875	-4.94384765624994E-08	-1.60032325169368E-08	-6547531	4.86375101900194E-05
2	625	128.934374674472	0.313568115234375	0.313568115234375	-4.97436523437506E-08	-1.55980224292307E-08	-6303681	4.86325152451172E-05
2	626	129.035082674218	0.303497314453125	0.303558349609375	-4.97436523437506E-08	-1.51001007253626E-08	-6102454	4.86275057482999E-05
2	627	129.135790673963	0.293426513671875	0.29345703125	-4.91333007812497E-08	-1.44185117179063E-08	-5972671	4.8622525355313E-05
2	628	129.236498673709	0.283355712890625	0.283294677734375	-5.00488281250003E-08	-1.41785658769322E-08	-5660366	4.86175340483896E-05
2	629	129.337206673455	0.273284912109375	0.273284912109375	-5.15747070312503E-08	-1.40945886073496E-08	-5298816.5	4.86124154122081E-05
2	630	129.437914673201	0.263214111328125	0.263214111328125	-5.37109374999997E-08	-1.41374760787016E-08	-4900568.5	4.86071148770861E-05
2	631	129.538622672946	0.253143310546875	0.253143310546875	-5.55419921874995E-08	-1.40600837639226E-08	-4557692.5	4.86016142531298E-05
2	632	129.639330672692	0.243072509765625	0.24310302734375	-5.70678710937494E-08	-1.38733717847117E-08	-4259893	4.85959426441696E-05
2	633	129.740038672438	0.233001708984375	0.233001708984375	-5.85937499999994E-08	-1.36524436200602E-08	-3976562.5	4.85901182400994E-05
2	634	129.840746672184	0.222930908203125	0.22296142578125	-5.88989257812506E-08	-1.31321877816504E-08	-3785492.5	4.85842028865591E-05
2	635	129.941454671929	0.212860107421875	0.212890625	-6.04248046875006E-08	-1.28638744101295E-08	-3523232.5	4.85781929455698E-05
2	636	130.042162671675	0.202789306640625	0.202789306640625	-6.22558593750003E-08	-1.26248220766456E-08	-3257353	4.85720156575553E-05
2	637	130.142870671421	0.192718505859375	0.19281005859375	-6.50024414062506E-08	-1.25331238720605E-08	-2966197.25	4.8565609176876E-05
2	638	130.243578671167	0.182647705078125	0.182708740234375	-6.866455078125E-08	-1.25456134369983E-08	-2660889	4.85588789160829E-05
2	639	130.344286670912	0.172576904296875	0.172576904296875	-7.476806640625E-08	-1.29032420304043E-08	-2308163.25	4.8551653890172E-05
2	640	130.444994670658	0.162506103515625	0.1624755859375	-8.23974609375E-08	-1.33875746044509E-08	-1971852	4.85437412862666E-05
2	641	130.545702670404	0.152435302734375	0.15252685546875	-9.12475585937503E-08	-1.39177025459958E-08	-1671571.875	4.85349992231932E-05
2	642	130.64641067015	0.142364501953125	0.14239501953125	-1.0223388671875E-07	-1.45575960175393E-08	-1392835.875	4.8525253077969E-05
2	643	130.747118669895	0.132293701171875	0.132354736328125	-1.171875E-07	-1.55103201393558E-08	-1129427.125	4.85142045363318E-05
2	644	130.847826669641	0.122222900390625	0.122283935546875	-1.38244628906251E-07	-1.69050977660845E-08	-884547.4375	4.85013442812487E-05
2	645	130.948534669387	0.112152099609375	0.1121826171875	-1.67236328125001E-07	-1.87610087465373E-08	-670802.9375	4.84859629068524E-05
2	646	131.049242669132	0.102081298828125	0.1021728515625	-2.0751953125E-07	-2.12028616886073E-08	-492352.96875	4.846709271078E-05
2	647	131.149950668878	0.092010498046875	0.092010498046875	-2.6275634765625E-07	-2.4176342705573E-08	-350174.21875	4.84434094687458E-05
2	648	131.250658668624	0.081939697265625	0.082000732421875	-3.375244140625E-07	-2.76772471607956E-08	-242947.578125	4.84131851408165E-05
2	649	131.35136666837	0.071868896484375	0.071929931640625	-4.3609619140625E-07	-3.13683692354516E-08	-164940.53125	4.83742296637502E-05
2	650	131.452074668115	0.061798095703125	0.061798095703125	-5.6304931640625E-07	-3.47953736934414E-08	-109756.1015625	4.83239200548269E-05
2	651	131.552782667861	0.051727294921875	0.0517578125	-7.2174072265625E-07	-3.73557220711973E-08	-71712.4765625	4.82592258777004E-05
2	652	131.653490667607	0.041656494140625	0.041748046875	-9.10339355468751E-07	-3.80048881254424E-08	-45859.875	4.81770439364482E-05
2	653	131.754198667353	0.031585693359375	0.031683349609375	-1.121826171875E-06	-3.55432092646879E-08	-28242.654296875	4.80747148685623E-05
2	654	131.854906667098	0.021514892578125	0.0215972900390625	-1.34124755859375E-06	-2.89673121045553E-08	-16102.3896484375	4.79506888950709E-05
2	655	131.955614666844	0.011444091796875	0.0115447998046875	-1.54876708984375E-06	-1.78802057604344E-08	-7454.18701171875	4.78051661048084E-05
2	656	132.05632266659	0.001373291015625	0.00145568847656249	-1.72210693359375E-06	-2.50685117109128E-09	-845.295104980469	4.7640463890275E-05
2	657	132.157030666336	-0.008697509765625	-0.0086029052734375	-1.8463134765625E-06	1.58836588326494E-08	4659.50390625	4.74607804790139E-05
2	658	132.257738666081	-0.018768310546875	-0.018701171875	-1.91650390625E-06	3.58408662748388E-08	9757.9619140625	4.7271307266783E-05
2	659	132.358446665827	-0.028839111328125	-0.0286590576171875	-1.93572998046875E-06	5.54761925286584E-08	14805.2978515625	4.70773302367888E-05
2	660	132.459154665573	-0.038909912109375	-0.0388031005859375	-1.91680908203125E-06	7.43781285450495E-08	20243.59375	4.68833422928583E-05
2	661	132.559862665319	-0.048980712890625	-0.0488555908203125	-1.87286376953125E-06	9.14998707912673E-08	26086.03515625	4.66925157525111E-05
2	662	132.660570665064	-0.059051513671875	-0.058990478515625	-1.817626953125E-06	1.07222675183039E-07	32454.669921875	4.6506684157066E-05
2	663	132.76127866481	-0.069122314453125	-0.069061279296875	-1.75872802734375E-06	1.21460004720575E-07	39267.7421875	4.63266005681362E-05
2	664	132.861986664556	-0.079193115234375	-0.07916259765625	-1.70318603515625E-06	1.34828624709371E-07	46479.12890625	4.61522795376368E-05
2	665	132.962694664301	-0.089263916015625	-0.0892333984375	-1.6522216796875E-06	1.47433354413806E-07	54008.12890625	4.5983320887899E-05
2	666	133.063402664047	-0.099334716796875	-0.099212646484375	-1.60858154296875E-06	1.59591635906509E-07	61677.1015625	4.58191279903986E-05
2	667	133.164110663793	-0.109405517578125	-0.10931396484375	-1.57135009765625E-06	1.71770494716839E-07	69566.90625	4.56590059911832E-05
2	668	133.264818663539	-0.119476318359375	-0.11944580078125	-1.5411376953125E-06	1.84082423970722E-07	77504.953125	4.55022782261949E-05
2	669	133.365526663284	-0.129547119140625	-0.129364013671875	-1.51763916015625E-06	1.96327889057102E-07	85240.296875	4.53482571174391E-05
2	670	133.46623466303	-0.139617919921875	-0.1395263671875	-1.50054931640625E-06	2.09366191938898E-07	92983.53125	4.51962805527728E-05
2	671	133.566942662776	-0.149688720703125	-0.149658203125	-1.49078369140625E-06	2.2310800318337E-07	100388.9453125	4.5045653678244E-05
2	672	133.667650662522	-0.159759521484375	-0.159576416015625	-1.48773193359375E-06	2.37406922565242E-07	107261.5390625	4.48956743639428E-05
2	673	133.768358662267	-0.169830322265625	-0.169677734375	-1.48895263671875E-06	2.5264210989917E-07	113957.78125	4.47457859991118E-05
2	674	133.869066662013	-0.179901123046875	-0.17974853515625	-1.4959716796875E-06	2.68898730837464E-07	120155.0390625	4.45954829046968E-05
2	675	133.969774661759	-0.189971923828125	-0.189788818359375	-1.50665283203125E-06	2.85945844780144E-07	125967.1875	4.44442885054741E-05
2	676	134.070482661505	-0.200042724609375	-0.199951171875	-1.5203857421875E-06	3.04002895745725E-07	131513.453125	4.42918644694146E-05
2	677	134.17119066125	-0.189971923828125	-0.18988037109375	-1.32080078125E-06	2.50794130352006E-07	143761.5625	4.41488009528257E-05
