Potential - Start -0.2 V, Upper Vertex 1.5 V, Lower Vertex -0.2 V, Stop -0.19 V; Scan - # end cross 5, Rate 0.1 Vps, Step 0.01 V 
Scan	Index	Time (s)	Potential applied (V)	WE(1).Potential (V)	WE(1).Current (A)	WE(1).Power (W)	WE(1).Resistance (Ω)	WE(1).Charge (C)
1	1	66.1605748329606	-0.189971923828125	-0.1898193359375	-2.38037109375E-07	4.51840449500196E-08	797435.9375	0
1	2	66.2612828327063	-0.179901123046875	-0.179779052734375	-2.03857421875001E-07	3.66492933778773E-08	881886.25	-2.22511555847404E-08
1	3	66.3619908324521	-0.169830322265625	-0.169677734375	-1.77612304687499E-07	3.01368530131185E-08	955326.4375	-4.14596819098279E-08
1	4	66.4626988321978	-0.159759521484375	-0.15966796875	-1.54724121093749E-07	2.47044855683498E-08	1031952.6875	-5.81941499433469E-08
1	5	66.5634068319436	-0.149688720703125	-0.14959716796875	-1.35192871093751E-07	2.02244692104614E-08	1106546.375	-7.27926305899018E-08
1	6	66.6641148316893	-0.139617919921875	-0.139495849609375	-1.16577148437499E-07	1.62620281685122E-08	1196596.875	-8.54702548735986E-08
1	7	66.764822831435	-0.129547119140625	-0.12945556640625	-9.88769531250003E-08	1.28001715893333E-08	1309259.25	-9.63192334779706E-08
1	8	66.8655308311808	-0.119476318359375	-0.119384765625	-8.087158203125E-08	9.65483426540459E-09	1476226.5	-1.05370290270912E-07
1	9	66.9662388309265	-0.109405517578125	-0.10931396484375	-6.31713867187495E-08	6.90551438253806E-09	1730434.875	-1.1262343235785E-07
1	10	67.0669468306722	-0.099334716796875	-0.099273681640625	-4.39453125000003E-08	4.36261293756957E-09	2259027.75	-1.18017183581287E-07
1	11	67.167654830418	-0.089263916015625	-0.089202880859375	-2.19726562499994E-08	1.96002414298846E-09	4059722.5	-1.21336412917117E-07
1	12	67.2683628301637	-0.079193115234375	-0.079193115234375	3.35693359374972E-09	-2.65846011870963E-10	-23590910	-1.22273789315841E-07
1	13	67.3690708299094	-0.069122314453125	-0.069061279296875	3.509521484375E-08	-2.42372055758722E-09	-1967826	-1.20337574571749E-07
1	14	67.4697788296552	-0.059051513671875	-0.058929443359375	7.56835937500006E-08	-4.45999193132707E-09	-778629	-1.14759416192101E-07
1	15	67.5704868294009	-0.048980712890625	-0.048828125	1.29089355468751E-07	-6.30319130223711E-09	-378250.59375	-1.04448282911562E-07
1	16	67.6711948291467	-0.038909912109375	-0.0387664794921875	1.9989013671875E-07	-7.7490369676525E-09	-193938.9375	-8.78828458894532E-08
1	17	67.7719028288924	-0.028839111328125	-0.02872314453125	2.947998046875E-07	-8.467577750082E-09	-97432.7109375	-6.29732284096463E-08
1	18	67.8726108286381	-0.018768310546875	-0.018646240234375	4.20227050781249E-07	-7.83565479167692E-09	-44371.82421875	-2.69687685516828E-08
1	19	67.9733188283839	-0.008697509765625	-0.00859375	5.80749511718751E-07	-4.99081620475295E-09	-14797.6884765625	2.34344046390333E-08
1	20	68.0740268281296	0.001373291015625	0.00150451660156251	7.7880859375E-07	1.17173037939011E-09	1931.81823730469	9.18935896265793E-08
1	21	68.1747348278753	0.011444091796875	0.011566162109375	1.00860595703125E-06	1.16657004056719E-08	11467.4736328125	1.81897064521763E-07
1	22	68.2754428276211	0.021514892578125	0.02159423828125	1.25762939453125E-06	2.71575473220764E-08	17170.58984375	2.96011080536118E-07
1	23	68.3761508273668	0.031585693359375	0.0316741943359375	1.5057373046875E-06	4.76930139825527E-08	21035.671875	4.35157630818139E-07
1	24	68.4768588271126	0.041656494140625	0.0417694091796875	1.727294921875E-06	7.21480830634391E-08	24181.978515625	5.97953714986943E-07
1	25	68.5775668268583	0.051727294921875	0.05181884765625	1.90093994140625E-06	9.85045147672281E-08	27259.59375	7.80649884291051E-07
1	26	68.678274826604	0.061798095703125	0.0618896484375	2.01324462890625E-06	1.24598997786052E-07	30741.248046875	9.77744662122859E-07
1	27	68.7789828263498	0.071868896484375	0.07196044921875	2.064208984375E-06	1.4854140317766E-07	34861.03125	1.18306081731134E-06
1	28	68.8796908260955	0.081939697265625	0.08197021484375	2.06451416015625E-06	1.69228670188204E-07	39704.36328125	1.39095857321081E-06
1	29	68.9803988258412	0.092010498046875	0.092041015625	2.02667236328125E-06	1.8653697964055E-07	45414.84765625	1.59696617174632E-06
1	30	69.081106825587	0.102081298828125	0.10211181640625	1.96624755859375E-06	2.00777108716466E-07	51932.33203125	1.79802555066999E-06
1	31	69.1818148253327	0.112152099609375	0.1121826171875	1.89483642578125E-06	2.12567698554267E-07	59204.3828125	1.99244664145226E-06
1	32	69.2825228250784	0.122222900390625	0.122222900390625	1.82098388671875E-06	2.22565930130258E-07	67119.15625	2.17955312109552E-06
1	33	69.3832308248242	0.132293701171875	0.13238525390625	1.74896240234375E-06	2.31536830597179E-07	75693.59375	2.35931406677992E-06
1	34	69.4839388245699	0.142364501953125	0.14239501953125	1.68121337890625E-06	2.39396399592806E-07	84697.765625	2.53203711508831E-06
1	35	69.5846468243157	0.152435302734375	0.152496337890625	1.6192626953125E-06	2.46931620040414E-07	94176.40625	2.69822930931696E-06
1	36	69.6853548240614	0.162506103515625	0.162506103515625	1.56463623046875E-06	2.54262914722858E-07	103861.9140625	2.85855139736668E-06
1	37	69.7860628238071	0.172576904296875	0.172576904296875	1.514892578125E-06	2.61435474158134E-07	113920.2265625	3.01361797028221E-06
1	38	69.8867708235529	0.182647705078125	0.182647705078125	1.4703369140625E-06	2.68553662863269E-07	124221.671875	3.16393629873346E-06
1	39	69.9874788232986	0.192718505859375	0.1927490234375	1.4300537109375E-06	2.75641440339314E-07	134784.46875	3.30998250319681E-06
1	40	70.0881868230443	0.202789306640625	0.202850341796875	1.3946533203125E-06	2.82905887161178E-07	145448.578125	3.45221769748605E-06
1	41	70.1888948227901	0.212860107421875	0.212860107421875	1.3623046875E-06	2.8998030643379E-07	156250.015625	3.59104160452262E-06
1	42	70.2896028225358	0.222930908203125	0.222991943359375	1.33392333984375E-06	2.97454135989028E-07	167170	3.72680756299815E-06
1	43	70.3903108222815	0.233001708984375	0.23297119140625	1.30859375E-06	3.04864641975655E-07	178031.71875	3.85986868423061E-06
1	44	70.4910188220273	0.243072509765625	0.2430419921875	1.28448486328125E-06	3.12183743744754E-07	189213.59375	3.99044074583799E-06
1	45	70.591726821773	0.253143310546875	0.253173828125	1.2640380859375E-06	3.20021342758992E-07	200289.71875	4.11876908401609E-06
1	46	70.6924348215188	0.263214111328125	0.263214111328125	1.2451171875E-06	3.27732408322845E-07	211397.078125	4.24511517849169E-06
1	47	70.7931428212645	0.273284912109375	0.27325439453125	1.2274169921875E-06	3.35397089656908E-07	222625.5625	4.36961681771209E-06
1	48	70.8938508210102	0.283355712890625	0.283355712890625	1.212158203125E-06	3.43471953101471E-07	233761.34375	4.49245953859645E-06
1	49	70.994558820756	0.293426513671875	0.293365478515625	1.1981201171875E-06	3.51487074112811E-07	244854.8125	4.61382660432719E-06
1	50	71.0952668205017	0.303497314453125	0.303466796875	1.1846923828125E-06	3.59514785941428E-07	256156.625	4.73381078336388E-06
1	51	71.1959748202474	0.313568115234375	0.3135986328125	1.1737060546875E-06	3.68072591072632E-07	267186.71875	4.85256532556377E-06
1	52	71.2966828199932	0.323638916015625	0.32366943359375	1.163330078125E-06	3.76534359247671E-07	278226.65625	4.97024439027882E-06
1	53	71.3973908197389	0.333709716796875	0.333740234375	1.15386962890625E-06	3.85092704391354E-07	289235.65625	5.08692482981132E-06
1	54	71.4980988194847	0.343780517578125	0.343780517578125	1.14501953125E-06	3.93635389173141E-07	300239.875	5.20268304171623E-06
1	55	71.5988068192304	0.353851318359375	0.353851318359375	1.1383056640625E-06	4.02790931275376E-07	310857.9375	5.31765772393555E-06
1	56	71.6995148189761	0.363922119140625	0.363922119140625	1.131591796875E-06	4.11811242884141E-07	321601.96875	5.43195619684411E-06
1	57	71.8002228187219	0.373992919921875	0.373931884765625	1.1260986328125E-06	4.21084166646324E-07	332059.625	5.54563985133427E-06
1	58	71.9009308184676	0.384063720703125	0.384063720703125	1.1212158203125E-06	4.30618285918172E-07	342542.21875	5.65880100111826E-06
1	59	72.0016388182133	0.394134521484375	0.39410400390625	1.1175537109375E-06	4.40432387449619E-07	352648.84375	5.77153195990832E-06
1	60	72.1023468179591	0.404205322265625	0.40423583984375	1.114501953125E-06	4.50521639550061E-07	362705.375	5.88392504141666E-06
1	61	72.2030548177048	0.414276123046875	0.414276123046875	1.112060546875E-06	4.60700135818115E-07	372530.1875	5.99604118178831E-06
1	62	72.3037628174505	0.424346923828125	0.42431640625	1.11053466796875E-06	4.71218072561896E-07	382083	6.10795768807293E-06
1	63	72.4044708171963	0.434417724609375	0.434417724609375	1.10931396484375E-06	4.81905658489268E-07	391609.34375	6.21973595116287E-06
1	64	72.505178816942	0.444488525390625	0.44451904296875	1.1090087890625E-06	4.92975516408478E-07	400825.5625	6.33143736195052E-06
1	65	72.6058868166878	0.454559326171875	0.45452880859375	1.1090087890625E-06	5.04076410834386E-07	409851.4375	6.44312376607559E-06
1	66	72.7065948164335	0.464630126953125	0.464599609375	1.10931396484375E-06	5.15386830102216E-07	418817.0625	6.55482517686323E-06
1	67	72.8073028161792	0.474700927734375	0.47467041015625	1.1102294921875E-06	5.26993119365216E-07	427542.59375	6.66658797854325E-06
1	68	72.908010815925	0.484771728515625	0.48480224609375	1.112060546875E-06	5.39129473509092E-07	435949.5	6.77848902341793E-06
1	69	73.0087188156707	0.494842529296875	0.494781494140625	1.11480712890625E-06	5.51585912944574E-07	443827	6.89062062519952E-06
1	70	73.1094268154164	0.504913330078125	0.504852294921875	1.1187744140625E-06	5.64815820780495E-07	451254.75	7.00309055901016E-06
1	71	73.2101348151622	0.514984130859375	0.5150146484375	1.124267578125E-06	5.79014283630386E-07	458089.03125	7.11603661329718E-06
1	72	73.3108428149079	0.525054931640625	0.525054931640625	1.13128662109375E-06	5.93987579122768E-07	464121.9375	7.22961294741253E-06
1	73	73.4115508146537	0.535125732421875	0.53509521484375	1.14044189453125E-06	6.10245024290634E-07	469199.90625	7.34400327928597E-06
1	74	73.5122588143994	0.545196533203125	0.545166015625	1.15325927734375E-06	6.28717771178344E-07	472717.65625	7.45950046621147E-06
1	75	73.6129668141451	0.555267333984375	0.555206298828125	1.1712646484375E-06	6.50293543458247E-07	474022.90625	7.57654970584554E-06
1	76	73.7136748138909	0.565338134765625	0.565277099609375	1.19476318359375E-06	6.75372234582028E-07	473129	7.69568850955693E-06
1	77	73.8143828136366	0.575408935546875	0.575469970703125	1.23046875E-06	7.08097786628059E-07	467683.5625	7.81780909164809E-06
1	78	73.9150908133823	0.585479736328125	0.585479736328125	1.28082275390625E-06	7.49895775697951E-07	457112.21875	7.94426250649849E-06
1	79	74.0157988131281	0.595550537109375	0.59552001953125	1.35528564453125E-06	8.07099695521174E-07	439405.5625	8.07700052973814E-06
1	80	74.1165068128738	0.605621337890625	0.6055908203125	1.4617919921875E-06	8.85247800397337E-07	414279.75	8.21885168988956E-06
1	81	74.2172148126195	0.615692138671875	0.615631103515625	1.61041259765625E-06	9.91420051832392E-07	382281.59375	8.37354946270352E-06
1	82	74.3179228123653	0.625762939453125	0.625732421875	1.81640625E-06	1.13658427380869E-06	344489.25	8.54610334499739E-06
1	83	74.418630812111	0.635833740234375	0.63580322265625	2.09228515625E-06	1.33028163418203E-06	303879.8125	8.74292163643986E-06
1	84	74.5193388118568	0.645904541015625	0.645843505859375	2.44964599609375E-06	1.58208797529369E-06	263647.6875	8.97162681212649E-06
1	85	74.6200468116025	0.655975341796875	0.655914306640625	2.89215087890625E-06	1.89700313057983E-06	226791.1875	9.24060714169173E-06
1	86	74.7207548113482	0.666046142578125	0.666015625	3.4161376953125E-06	2.27520104090218E-06	194961.59375	9.55825453274883E-06
1	87	74.821462811094	0.676116943359375	0.676055908203125	4.00115966796875E-06	2.7050075459556E-06	168965	9.9317458079895E-06
1	88	74.9221708108397	0.686187744140625	0.686126708984375	4.6148681640625E-06	3.16638420372328E-06	148677.4375	1.0365596608608E-05
1	89	75.0228788105854	0.696258544921875	0.696197509765625	5.2154541015625E-06	3.63098615707713E-06	133487.421875	1.08605927380268E-05
1	90	75.1235868103312	0.706329345703125	0.7061767578125	5.7464599609375E-06	4.05801665692707E-06	122889.0078125	1.14125687105116E-05
1	91	75.2242948100769	0.716400146484375	0.716278076171875	6.170654296875E-06	4.41990414401516E-06	116078.140625	1.20126433102996E-05
1	92	75.3250028098226	0.726470947265625	0.726287841796875	6.4483642578125E-06	4.68336838821415E-06	112631.328125	1.26480617836933E-05
1	93	75.4257108095684	0.736541748046875	0.736358642578125	6.5704345703125E-06	4.83819621877046E-06	112071.53125	1.33036101033213E-05
1	94	75.5264188093141	0.746612548828125	0.746429443359375	6.5521240234375E-06	4.89069816467236E-06	113921.75	1.39643834700109E-05
1	95	75.6271268090599	0.756683349609375	0.7568359375	6.4239501953125E-06	4.86187627757317E-06	117814.7265625	1.46177808346692E-05
1	96	75.7278348088056	0.766754150390625	0.76690673828125	6.231689453125E-06	4.77912453789031E-06	123065.625	1.52550428538234E-05
1	97	75.8285428085513	0.776824951171875	0.77667236328125	6.0089111328125E-06	4.6669551920786E-06	129253.4296875	1.58714065037202E-05
1	98	75.9292508082971	0.786895751953125	0.7867431640625	5.780029296875E-06	4.54739847555174E-06	136114.046875	1.64650264196098E-05
1	99	76.0299588080428	0.796966552734375	0.79681396484375	5.56640625E-06	4.43539011030225E-06	143146.9375	1.70363637153059E-05
1	100	76.1306668077885	0.807037353515625	0.80718994140625	5.3680419921875E-06	4.33302921010181E-06	150369.53125	1.7586957255844E-05
1	101	76.2313748075343	0.817108154296875	0.8172607421875	5.1910400390625E-06	4.24243307861616E-06	157436.8125	1.81186496774899E-05
1	102	76.33208280728	0.827178955078125	0.82733154296875	5.0323486328125E-06	4.16342072639964E-06	164402.671875	1.86334382306086E-05
1	103	76.4327908070258	0.837249755859375	0.83740234375	4.892578125E-06	4.09705626225332E-06	171157.6875	1.91331982932752E-05
1	104	76.5334988067715	0.847320556640625	0.8477783203125	4.77294921875E-06	4.04640286433278E-06	177621.484375	1.96198961930349E-05
1	105	76.6342068065172	0.857391357421875	0.85723876953125	4.669189453125E-06	4.00261023969506E-06	183594.78125	2.00953454623232E-05
1	106	76.734914806263	0.867462158203125	0.8673095703125	4.58099365234375E-06	3.97313942812616E-06	189327.84375	2.05611286219209E-05
1	107	76.8356228060087	0.877532958984375	0.877685546875	4.5050048828125E-06	3.95397728425451E-06	194824.5625	2.1018646293669E-05
1	108	76.9363308057544	0.887603759765625	0.88775634765625	4.44305419921875E-06	3.94434937334154E-06	199807.6875	2.14692154258955E-05
1	109	77.0370388055002	0.897674560546875	0.89752197265625	4.39453125E-06	3.94418839277932E-06	204236.125	2.19142239075154E-05
1	110	77.1377468052459	0.907745361328125	0.90789794921875	4.36248779296875E-06	3.9606939026271E-06	208114.734375	2.2355174223776E-05
1	111	77.2384548049916	0.917816162109375	0.91827392578125	4.34967041015625E-06	3.99418877350399E-06	211113.453125	2.27938671741867E-05
1	112	77.3391628047374	0.927886962890625	0.9283447265625	4.365234375E-06	4.0524423638999E-06	212667.78125	2.32326965488028E-05
1	113	77.4398708044831	0.937957763671875	0.93780517578125	4.41864013671875E-06	4.14382338931318E-06	212238.421875	2.36750001931796E-05
1	114	77.5405788042289	0.948028564453125	0.9478759765625	4.51690673828125E-06	4.2814672269742E-06	209850.6875	2.41249399550725E-05
1	115	77.6412868039746	0.958099365234375	0.95733642578125	4.67315673828125E-06	4.47378306489554E-06	204858.625	2.45876963163028E-05
1	116	77.7419948037203	0.968170166015625	0.96832275390625	4.8956298828125E-06	4.74054968435667E-06	197793.296875	2.50695229624398E-05
1	117	77.8427028034661	0.978240966796875	0.9783935546875	5.1971435546875E-06	5.08485163663863E-06	188256.03125	2.55777358688647E-05
1	118	77.9434108032118	0.988311767578125	0.98846435546875	5.5633544921875E-06	5.49917785974685E-06	177674.15625	2.61195691564353E-05
1	119	78.0441188029575	0.998382568359375	0.99853515625	5.9967041015625E-06	5.98791939410148E-06	166514	2.6701663955464E-05
1	120	78.1448268027033	1.00845336914063	1.00830078125	6.4727783203125E-06	6.52650760457618E-06	155775.578125	2.73295536317164E-05
1	121	78.245534802449	1.01852416992188	1.01898193359375	6.9610595703125E-06	7.09319374436745E-06	146383.171875	2.80060012300964E-05
1	122	78.3462428021948	1.02859497070313	1.0284423828125	7.415771484375E-06	7.62669378673309E-06	138683.125	2.87299317278666E-05
1	123	78.4469508019405	1.03866577148438	1.03851318359375	7.806396484375E-06	8.10704477771651E-06	133033.625	2.94964283966692E-05
1	124	78.5476588016862	1.04873657226563	1.04888916015625	8.09326171875E-06	8.48893432703335E-06	129600.3046875	3.02970402117353E-05
1	125	78.648366801432	1.05880737304688	1.058349609375	8.251953125E-06	8.7334510681103E-06	128254.4453125	3.11200856231153E-05
1	126	78.7490748011777	1.06887817382813	1.06903076171875	8.2855224609375E-06	8.85747795109637E-06	129023.9453125	3.19528153340798E-05
1	127	78.8497828009234	1.07894897460938	1.07879638671875	8.209228515625E-06	8.85608551470796E-06	131412.640625	3.27833913615905E-05
1	128	78.9504908006692	1.08901977539063	1.0888671875	8.056640625E-06	8.77261118148454E-06	135151.515625	3.36024422722403E-05
1	129	79.0511988004149	1.09909057617188	1.09893798828125	7.867431640625E-06	8.64581852511037E-06	139681.9375	3.44042819051538E-05
1	130	79.1519068001606	1.10916137695313	1.10931396484375	7.6568603515625E-06	8.49386196932755E-06	144878.4375	3.51859926013276E-05
1	131	79.2526147999064	1.11923217773438	1.119384765625	7.4493408203125E-06	8.33867852634285E-06	150266.296875	3.59466503141448E-05
1	132	79.3533227996521	1.12930297851563	1.12945556640625	7.2540283203125E-06	8.19310298538767E-06	155700.46875	3.66870262951124E-05
1	133	79.4540307993979	1.13937377929688	1.138916015625	7.0709228515625E-06	8.05318722996162E-06	161070.359375	3.74083429051097E-05
1	134	79.5547387991436	1.14944458007813	1.1492919921875	6.9091796875E-06	7.94066454545828E-06	166342.765625	3.81122990802396E-05
1	135	79.6554467988893	1.15951538085938	1.15997314453125	6.7596435546875E-06	7.8410048445221E-06	171602.71875	3.88005755667109E-05
1	136	79.7561547986351	1.16958618164063	1.16943359375	6.6253662109375E-06	7.74792533775326E-06	176508.53125	3.94745657104068E-05
1	137	79.8568627983808	1.17965698242188	1.17950439453125	6.5032958984375E-06	7.67066649132175E-06	181370.25	4.0135648305295E-05
1	138	79.9575707981265	1.18972778320313	1.190185546875	6.396484375E-06	7.6130031629873E-06	186068.703125	4.07852021453436E-05
1	139	80.0582787978723	1.19979858398438	1.199951171875	6.298828125E-06	7.55828568799188E-06	190503.890625	4.14244605053682E-05
1	140	80.158986797618	1.20986938476563	1.209716796875	6.2103271484375E-06	7.51273682908504E-06	194791.171875	4.20543474319857E-05
1	141	80.2596947973637	1.21994018554688	1.21978759765625	6.1309814453125E-06	7.47849480831064E-06	198954.71875	4.26757833338343E-05
1	142	80.3604027971095	1.23001098632813	1.23046875	6.060791015625E-06	7.45761371945264E-06	203021.15625	4.32896849815734E-05
1	143	80.4611107968552	1.24008178710938	1.2396240234375	5.9967041015625E-06	7.43365808375529E-06	206717.5625	4.38968309026677E-05
1	144	80.561818796601	1.25015258789063	1.25	5.9356689453125E-06	7.41958592698211E-06	210591.265625	4.44976722064894E-05
1	145	80.6625267963467	1.26022338867188	1.26007080078125	5.8837890625E-06	7.4139907155768E-06	214159.75	4.50928309874143E-05
1	146	80.7632347960924	1.27029418945313	1.27044677734375	5.8349609375E-06	7.41300664230948E-06	217730.140625	4.56829147879034E-05
1	147	80.8639427958382	1.28036499023438	1.28021240234375	5.792236328125E-06	7.41529265724239E-06	221022.140625	4.62683929072227E-05
1	148	80.9646507955839	1.29043579101563	1.29058837890625	5.7525634765625E-06	7.42419160815189E-06	224350.125	4.68497164547443E-05
1	149	81.0653587953296	1.30050659179688	1.3006591796875	5.718994140625E-06	7.43846203477005E-06	227427.96875	4.74273583677132E-05
1	150	81.1660667950754	1.31057739257813	1.3104248046875	5.6854248046875E-06	7.45032139093382E-06	230488.46875	4.80016133224126E-05
1	151	81.2667747948211	1.32064819335938	1.32080078125	5.6610107421875E-06	7.47706735637621E-06	233315.375	4.85729542560875E-05
1	152	81.3674827945669	1.33071899414063	1.33056640625	5.6396484375E-06	7.50392655390897E-06	235930.734375	4.914198507322E-05
1	153	81.4681907943126	1.34078979492188	1.3409423828125	5.621337890625E-06	7.53788981455727E-06	238545.078125	4.97090222779661E-05
1	154	81.5688987940583	1.35086059570313	1.3507080078125	5.6060791015625E-06	7.57217594582471E-06	240936.3125	5.0274367822567E-05
1	155	81.6696067938041	1.36093139648438	1.36077880859375	5.596923828125E-06	7.61617502575973E-06	243129.78125	5.08384837303311E-05
1	156	81.7703147935498	1.37100219726563	1.37115478515625	5.5908203125E-06	7.66587982070632E-06	245251.09375	5.14018320245668E-05
1	157	81.8710227932955	1.38107299804688	1.380615234375	5.5877685546875E-06	7.71455870562932E-06	247078.09375	5.19647182954941E-05
1	158	81.9717307930413	1.39114379882813	1.39129638671875	5.584716796875E-06	7.76999604568118E-06	249125.6875	5.25272989762016E-05
1	159	82.072438792787	1.40121459960938	1.4013671875	5.5877685546875E-06	7.83051564212656E-06	250791.921875	5.30898760189302E-05
1	160	82.1731467925327	1.41128540039063	1.41143798828125	5.5908203125E-06	7.89109617471695E-06	252456.328125	5.36527622898575E-05
1	161	82.2738547922785	1.42135620117188	1.42120361328125	5.596923828125E-06	7.95436790212989E-06	253925.859375	5.42161105840933E-05
1	162	82.3745627920242	1.43142700195313	1.4312744140625	5.60302734375E-06	8.01946953288279E-06	255446.625	5.47800736967474E-05
1	163	82.47527079177	1.44149780273438	1.441650390625	5.615234375E-06	8.09520497568883E-06	256739.125	5.53449572180398E-05
1	164	82.5759787915157	1.45156860351563	1.4520263671875	5.6304931640625E-06	8.175624316209E-06	257886.1875	5.59112268092576E-05
1	165	82.6766867912614	1.46163940429688	1.461181640625	5.6488037109375E-06	8.25392817205284E-06	258671	5.6479184422642E-05
1	166	82.7773947910072	1.47171020507813	1.4715576171875	5.67626953125E-06	8.35295759316068E-06	259247.328125	5.70494448766112E-05
1	167	82.8781027907529	1.48178100585938	1.48162841796875	5.7159423828125E-06	8.4689027062268E-06	259209.828125	5.76230886508711E-05
1	168	82.9788107904986	1.49185180664063	1.49169921875	5.7647705078125E-06	8.5993033280829E-06	258761.25	5.82011889491696E-05
1	169	83.0795187902444	1.50192260742188	1.50177001953125	5.8349609375E-06	8.76276862982195E-06	257374.5	5.87852809985634E-05
1	170	83.1802267899901	1.49185180664063	1.4923095703125	5.5206298828125E-06	8.23848858999554E-06	270315.09375	5.9357080317568E-05
1	171	83.2809347897359	1.48178100585938	1.48193359375	5.2886962890625E-06	7.83749692345737E-06	280207.75	5.99013728788123E-05
1	172	83.3816427894816	1.47171020507813	1.47125244140625	5.1025390625E-06	7.50712297303835E-06	288337.3125	6.04246124566998E-05
1	173	83.4823507892273	1.46163940429688	1.4617919921875	4.945068359375E-06	7.22866116120713E-06	295606.03125	6.09305498073809E-05
1	174	83.5830587889731	1.45156860351563	1.45172119140625	4.81475830078125E-06	6.98968642609543E-06	301514.875	6.14219970884733E-05
1	175	83.6837667887188	1.44149780273438	1.4410400390625	4.70245361328125E-06	6.77642401569756E-06	306444.28125	6.19012280367315E-05
1	176	83.7844747884645	1.43142700195313	1.4312744140625	4.6044921875E-06	6.59029137750622E-06	310843.0625	6.2369872466661E-05
1	177	83.8851827882103	1.42135620117188	1.4215087890625	4.51904296875E-06	6.42385884930263E-06	314559.71875	6.28292764304206E-05
1	178	83.985890787956	1.41128540039063	1.41143798828125	4.443359375E-06	6.27152576271328E-06	317651.125	6.32805677014403E-05
1	179	84.0865987877017	1.40121459960938	1.4013671875	4.373779296875E-06	6.12927033216693E-06	320401.90625	6.37245466350578E-05
1	180	84.1873067874475	1.39114379882813	1.39068603515625	4.31182861328125E-06	5.99639952270081E-06	322528.15625	6.41619044472463E-05
1	181	84.2880147871932	1.38107299804688	1.38092041015625	4.2547607421875E-06	5.87548584007891E-06	324558.875	6.45932668703608E-05
1	182	84.388722786939	1.37100219726563	1.37054443359375	4.20196533203125E-06	5.75898002352915E-06	326167.5	6.50190922897309E-05
1	183	84.4894307866847	1.36093139648438	1.361083984375	4.15313720703125E-06	5.6527683227614E-06	327724.3125	6.54398099868558E-05
1	184	84.5901387864304	1.35086059570313	1.3507080078125	4.10797119140625E-06	5.54866937818588E-06	328801.71875	6.58557837596163E-05
1	185	84.6908467861762	1.34078979492188	1.34033203125	4.0655517578125E-06	5.44918930245331E-06	329680.21875	6.62673555780202E-05
1	186	84.7915547859219	1.33071899414063	1.33056640625	4.02557373046875E-06	5.35629305886687E-06	330528.40625	6.66747728246264E-05
1	187	84.8922627856676	1.32064819335938	1.32080078125	3.988037109375E-06	5.26740222994704E-06	331190.71875	6.70782901579514E-05
1	188	84.9929707854134	1.31057739257813	1.3104248046875	3.95263671875E-06	5.17963326274185E-06	331531.8125	6.74781404086389E-05
1	189	85.0936787851591	1.30050659179688	1.3006591796875	3.91876220703125E-06	5.09697383677121E-06	331905.625	6.78744981996715E-05
1	190	85.1943867849049	1.29043579101563	1.29058837890625	3.88641357421875E-06	5.0157605073764E-06	332076.9375	6.82675163261592E-05
1	191	85.2950947846506	1.28036499023438	1.280517578125	3.85650634765625E-06	4.93832430947805E-06	332040.84375	6.86574057908729E-05
1	192	85.3958027843963	1.27029418945313	1.27044677734375	3.8275146484375E-06	4.86265389554319E-06	331924.71875	6.90443266648799E-05
1	193	85.4965107841421	1.26022338867188	1.26007080078125	3.79974365234375E-06	4.78794572700281E-06	331619.96875	6.94283880875446E-05
1	194	85.5972187838878	1.25015258789063	1.24969482421875	3.77288818359375E-06	4.71495877718553E-06	331230.3125	6.98096991982311E-05
1	195	85.6979267836335	1.24008178710938	1.23992919921875	3.74755859375E-06	4.64670711153303E-06	330863.1875	7.01883836882189E-05
1	196	85.7986347833793	1.23001098632813	1.23046875	3.7225341796875E-06	4.58046179119265E-06	330546	7.05645361449569E-05
1	197	85.899342783125	1.21994018554688	1.2200927734375	3.6981201171875E-06	4.51204959972529E-06	329922.4375	7.09381929482333E-05
1	198	86.0000507828707	1.20986938476563	1.20941162109375	3.67431640625E-06	4.44376064479002E-06	329152.84375	7.13094268576242E-05
1	199	86.1007587826165	1.19979858398438	1.1993408203125	3.6505126953125E-06	4.37820881415973E-06	328540.375	7.16782597010024E-05
1	200	86.2014667823622	1.18972778320313	1.1895751953125	3.62579345703125E-06	4.31315402238397E-06	328086.875	7.20446478226222E-05
1	201	86.302174782108	1.17965698242188	1.17919921875	3.60015869140625E-06	4.24530435338966E-06	327540.90625	7.24085039109923E-05
1	202	86.4028827818537	1.16958618164063	1.1700439453125	3.5723876953125E-06	4.17985074818716E-06	327524.34375	7.27696751710027E-05
1	203	86.5035907815994	1.15951538085938	1.15936279296875	3.541259765625E-06	4.10560460295528E-06	327387.125	7.3127870564349E-05
1	204	86.6042987813452	1.14944458007813	1.1492919921875	3.50433349609375E-06	4.02750220018788E-06	327963.09375	7.34826462576166E-05
1	205	86.7050067810909	1.13937377929688	1.138916015625	3.45977783203125E-06	3.94039625462028E-06	329187.625	7.38333183107898E-05
1	206	86.8057147808366	1.12930297851563	1.12945556640625	3.40301513671875E-06	3.8435541682702E-06	331898.5	7.41788899176754E-05
1	207	86.9064227805824	1.11923217773438	1.11968994140625	3.33038330078125E-06	3.72899648937164E-06	336204.53125	7.45179422665387E-05
1	208	87.0071307803281	1.10916137695313	1.10931396484375	3.233642578125E-06	3.58712486558943E-06	343054	7.48484671930782E-05
1	209	87.1078387800738	1.09909057617188	1.09893798828125	3.10394287109375E-06	3.41104077961063E-06	354045.8125	7.51675906940363E-05
1	210	87.2085467798196	1.08901977539063	1.08917236328125	2.93121337890625E-06	3.1925965231494E-06	371577.3125	7.54714856157079E-05
1	211	87.3092547795653	1.07894897460938	1.0791015625	2.7008056640625E-06	2.91444371214311E-06	399548.03125	7.5755080615636E-05
1	212	87.4099627793111	1.06887817382813	1.0687255859375	2.4029541015625E-06	2.56809858001361E-06	444754.875	7.60120747145265E-05
1	213	87.5106707790568	1.05880737304688	1.058349609375	2.02972412109375E-06	2.14815781873767E-06	521425.34375	7.62352719902992E-05
1	214	87.6113787788025	1.04873657226563	1.048583984375	1.580810546875E-06	1.65761252901575E-06	663320.5	7.64170763432048E-05
1	215	87.7120867785483	1.03866577148438	1.03851318359375	1.07147216796875E-06	1.11273800484923E-06	969239.5	7.65506338211708E-05
1	216	87.812794778294	1.02859497070313	1.02874755859375	5.279541015625E-07	5.43131534413988E-07	1948554.875	7.66311713960022E-05
1	217	87.9135027780397	1.01852416992188	1.0186767578125	-1.31225585937506E-08	-1.33676447688913E-08	-77627912	7.66570956329815E-05
1	218	88.0142107777855	1.00845336914063	1.0076904296875	-5.108642578125E-07	-5.14793043748796E-07	-1972520.875	7.66307057347149E-05
1	219	88.1149187775312	0.998382568359375	0.99884033203125	-9.21020507812501E-07	-9.19952412914427E-07	-1084493	7.65586082707159E-05
1	220	88.215626777277	0.988311767578125	0.9881591796875	-1.2158203125E-06	-1.20142397008749E-06	-812751.0625	7.64510114095174E-05
1	221	88.3163347770227	0.978240966796875	0.97808837890625	-1.3787841796875E-06	-1.3485728231899E-06	-709384.6875	7.63203643145971E-05
1	222	88.4170427767684	0.968170166015625	0.96832275390625	-1.4190673828125E-06	-1.37411518608133E-06	-682365.625	7.61794799473137E-05
1	223	88.5177507765142	0.958099365234375	0.958251953125	-1.35711669921875E-06	-1.30045964397141E-06	-706094.0625	7.60396869736724E-05
1	224	88.6184587762599	0.948028564453125	0.94757080078125	-1.22802734375E-06	-1.16364276436798E-06	-771620.3125	7.5909512815997E-05
1	225	88.7191667760056	0.937957763671875	0.9381103515625	-1.06048583984375E-06	-9.94852712210559E-07	-884604.3125	7.57942761993036E-05
1	226	88.8198747757514	0.927886962890625	0.927734375	-8.795166015625E-07	-8.1595777601251E-07	-1054823.125	7.56965891923755E-05
1	227	88.9205827754971	0.917816162109375	0.9173583984375	-6.9854736328125E-07	-6.4081825712492E-07	-1313237.25	7.5617128459271E-05
1	228	89.0212907752428	0.907745361328125	0.90789794921875	-5.26123046875E-07	-4.77665992093534E-07	-1725638.125	7.55554647184908E-05
1	229	89.1219987749886	0.897674560546875	0.89752197265625	-3.66821289062499E-07	-3.29230147144699E-07	-2446755.5	7.55104993004352E-05
1	230	89.2227067747343	0.887603759765625	0.88775634765625	-2.1820068359375E-07	-1.93709041695911E-07	-4068531.5	7.54810389480554E-05
1	231	89.3234147744801	0.877532958984375	0.877685546875	-8.33129882812506E-08	-7.31225995309615E-08	-10534799	7.54658613004722E-05
1	232	89.4241227742258	0.867462158203125	0.86761474609375	3.63159179687503E-08	3.15082253621313E-08	23890756	7.54634893382899E-05
1	233	89.5248307739715	0.857391357421875	0.85723876953125	1.37939453124999E-07	1.18247044156305E-07	6214602	7.54722641431727E-05
1	234	89.6255387737173	0.847320556640625	0.84808349609375	2.25219726562501E-07	1.91005128158395E-07	3765582.75	7.54905559006147E-05
1	235	89.726246773463	0.837249755859375	0.83770751953125	2.978515625E-07	2.49512481786951E-07	2812500	7.55168948671781E-05
1	236	89.8269547732087	0.827178955078125	0.82733154296875	3.57666015624999E-07	2.95908364478237E-07	2313140	7.5549898610916E-05
1	237	89.9276627729545	0.817108154296875	0.8172607421875	4.0283203125E-07	3.29218806882636E-07	2028787.875	7.55881919758394E-05
1	238	90.0283707727002	0.807037353515625	0.80718994140625	4.3212890625E-07	3.4881009014498E-07	1867937.875	7.56302397348918E-05
1	239	90.129078772446	0.796966552734375	0.79742431640625	4.41589355468749E-07	3.52134094327994E-07	1805805.125	7.56742301746272E-05
1	240	90.2297867721917	0.786895751953125	0.78643798828125	4.254150390625E-07	3.34562543002903E-07	1848637	7.57178859203123E-05
1	241	90.3304947719374	0.776824951171875	0.7769775390625	3.7567138671875E-07	2.91888227366144E-07	2068237.125	7.57582238293253E-05
1	242	90.4312027716832	0.766754150390625	0.7666015625	2.81677246093751E-07	2.15934221614589E-07	2721560.25	7.57913294364698E-05
1	243	90.5319107714289	0.756683349609375	0.75653076171875	1.2969970703125E-07	9.81218093443204E-08	5832941.5	7.58120440877974E-05
1	244	90.6326187711746	0.746612548828125	0.746490478515625	-9.52148437499995E-08	-7.10769754164176E-08	-7840064	7.58137757657096E-05
1	245	90.7333267709204	0.736541748046875	0.73638916015625	-4.0435791015625E-07	-2.97764785273102E-07	-1821132.125	7.57886227802373E-05
1	246	90.8340347706661	0.726470947265625	0.72637939453125	-8.0596923828125E-07	-5.85439408951061E-07	-901249.5625	7.57276793592609E-05
1	247	90.9347427704118	0.716400146484375	0.71630859375	-1.2945556640625E-06	-9.27301357478427E-07	-553323.875	7.56219087634236E-05
1	248	91.0354507701576	0.706329345703125	0.706329345703125	-1.85333251953125E-06	-1.30906312278967E-06	-381113.125	7.54634020267986E-05
1	249	91.1361587699033	0.696258544921875	0.696258544921875	-2.45208740234375E-06	-1.707286742203E-06	-283945.25	7.52466075937264E-05
1	250	91.2368667696491	0.686187744140625	0.68609619140625	-3.04351806640625E-06	-2.08814617508324E-06	-225428.65625	7.49698810977861E-05
1	251	91.3375747693948	0.676116943359375	0.676116943359375	-3.5809326171875E-06	-2.42112923842797E-06	-188810.296875	7.46363075450063E-05
1	252	91.4382827691405	0.666046142578125	0.666015625	-4.0179443359375E-06	-2.67601376435778E-06	-165760.296875	7.42536794859916E-05
1	253	91.5389907688863	0.655975341796875	0.65594482421875	-4.31640625E-06	-2.83132408185338E-06	-151965.515625	7.38340095267631E-05
1	254	91.639698768632	0.645904541015625	0.64581298828125	-4.4561767578125E-06	-2.87785678665387E-06	-144925.359375	7.33922715880908E-05
1	255	91.7404067683777	0.635833740234375	0.635711669921875	-4.4482421875E-06	-2.82779956251034E-06	-142913.015625	7.29438979760744E-05
1	256	91.8411147681235	0.625762939453125	0.625701904296875	-4.322509765625E-06	-2.70460236606596E-06	-144754.3125	7.25022619008087E-05
1	257	91.9418227678692	0.615692138671875	0.615631103515625	-4.1204833984375E-06	-2.53669782068755E-06	-149407.484375	7.20771204214543E-05
1	258	92.0425307676149	0.605621337890625	0.605560302734375	-3.8818359375E-06	-2.3506856905442E-06	-155998.4375	7.16741706128232E-05
1	259	92.1432387673607	0.595550537109375	0.595550537109375	-3.63433837890625E-06	-2.16443208955752E-06	-163867.671875	7.12957044015639E-05
1	260	92.2439467671064	0.585479736328125	0.58544921875	-3.39508056640625E-06	-1.98764723791101E-06	-172440.453125	7.09417436155491E-05
1	261	92.3446547668522	0.575408935546875	0.57537841796875	-3.17108154296875E-06	-1.82457188202534E-06	-181445.484375	7.06111095496453E-05
1	262	92.4453627665979	0.565338134765625	0.5653076171875	-2.967529296875E-06	-1.67756695645949E-06	-190497.734375	7.0302005042322E-05
1	263	92.5460707663436	0.555267333984375	0.555267333984375	-2.783203125E-06	-1.54542169639171E-06	-199506.59375	7.00124364811927E-05
1	264	92.6467787660894	0.545196533203125	0.54522705078125	-2.618408203125E-06	-1.4276270121627E-06	-208228.4375	6.97404393577017E-05
1	265	92.7474867658351	0.535125732421875	0.53509521484375	-2.4700927734375E-06	-1.32173488509579E-06	-216629.59375	6.94842165103182E-05
1	266	92.8481947655808	0.525054931640625	0.524993896484375	-2.33734130859375E-06	-1.22708991057152E-06	-224611.5625	6.92421454004943E-05
1	267	92.9489027653266	0.514984130859375	0.5150146484375	-2.2174072265625E-06	-1.14199724521313E-06	-232259.84375	6.901279266458E-05
1	268	93.0496107650723	0.504913330078125	0.50494384765625	-2.10906982421875E-06	-1.06496179341775E-06	-239415.421875	6.87949359416962E-05
1	269	93.1503187648181	0.494842529296875	0.494781494140625	-2.0098876953125E-06	-9.94455149339046E-07	-246173.71875	6.85875274939463E-05
1	270	93.2510267645638	0.484771728515625	0.484710693359375	-1.920166015625E-06	-9.30724979752995E-07	-252431.671875	6.83896359987557E-05
1	271	93.3517347643095	0.474700927734375	0.474700927734375	-1.83807373046875E-06	-8.72535281359887E-07	-258260.015625	6.82003956171684E-05
1	272	93.4524427640553	0.464630126953125	0.46453857421875	-1.76177978515625E-06	-8.18414605419093E-07	-263675.75	6.80191296851262E-05
1	273	93.553150763801	0.454559326171875	0.45458984375	-1.6912841796875E-06	-7.688406071793E-07	-268783.84375	6.78452488500625E-05
1	274	93.6538587635467	0.444488525390625	0.4444580078125	-1.62689208984375E-06	-7.23085236131737E-07	-273194.53125	6.7678171035368E-05
1	275	93.7545667632925	0.434417724609375	0.43438720703125	-1.56707763671875E-06	-6.80718471812725E-07	-277195.71875	6.75173359923065E-05
1	276	93.8552747630382	0.424346923828125	0.424346923828125	-1.51092529296875E-06	-6.41156475467142E-07	-280852.375	6.73623508191667E-05
1	277	93.9559827627839	0.414276123046875	0.414337158203125	-1.45904541015625E-06	-6.04536694481794E-07	-283978.25	6.72128007863648E-05
1	278	94.0566907625297	0.404205322265625	0.404266357421875	-1.41082763671875E-06	-5.70350152884203E-07	-286545.53125	6.70682929921895E-05
1	279	94.1573987622754	0.394134521484375	0.3941650390625	-1.36474609375E-06	-5.37935193278827E-07	-288819.34375	6.69285291223787E-05
1	280	94.2581067620212	0.384063720703125	0.38409423828125	-1.3214111328125E-06	-5.07546417338745E-07	-290669.75	6.6793269070331E-05
1	281	94.3588147617669	0.373992919921875	0.3740234375	-1.28021240234375E-06	-4.78829406347359E-07	-292157.34375	6.66622654534876E-05
1	282	94.4595227615126	0.363922119140625	0.36395263671875	-1.241455078125E-06	-4.51830828751554E-07	-293166.1875	6.65352927171625E-05
1	283	94.5602307612584	0.353851318359375	0.353851318359375	-1.20452880859375E-06	-4.26224090688265E-07	-293767.4375	6.64121253066696E-05
1	284	94.6609387610041	0.343780517578125	0.343780517578125	-1.16973876953125E-06	-4.02133395027704E-07	-293895.125	6.6292574047111E-05
1	285	94.7616467607498	0.333709716796875	0.333740234375	-1.13616943359375E-06	-3.79185451038211E-07	-293741.59375	6.61764643155038E-05
1	286	94.8623547604956	0.323638916015625	0.32366943359375	-1.104736328125E-06	-3.57569376774336E-07	-292983.4375	6.60636214888655E-05
1	287	94.9630627602413	0.313568115234375	0.3135986328125	-1.0748291015625E-06	-3.37064932409703E-07	-291766.03125	6.59538709442131E-05
1	288	95.0637707599871	0.303497314453125	0.303466796875	-1.04644775390625E-06	-3.17562154350526E-07	-289997.0625	6.58470598864369E-05
1	289	95.1644787597328	0.293426513671875	0.293426513671875	-1.0198974609375E-06	-2.99264968361967E-07	-287701.96875	6.57430064165965E-05
1	290	95.2651867594785	0.283355712890625	0.2833251953125	-9.9456787109375E-07	-2.81786128653039E-07	-284872.6875	6.56415722914971E-05
1	291	95.3658947592243	0.273284912109375	0.273223876953125	-9.69848632812501E-07	-2.64985800413342E-07	-281718.0625	6.55426556477323E-05
1	292	95.46660275897	0.263214111328125	0.263214111328125	-9.46960449218751E-07	-2.49253361062074E-07	-277956.8125	6.54461400699802E-05
1	293	95.5673107587157	0.253143310546875	0.253143310546875	-9.25292968749999E-07	-2.34231720241951E-07	-273581.78125	6.53518654871732E-05
1	294	95.6680187584615	0.243072509765625	0.243072509765625	-9.0484619140625E-07	-2.1994323162744E-07	-268634.0625	6.5259708208032E-05
1	295	95.7687267582072	0.233001708984375	0.233001708984375	-8.85620117187499E-07	-2.06350989628845E-07	-263094.4375	6.51695518172346E-05
1	296	95.8694347579529	0.222930908203125	0.222991943359375	-8.67614746093751E-07	-1.9347109514456E-07	-257017.234375	6.50812653475441E-05
1	297	95.9701427576987	0.212860107421875	0.212890625	-8.5113525390625E-07	-1.81198700488494E-07	-250125.5	6.4994725107681E-05
1	298	96.0708507574444	0.202789306640625	0.20281982421875	-8.3587646484375E-07	-1.69532313520904E-07	-242643.3125	6.49097710265778E-05
1	299	96.1715587571902	0.192718505859375	0.192718505859375	-8.2275390625E-07	-1.58559899432476E-07	-234235.921875	6.48262575850822E-05
1	300	96.2722667569359	0.182647705078125	0.182708740234375	-8.11157226562501E-07	-1.48205501204757E-07	-225244.5625	6.4743981056381E-05
1	301	96.3729747566816	0.172576904296875	0.172607421875	-8.0230712890625E-07	-1.38484168132891E-07	-215138.84375	6.4662737713661E-05
1	302	96.4736827564274	0.162506103515625	0.16259765625	-7.97119140624999E-07	-1.29609702526068E-07	-203981.625	6.45822001388296E-05
1	303	96.5743907561731	0.152435302734375	0.1524658203125	-7.952880859375E-07	-1.21254245755154E-07	-191711.4375	6.45020190859213E-05
1	304	96.6750987559188	0.142364501953125	0.142425537109375	-7.99560546875E-07	-1.13877838714416E-07	-178129.765625	6.4421707065776E-05
1	305	96.7758067556646	0.132293701171875	0.13232421875	-8.1024169921875E-07	-1.07214596312133E-07	-163314.515625	6.43406456219964E-05
1	306	96.8765147554103	0.122222900390625	0.12225341796875	-8.30993652343751E-07	-1.01591815848678E-07	-147117.15625	6.42580052954145E-05
1	307	96.977222755156	0.112152099609375	0.112152099609375	-8.636474609375E-07	-9.68598712347557E-08	-129858.6640625	6.41726728645153E-05
1	308	97.0779307549018	0.102081298828125	0.102081298828125	-9.130859375E-07	-9.32089960770099E-08	-111798.1328125	6.40832076896913E-05
1	309	97.1786387546475	0.092010498046875	0.09210205078125	-9.83581542968751E-07	-9.05898787095794E-08	-93639.4609375	6.39877034700476E-05
1	310	97.2793467543933	0.081939697265625	0.082000732421875	-1.08062744140625E-06	-8.8612239323993E-08	-75882.5234375	6.38837591395713E-05
1	311	97.380054754139	0.071868896484375	0.071929931640625	-1.2103271484375E-06	-8.70587442136639E-08	-59430.15625	6.37684061075561E-05
1	312	97.4807627538847	0.061798095703125	0.06182861328125	-1.37359619140625E-06	-8.49275494374524E-08	-45012.21875	6.36382901575416E-05
1	313	97.5814707536305	0.051727294921875	0.051788330078125	-1.56829833984375E-06	-8.12195537491789E-08	-33021.98828125	6.34901589364745E-05
1	314	97.6821787533762	0.041656494140625	0.0417816162109375	-1.783447265625E-06	-7.45153059256154E-08	-23427.447265625	6.33213858236559E-05
1	315	97.7828867531219	0.031585693359375	0.0316619873046875	-2.00103759765625E-06	-6.33568220109737E-08	-15822.78515625	6.31308212177828E-05
1	316	97.8835947528677	0.021514892578125	0.02164306640625	-2.1966552734375E-06	-4.75423576062894E-08	-9852.7373046875	6.29194473731332E-05
1	317	97.9843027526134	0.011444091796875	0.0115325927734375	-2.34954833984375E-06	-2.70963838033822E-08	-4908.4296875	6.26905311946757E-05
1	318	98.0850107523592	0.001373291015625	0.0014984130859375	-2.44659423828125E-06	-3.66600860779442E-09	-612.448547363281	6.24490203335881E-05
1	319	98.1857187521049	-0.008697509765625	-0.0086212158203125	-2.4847412109375E-06	2.14214885829733E-08	3469.66357421875	6.22007137280889E-05
1	320	98.2864267518506	-0.018768310546875	-0.0186492919921875	-2.47283935546875E-06	4.61166997922646E-08	7541.6513671875	6.19510756223463E-05
1	321	98.3871347515964	-0.028839111328125	-0.0286773681640625	-2.42523193359375E-06	6.95492730073966E-08	11824.587890625	6.17044424870983E-05
1	322	98.4878427513421	-0.038909912109375	-0.0387969970703125	-2.35595703125E-06	9.14040541033501E-08	16467.619140625	6.14636883256026E-05
1	323	98.5885507510878	-0.048980712890625	-0.0488189697265625	-2.27569580078125E-06	1.11097122612591E-07	21452.326171875	6.12304647802375E-05
1	324	98.6892587508336	-0.059051513671875	-0.058990478515625	-2.19390869140625E-06	1.2941971760938E-07	26888.302734375	6.10054012213368E-05
1	325	98.7899667505793	-0.069122314453125	-0.069061279296875	-2.1142578125E-06	1.46013348967244E-07	32664.55078125	6.07884685450699E-05
1	326	98.890674750325	-0.079193115234375	-0.07916259765625	-2.0404052734375E-06	1.61523772135297E-07	38797.48828125	6.05792665737681E-05
1	327	98.9913827500708	-0.089263916015625	-0.08917236328125	-1.9732666015625E-06	1.75960835235855E-07	45190.2265625	6.03771622991189E-05
1	328	99.0920907498165	-0.099334716796875	-0.09930419921875	-1.91253662109375E-06	1.89922914728413E-07	51922.76953125	6.01814972469583E-05
1	329	99.1927987495623	-0.109405517578125	-0.109283447265625	-1.859130859375E-06	2.03172234591875E-07	58782.0078125	5.99915765633341E-05
1	330	99.293506749308	-0.119476318359375	-0.119415283203125	-1.810302734375E-06	2.16177809875262E-07	65964.265625	5.98068072577007E-05
1	331	99.3942147490537	-0.129547119140625	-0.12945556640625	-1.768798828125E-06	2.28980852057248E-07	73188.40625	5.96265854255762E-05
1	332	99.4949227487995	-0.139617919921875	-0.139556884765625	-1.7315673828125E-06	2.41652145405169E-07	80595.703125	5.94503253523726E-05
1	333	99.5956307485452	-0.149688720703125	-0.14959716796875	-1.69921875E-06	2.54198312177323E-07	88038.796875	5.9277572290739E-05
1	334	99.6963387482909	-0.159759521484375	-0.159637451171875	-1.6705322265625E-06	2.66679478500009E-07	95560.8359375	5.91078933211975E-05
1	335	99.7970467480367	-0.169830322265625	-0.169708251953125	-1.64581298828125E-06	2.79308039807802E-07	103115.1484375	5.89409028179944E-05
1	336	99.8977547477824	-0.179901123046875	-0.17974853515625	-1.62445068359375E-06	2.91992620304882E-07	110651.890625	5.87762297072913E-05
1	337	99.9984627475282	-0.189971923828125	-0.1898193359375	-1.6064453125E-06	3.04934360428888E-07	118161.09375	5.8613542933017E-05
1	338	100.099170747274	-0.200042724609375	-0.199859619140625	-1.5911865234375E-06	3.18013917421922E-07	125604.1484375	5.84525296289939E-05
1	339	100.19987874702	-0.189971923828125	-0.189788818359375	-1.4422607421875E-06	2.73724936050712E-07	131591.203125	5.82997818128206E-05
2	340	100.300586746765	-0.179901123046875	-0.179718017578125	-1.33697509765625E-06	2.40278495766688E-07	134421.375	5.81598360440694E-05
2	341	100.401294746511	-0.169830322265625	-0.169677734375	-1.251220703125E-06	2.12304286151266E-07	135609.765625	5.80295090912841E-05
2	342	100.502002746257	-0.159759521484375	-0.15966796875	-1.17767333984375E-06	1.88036707982064E-07	135579.171875	5.79072075197473E-05
2	343	100.602710746003	-0.149688720703125	-0.14959716796875	-1.11297607421875E-06	1.66498068665533E-07	134411.84375	5.77918617636897E-05
2	344	100.703418745748	-0.139617919921875	-0.139495849609375	-1.0540771484375E-06	1.47039372677682E-07	132339.328125	5.76827442273498E-05
2	345	100.804126745494	-0.129547119140625	-0.129425048828125	-9.9945068359375E-07	1.29353949773758E-07	129496.1875	5.7579338317737E-05
2	346	100.90483474524	-0.119476318359375	-0.119415283203125	-9.4879150390625E-07	1.1330020299738E-07	125860.4140625	5.74812365812249E-05
2	347	101.005542744986	-0.109405517578125	-0.10931396484375	-9.002685546875E-07	9.84119239433312E-08	121423.7265625	5.7388129789615E-05
2	348	101.106250744731	-0.099334716796875	-0.09930419921875	-8.526611328125E-07	8.46728269721098E-08	116463.8515625	5.72998615098186E-05
2	349	101.206958744477	-0.089263916015625	-0.08917236328125	-8.05053710937501E-07	7.17885413337171E-08	110765.734375	5.72163917240687E-05
2	350	101.307666744223	-0.079193115234375	-0.079132080078125	-7.54394531249999E-07	5.96968092736461E-08	104894.8203125	5.71378659515176E-05
2	351	101.408374743968	-0.069122314453125	-0.06903076171875	-6.9915771484375E-07	4.82633879528294E-08	98734.1796875	5.70646734558977E-05
2	352	101.509082743714	-0.059051513671875	-0.05902099609375	-6.3629150390625E-07	3.75545567976587E-08	92757.796875	5.69974290556274E-05
2	353	101.60979074346	-0.048980712890625	-0.0488433837890625	-5.6121826171875E-07	2.74117990528566E-08	87030.9921875	5.69371295568999E-05
2	354	101.710498743206	-0.038909912109375	-0.0388031005859375	-4.6844482421875E-07	1.81771113716422E-08	82833.875	5.68852810829412E-05
2	355	101.811206742951	-0.028839111328125	-0.02872314453125	-3.53088378906249E-07	1.01418091702499E-08	81348.3125	5.68439136259258E-05
2	356	101.911914742697	-0.018768310546875	-0.018646240234375	-2.0751953125E-07	3.86945897545843E-09	89852.9453125	5.68156865483616E-05
2	357	102.012622742443	-0.008697509765625	-0.00859375	-2.83813476562506E-08	2.43902203989066E-10	302795.71875	5.68038085475564E-05
2	358	102.113330742189	0.001373291015625	0.0014617919921875	1.87072753906251E-07	2.73461447930501E-10	7814.0302734375	5.68117975490168E-05
2	359	102.214038741934	0.011444091796875	0.0115203857421875	4.3060302734375E-07	4.96071272948484E-09	26754.076171875	5.68428986298386E-05
2	360	102.31474674168	0.021514892578125	0.0215667724609375	6.8939208984375E-07	1.48679628608761E-08	31283.75390625	5.68992945773061E-05
2	361	102.415454741426	0.031585693359375	0.0316741943359375	9.40856933593751E-07	2.98008853150122E-08	33665.26171875	5.69813855690882E-05
2	362	102.516162741172	0.041656494140625	0.0417388916015625	1.16241455078125E-06	4.85178901499239E-08	35907.0625	5.70872944081202E-05
2	363	102.616870740917	0.051727294921875	0.05181884765625	1.33392333984375E-06	6.91223647208972E-08	38846.94921875	5.72129938518628E-05
2	364	102.717578740663	0.061798095703125	0.06182861328125	1.44439697265625E-06	8.93050611239232E-08	42805.83203125	5.73528923268896E-05
2	365	102.818286740409	0.071868896484375	0.07196044921875	1.49566650390625E-06	1.07628828516226E-07	48112.6328125	5.75009362364653E-05
2	366	102.918994740155	0.081939697265625	0.08203125	1.50054931640625E-06	1.23091936643505E-07	54667.48046875	5.76518104935531E-05
2	367	103.0197027399	0.092010498046875	0.092071533203125	1.470947265625E-06	1.35432372871946E-07	62593.359375	5.78014369239099E-05
2	368	103.120410739646	0.102081298828125	0.1021728515625	1.422119140625E-06	1.45301967791056E-07	71845.4921875	5.79471125092823E-05
2	369	103.221118739392	0.112152099609375	0.11224365234375	1.363525390625E-06	1.53047068351952E-07	82318.7109375	5.80873820581473E-05
2	370	103.321826739137	0.122222900390625	0.12225341796875	1.3031005859375E-06	1.59308498837163E-07	93817.328125	5.82216562179383E-05
2	371	103.422534738883	0.132293701171875	0.132293701171875	1.24481201171875E-06	1.64680784564553E-07	106276.046875	5.83499531785492E-05
2	372	103.523242738629	0.142364501953125	0.1424560546875	1.1907958984375E-06	1.69636081182034E-07	119630.9609375	5.84725967200939E-05
2	373	103.623950738375	0.152435302734375	0.152435302734375	1.14227294921875E-06	1.74122718021863E-07	133449.109375	5.85900779697113E-05
2	374	103.72465873812	0.162506103515625	0.162506103515625	1.09893798828125E-06	1.78584130594572E-07	147875.59375	5.87029317102861E-05
2	375	103.825366737866	0.172576904296875	0.172637939453125	1.060791015625E-06	1.83132769393524E-07	162744.546875	5.88116818107665E-05
2	376	103.926074737612	0.182647705078125	0.182586669921875	1.02752685546875E-06	1.87612712920782E-07	177695.28125	5.89168375881854E-05
2	377	104.026782737358	0.192718505859375	0.19268798828125	9.979248046875E-07	1.92288112543793E-07	193088.6875	5.90188246860635E-05
2	378	104.127490737103	0.202789306640625	0.20281982421875	9.722900390625E-07	1.97199682361315E-07	208600.140625	5.91180360061117E-05
2	379	104.228198736849	0.212860107421875	0.212860107421875	9.4940185546875E-07	2.02089779577364E-07	224204.4375	5.92147989664227E-05
2	380	104.328906736595	0.222930908203125	0.22296142578125	9.30175781250001E-07	2.07393313189641E-07	239698.171875	5.9309444623068E-05
2	381	104.429614736341	0.233001708984375	0.233001708984375	9.124755859375E-07	2.12608370020462E-07	255351.171875	5.9402227634564E-05
2	382	104.530322736086	0.243072509765625	0.243072509765625	8.9752197265625E-07	2.18162909959574E-07	270826.25	5.94933699176181E-05
2	383	104.631030735832	0.253143310546875	0.253143310546875	8.84094238281249E-07	2.23802544496721E-07	286330.6875	5.9583082475001E-05
2	384	104.731738735578	0.263214111328125	0.26324462890625	8.7249755859375E-07	2.29680296115475E-07	301713.90625	5.96715326537378E-05
2	385	104.832446735324	0.273284912109375	0.27325439453125	8.6181640625E-07	2.35495107858696E-07	317068	5.9758862335002E-05
2	386	104.933154735069	0.283355712890625	0.283355712890625	8.526611328125E-07	2.41606386452986E-07	332319.25	5.98451915720943E-05
2	387	105.033862734815	0.293426513671875	0.29339599609375	8.44421386718749E-07	2.47749852633206E-07	347452.125	5.99306476942729E-05
2	388	105.134570734561	0.303497314453125	0.303497314453125	8.3770751953125E-07	2.54241967923008E-07	362295.09375	6.00153507548384E-05
2	389	105.235278734306	0.313568115234375	0.3135986328125	8.31298828125E-07	2.60694150711061E-07	377239.375	6.00993917032611E-05
2	390	105.335986734052	0.323638916015625	0.323638916015625	8.258056640625E-07	2.67262862507778E-07	391906.875	6.01828323851805E-05
2	391	105.436694733798	0.333709716796875	0.333770751953125	8.21533203124999E-07	2.74203756589486E-07	406277.84375	6.0265781939961E-05
2	392	105.537402733544	0.343780517578125	0.34375	8.1787109375E-07	2.81143172742304E-07	420298.53125	6.03483313170727E-05
2	393	105.638110733289	0.353851318359375	0.35382080078125	8.148193359375E-07	2.88300014972265E-07	434232.21875	6.04305460001342E-05
2	394	105.738818733035	0.363922119140625	0.363983154296875	8.123779296875E-07	2.95691876317505E-07	448046.59375	6.05124805588275E-05
2	395	105.839526732781	0.373992919921875	0.373992919921875	8.1024169921875E-07	3.0302464892884E-07	461581.9375	6.0594185924856E-05
2	396	105.940234732527	0.384063720703125	0.384033203125	8.087158203125E-07	3.1057371074894E-07	474867.9375	6.06757093919441E-05
2	397	106.040942732272	0.394134521484375	0.3941650390625	8.0841064453125E-07	3.1864720995145E-07	487580.25	6.07571382715832E-05
2	398	106.141650732018	0.404205322265625	0.4041748046875	8.08105468750001E-07	3.26615861467872E-07	500151.09375	6.08385344094131E-05
2	399	106.242358731764	0.414276123046875	0.414276123046875	8.0902099609375E-07	3.35158091502308E-07	512070.90625	6.09199632890522E-05
2	400	106.34306673151	0.424346923828125	0.42431640625	8.09326171875E-07	3.43410363257135E-07	524283.59375	6.10014540143311E-05
2	401	106.443774731255	0.434417724609375	0.43438720703125	8.10546875E-07	3.52091177546754E-07	535918.6875	6.10830174991861E-05
2	402	106.544482731001	0.444488525390625	0.4444580078125	8.1207275390625E-07	3.60932233434141E-07	547313.0625	6.11647265031934E-05
2	403	106.645190730747	0.454559326171875	0.454620361328125	8.1329345703125E-07	3.69739751704401E-07	558986.875	6.12465664744377E-05
2	404	106.745898730493	0.464630126953125	0.464569091796875	8.148193359375E-07	3.78539880330209E-07	570149.8125	6.13285519648343E-05
2	405	106.846606730238	0.474700927734375	0.4747314453125	8.1695556640625E-07	3.87834489856687E-07	581098.25	6.14107193541713E-05
2	406	106.947314729984	0.484771728515625	0.484710693359375	8.19091796875E-07	3.9702254639451E-07	591766.0625	6.14930977462791E-05
2	407	107.04802272973	0.494842529296875	0.49481201171875	8.221435546875E-07	4.06806492492251E-07	601856	6.15757453488186E-05
2	408	107.148730729475	0.504913330078125	0.504913330078125	8.26110839843749E-07	4.17114364381632E-07	611193.25	6.16587421973236E-05
2	409	107.249438729221	0.514984130859375	0.514923095703125	8.319091796875E-07	4.28369247629234E-07	618965.5	6.17422265349887E-05
2	410	107.350146728967	0.525054931640625	0.52508544921875	8.38623046875001E-07	4.40348742358765E-07	626128.125	6.18263438809663E-05
2	411	107.450854728713	0.535125732421875	0.535064697265625	8.47778320312501E-07	4.53616252116262E-07	631137.5	6.19112615822814E-05
2	412	107.551562728458	0.545196533203125	0.545135498046875	8.59985351562501E-07	4.68808536879806E-07	633889.3125	6.19972561253235E-05
2	413	107.652270728204	0.555267333984375	0.55523681640625	8.76770019531251E-07	4.868149972026E-07	633275.3125	6.20847058598883E-05
2	414	107.75297872795	0.565338134765625	0.56536865234375	9.0057373046875E-07	5.09156109274045E-07	627787.1875	6.21742001385428E-05
2	415	107.853686727696	0.575408935546875	0.575347900390625	9.3505859375E-07	5.37983964932209E-07	615306.8125	6.22666339040734E-05
2	416	107.954394727441	0.585479736328125	0.58544921875	9.85107421875001E-07	5.76730315060558E-07	594299.9375	6.23633241048083E-05
2	417	108.055102727187	0.595550537109375	0.59552001953125	1.0595703125E-06	6.3099531644184E-07	562039.1875	6.2466278905049E-05
2	418	108.155810726933	0.605621337890625	0.605560302734375	1.16790771484375E-06	7.07238541508559E-07	518500.125	6.25784450676292E-05
2	419	108.256518726679	0.615692138671875	0.615692138671875	1.32171630859375E-06	8.1377027072449E-07	465827.78125	6.2703802541364E-05
2	420	108.357226726424	0.625762939453125	0.625732421875	1.53594970703125E-06	9.61093519435963E-07	407391.21875	6.28476991550997E-05
2	421	108.45793472617	0.635833740234375	0.635711669921875	1.82403564453125E-06	1.15956072477275E-06	348519.34375	6.30168869975023E-05
2	422	108.558642725916	0.645904541015625	0.6458740234375	2.197265625E-06	1.41915677431825E-06	293944.46875	6.3219376897905E-05
2	423	108.659350725662	0.655975341796875	0.655914306640625	2.6593017578125E-06	1.7442740727347E-06	246649.0625	6.34639218333177E-05
2	424	108.760058725407	0.666046142578125	0.665924072265625	3.20404052734375E-06	2.13364774026559E-06	207838.84375	6.37591656413861E-05
2	425	108.860766725153	0.676116943359375	0.676025390625	3.804931640625E-06	2.57223041444377E-06	177670.84375	6.41121005173773E-05
2	426	108.961474724899	0.686187744140625	0.68603515625	4.4287109375E-06	3.03825117953238E-06	154906.296875	6.4526691858191E-05
2	427	109.062182724644	0.696258544921875	0.69610595703125	5.029296875E-06	3.50092363987642E-06	138410.1875	6.50029396638274E-05
2	428	109.16289072439	0.706329345703125	0.706146240234375	5.5572509765625E-06	3.92423180528567E-06	127067.546875	6.55360199743882E-05
2	429	109.263598724136	0.716400146484375	0.7161865234375	5.9661865234375E-06	4.2729025153676E-06	120040.921875	6.61162703181617E-05
2	430	109.364306723882	0.726470947265625	0.726348876953125	6.2286376953125E-06	4.5241640691529E-06	116614.40625	6.67303247610107E-05
2	431	109.465014723627	0.736541748046875	0.736328125	6.3323974609375E-06	4.66272240373655E-06	116279.5234375	6.73628237564117E-05
2	432	109.565722723373	0.746612548828125	0.7464599609375	6.2957763671875E-06	4.69954466097988E-06	118565.203125	6.79987060721032E-05
2	433	109.666430723119	0.756683349609375	0.75714111328125	6.1553955078125E-06	4.66050323666423E-06	123004.4609375	6.86256680637598E-05
2	434	109.767138722865	0.766754150390625	0.7672119140625	5.95703125E-06	4.57030546385795E-06	128790.984375	6.92355824867263E-05
2	435	109.86784672261	0.776824951171875	0.7763671875	5.7342529296875E-06	4.45188561570831E-06	135391.171875	6.98242802172899E-05
2	436	109.968554722356	0.786895751953125	0.78704833984375	5.5084228515625E-06	4.33539526056848E-06	142880.890625	7.03903933754191E-05
2	437	110.069262722102	0.796966552734375	0.79742431640625	5.2947998046875E-06	4.22220227846992E-06	150605.1875	7.09343803464435E-05
2	438	110.169970721848	0.807037353515625	0.806884765625	5.0994873046875E-06	4.11469864047831E-06	158228.609375	7.14577763574198E-05
2	439	110.270678721593	0.817108154296875	0.8172607421875	4.92218017578125E-06	4.02270416088868E-06	166036.34375	7.19624076737091E-05
2	440	110.371386721339	0.827178955078125	0.82733154296875	4.76837158203125E-06	3.94502421841025E-06	173504	7.24503624951467E-05
2	441	110.472094721085	0.837249755859375	0.83740234375	4.63348388671875E-06	3.88009038942982E-06	180728.4375	7.29237872292288E-05
2	442	110.572802720831	0.847320556640625	0.84747314453125	4.515380859375E-06	3.82666394216358E-06	187685.875	7.33844717615284E-05
2	443	110.673510720576	0.857391357421875	0.85784912109375	4.412841796875E-06	3.78555228053301E-06	194398.359375	7.38340386305936E-05
2	444	110.774218720322	0.867462158203125	0.86822509765625	4.326171875E-06	3.75609079128481E-06	200691.328125	7.42740812711418E-05
2	445	110.874926720068	0.877532958984375	0.8770751953125	4.25079345703125E-06	3.72826525563141E-06	206332.125	7.47059675632045E-05
2	446	110.975634719813	0.887603759765625	0.887451171875	4.1888427734375E-06	3.71739315596642E-06	211860.71875	7.51309416955337E-05
2	447	111.076342719559	0.897674560546875	0.89752197265625	4.1400146484375E-06	3.71575401914015E-06	216791.984375	7.55503278924152E-05
2	448	111.177050719305	0.907745361328125	0.9075927734375	4.10797119140625E-06	3.72836484530126E-06	220934.5625	7.59656468289904E-05
2	449	111.277758719051	0.917816162109375	0.91827392578125	4.09698486328125E-06	3.76215439246153E-06	224134.078125	7.63787975301966E-05
2	450	111.378466718796	0.927886962890625	0.92742919921875	4.112548828125E-06	3.81409768124286E-06	225512.03125	7.67921810620464E-05
2	451	111.479174718542	0.937957763671875	0.93780517578125	4.166259765625E-06	3.9071401261026E-06	225095.234375	7.72090570535511E-05
2	452	111.579882718288	0.948028564453125	0.94757080078125	4.26605224609375E-06	4.04238653572975E-06	222118.890625	7.76336528360844E-05
2	453	111.680590718034	0.958099365234375	0.95794677734375	4.423828125E-06	4.23779192715301E-06	216542.5	7.80712289270014E-05
2	454	111.781298717779	0.968170166015625	0.968017578125	4.65118408203125E-06	4.50242805527523E-06	208122.828125	7.85281881690025E-05
2	455	111.882006717525	0.978240966796875	0.97869873046875	4.9560546875E-06	4.85048440168612E-06	197475.375	7.90119520388544E-05
2	456	111.982714717271	0.988311767578125	0.9881591796875	5.33447265625E-06	5.2713080549438E-06	185240.28125	7.95301239122637E-05
2	457	112.083422717017	0.998382568359375	0.99822998046875	5.77392578125E-06	5.76370575799956E-06	172885.84375	8.00894704298116E-05
2	458	112.184130716762	1.00845336914063	1.00860595703125	6.256103515625E-06	6.30994327366352E-06	161219.515625	8.06952302809805E-05
2	459	112.284838716508	1.01852416992188	1.0186767578125	6.744384765625E-06	6.870347988297E-06	151040.71875	8.13498627394438E-05
2	460	112.385546716254	1.02859497070313	1.0284423828125	7.196044921875E-06	7.40071754989913E-06	142917.734375	8.20518180262297E-05
2	461	112.486254716	1.03866577148438	1.03851318359375	7.574462890625E-06	7.86617965786718E-06	137107.171875	8.27955736895092E-05
2	462	112.586962715745	1.04873657226563	1.048583984375	7.843017578125E-06	8.22406218503602E-06	133696.5	8.35719038150273E-05
2	463	112.687670715491	1.05880737304688	1.0589599609375	7.9833984375E-06	8.45409886096604E-06	132645.265625	8.43688249005936E-05
2	464	112.788378715237	1.06887817382813	1.06903076171875	7.9986572265625E-06	8.55080998007907E-06	133651.28125	8.5173589468468E-05
2	465	112.889086714982	1.07894897460938	1.07879638671875	7.91015625E-06	8.53344863571692E-06	136381.171875	8.59746578498743E-05
2	466	112.989794714728	1.08901977539063	1.0888671875	7.7545166015625E-06	8.44363876240095E-06	140417.15625	8.67634371388704E-05
2	467	113.090502714474	1.09909057617188	1.09893798828125	7.5592041015625E-06	8.30709632282378E-06	145377.484375	8.75345431268215E-05
2	468	113.19121071422	1.10916137695313	1.1090087890625	7.3516845703125E-06	8.15308249002555E-06	150850.984375	8.82853637449443E-05
2	469	113.291918713965	1.11923217773438	1.11907958984375	7.1502685546875E-06	8.00171892478829E-06	156508.75	8.90156006789766E-05
2	470	113.392626713711	1.12930297851563	1.129150390625	6.9580078125E-06	7.85663723945618E-06	162280.703125	8.97260033525527E-05
2	471	113.493334713457	1.13937377929688	1.1395263671875	6.781005859375E-06	7.72713428887073E-06	168046.8125	9.04178232303821E-05
2	472	113.594042713203	1.14944458007813	1.14959716796875	6.622314453125E-06	7.61299361329293E-06	173594.46875	9.10927337827161E-05
2	473	113.694750712948	1.15951538085938	1.15936279296875	6.475830078125E-06	7.50783647163189E-06	179029.21875	9.1752277512569E-05
2	474	113.795458712694	1.16958618164063	1.16943359375	6.34765625E-06	7.42316206014948E-06	184230.78125	9.23979896469973E-05
2	475	113.89616671244	1.17965698242188	1.17950439453125	6.231689453125E-06	7.35030516807456E-06	189275.21875	9.30314126890153E-05
2	476	113.996874712186	1.18972778320313	1.18988037109375	6.1248779296875E-06	7.28787199477665E-06	194270.0625	9.36536089284346E-05
2	477	114.097582711931	1.19979858398438	1.1993408203125	6.0333251953125E-06	7.23601306162891E-06	198786.046875	9.42658298299648E-05
2	478	114.198290711677	1.20986938476563	1.20941162109375	5.9478759765625E-06	7.19343006494455E-06	203335.046875	9.486913040746E-05
2	479	114.298998711423	1.21994018554688	1.21978759765625	5.8746337890625E-06	7.1658050728729E-06	207636.375	9.54644419834949E-05
2	480	114.399706711169	1.23001098632813	1.23016357421875	5.804443359375E-06	7.1404147092835E-06	211934.796875	9.60525285336189E-05
2	481	114.500414710914	1.24008178710938	1.23992919921875	5.743408203125E-06	7.12141945768963E-06	215887.359375	9.66340085142292E-05
2	482	114.60112271066	1.25015258789063	1.25	5.6884765625E-06	7.11059556124383E-06	219742.5	9.72096459008753E-05
2	483	114.701830710406	1.26022338867188	1.2603759765625	5.6396484375E-06	7.10807717041462E-06	223484.84375	9.77800664259121E-05
2	484	114.802538710151	1.27029418945313	1.27044677734375	5.5938720703125E-06	7.10671611159341E-06	227114.03125	9.83457211987115E-05
2	485	114.903246709897	1.28036499023438	1.28021240234375	5.55419921875E-06	7.11055463398225E-06	230494.515625	9.89070686046034E-05
2	486	115.003954709643	1.29043579101563	1.290283203125	5.517578125E-06	7.11923803464742E-06	233849.5625	9.9464574304875E-05
2	487	115.104662709389	1.30050659179688	1.300048828125	5.487060546875E-06	7.13344616087852E-06	236929.9375	0.000100018703960814
2	488	115.205370709134	1.31057739257813	1.31103515625	5.462646484375E-06	7.16172098691459E-06	240000.015625	0.000100570061476901
2	489	115.30607870888	1.32064819335938	1.32080078125	5.4412841796875E-06	7.18685214451398E-06	242736.96875	0.000101119119790383
2	490	115.406786708626	1.33071899414063	1.33056640625	5.4229736328125E-06	7.21562628314132E-06	245357.34375	0.00010166617721552
2	491	115.507494708372	1.34078979492188	1.3409423828125	5.40771484375E-06	7.25143354429747E-06	247968.40625	0.000102211546618491
2	492	115.608202708117	1.35086059570313	1.35101318359375	5.3985595703125E-06	7.29352495909552E-06	250254.375	0.000102755686384626
2	493	115.708910707863	1.36093139648438	1.36138916015625	5.3955078125E-06	7.34538571123267E-06	252319.015625	0.00010329921497032
2	494	115.809618707609	1.37100219726563	1.37054443359375	5.3924560546875E-06	7.39060033083661E-06	254159.59375	0.000103842430689838
2	495	115.910326707355	1.38107299804688	1.3812255859375	5.3955078125E-06	7.4524132287479E-06	255995.484375	0.000104385646409355
2	496	116.0110347071	1.39114379882813	1.3909912109375	5.401611328125E-06	7.51359402784146E-06	257514.125	0.00010492932779016
2	497	116.111742706846	1.40121459960938	1.4007568359375	5.4107666015625E-06	7.57916814109194E-06	258883.265625	0.000105473773146514
2	498	116.212450706592	1.41128540039063	1.41143798828125	5.419921875E-06	7.64988362789154E-06	260416.671875	0.000106019142549485
2	499	116.313158706338	1.42135620117188	1.42120361328125	5.4351806640625E-06	7.72449766373029E-06	261482.328125	0.000106565734313335
2	500	116.413866706083	1.43142700195313	1.43157958984375	5.4534912109375E-06	7.80710706749232E-06	262507	0.000107114028651267
2	501	116.514574705829	1.44149780273438	1.441650390625	5.4718017578125E-06	7.88842498877784E-06	263469.0625	0.000107664156530518
2	502	116.615282705575	1.45156860351563	1.4520263671875	5.4931640625E-06	7.97621851233998E-06	264333.34375	0.000108216285298113
2	503	116.71599070532	1.46163940429688	1.4617919921875	5.5206298828125E-06	8.07001197244972E-06	264787.1875	0.000108770873339381
2	504	116.816698705066	1.47171020507813	1.47186279296875	5.55419921875E-06	8.17501859273762E-06	265000	0.00010932853911072
2	505	116.917406704812	1.48178100585938	1.4813232421875	5.596923828125E-06	8.29085274745012E-06	264667.40625	0.000109890039311722
2	506	117.018114704558	1.49185180664063	1.49169921875	5.6549072265625E-06	8.43542056827573E-06	263788.46875	0.000110456618131138
2	507	117.118822704303	1.50192260742188	1.50177001953125	5.72509765625E-06	8.59777992445743E-06	262313.4375	0.000111029643449001
2	508	117.219530704049	1.49185180664063	1.49139404296875	5.438232421875E-06	8.11054724181304E-06	274242.4375	0.0001115917621064
2	509	117.320238703795	1.48178100585938	1.48193359375	5.224609375E-06	7.74252384871943E-06	283644.875	0.000112128676846623
2	510	117.420946703541	1.47171020507813	1.47186279296875	5.0537109375E-06	7.43836926631047E-06	291243.96875	0.000112646237539593
2	511	117.521654703286	1.46163940429688	1.4617919921875	4.90997314453125E-06	7.17735929356422E-06	297718.9375	0.000113147943920922
2	512	117.622362703032	1.45156860351563	1.45172119140625	4.79095458984375E-06	6.95512972015422E-06	303012.9375	0.000113636429887265
2	513	117.723070702778	1.44149780273438	1.44134521484375	4.68841552734375E-06	6.75762521495926E-06	307426.9375	0.000114113747258671
2	514	117.823778702524	1.43142700195313	1.4312744140625	4.59991455078125E-06	6.583739832422E-06	311152.40625	0.000114581453090068
2	515	117.924486702269	1.42135620117188	1.42181396484375	4.52117919921875E-06	6.42827581032179E-06	314478.5625	0.000115040740638506
2	516	118.025194702015	1.41128540039063	1.41143798828125	4.45159912109375E-06	6.2831559262122E-06	317063.125	0.000115492555778474
2	517	118.125902701761	1.40121459960938	1.4007568359375	4.3896484375E-06	6.14882992522325E-06	319104.5625	0.000115937749797013
2	518	118.226610701507	1.39114379882813	1.39129638671875	4.33319091796875E-06	6.02875252297963E-06	321078.96875	0.000116376977530308
2	519	118.327318701252	1.38107299804688	1.38092041015625	4.2816162109375E-06	5.91257094129105E-06	322523.1875	0.000116810762847308
2	520	118.428026700998	1.37100219726563	1.370849609375	4.2340087890625E-06	5.80418964091223E-06	323771.0625	0.000117239564133342
2	521	118.528734700744	1.36093139648438	1.361083984375	4.1900634765625E-06	5.70302836422343E-06	324836.125	0.000117663745186292
2	522	118.629442700489	1.35086059570313	1.3507080078125	4.149169921875E-06	5.60431681151385E-06	325536.9375	0.000118083662528079
2	523	118.730150700235	1.34078979492188	1.3409423828125	4.11163330078125E-06	5.5134632930276E-06	326133.75	0.000118499629024882
2	524	118.830858699981	1.33071899414063	1.33056640625	4.07562255859375E-06	5.42288671567803E-06	326469.46875	0.000118911884783302
2	525	118.931566699727	1.32064819335938	1.3201904296875	4.041748046875E-06	5.33587717654882E-06	326638.46875	0.000119320626254193
2	526	119.032274699472	1.31057739257813	1.31103515625	4.010009765625E-06	5.25726409250638E-06	326940.625	0.000119726064440329
2	527	119.132982699218	1.30050659179688	1.30035400390625	3.98040771484375E-06	5.17593889526324E-06	326688.65625	0.000120128417620435
2	528	119.233690698964	1.29043579101563	1.290283203125	3.9520263671875E-06	5.09923347635777E-06	326486.46875	0.000120527845865581
2	529	119.33439869871	1.28036499023438	1.280517578125	3.924560546875E-06	5.02546890857047E-06	326283.03125	0.000120924465591088
2	530	119.435106698455	1.27029418945313	1.27044677734375	3.89923095703125E-06	4.9537652557774E-06	325819.84375	0.000121318422316108
2	531	119.535814698201	1.26022338867188	1.259765625	3.8751220703125E-06	4.88174509882811E-06	325090.59375	0.000121709890663624
2	532	119.636522697947	1.25015258789063	1.25	3.85101318359375E-06	4.81376628158614E-06	324589.9375	0.000122098936117254
2	533	119.737230697693	1.24008178710938	1.24053955078125	3.82904052734375E-06	4.75007618661039E-06	323981.84375	0.000122485653264448
2	534	119.837938697438	1.23001098632813	1.22955322265625	3.80706787109375E-06	4.68099233330577E-06	322965.9375	0.000122870158520527
2	535	119.938646697184	1.21994018554688	1.2200927734375	3.785400390625E-06	4.61853960587177E-06	322315.375	0.000123252480989322
2	536	120.03935469693	1.20986938476563	1.209716796875	3.76434326171875E-06	4.55378904007375E-06	321362	0.000123632635222748
2	537	120.140062696675	1.19979858398438	1.1993408203125	3.74359130859375E-06	4.4898415580974E-06	320371.75	0.000124010693980381
2	538	120.240770696421	1.18972778320313	1.1895751953125	3.7213134765625E-06	4.42678219769732E-06	319665.4375	0.000124386584502645
2	539	120.341478696167	1.17965698242188	1.17919921875	3.69842529296875E-06	4.36117989011109E-06	318838.1875	0.000124760190374218
2	540	120.442186695913	1.16958618164063	1.16973876953125	3.6737060546875E-06	4.29727651862777E-06	318408.375	0.000125131409731694
2	541	120.542894695658	1.15951538085938	1.15966796875	3.64501953125E-06	4.22701214120025E-06	318151.375	0.000125499936984852
2	542	120.643602695404	1.14944458007813	1.1492919921875	3.6114501953125E-06	4.15061094827252E-06	318235.59375	0.000125865321024321
2	543	120.74431069515	1.13937377929688	1.13922119140625	3.57025146484375E-06	4.06730623581097E-06	319087.09375	0.000126226950669661
2	544	120.845018694896	1.12930297851563	1.129150390625	3.51806640625E-06	3.97242592953262E-06	320957.6875	0.000126583880046383
2	545	120.945726694641	1.11923217773438	1.119384765625	3.4490966796875E-06	3.8608659451711E-06	324544.34375	0.000126934697618708
2	546	121.046434694387	1.10916137695313	1.1090087890625	3.35662841796875E-06	3.72253043678938E-06	330393.65625	0.000127277395222336
2	547	121.147142694133	1.09909057617188	1.0992431640625	3.2330322265625E-06	3.55388851858152E-06	340003.78125	0.000127609222545289
2	548	121.247850693879	1.08901977539063	1.0894775390625	3.06549072265625E-06	3.3397830065951E-06	355400.71875	0.000127926366985776
2	549	121.348558693624	1.07894897460938	1.0791015625	2.841796875E-06	3.06658739646082E-06	379725.09375	0.000128223822684959
2	550	121.44926669337	1.06887817382813	1.06903076171875	2.55035400390625E-06	2.72640681941994E-06	419169.59375	0.000128495346871205
2	551	121.549974693116	1.05880737304688	1.05865478515625	2.18353271484375E-06	2.31160720431944E-06	484835.8125	0.000128733707242645
2	552	121.650682692862	1.04873657226563	1.048583984375	1.73980712890625E-06	1.82433382178715E-06	602701.3125	0.000128931264043786
2	553	121.751390692607	1.03866577148438	1.03851318359375	1.23504638671875E-06	1.28261194731749E-06	840869.75	0.000129081061459146
2	554	121.852098692353	1.02859497070313	1.02874755859375	6.9122314453125E-07	7.1109411692305E-07	1488300.25	0.000129178064526059
2	555	121.952806692099	1.01852416992188	1.01898193359375	1.4678955078125E-07	1.49575896557508E-07	6941788	0.000129220265080221
2	556	122.053514691844	1.00845336914063	1.00860595703125	-3.582763671875E-07	-3.61359667522265E-07	-2815161.75	0.000129209613078274
2	557	122.15422269159	0.998382568359375	0.99822998046875	-7.7789306640625E-07	-7.76516174028075E-07	-1283248.375	0.000129152394947596
2	558	122.254930691336	0.988311767578125	0.98876953125	-1.0821533203125E-06	-1.0700001666919E-06	-913705.625	0.000129058738821186
2	559	122.355638691082	0.978240966796875	0.97808837890625	-1.25518798828125E-06	-1.22768472010648E-06	-779236.5625	0.000128941042930819
2	560	122.456346690827	0.968170166015625	0.968017578125	-1.30401611328125E-06	-1.26231054764503E-06	-742335.625	0.000128812171169557
2	561	122.557054690573	0.958099365234375	0.958251953125	-1.24847412109375E-06	-1.19635274131724E-06	-767538.5625	0.00012868364865426
2	562	122.657762690319	0.948028564453125	0.94818115234375	-1.1212158203125E-06	-1.06311563285999E-06	-845672.375	0.000128564322949387
2	563	122.758470690065	0.937957763671875	0.9381103515625	-9.53063964843751E-07	-8.94079164481809E-07	-984310	0.000128459883853793
2	564	122.85917868981	0.927886962890625	0.927734375	-7.69653320312499E-07	-7.14033831172856E-07	-1205392.625	0.000128373125335202
2	565	122.959886689556	0.917816162109375	0.91796875	-5.841064453125E-07	-5.36191464561853E-07	-1571577.875	0.000128304964164272
2	566	123.060594689302	0.907745361328125	0.9075927734375	-4.0618896484375E-07	-3.68654156090997E-07	-2234410.25	0.000128255094750784
2	567	123.161302689048	0.897674560546875	0.89691162109375	-2.3651123046875E-07	-2.12129663168525E-07	-3792258.25	0.000128222731291316
2	568	123.262010688793	0.887603759765625	0.88775634765625	-7.50732421874997E-08	-6.66467414589533E-08	-11825204	0.0001282070443267
2	569	123.362718688539	0.877532958984375	0.87799072265625	7.41577148437506E-08	6.51097806780854E-08	11839507	0.000128207000670955
2	570	123.463426688285	0.867462158203125	0.86761474609375	2.00500488281249E-07	1.73957175775286E-07	4327245	0.000128220824990422
2	571	123.564134688031	0.857391357421875	0.85784912109375	3.04260253906249E-07	2.61009404312063E-07	2819458.25	0.000128246247186325
2	572	123.664842687776	0.847320556640625	0.84747314453125	3.90014648437501E-07	3.30526916059171E-07	2172926.5	0.000128281200886704
2	573	123.765550687522	0.837249755859375	0.83770751953125	4.61425781249999E-07	3.86539824148713E-07	1815476.25	0.000128324085380882
2	574	123.866258687268	0.827178955078125	0.82794189453125	5.2001953125E-07	4.30545952667671E-07	1592136.25	0.000128373503684998
2	575	123.966966687013	0.817108154296875	0.81695556640625	5.657958984375E-07	4.62230076436754E-07	1443905.125	0.000128428175230511
2	576	124.067674686759	0.807037353515625	0.80718994140625	5.9539794921875E-07	4.8059922619359E-07	1355715.125	0.000128486644825898
2	577	124.168382686505	0.796966552734375	0.79681396484375	6.05163574218751E-07	4.82202779039653E-07	1316691.875	0.000128547093481757
2	578	124.269090686251	0.786895751953125	0.7867431640625	5.908203125E-07	4.64823841639372E-07	1331611.5	0.000128607323858887
2	579	124.369798685996	0.776824951171875	0.77667236328125	5.419921875E-07	4.20950328816616E-07	1432995.5	0.000128664367366582
2	580	124.470506685742	0.766754150390625	0.76690673828125	4.50744628906249E-07	3.45679069368998E-07	1701421.875	0.000128714353195392
2	581	124.571214685488	0.756683349609375	0.75714111328125	3.009033203125E-07	2.27826262744202E-07	2516227.25	0.000128752202726901
2	582	124.671922685234	0.746612548828125	0.74652099609375	7.90405273437503E-08	5.9005412111901E-08	9444788	0.000128771338495426
2	583	124.772630684979	0.736541748046875	0.736419677734375	-2.288818359375E-07	-1.68553086155043E-07	-3217466.75	0.000128763786051422
2	584	124.873338684725	0.726470947265625	0.726409912109375	-6.28051757812501E-07	-4.56223006040091E-07	-1156608.375	0.00012872063962277
2	585	124.974046684471	0.716400146484375	0.716339111328125	-1.11724853515625E-06	-8.00328791683569E-07	-641163.625	0.000128632760606706
2	586	125.074754684217	0.706329345703125	0.706268310546875	-1.6778564453125E-06	-1.18501679935434E-06	-420934.90625	0.000128492014482617
2	587	125.175462683962	0.696258544921875	0.6961669921875	-2.2802734375E-06	-1.58745103817637E-06	-305299.8125	0.000128292696899734
2	588	125.276170683708	0.686187744140625	0.68609619140625	-2.877197265625E-06	-1.97403392121487E-06	-238459.921875	0.000128033003420569
2	589	125.376878683454	0.676116943359375	0.67608642578125	-3.4234619140625E-06	-2.31455601351627E-06	-197486.1875	0.00012771574256476
2	590	125.4775866832	0.666046142578125	0.6658935546875	-3.86810302734375E-06	-2.57574470197142E-06	-172149.90625	0.000127348583191633
2	591	125.578294682945	0.655975341796875	0.65594482421875	-4.173583984375E-06	-2.73764067060256E-06	-157165.84375	0.000126943647046573
2	592	125.679002682691	0.645904541015625	0.6458740234375	-4.3206787109375E-06	-2.79061418950732E-06	-149484.390625	0.000126515922602266
2	593	125.779710682437	0.635833740234375	0.63580322265625	-4.31671142578125E-06	-2.74457897830871E-06	-147288.796875	0.000126080994959921
2	594	125.880418682182	0.625762939453125	0.625701904296875	-4.19342041015625E-06	-2.6238310510962E-06	-149210.390625	0.000125652484712191
2	595	125.981126681928	0.615692138671875	0.615631103515625	-3.99169921875E-06	-2.45741398430255E-06	-154227.84375	0.000125240330817178
2	596	126.081834681674	0.605621337890625	0.6055908203125	-3.75152587890625E-06	-2.27188957069302E-06	-161425.203125	0.000124850426800549
2	597	126.18254268142	0.595550537109375	0.595489501953125	-3.5015869140625E-06	-2.08515825761424E-06	-170062.75	0.000124485202832147
2	598	126.283250681165	0.585479736328125	0.58544921875	-3.2598876953125E-06	-1.90849868886289E-06	-179591.84375	0.000124144731671549
2	599	126.383958680911	0.575408935546875	0.57537841796875	-3.033447265625E-06	-1.74538001829205E-06	-189678.078125	0.000123827834613621
2	600	126.484666680657	0.565338134765625	0.565277099609375	-2.82684326171875E-06	-1.59794979026628E-06	-199967.609375	0.00012353275087662
2	601	126.585374680403	0.555267333984375	0.55523681640625	-2.64007568359375E-06	-1.4658671716461E-06	-210310.953125	0.000123257472296245
2	602	126.686082680148	0.545196533203125	0.545166015625	-2.47283935546875E-06	-1.34810795771045E-06	-220461.5625	0.000123000019812025
2	603	126.786790679894	0.535125732421875	0.535125732421875	-2.32269287109375E-06	-1.24293273984222E-06	-230390.234375	0.000122758545330726
2	604	126.88749867964	0.525054931640625	0.525054931640625	-2.1881103515625E-06	-1.14887814106623E-06	-239958.15625	0.000122531404485926
2	605	126.988206679386	0.514984130859375	0.514984130859375	-2.066650390625E-06	-1.06429206425673E-06	-249187.84375	0.000122317156638019
2	606	127.088914679131	0.504913330078125	0.504852294921875	-1.956787109375E-06	-9.87888483905408E-07	-258000.609375	0.000122114564874209
2	607	127.189622678877	0.494842529296875	0.494873046875	-1.8572998046875E-06	-9.19127558063337E-07	-266447.59375	0.000121922508697025
2	608	127.290330678623	0.484771728515625	0.4847412109375	-1.76666259765625E-06	-8.56374128943571E-07	-274382.46875	0.000121740027680062
2	609	127.391038678369	0.474700927734375	0.474761962890625	-1.6827392578125E-06	-7.98900600784691E-07	-282136.375	0.000121566336019896
2	610	127.491746678114	0.464630126953125	0.464630126953125	-1.60675048828125E-06	-7.46544628782431E-07	-289173.8125	0.000121400698844809
2	611	127.59245467786	0.454559326171875	0.45458984375	-1.53594970703125E-06	-6.98227097473136E-07	-295966.625	0.000121242446766701
2	612	127.693162677606	0.444488525390625	0.44451904296875	-1.470947265625E-06	-6.53864049127151E-07	-302199.15625	0.000121091041364707
2	613	127.793870677351	0.434417724609375	0.434417724609375	-1.41021728515625E-06	-6.12623352935771E-07	-308050.21875	0.00012094595876988
2	614	127.894578677097	0.424346923828125	0.42431640625	-1.3543701171875E-06	-5.7468145087114E-07	-313294.28125	0.000120806755148806
2	615	127.995286676843	0.414276123046875	0.414215087890625	-1.30218505859375E-06	-5.39384700459777E-07	-318092.34375	0.000120672986668069
2	616	128.095994676589	0.404205322265625	0.40423583984375	-1.2530517578125E-06	-5.06528465393785E-07	-322601.0625	0.00012054431863362
2	617	128.196702676334	0.394134521484375	0.3941650390625	-1.20758056640625E-06	-4.75986041692522E-07	-326408.90625	0.000120420416351408
2	618	128.29741067608	0.384063720703125	0.384063720703125	-1.1639404296875E-06	-4.47027275640721E-07	-329968.53125	0.000120301003335044
2	619	128.398118675826	0.373992919921875	0.373992919921875	-1.121826171875E-06	-4.19555021835549E-07	-333378.6875	0.000120185904961545
2	620	128.498826675572	0.363922119140625	0.36395263671875	-1.08306884765625E-06	-3.94185747154552E-07	-336038.34375	0.00012007488112431
2	621	128.599534675317	0.353851318359375	0.35382080078125	-1.04583740234375E-06	-3.70039032304703E-07	-338313.40625	0.000119967677164823
2	622	128.700242675063	0.343780517578125	0.343780517578125	-1.0113525390625E-06	-3.47683311474611E-07	-339921.53125	0.00011986408935627
2	623	128.800950674809	0.333709716796875	0.333770751953125	-9.77478027343751E-07	-3.26253541516053E-07	-341461.15625	0.000119763943075668
2	624	128.901658674555	0.323638916015625	0.3236083984375	-9.4573974609375E-07	-3.06049315668133E-07	-342174.90625	0.000119667107355781
2	625	129.0023666743	0.313568115234375	0.31365966796875	-9.1552734375E-07	-2.87163999246332E-07	-342600	0.000119573385745753
2	626	129.103074674046	0.303497314453125	0.303436279296875	-8.8775634765625E-07	-2.69377466111109E-07	-341801.3125	0.000119482581794728
2	627	129.203782673792	0.293426513671875	0.29339599609375	-8.61511230468751E-07	-2.52763925345789E-07	-340559.71875	0.00011939449905185
2	628	129.304490673538	0.283355712890625	0.2833251953125	-8.35571289062501E-07	-2.3673838711602E-07	-339079.625	0.000119309042929672
2	629	129.405198673283	0.273284912109375	0.27325439453125	-8.1207275390625E-07	-2.21902453745315E-07	-336490.03125	0.000119226075184997
2	630	129.505906673029	0.263214111328125	0.263214111328125	-7.891845703125E-07	-2.07724497158779E-07	-333526.6875	0.000119145450298674
2	631	129.606614672775	0.253143310546875	0.253173828125	-7.672119140625E-07	-1.94237969708411E-07	-329992.0625	0.000119067073683254
2	632	129.70732267252	0.243072509765625	0.24310302734375	-7.47070312500001E-07	-1.8161505010994E-07	-325408.5	0.000118990828923415
2	633	129.808030672266	0.233001708984375	0.233001708984375	-7.281494140625E-07	-1.69660054893939E-07	-319991.625	0.000118916541396175
2	634	129.908738672012	0.222930908203125	0.22296142578125	-7.10449218750001E-07	-1.5840277001189E-07	-313831.625	0.000118844101962168
2	635	130.009446671758	0.212860107421875	0.212860107421875	-6.94580078125E-07	-1.47848396636618E-07	-306458.6875	0.000118773357826285
2	636	130.110154671503	0.202789306640625	0.202880859375	-6.793212890625E-07	-1.37821274392991E-07	-298652.3125	0.000118704170745332
2	637	130.210862671249	0.192718505859375	0.1927490234375	-6.671142578125E-07	-1.28585625702726E-07	-288929.5625	0.000118636373372283
2	638	130.311570670995	0.182647705078125	0.182647705078125	-6.55517578125001E-07	-1.1972878155575E-07	-278631.28125	0.00011856977653224
2	639	130.412278670741	0.172576904296875	0.172607421875	-6.4697265625E-07	-1.1167227853548E-07	-266792.46875	0.000118504191050306
2	640	130.512986670486	0.162506103515625	0.162567138671875	-6.41479492187499E-07	-1.0428347962943E-07	-253425.328125	0.00011843931133626
2	641	130.613694670232	0.152435302734375	0.152496337890625	-6.39953613281249E-07	-9.75905791733567E-08	-238292.796875	0.000118374788144138
2	642	130.714402669978	0.142364501953125	0.14239501953125	-6.4361572265625E-07	-9.16476707857328E-08	-221242.3125	0.000118310155812651
2	643	130.815110669724	0.132293701171875	0.132354736328125	-6.53076171875E-07	-8.64377227571822E-08	-202663.5625	0.000118244861369021
2	644	130.915818669469	0.122222900390625	0.122222900390625	-6.7169189453125E-07	-8.2096129006004E-08	-181962.75	0.000118178155389614
2	645	131.016526669215	0.112152099609375	0.112152099609375	-7.01293945312501E-07	-7.86515883532957E-08	-159921.671875	0.000118109019240364
2	646	131.117234668961	0.102081298828125	0.102081298828125	-7.464599609375E-07	-7.61995977427432E-08	-136753.890625	0.00011803611414507
2	647	131.217942668707	0.092010498046875	0.092071533203125	-8.13903808593749E-07	-7.49373683106569E-08	-113123.359375	0.000117957548354752
2	648	131.318650668452	0.081939697265625	0.082000732421875	-9.08203125E-07	-7.44733199553593E-08	-90288.9765625	0.000117870833491907
2	649	131.419358668198	0.071868896484375	0.07196044921875	-1.03607177734375E-06	-7.4556190554631E-08	-69455.078125	0.00011777292820625
2	650	131.520066667944	0.061798095703125	0.061859130859375	-1.19873046875E-06	-7.4152417539608E-08	-51603.875	0.000117660398245789
2	651	131.620774667689	0.051727294921875	0.05181884765625	-1.395263671875E-06	-7.23009563330379E-08	-37139.109375	0.000117529780254699
2	652	131.721482667435	0.041656494140625	0.0417388916015625	-1.612548828125E-06	-6.73059972200463E-08	-25883.80078125	0.000117378323921002
2	653	131.822190667181	0.031585693359375	0.031695556640625	-1.8341064453125E-06	-5.81330183990758E-08	-17281.19921875	0.000117204770504031
2	654	131.922898666927	0.021514892578125	0.02161865234375	-2.03399658203125E-06	-4.39722640521722E-08	-10628.658203125	0.000117010000394657
2	655	132.023606666672	0.011444091796875	0.0115264892578125	-2.19085693359375E-06	-2.525288778088E-08	-5261.17919921875	0.000116797258669976
2	656	132.124314666418	0.001373291015625	0.0014678955078125	-2.29156494140625E-06	-3.36377770082663E-09	-640.564636230469	0.000116571551188827
2	657	132.225022666164	-0.008697509765625	-0.00861206054687499	-2.332763671875E-06	2.00899030744495E-08	3691.78466796875	0.0001163386987173
2	658	132.32573066591	-0.018768310546875	-0.0186767578125	-2.3236083984375E-06	4.33974705060791E-08	8037.82470703125	0.000116104230983183
2	659	132.426438665655	-0.028839111328125	-0.0287109375	-2.27813720703125E-06	6.54074483463774E-08	12602.8134765625	0.000115872513561044
2	660	132.527146665401	-0.038909912109375	-0.0387847900390625	-2.20977783203125E-06	8.57057642633663E-08	17551.4453125	0.000115646529593505
2	661	132.627854665147	-0.048980712890625	-0.0488372802734375	-2.13104248046875E-06	1.04074324269732E-07	22917.083984375	0.000115427952550817
2	662	132.728562664893	-0.059051513671875	-0.058990478515625	-2.0501708984375E-06	1.20940569559025E-07	28773.4453125	0.000115217408165336
2	663	132.829270664638	-0.069122314453125	-0.069061279296875	-1.9720458984375E-06	1.36191999899893E-07	35020.12109375	0.000115014874609187
2	664	132.929978664384	-0.079193115234375	-0.07916259765625	-1.9000244140625E-06	1.50410869537154E-07	41663.9921875	0.000114819900773
2	665	133.03068666413	-0.089263916015625	-0.089141845703125	-1.83380126953125E-06	1.63468428127089E-07	48610.41796875	0.000114631890028249
2	666	133.131394663876	-0.099334716796875	-0.099273681640625	-1.77490234375E-06	1.76201083945671E-07	55931.9140625	0.000114450180262793
2	667	133.232102663621	-0.109405517578125	-0.1092529296875	-1.72332763671875E-06	1.88278590940172E-07	63396.49609375	0.000114274029328953
2	668	133.332810663367	-0.119476318359375	-0.119415283203125	-1.67694091796875E-06	2.00252372906107E-07	71210.1953125	0.000114102811494377
2	669	133.433518663113	-0.129547119140625	-0.12945556640625	-1.6375732421875E-06	2.1199296895702E-07	79053.3046875	0.000113935908302665
2	670	133.534226662858	-0.139617919921875	-0.139495849609375	-1.602783203125E-06	2.23581608338463E-07	87033.515625	0.000113772744953167
2	671	133.634934662604	-0.149688720703125	-0.149627685546875	-1.5728759765625E-06	2.35345780197349E-07	95130	0.00011361284123268
2	672	133.73564266235	-0.159759521484375	-0.15960693359375	-1.5472412109375E-06	2.46950406790347E-07	103155.8203125	0.000113455731479917
2	673	133.836350662096	-0.169830322265625	-0.169708251953125	-1.52496337890625E-06	2.58798849017694E-07	111286.78125	0.000113301030069124
2	674	133.937058661841	-0.179901123046875	-0.179779052734375	-1.50665283203125E-06	2.70864603635346E-07	119323.4765625	0.000113148373202421
2	675	134.037766661587	-0.189971923828125	-0.1898193359375	-1.49169921875E-06	2.83153354985188E-07	127250.40625	0.000112997397081926
2	676	134.138474661333	-0.200042724609375	-0.199920654296875	-1.4794921875E-06	2.95781035219989E-07	135127.890625	0.000112847788841464
2	677	134.239182661079	-0.189971923828125	-0.189849853515625	-1.33056640625E-06	2.52607833317597E-07	142683.484375	0.000112706286017783
