Potential,Current,Normalized_Potential,Normalized_Current
1.50497436523438,5.8197021484375e-07,1.46530151367188,0.08593186733958183
1.49993896484375,6.34460449218748e-07,1.46026611328125,0.09368240807498167
1.49490356445313,6.21643066406252e-07,1.45523071289063,0.09178983417447759
1.4898681640625,6.06689453124998e-07,1.4501953125,0.08958183129055486
1.48483276367188,5.92956542968751e-07,1.44515991210938,0.08755407354001457
1.47979736328125,5.79528808593751e-07,1.44012451171875,0.08557137707281917
1.47476196289063,5.67626953125e-07,1.43508911132813,0.08381398702235039
1.4697265625,5.56640624999999e-07,1.4300537109375,0.08219178082191766
1.46469116210938,5.462646484375e-07,1.42501831054688,0.08065969718817591
1.45965576171875,5.37719726562499e-07,1.41998291015625,0.07939798125450596
1.45462036132813,5.2947998046875e-07,1.41494750976563,0.07818132660418169
1.4495849609375,5.22460937500002e-07,1.409912109375,0.07714491708723893
1.44454956054688,5.16357421874999e-07,1.40487670898438,0.0762436914203315
1.43951416015625,5.10559082031251e-07,1.39984130859375,0.07538752703677015
1.43447875976563,5.05371093749998e-07,1.39480590820313,0.07462148521989877
1.429443359375,5.01098632812499e-07,1.3897705078125,0.07399062725306402
1.42440795898438,4.97131347656249e-07,1.38473510742188,0.07340483056957448
1.41937255859375,4.93774414062501e-07,1.37969970703125,0.07290915645277592
1.41433715820313,4.90417480468749e-07,1.37466430664063,0.07241348233597678
1.4093017578125,4.87976074218749e-07,1.36962890625,0.07205299206921398
1.40426635742188,4.85534667968751e-07,1.36459350585938,0.07169250180245147
1.39923095703125,4.8370361328125e-07,1.35955810546875,0.07142213410237923
1.39419555664063,4.82482910156251e-07,1.35452270507813,0.07124188896899798
1.38916015625,4.80957031249998e-07,1.3494873046875,0.0710165825522708
1.38412475585938,4.791259765625e-07,1.34445190429688,0.07074621485219898
1.37908935546875,4.791259765625e-07,1.33941650390625,0.07074621485219898
1.37405395507813,4.7821044921875e-07,1.33438110351563,0.07061103100216294
1.3690185546875,4.7760009765625e-07,1.329345703125,0.07052090843547225
1.36398315429688,4.76989746093751e-07,1.32431030273438,0.0704307858687817
1.35894775390625,4.77905273437499e-07,1.31927490234375,0.07056596971881743
1.35391235351563,4.76989746093751e-07,1.31423950195313,0.0704307858687817
1.348876953125,4.76989746093751e-07,1.3092041015625,0.0704307858687817
1.34384155273438,4.7760009765625e-07,1.30416870117188,0.07052090843547225
1.33880615234375,4.77905273437499e-07,1.29913330078125,0.07056596971881743
1.33377075195313,4.78210449218749e-07,1.29409790039063,0.0706110310021628
1.3287353515625,4.78210449218752e-07,1.2890625,0.07061103100216323
1.32369995117188,4.791259765625e-07,1.28402709960938,0.07074621485219898
1.31866455078125,4.80041503906251e-07,1.27899169921875,0.07088139870223518
1.31362915039063,4.8004150390625e-07,1.27395629882813,0.07088139870223505
1.30859375,4.81262207031249e-07,1.2689208984375,0.07106164383561629
1.30355834960938,4.81567382812501e-07,1.26388549804688,0.07110670511896194
1.29852294921875,4.827880859375e-07,1.25885009765625,0.07128695025234319
1.29348754882813,4.8370361328125e-07,1.25381469726563,0.07142213410237923
1.2884521484375,4.84924316406249e-07,1.248779296875,0.07160237923576049
1.28341674804688,4.8614501953125e-07,1.24374389648438,0.07178262436914203
1.27838134765625,4.87976074218749e-07,1.23870849609375,0.07205299206921398
1.27334594726563,4.90112304687501e-07,1.23367309570313,0.07236842105263172
1.268310546875,4.91638183593749e-07,1.2286376953125,0.07259372746935819
1.26327514648438,4.93774414062498e-07,1.22360229492188,0.07290915645277547
1.25823974609375,4.9591064453125e-07,1.21856689453125,0.07322458543619323
1.25320434570313,4.98657226562502e-07,1.21353149414063,0.07363013698630166
1.2481689453125,5.02319335937501e-07,1.20849609375,0.07417087238644572
1.24313354492188,5.06591796875e-07,1.20346069335938,0.07480173035328046
1.23809814453125,5.11474609374998e-07,1.19842529296875,0.07552271088680576
1.23306274414063,5.16052246093749e-07,1.19338989257813,0.07619863013698615
1.22802734375,5.22766113281248e-07,1.1883544921875,0.0771899783705837
1.22299194335938,5.29785156250001e-07,1.18331909179688,0.07822638788752717
1.21795654296875,5.3863525390625e-07,1.17828369140625,0.07953316510454217
1.21292114257813,5.49011230468749e-07,1.17324829101563,0.08106524873828391
1.2078857421875,5.5999755859375e-07,1.168212890625,0.08268745493871665
1.20285034179688,5.7373046875e-07,1.16317749023438,0.08471521268925739
1.19781494140625,5.8990478515625e-07,1.15814208984375,0.08710346070656091
1.19277954101563,6.0882568359375e-07,1.15310668945313,0.0898972602739726
1.187744140625,6.30798339843752e-07,1.1480712890625,0.09314167267483808
1.18270874023438,6.57348632812499e-07,1.14303588867188,0.09706200432588306
1.17767333984375,6.8817138671875e-07,1.13800048828125,0.10161319394376352
1.17263793945313,7.24487304687502e-07,1.13296508789063,0.10697548666186042
1.1676025390625,7.666015625e-07,1.1279296875,0.11319394376351838
1.16256713867188,8.17565917968752e-07,1.12289428710938,0.12071917808219208
1.15753173828125,8.77380371093751e-07,1.11785888671875,0.12955118961788045
1.15249633789063,9.47875976562498e-07,1.11282348632813,0.1399603460706558
1.1474609375,1.031494140625e-06,1.1077880859375,0.15230713770728188
1.14242553710938,1.12945556640625e-06,1.10275268554688,0.16677180966113914
1.13739013671875,1.2445068359375e-06,1.09771728515625,0.18375991348233595
1.13235473632813,1.3775634765625e-06,1.09268188476563,0.20340663302090842
1.1273193359375,1.53350830078125e-06,1.087646484375,0.22643294881038212
1.12228393554688,1.7144775390625e-06,1.08261108398438,0.2531542898341745
1.11724853515625,1.92138671875e-06,1.07757568359375,0.28370583994232157
1.11221313476563,2.15606689453125e-06,1.07254028320313,0.3183579668348955
1.107177734375,2.42095947265625e-06,1.0675048828125,0.357471160778659
1.10214233398438,2.7178955078125e-06,1.06246948242188,0.4013157894736842
1.09710693359375,3.0419921875e-06,1.05743408203125,0.4491708723864456
1.09207153320313,3.39324951171875e-06,1.05239868164063,0.5010364095169431
1.0870361328125,3.768310546875e-06,1.04736328125,0.5564167267483778
1.08200073242188,4.16046142578125e-06,1.04232788085938,0.6143204758471521
1.07696533203125,4.56298828125e-06,1.03729248046875,0.6737563085796683
1.07192993164063,4.96612548828125e-06,1.03225708007813,0.7332822638788753
1.06689453125,5.35980224609375e-06,1.0272216796875,0.7914113193943764
1.06185913085938,5.73272705078125e-06,1.02218627929688,0.8464762076423936
1.05682373046875,6.068115234375e-06,1.01715087890625,0.8959985580389329
1.05178833007813,6.3604736328125e-06,1.01211547851563,0.9391672674837779
1.0467529296875,6.5960693359375e-06,1.007080078125,0.9739545782263879
1.04171752929688,6.76544189453125e-06,1.00204467773438,0.9989635904830569
1.03668212890625,6.86431884765625e-06,0.99700927734375,1.0135634462869503
1.03164672851563,6.8865966796875e-06,0.9919738769531301,1.0168529199711607
1.026611328125,6.8365478515625e-06,0.9869384765625,1.0094628695025234
1.02157592773438,6.71630859375e-06,0.9819030761718801,0.9917087238644556
1.01654052734375,6.52740478515625e-06,0.97686767578125,0.9638157894736842
1.01150512695313,6.28662109375e-06,0.9718322753906301,0.9282624369142033
1.0064697265625,6.00494384765625e-06,0.966796875,0.8866708723864456
1.00143432617188,5.69854736328125e-06,0.9617614746093801,0.8414293439077145
0.99639892578125,5.379638671875e-06,0.95672607421875,0.794340302811824
0.991363525390625,5.06378173828125e-06,0.951690673828125,0.7477018745493871
0.986328125,4.7698974609375e-06,0.9466552734375,0.7043078586878154
0.981292724609375,4.50439453125e-06,0.941619873046875,0.6651045421773613
0.97625732421875,4.2816162109375e-06,0.93658447265625,0.632209805335256
0.971221923828125,4.1156005859375e-06,0.931549072265625,0.6076964671953857
0.9661865234375,4.01397705078125e-06,0.926513671875,0.5926910598413843
0.961151123046875,3.98162841796875e-06,0.921478271484375,0.5879145638067772
0.95611572265625,4.02313232421875e-06,0.91644287109375,0.5940428983417447
0.951080322265625,4.140625e-06,0.911407470703125,0.6113914924297044
0.946044921875,4.334716796875e-06,0.9063720703125,0.6400504686373468
0.941009521484375,4.60113525390625e-06,0.901336669921875,0.679388968997837
0.93597412109375,4.932861328125e-06,0.89630126953125,0.7283705839942322
0.930938720703125,5.32958984375e-06,0.891265869140625,0.7869502523431867
0.9259033203125,5.77972412109375e-06,0.88623046875,0.8534156452775775
0.920867919921875,6.26953125e-06,0.881195068359375,0.9257390050468638
0.91583251953125,6.7901611328125e-06,0.87615966796875,1.0026135544340302
0.910797119140625,7.32513427734375e-06,0.871124267578125,1.0816059841384282
0.90576171875,7.860107421875e-06,0.8660888671875,1.1605984138428262
0.900726318359375,8.3721923828125e-06,0.861053466796875,1.236211247296323
0.89569091796875,8.85101318359375e-06,0.85601806640625,1.3069124008651767
0.890655517578125,9.27764892578125e-06,0.850982666015625,1.3699080749819754
0.8856201171875,9.63836669921875e-06,0.845947265625,1.4231705118961788
0.880584716796875,9.9224853515625e-06,0.840911865234375,1.4651225666906993
0.87554931640625,1.0118408203125e-05,0.83587646484375,1.4940519105984138
0.870513916015625,1.02249145507813e-05,0.830841064453125,1.5097782984859482
0.865478515625,1.023193359375e-05,0.8258056640625,1.510814708002884
0.860443115234375,1.01400756835938e-05,0.820770263671875,1.497251261715941
0.85540771484375,9.94964599609375e-06,0.81573486328125,1.4691330209084354
0.850372314453125,9.6728515625e-06,0.810699462890625,1.4282624369142034
0.8453369140625,9.3157958984375e-06,0.8056640625,1.375540735400144
0.840301513671875,8.883056640625e-06,0.800628662109375,1.3116438356164384
0.83526611328125,8.39630126953125e-06,0.79559326171875,1.2397710886806055
0.830230712890625,7.87017822265625e-06,0.790557861328125,1.1620854361932227
0.8251953125,7.325439453125e-06,0.7855224609375,1.0816510454217736
0.820159912109375,6.7706298828125e-06,0.780487060546875,0.9997296322999278
0.81512451171875,6.2347412109375e-06,0.77545166015625,0.9206020187454939
0.810089111328125,5.72967529296875e-06,0.770416259765625,0.8460255948089401
0.8050537109375,5.26092529296875e-06,0.765380859375,0.776811463590483
0.800018310546875,4.85382080078125e-06,0.760345458984375,0.7166997116077866
0.79498291015625,4.49859619140625e-06,0.75531005859375,0.6642483777937996
0.789947509765625,4.20989990234375e-06,0.750274658203125,0.6216204037490987
0.784912109375,3.98956298828125e-06,0.7452392578125,0.5890861571737563
0.779876708984375,3.83758544921875e-06,0.740203857421875,0.5666456380677721
0.77484130859375,3.75091552734375e-06,0.73516845703125,0.5538482335976929
0.769805908203125,3.73046875e-06,0.730133056640625,0.5508291276135544
0.7647705078125,3.76922607421875e-06,0.72509765625,0.5565519105984138
0.759735107421875,3.8653564453125e-06,0.720062255859375,0.5707462148521989
0.75469970703125,4.0069580078125e-06,0.71502685546875,0.5916546503244412
0.749664306640625,4.19219970703125e-06,0.709991455078125,0.6190068493150684
0.74462890625,4.40521240234375e-06,0.7049560546875,0.6504596250901226
0.739593505859375,4.642333984375e-06,0.699920654296875,0.6854722422494592
0.73455810546875,4.89166259765625e-06,0.69488525390625,0.7222873107426099
0.729522705078125,5.14251708984375e-06,0.689849853515625,0.7593276856524873
0.7244873046875,5.37750244140625e-06,0.684814453125,0.7940248738284066
0.719451904296875,5.589599609375e-06,0.679779052734375,0.8253424657534246
0.71441650390625,5.7611083984375e-06,0.67474365234375,0.8506669069935112
0.709381103515625,5.882568359375e-06,0.669708251953125,0.8686012977649603
0.704345703125,5.9466552734375e-06,0.6646728515625,0.8780641672674838
0.699310302734375,5.94146728515625e-06,0.659637451171875,0.8772981254506128
0.69427490234375,5.87310791015625e-06,0.65460205078125,0.8672043979812545
0.689239501953125,5.74005126953125e-06,0.649566650390625,0.847557678442682
0.6842041015625,5.5413818359375e-06,0.64453125,0.8182227829848594
0.679168701171875,5.29083251953125e-06,0.639495849609375,0.7812274693583273
0.67413330078125,4.9969482421875e-06,0.63446044921875,0.7378334534967556
0.669097900390625,4.67010498046875e-06,0.629425048828125,0.689572819033886
0.6640625,4.32281494140625e-06,0.6243896484375,0.6382930785868781
0.659027099609375,3.96575927734375e-06,0.619354248046875,0.585571377072819
0.65399169921875,3.61175537109375e-06,0.61431884765625,0.5333002883922133
0.648956298828125,3.26690673828125e-06,0.609283447265625,0.4823810382119683
0.6439208984375,2.9412841796875e-06,0.604248046875,0.43430064888248016
0.638885498046875,2.63946533203125e-06,0.599212646484375,0.3897350396539293
0.63385009765625,2.364501953125e-06,0.59417724609375,0.34913482335976925
0.628814697265625,2.11578369140625e-06,0.589141845703125,0.3124098774333093
0.623779296875,1.89453125e-06,0.5841064453125,0.27974044700793077
0.618743896484375,1.7022705078125e-06,0.579071044921875,0.2513518385003605
0.61370849609375,1.5362548828125e-06,0.57403564453125,0.22683850036049027
0.608673095703125,1.3916015625e-06,0.569000244140625,0.2054794520547945
0.6036376953125,1.26922607421875e-06,0.56396484375,0.1874098774333093
0.598602294921875,1.16546630859375e-06,0.558929443359375,0.1720890410958904
0.59356689453125,1.0784912109375e-06,0.55389404296875,0.15924657534246575
0.588531494140625,1.00494384765625e-06,0.548858642578125,0.14838680605623647
0.58349609375,9.4329833984375e-07,0.5438232421875,0.13928442682047584
0.578460693359375,8.9385986328125e-07,0.538787841796875,0.1319844989185292
0.57342529296875,8.52355957031251e-07,0.53375244140625,0.12585616438356179
0.568389892578125,8.1787109375e-07,0.528717041015625,0.12076423936553714
0.5633544921875,7.904052734375e-07,0.523681640625,0.11670872386445566
0.558319091796875,7.67211914062501e-07,0.518646240234375,0.11328406633020924
0.55328369140625,7.4951171875e-07,0.51361083984375,0.1106705118961788
0.548248291015625,7.34863281249999e-07,0.508575439453125,0.10850757029560186
0.543212890625,7.220458984375e-07,0.5035400390625,0.10661499639509733
0.538177490234375,7.122802734375e-07,0.498504638671875,0.10517303532804614
0.53314208984375,7.0465087890625e-07,0.49346923828125,0.10404650324441239
0.528106689453125,6.988525390625e-07,0.488433837890625,0.10319033886085076
0.5230712890625,6.9427490234375e-07,0.4833984375,0.10251441961067051
0.518035888671875,6.90002441406251e-07,0.478363037109375,0.10188356164383576
0.51300048828125,6.866455078125e-07,0.47332763671875,0.10138788752703676
0.507965087890625,6.8389892578125e-07,0.468292236328125,0.10098233597692861
0.5029296875,6.82373046875e-07,0.4632568359375,0.10075702956020188
0.497894287109375,6.8023681640625e-07,0.458221435546875,0.10044160057678443
0.49285888671875,6.79321289062501e-07,0.45318603515625,0.10030641672674852
0.487823486328125,6.78405761718749e-07,0.448150634765625,0.10017123287671219
0.4827880859375,6.77185058593749e-07,0.443115234375,0.09999098774333078
0.477752685546875,6.77795410156251e-07,0.438079833984375,0.10008111031002177
0.47271728515625,6.76879882812501e-07,0.43304443359375,0.09994592645998572
0.467681884765625,6.77490234375e-07,0.428009033203125,0.10003604902667629
0.462646484375,6.78100585937499e-07,0.4229736328125,0.10012617159336684
0.457611083984375,6.7901611328125e-07,0.417938232421875,0.10026135544340302
0.45257568359375,6.79931640625001e-07,0.41290283203125,0.10039653929343922
0.447540283203125,6.805419921875e-07,0.407867431640625,0.10048666186012978
0.4425048828125,6.81457519531251e-07,0.40283203125,0.10062184571016597
0.437469482421875,6.82983398437499e-07,0.397796630859375,0.10084715212689242
0.43243408203125,6.84204101562499e-07,0.39276123046875,0.10102739726027382
0.427398681640625,6.84814453125e-07,0.387725830078125,0.10111751982696468
0.42236328125,6.8695068359375e-07,0.3826904296875,0.10143294881038212
0.417327880859375,6.8817138671875e-07,0.377655029296875,0.10161319394376352
0.41229248046875,6.89697265625e-07,0.37261962890625,0.10183850036049026
0.407257080078125,6.915283203125e-07,0.367584228515625,0.10210886806056237
0.4022216796875,6.91833496093751e-07,0.362548828125,0.10215392934390786
0.397186279296875,6.93664550781251e-07,0.357513427734375,0.10242429704397996
0.39215087890625,6.9580078125e-07,0.35247802734375,0.10273972602739725
0.387115478515625,6.9732666015625e-07,0.347442626953125,0.102965032444124
0.382080078125,6.988525390625e-07,0.3424072265625,0.10319033886085076
0.377044677734375,7.000732421875e-07,0.337371826171875,0.10337058399423214
0.37200927734375,7.0220947265625e-07,0.33233642578125,0.1036860129776496
0.366973876953125,7.04345703124999e-07,0.327301025390625,0.1040014419610669
0.3619384765625,7.06787109375001e-07,0.322265625,0.10436193222782998
0.356903076171875,7.08618164062501e-07,0.317230224609375,0.10463229992790209
0.35186767578125,7.1044921875e-07,0.31219482421875,0.10490266762797404
0.346832275390625,7.122802734375e-07,0.307159423828125,0.10517303532804614
0.341796875,7.15026855468751e-07,0.3021240234375,0.10557858687815444
0.336761474609375,7.171630859375e-07,0.297088623046875,0.10589401586157174
0.33172607421875,7.2021484375e-07,0.29205322265625,0.10634462869502523
0.326690673828125,7.22961425781249e-07,0.287017822265625,0.10675018024513323
0.3216552734375,7.2601318359375e-07,0.281982421875,0.10720079307858688
0.316619873046875,7.281494140625e-07,0.276947021484375,0.10751622206200431
0.31158447265625,7.3089599609375e-07,0.27191162109375,0.10792177361211247
0.306549072265625,7.33642578125e-07,0.266876220703125,0.10832732516222061
0.301513671875,7.373046875e-07,0.2618408203125,0.10886806056236482
0.296478271484375,7.40966796875001e-07,0.256805419921875,0.10940879596250916
0.29144287109375,7.4493408203125e-07,0.25177001953125,0.10999459264599856
0.286407470703125,7.489013671875e-07,0.246734619140625,0.11058038932948809
0.2813720703125,7.5347900390625e-07,0.24169921875,0.11125630857966835
0.276336669921875,7.58056640625e-07,0.236663818359375,0.1119322278298486
0.27130126953125,7.6202392578125e-07,0.23162841796875,0.11251802451333813
0.266265869140625,7.67822265625e-07,0.226593017578125,0.11337418889689978
0.26123046875,7.73315429687499e-07,0.2215576171875,0.11418529199711593
0.256195068359375,7.8033447265625e-07,0.216522216796875,0.11522170151405911
0.25115966796875,7.8765869140625e-07,0.21148681640625,0.1163031723143475
0.246124267578125,7.94677734375e-07,0.206451416015625,0.11733958183129055
0.2410888671875,8.0322265625e-07,0.201416015625,0.11860129776496034
0.236053466796875,8.1329345703125e-07,0.196380615234375,0.12008832011535689
0.23101806640625,8.23364257812501e-07,0.19134521484375,0.12157534246575356
0.225982666015625,8.3526611328125e-07,0.186309814453125,0.12333273251622205
0.220947265625,8.48388671875e-07,0.1812744140625,0.12527036770007208
0.215911865234375,8.63037109375001e-07,0.176239013671875,0.12743330930064903
0.21087646484375,8.79821777343751e-07,0.17120361328125,0.12991167988464325
0.205841064453125,8.9874267578125e-07,0.166168212890625,0.1327054794520548
0.2008056640625,9.197998046875e-07,0.1611328125,0.13581470800288392
0.195770263671875,9.43908691406251e-07,0.156097412109375,0.1393745493871667
0.19073486328125,9.71069335937501e-07,0.15106201171875,0.14338500360490283
0.185699462890625,1.00128173828125e-06,0.146026611328125,0.1478460706560923
0.1806640625,1.03729248046875e-06,0.1409912109375,0.15316330209084353
0.175628662109375,1.0772705078125e-06,0.135955810546875,0.15906633020908434
0.17059326171875,1.12457275390625e-06,0.13092041015625,0.16605082912761354
0.165557861328125,1.1785888671875e-06,0.125885009765625,0.17402667627974044
0.1605224609375,1.241455078125e-06,0.120849609375,0.18330930064888248
0.155487060546875,1.31561279296875e-06,0.115814208984375,0.19425919250180246
0.15045166015625,1.40167236328125e-06,0.11077880859375,0.20696647440519106
0.145416259765625,1.50390625e-06,0.105743408203125,0.2220620043258832
0.140380859375,1.6217041015625e-06,0.1007080078125,0.23945565969718816
