Potential,Current,Normalized_Potential,Normalized_Current
1.50497436523438,6.76574707031251e-07,1.46530151367188,0.09291701592623651
1.49993896484375,7.27844238281252e-07,1.46026611328125,0.0999580888516348
1.49490356445313,7.09228515625e-07,1.45523071289063,0.09740150880134116
1.4898681640625,6.88171386718749e-07,1.4501953125,0.0945096395641239
1.48483276367188,6.68029785156252e-07,1.44515991210938,0.09174350377200363
1.47979736328125,6.500244140625e-07,1.44012451171875,0.0892707460184409
1.47476196289063,6.32629394531249e-07,1.43508911132813,0.08688181056160925
1.4697265625,6.182861328125e-07,1.4300537109375,0.08491198658843252
1.46469116210938,6.0455322265625e-07,1.42501831054688,0.0830259849119866
1.45965576171875,5.92041015625e-07,1.41998291015625,0.08130762782900251
1.45462036132813,5.80749511718751e-07,1.41494750976563,0.07975691533948044
1.4495849609375,5.70983886718751e-07,1.409912109375,0.07841575859178555
1.44454956054688,5.6182861328125e-07,1.40487670898438,0.07715842414082145
1.43951416015625,5.54199218749999e-07,1.39984130859375,0.07611064543168469
1.43447875976563,5.46875e-07,1.39480590820313,0.07510477787091366
1.429443359375,5.40771484375001e-07,1.3897705078125,0.0742665549036045
1.42440795898438,5.3466796875e-07,1.38473510742188,0.07342833193629505
1.41937255859375,5.30395507812501e-07,1.37969970703125,0.07284157585917868
1.41433715820313,5.26123046875e-07,1.37466430664063,0.07225481978206202
1.4093017578125,5.218505859375e-07,1.36962890625,0.07166806370494552
1.40426635742188,5.1849365234375e-07,1.36459350585938,0.0712070410729254
1.39923095703125,5.1605224609375e-07,1.35955810546875,0.07087175188600169
1.39419555664063,5.13610839843751e-07,1.35452270507813,0.0705364626990781
1.38916015625,5.1239013671875e-07,1.3494873046875,0.07036881810561608
1.38412475585938,5.0994873046875e-07,1.34445190429688,0.07003352891869237
1.37908935546875,5.09033203124999e-07,1.33941650390625,0.06990779547359582
1.37405395507813,5.0811767578125e-07,1.33438110351563,0.06978206202849958
1.3690185546875,5.0689697265625e-07,1.329345703125,0.06961441743503771
1.36398315429688,5.0628662109375e-07,1.32431030273438,0.06953059513830678
1.35894775390625,5.06591796875e-07,1.31927490234375,0.06957250628667225
1.35391235351563,5.0628662109375e-07,1.31423950195313,0.06953059513830678
1.348876953125,5.0628662109375e-07,1.3092041015625,0.06953059513830678
1.34384155273438,5.07202148437501e-07,1.30416870117188,0.06965632858340333
1.33880615234375,5.06591796875e-07,1.29913330078125,0.06957250628667225
1.33377075195313,5.0811767578125e-07,1.29409790039063,0.06978206202849958
1.3287353515625,5.0811767578125e-07,1.2890625,0.06978206202849958
1.32369995117188,5.09033203125001e-07,1.28402709960938,0.0699077954735961
1.31866455078125,5.0994873046875e-07,1.27899169921875,0.07003352891869237
1.31362915039063,5.1116943359375e-07,1.27395629882813,0.07020117351215424
1.30859375,5.11474609375e-07,1.2689208984375,0.0702430846605197
1.30355834960938,5.126953125e-07,1.26388549804688,0.07041072925398155
1.29852294921875,5.13916015625e-07,1.25885009765625,0.07057837384744342
1.29348754882813,5.15136718749999e-07,1.25381469726563,0.07074601844090514
1.2884521484375,5.157470703125e-07,1.248779296875,0.07082984073763621
1.28341674804688,5.16662597656249e-07,1.24374389648438,0.07095557418273246
1.27838134765625,5.1910400390625e-07,1.23870849609375,0.07129086336965633
1.27334594726563,5.2001953125e-07,1.23367309570313,0.07141659681475272
1.268310546875,5.2154541015625e-07,1.2286376953125,0.07162615255658006
1.26327514648438,5.2398681640625e-07,1.22360229492188,0.07196144174350377
1.25823974609375,5.25817871093751e-07,1.21856689453125,0.0722129086336967
1.25320434570313,5.2825927734375e-07,1.21353149414063,0.07254819782062027
1.2481689453125,5.2947998046875e-07,1.20849609375,0.07271584241408215
1.24313354492188,5.3253173828125e-07,1.20346069335938,0.07313495389773679
1.23809814453125,5.352783203125e-07,1.19842529296875,0.07351215423302598
1.23306274414063,5.38024902343749e-07,1.19338989257813,0.07388935456831504
1.22802734375,5.41992187500001e-07,1.1883544921875,0.07443419949706635
1.22299194335938,5.4656982421875e-07,1.18331909179688,0.0750628667225482
1.21795654296875,5.511474609375e-07,1.17828369140625,0.07569153394803017
1.21292114257813,5.56030273437501e-07,1.17324829101563,0.07636211232187774
1.2078857421875,5.6121826171875e-07,1.168212890625,0.07707460184409053
1.20285034179688,5.6884765625e-07,1.16317749023438,0.07812238055322716
1.19781494140625,5.767822265625e-07,1.15814208984375,0.07921207041072925
1.19277954101563,5.85327148437501e-07,1.15310668945313,0.08038558256496242
1.187744140625,5.96313476562499e-07,1.1480712890625,0.08189438390611889
1.18270874023438,6.0791015625e-07,1.14303588867188,0.0834870075440067
1.17767333984375,6.2286376953125e-07,1.13800048828125,0.0855406538139145
1.17263793945313,6.38732910156249e-07,1.13296508789063,0.08772003352891855
1.1676025390625,6.585693359375e-07,1.1279296875,0.09044425817267392
1.16256713867188,6.82373046875001e-07,1.12289428710938,0.09371332774518035
1.15753173828125,7.08923339843751e-07,1.11785888671875,0.09735959765297582
1.15249633789063,7.40661621093751e-07,1.11282348632813,0.1017183570829842
1.1474609375,7.7789306640625e-07,1.1077880859375,0.10683151718357083
1.14242553710938,8.2275390625e-07,1.10275268554688,0.11299245599329422
1.13739013671875,8.7554931640625e-07,1.09771728515625,0.1202430846605197
1.13235473632813,9.3597412109375e-07,1.09268188476563,0.1285414920368818
1.1273193359375,1.00830078125e-06,1.087646484375,0.13847443419949707
1.12228393554688,1.0931396484375e-06,1.08261108398438,0.1501257334450964
1.11724853515625,1.1907958984375e-06,1.07757568359375,0.16353730092204524
1.11221313476563,1.3037109375e-06,1.07254028320313,0.1790444258172674
1.107177734375,1.4324951171875e-06,1.0675048828125,0.1967309304274937
1.10214233398438,1.57958984375e-06,1.06246948242188,0.21693210393964793
1.09710693359375,1.74346923828125e-06,1.05743408203125,0.23943839061190275
1.09207153320313,1.9256591796875e-06,1.05239868164063,0.2644593461860855
1.0870361328125,2.12432861328125e-06,1.04736328125,0.29174350377200337
1.08200073242188,2.33734130859375e-06,1.04232788085938,0.32099748533109806
1.07696533203125,2.56134033203125e-06,1.03729248046875,0.35176026823134954
1.07192993164063,2.79266357421875e-06,1.03225708007813,0.38352891869237216
1.06689453125,3.02581787109375e-06,1.0272216796875,0.4155490360435876
1.06185913085938,3.25347900390625e-06,1.02218627929688,0.4468147527242246
1.05682373046875,3.46954345703125e-06,1.01715087890625,0.476487845766974
1.05178833007813,3.6627197265625e-06,1.01211547851563,0.5030176026823134
1.0467529296875,3.82904052734375e-06,1.007080078125,0.525859178541492
1.04171752929688,3.9605712890625e-06,1.00204467773438,0.5439228834870076
1.03668212890625,4.051513671875e-06,0.99700927734375,0.5564124056999161
1.03164672851563,4.0966796875e-06,0.9919738769531301,0.562615255658005
1.026611328125,4.09576416015625e-06,0.9869384765625,0.5624895222129086
1.02157592773438,4.05181884765625e-06,0.9819030761718801,0.5564543168482816
1.01654052734375,3.96392822265625e-06,0.97686767578125,0.5443839061190276
1.01150512695313,3.839111328125e-06,0.9718322753906301,0.5272422464375524
1.0064697265625,3.68743896484375e-06,0.966796875,0.5064124056999162
1.00143432617188,3.515625e-06,0.9617614746093801,0.4828164291701592
0.99639892578125,3.3319091796875e-06,0.95672607421875,0.4575859178541492
0.991363525390625,3.14697265625e-06,0.951690673828125,0.4321877619446773
0.986328125,2.9705810546875e-06,0.9466552734375,0.40796311818943837
0.981292724609375,2.8076171875e-06,0.941619873046875,0.38558256496227994
0.97625732421875,2.66448974609375e-06,0.93658447265625,0.3659262363788768
0.971221923828125,2.550048828125e-06,0.931549072265625,0.35020955574182727
0.9661865234375,2.46978759765625e-06,0.926513671875,0.33918692372171
0.961151123046875,2.42645263671875e-06,0.921478271484375,0.3332355406538139
0.95611572265625,2.4237060546875e-06,0.91644287109375,0.33285834031852474
0.951080322265625,2.46246337890625e-06,0.911407470703125,0.3381810561609388
0.946044921875,2.5457763671875e-06,0.9063720703125,0.34962279966471077
0.941009521484375,2.67181396484375e-06,0.901336669921875,0.3669321039396479
0.93597412109375,2.8375244140625e-06,0.89630126953125,0.3896898575020955
0.930938720703125,3.04473876953125e-06,0.891265869140625,0.4181475272422464
0.9259033203125,3.29071044921875e-06,0.88623046875,0.4519279128248114
0.920867919921875,3.56719970703125e-06,0.881195068359375,0.48989941324392283
0.91583251953125,3.87054443359375e-06,0.87615966796875,0.5315590947191953
0.910797119140625,4.19342041015625e-06,0.871124267578125,0.5759010896898575
0.90576171875,4.52728271484375e-06,0.8660888671875,0.6217518860016765
0.900726318359375,4.86053466796875e-06,0.861053466796875,0.6675188600167644
0.89569091796875,5.1812744140625e-06,0.85601806640625,0.7115674769488683
0.890655517578125,5.48004150390625e-06,0.850982666015625,0.7525984911986588
0.8856201171875,5.7427978515625e-06,0.845947265625,0.7886839899413243
0.880584716796875,5.95977783203125e-06,0.840911865234375,0.8184828164291701
0.87554931640625,6.119384765625e-06,0.83587646484375,0.8404023470243085
0.870513916015625,6.21368408203125e-06,0.830841064453125,0.8533528918692372
0.865478515625,6.24267578125e-06,0.8258056640625,0.8573344509639563
0.860443115234375,6.197509765625e-06,0.820770263671875,0.8511316010058676
0.85540771484375,6.08673095703125e-06,0.81573486328125,0.8359178541492036
0.850372314453125,5.9112548828125e-06,0.810699462890625,0.8118189438390612
0.8453369140625,5.68145751953125e-06,0.8056640625,0.7802598491198659
0.840301513671875,5.404052734375e-06,0.800628662109375,0.742162615255658
0.83526611328125,5.093994140625e-06,0.79559326171875,0.6995808885163454
0.830230712890625,4.76104736328125e-06,0.790557861328125,0.6538558256496229
0.8251953125,4.41864013671875e-06,0.7855224609375,0.6068315171835709
0.820159912109375,4.07440185546875e-06,0.780487060546875,0.559555741827326
0.81512451171875,3.743896484375e-06,0.77545166015625,0.5141659681475272
0.810089111328125,3.43048095703125e-06,0.770416259765625,0.47112321877619445
0.8050537109375,3.143310546875e-06,0.765380859375,0.43168482816429166
0.800018310546875,2.88665771484375e-06,0.760345458984375,0.3964375523889354
0.79498291015625,2.65625e-06,0.75531005859375,0.3647946353730092
0.789947509765625,2.46307373046875e-06,0.750274658203125,0.3382648784576697
0.784912109375,2.3016357421875e-06,0.7452392578125,0.31609388097233865
0.779876708984375,2.17559814453125e-06,0.740203857421875,0.29878457669740155
0.77484130859375,2.0806884765625e-06,0.73516845703125,0.2857502095557418
0.769805908203125,2.01690673828125e-06,0.730133056640625,0.27699077954735957
0.7647705078125,1.981201171875e-06,0.72509765625,0.2720871751886002
0.759735107421875,1.97052001953125e-06,0.720062255859375,0.27062028499580887
0.75469970703125,1.98394775390625e-06,0.71502685546875,0.27246437552388936
0.749664306640625,2.01995849609375e-06,0.709991455078125,0.2774098910310142
0.74462890625,2.06878662109375e-06,0.7049560546875,0.2841156747694887
0.739593505859375,2.13104248046875e-06,0.699920654296875,0.2926655490360436
0.73455810546875,2.2021484375e-06,0.69488525390625,0.302430846605197
0.729522705078125,2.27752685546875e-06,0.689849853515625,0.3127829002514669
0.7244873046875,2.35137939453125e-06,0.684814453125,0.3229253981559094
0.719451904296875,2.418212890625e-06,0.679779052734375,0.3321039396479464
0.71441650390625,2.474365234375e-06,0.67474365234375,0.33981559094719194
0.709381103515625,2.51373291015625e-06,0.669708251953125,0.3452221290863369
0.704345703125,2.53326416015625e-06,0.6646728515625,0.34790444258172676
0.699310302734375,2.5286865234375e-06,0.659637451171875,0.34727577535624476
0.69427490234375,2.50244140625e-06,0.65460205078125,0.34367141659681477
0.689239501953125,2.45147705078125e-06,0.649566650390625,0.336672254819782
0.6842041015625,2.379150390625e-06,0.64453125,0.3267393126571668
0.679168701171875,2.2894287109375e-06,0.639495849609375,0.31441743503772
0.67413330078125,2.18292236328125e-06,0.63446044921875,0.29979044425817264
0.669097900390625,2.06634521484375e-06,0.629425048828125,0.28378038558256496
0.6640625,1.9427490234375e-06,0.6243896484375,0.2668063704945515
0.659027099609375,1.81640625e-06,0.619354248046875,0.24945515507124896
0.65399169921875,1.69342041015625e-06,0.61431884765625,0.23256496227996645
0.648956298828125,1.57379150390625e-06,0.609283447265625,0.21613579212070408
0.6439208984375,1.46087646484375e-06,0.604248046875,0.20062866722548198
0.638885498046875,1.356201171875e-06,0.599212646484375,0.1862531433361274
0.63385009765625,1.26190185546875e-06,0.59417724609375,0.17330259849119864
0.628814697265625,1.1761474609375e-06,0.589141845703125,0.16152556580050292
0.623779296875,1.10015869140625e-06,0.5841064453125,0.1510896898575021
0.618743896484375,1.03424072265625e-06,0.579071044921875,0.14203688181056162
0.61370849609375,9.765625e-07,0.57403564453125,0.13411567476948869
0.608673095703125,9.2620849609375e-07,0.569000244140625,0.12720033528918692
0.6036376953125,8.8348388671875e-07,0.56396484375,0.1213327745180218
0.598602294921875,8.465576171875e-07,0.558929443359375,0.11626152556580051
0.59356689453125,8.1512451171875e-07,0.55389404296875,0.11194467728415759
0.588531494140625,7.8857421875e-07,0.548858642578125,0.10829840737636211
0.58349609375,7.65380859375001e-07,0.5438232421875,0.1051131601005869
0.578460693359375,7.45239257812499e-07,0.538787841796875,0.1023470243084659
0.57342529296875,7.29980468750001e-07,0.53375244140625,0.10025146689019292
0.568389892578125,7.1563720703125e-07,0.528717041015625,0.09828164291701592
0.5633544921875,7.037353515625e-07,0.523681640625,0.09664710813076278
0.558319091796875,6.927490234375e-07,0.518646240234375,0.09513830678960604
0.55328369140625,6.84814453124999e-07,0.51361083984375,0.0940486169321038
0.548248291015625,6.76574707031249e-07,0.508575439453125,0.09291701592623625
0.543212890625,6.70471191406249e-07,0.5035400390625,0.09207879295892694
0.538177490234375,6.65283203125e-07,0.498504638671875,0.09136630343671416
0.53314208984375,6.5948486328125e-07,0.49346923828125,0.09056999161777032
0.528106689453125,6.561279296875e-07,0.488433837890625,0.0901089689857502
0.5230712890625,6.5277099609375e-07,0.4833984375,0.08964794635373009
0.518035888671875,6.488037109375e-07,0.478363037109375,0.08910310142497904
0.51300048828125,6.46362304687501e-07,0.47332763671875,0.08876781223805545
0.507965087890625,6.43005371093751e-07,0.468292236328125,0.08830678960603534
0.5029296875,6.39953613281249e-07,0.4632568359375,0.08788767812238042
0.497894287109375,6.38732910156249e-07,0.458221435546875,0.08772003352891855
0.49285888671875,6.36901855468749e-07,0.45318603515625,0.08746856663872576
0.487823486328125,6.35681152343749e-07,0.448150634765625,0.08730092204526389
0.4827880859375,6.33850097656251e-07,0.443115234375,0.08704945515507138
0.477752685546875,6.3323974609375e-07,0.438079833984375,0.08696563285834032
0.47271728515625,6.3201904296875e-07,0.43304443359375,0.08679798826487846
0.467681884765625,6.30798339843749e-07,0.428009033203125,0.08663034367141645
0.462646484375,6.304931640625e-07,0.4229736328125,0.08658843252305114
0.457611083984375,6.29272460937501e-07,0.417938232421875,0.08642078792958942
0.45257568359375,6.2896728515625e-07,0.41290283203125,0.0863788767812238
0.447540283203125,6.2896728515625e-07,0.407867431640625,0.0863788767812238
0.4425048828125,6.28051757812501e-07,0.40283203125,0.08625314333612755
0.437469482421875,6.27746582031251e-07,0.397796630859375,0.08621123218776208
0.43243408203125,6.27441406250001e-07,0.39276123046875,0.08616932103939662
0.427398681640625,6.26831054687499e-07,0.387725830078125,0.08608549874266541
0.42236328125,6.26525878906251e-07,0.3826904296875,0.08604358759430022
0.417327880859375,6.26220703125001e-07,0.377655029296875,0.08600167644593475
0.41229248046875,6.256103515625e-07,0.37261962890625,0.08591785414920369
0.407257080078125,6.24999999999999e-07,0.367584228515625,0.08583403185247261
0.4022216796875,6.25000000000001e-07,0.362548828125,0.08583403185247289
0.397186279296875,6.256103515625e-07,0.357513427734375,0.08591785414920369
0.39215087890625,6.256103515625e-07,0.35247802734375,0.08591785414920369
0.387115478515625,6.26220703125001e-07,0.347442626953125,0.08600167644593475
0.382080078125,6.26525878906251e-07,0.3424072265625,0.08604358759430022
0.377044677734375,6.2744140625e-07,0.337371826171875,0.08616932103939647
0.37200927734375,6.2896728515625e-07,0.33233642578125,0.0863788767812238
0.366973876953125,6.304931640625e-07,0.327301025390625,0.08658843252305114
0.3619384765625,6.329345703125e-07,0.322265625,0.08692372170997485
0.356903076171875,6.3507080078125e-07,0.317230224609375,0.0872170997485331
0.35186767578125,6.37207031249999e-07,0.31219482421875,0.08751047778709123
0.346832275390625,6.40258789062499e-07,0.307159423828125,0.08792958927074587
0.341796875,6.439208984375e-07,0.3021240234375,0.0884325230511316
0.336761474609375,6.47888183593751e-07,0.297088623046875,0.08897736797988279
0.33172607421875,6.5155029296875e-07,0.29205322265625,0.08948030176026824
0.326690673828125,6.561279296875e-07,0.287017822265625,0.0901089689857502
0.3216552734375,6.610107421875e-07,0.281982421875,0.09077954735959765
0.316619873046875,6.66198730468751e-07,0.276947021484375,0.09149203688181069
0.31158447265625,6.7138671875e-07,0.27191162109375,0.09220452640402346
0.306549072265625,6.77490234375e-07,0.266876220703125,0.09304274937133278
0.301513671875,6.8359375e-07,0.2618408203125,0.09388097233864208
0.296478271484375,6.9091796875e-07,0.256805419921875,0.09488683989941324
0.29144287109375,6.97937011718751e-07,0.25177001953125,0.09585079631181907
0.286407470703125,7.049560546875e-07,0.246734619140625,0.09681475272422464
0.2813720703125,7.13500976562501e-07,0.24169921875,0.0979882648784578
0.276336669921875,7.21435546874999e-07,0.236663818359375,0.09907795473595962
0.27130126953125,7.30590820312499e-07,0.23162841796875,0.10033528918692358
0.266265869140625,7.3974609375e-07,0.226593017578125,0.10159262363788768
0.26123046875,7.48291015625001e-07,0.2215576171875,0.10276613579212084
0.256195068359375,7.59277343750001e-07,0.216522216796875,0.1042749371332776
0.25115966796875,7.6904296875e-07,0.21148681640625,0.10561609388097233
0.246124267578125,7.794189453125e-07,0.206451416015625,0.10704107292539815
0.2410888671875,7.91320800781251e-07,0.201416015625,0.10867560771165144
0.236053466796875,8.0413818359375e-07,0.196380615234375,0.11043587594300083
0.23101806640625,8.16650390625e-07,0.19134521484375,0.1121542330259849
0.225982666015625,8.30078125e-07,0.186309814453125,0.11399832355406538
0.220947265625,8.453369140625e-07,0.1812744140625,0.11609388097233864
0.215911865234375,8.6090087890625e-07,0.176239013671875,0.11823134953897736
0.21087646484375,8.78295898437501e-07,0.17120361328125,0.12062028499580901
0.205841064453125,8.9752197265625e-07,0.166168212890625,0.12326068734283319
0.2008056640625,9.1827392578125e-07,0.1611328125,0.12611064543168482
0.195770263671875,9.42077636718749e-07,0.156097412109375,0.12937971500419096
0.19073486328125,9.6832275390625e-07,0.15106201171875,0.13298407376362112
0.185699462890625,9.9884033203125e-07,0.146026611328125,0.13717518860016764
0.1806640625,1.03485107421875e-06,0.1409912109375,0.14212070410729255
0.175628662109375,1.0748291015625e-06,0.135955810546875,0.1476110645431685
0.17059326171875,1.1224365234375e-06,0.13092041015625,0.15414920368818105
0.165557861328125,1.17950439453125e-06,0.125885009765625,0.16198658843252303
0.1605224609375,1.246337890625e-06,0.120849609375,0.17116512992455993
0.155487060546875,1.324462890625e-06,0.115814208984375,0.18189438390611903
0.15045166015625,1.41693115234375e-06,0.11077880859375,0.19459346186085497
0.145416259765625,1.527099609375e-06,0.105743408203125,0.20972338642078792
0.140380859375,1.654052734375e-06,0.1007080078125,0.22715842414082144
