Potential,Current,Normalized_Potential,Normalized_Current
1.50497436523438,5.82275390625001e-07,1.470336914062505,0.08290965975752851
1.49993896484375,6.3323974609375e-07,1.465301513671875,0.09016642767131622
1.49490356445313,6.19812011718748e-07,1.460266113281255,0.08825446486768321
1.4898681640625,6.04248046875e-07,1.455230712890625,0.08603832616347283
1.48483276367188,5.88684082031249e-07,1.450195312500005,0.08382218745926201
1.47979736328125,5.7525634765625e-07,1.445159912109375,0.08191022465562942
1.47476196289063,5.6304931640625e-07,1.440124511718755,0.08017207665232695
1.4697265625,5.5145263671875e-07,1.435089111328125,0.07852083604918958
1.46469116210938,5.40466308593751e-07,1.430053710937505,0.0769565028462175
1.45965576171875,5.31616210937499e-07,1.425018310546875,0.07569634554382292
1.45462036132813,5.23071289062502e-07,1.419982910156255,0.0744796419415116
1.4495849609375,5.157470703125e-07,1.414947509765625,0.07343675313952983
1.44454956054688,5.084228515625e-07,1.409912109375005,0.07239386433754835
1.43951416015625,5.02624511718751e-07,1.404876708984375,0.0715682440359798
1.43447875976563,4.97131347656249e-07,1.399841308593755,0.0707860774344934
1.429443359375,4.91943359374999e-07,1.394805908203125,0.07004736453308985
1.42440795898438,4.87060546875e-07,1.389770507812505,0.069352105331769
1.41937255859375,4.83398437499999e-07,1.384735107421875,0.06883066093077812
1.41433715820313,4.80041503906251e-07,1.379699707031255,0.06835267022987021
1.4093017578125,4.76989746093749e-07,1.374664306640625,0.0679181332290443
1.40426635742188,4.73632812499999e-07,1.369628906250005,0.06744014252813613
1.39923095703125,4.7119140625e-07,1.364593505859375,0.06709251292747578
1.39419555664063,4.69970703125e-07,1.359558105468755,0.06691869812714553
1.38916015625,4.67834472656249e-07,1.354522705078125,0.06661452222656745
1.38412475585938,4.66003417968751e-07,1.349487304687505,0.06635380002607237
1.37908935546875,4.6539306640625e-07,1.344451904296875,0.0662668926259071
1.37405395507813,4.6417236328125e-07,1.339416503906255,0.06609307782557684
1.3690185546875,4.63256835937499e-07,1.334381103515625,0.06596271672532902
1.36398315429688,4.6234130859375e-07,1.329345703125005,0.06583235562508148
1.35894775390625,4.62036132812499e-07,1.324310302734375,0.06578890192499877
1.35391235351563,4.61730957031251e-07,1.319274902343755,0.06574544822491649
1.348876953125,4.620361328125e-07,1.314239501953125,0.06578890192499892
1.34384155273438,4.61120605468751e-07,1.309204101562505,0.06565854082475137
1.33880615234375,4.61120605468751e-07,1.304168701171875,0.06565854082475137
1.33377075195313,4.608154296875e-07,1.299133300781255,0.06561508712466867
1.3287353515625,4.61730957031249e-07,1.294097900390625,0.06574544822491621
1.32369995117188,4.61730957031251e-07,1.289062500000005,0.06574544822491649
1.31866455078125,4.61730957031249e-07,1.284027099609375,0.06574544822491621
1.31362915039063,4.62036132812502e-07,1.278991699218755,0.0657889019249992
1.30859375,4.6234130859375e-07,1.273956298828125,0.06583235562508148
1.30355834960938,4.62646484375e-07,1.268920898437505,0.06587580932516404
1.29852294921875,4.63256835937501e-07,1.263885498046875,0.0659627167253293
1.29348754882813,4.64782714843749e-07,1.258850097656255,0.06617998522574182
1.2884521484375,4.64172363281251e-07,1.253814697265625,0.066093077825577
1.28341674804688,4.65393066406249e-07,1.248779296875005,0.06626689262590695
1.27838134765625,4.65393066406251e-07,1.243743896484375,0.06626689262590724
1.27334594726563,4.66308593749999e-07,1.238708496093755,0.06639725372615464
1.268310546875,4.68139648437499e-07,1.233673095703125,0.06665797592665001
1.26327514648438,4.68750000000001e-07,1.228637695312505,0.06674488332681543
1.25823974609375,4.69970703125e-07,1.223602294921875,0.06691869812714553
1.25320434570313,4.718017578125e-07,1.218566894531255,0.0671794203276409
1.2481689453125,4.73632812499999e-07,1.213531494140625,0.06744014252813613
1.24313354492188,4.75769042968749e-07,1.208496093750005,0.06774431842871406
1.23809814453125,4.78210449218751e-07,1.203460693359375,0.06809194802937484
1.23306274414063,4.815673828125e-07,1.198425292968755,0.06856993873028287
1.22802734375,4.8492431640625e-07,1.193389892578125,0.06904792943119108
1.22299194335938,4.8828125e-07,1.188354492187505,0.06952592013209925
1.21795654296875,4.931640625e-07,1.183319091796875,0.07022117933342024
1.21292114257813,4.98657226562499e-07,1.178283691406255,0.0710033459349062
1.2078857421875,5.04455566406251e-07,1.173248291015625,0.07182896623647518
1.20285034179688,5.1239013671875e-07,1.168212890625005,0.07295876243862165
1.19781494140625,5.21545410156252e-07,1.163177490234375,0.0742623734410988
1.19277954101563,5.30700683593751e-07,1.158142089843755,0.07556598444357551
1.187744140625,5.42602539062499e-07,1.153106689453125,0.07726067874679514
1.18270874023438,5.56640625e-07,1.148071289062505,0.07925954895059314
1.17767333984375,5.7342529296875e-07,1.143035888671875,0.08164950245513405
1.17263793945313,5.92651367187499e-07,1.138000488281255,0.08438708556033532
1.1676025390625,6.15234375e-07,1.132965087890625,0.08760265936644505
1.16256713867188,6.43920898437499e-07,1.127929687500005,0.09168730717420573
1.15753173828125,6.7596435546875e-07,1.122894287109375,0.0962499456828749
1.15249633789063,7.15942382812498e-07,1.117858886718755,0.10194238039369025
1.1474609375,7.6141357421875e-07,1.112823486328125,0.10841698170599226
1.14242553710938,8.15734863281251e-07,1.107788085937505,0.11615174032068844
1.13739013671875,8.81042480468751e-07,1.102752685546875,0.12545083213835673
1.13235473632813,9.5611572265625e-07,1.097717285156255,0.13614044235866682
1.1273193359375,1.044921875e-06,1.092681884765625,0.14878546908269238
1.12228393554688,1.15081787109375e-06,1.087646484375005,0.1638639030113414
1.11724853515625,1.2713623046875e-06,1.082611083984375,0.18102811454395343
1.11221313476563,1.41204833984375e-06,1.077575683593755,0.2010602702820145
1.107177734375,1.57318115234375e-06,1.072540283203125,0.22400382392560725
1.10214233398438,1.75750732421875e-06,1.067504882812505,0.25024985877547473
1.09710693359375,1.9635009765625e-06,1.062469482421875,0.2795811063312041
1.09207153320313,2.19268798828125e-06,1.057434082031255,0.3122148350932082
1.0870361328125,2.44293212890625e-06,1.052398681640625,0.347846869160909
1.08200073242188,2.713623046875e-06,1.047363281250005,0.3863903011341416
1.07696533203125,3.0010986328125e-06,1.042327880859375,0.427323686611915
1.07192993164063,3.29864501953125e-06,1.037292480468755,0.46969104419241303
1.06689453125,3.60198974609375e-06,1.032257080078125,0.5128840220744796
1.06185913085938,3.90350341796875e-06,1.027221679687505,0.5558162777560509
1.05682373046875,4.19189453125e-06,1.022186279296875,0.5968800243340721
1.05178833007813,4.4580078125e-06,1.017150878906255,0.6347716508060661
1.0467529296875,4.69482421875e-06,1.012115478515625,0.6684917220701343
1.04171752929688,4.891357421875e-06,1.007080078125005,0.6964759049233042
1.03668212890625,5.03753662109375e-06,1.002044677734375,0.7172902272628514
1.03164672851563,5.130615234375e-06,0.9970092773437551,0.7305436057880328
1.026611328125,5.1654052734375e-06,0.991973876953125,0.7354973275974449
1.02157592773438,5.14068603515625e-06,0.9869384765625051,0.7319775778907573
1.01654052734375,5.05889892578125e-06,0.981903076171875,0.7203319862686308
1.01150512695313,4.92340087890625e-06,0.9768676757812551,0.7010385434319732
1.0064697265625,4.7467041015625e-06,0.971832275390625,0.6758788510841699
1.00143432617188,4.53338623046875e-06,0.9667968750000051,0.6455047147264589
0.99639892578125,4.29718017578125e-06,0.961761474609375,0.611871550862556
0.991363525390625,4.0484619140625e-06,0.95672607421875,0.5764567852952679
0.986328125,3.80096435546875e-06,0.951690673828125,0.54121583452831
0.981292724609375,3.56292724609375e-06,0.9466552734375,0.5073219484639118
0.97625732421875,3.34320068359375e-06,0.941619873046875,0.476035284404467
0.971221923828125,3.15643310546875e-06,0.93658447265625,0.44944161995393905
0.9661865234375,3.00628662109375e-06,0.931549072265625,0.42806239951331854
0.961151123046875,2.9022216796875e-06,0.926513671875,0.41324468778516493
0.95611572265625,2.84576416015625e-06,0.921478271484375,0.40520575326989094
0.951080322265625,2.84210205078125e-06,0.91644287109375,0.4046843088689002
0.946044921875,2.894287109375e-06,0.911407470703125,0.4121148915830183
0.941009521484375,3.00079345703125e-06,0.9063720703125,0.4272802329118324
0.93597412109375,3.1573486328125e-06,0.901336669921875,0.4495719810541867
0.930938720703125,3.37005615234375e-06,0.89630126953125,0.4798592100117325
0.9259033203125,3.62823486328125e-06,0.891265869140625,0.51662104028158
0.920867919921875,3.92974853515625e-06,0.88623046875,0.5595532959631513
0.91583251953125,4.266357421875e-06,0.881195068359375,0.6074827271542173
0.910797119140625,4.63134765625e-06,0.87615966796875,0.6594533524529614
0.90576171875,5.0164794921875e-06,0.871124267578125,0.7142919219571546
0.900726318359375,5.40679931640625e-06,0.8660888671875,0.7698692043627514
0.89569091796875,5.79132080078125e-06,0.861053466796875,0.8246208664667796
0.890655517578125,6.15753173828125e-06,0.85601806640625,0.876765306565854
0.8856201171875,6.49322509765625e-06,0.850982666015625,0.9245643766566722
0.880584716796875,6.783447265625e-06,0.845947265625,0.9658888454351888
0.87554931640625,7.01568603515625e-06,0.840911865234375,0.9989571111980186
0.870513916015625,7.1844482421875e-06,0.83587646484375,1.0229870073436753
0.865478515625,7.281494140625e-06,0.830841064453125,1.03680528396993
0.860443115234375,7.29736328125e-06,0.8258056640625,1.0390648763742232
0.85540771484375,7.2357177734375e-06,0.820770263671875,1.0302872289575458
0.850372314453125,7.099609375e-06,0.81573486328125,1.0109068787207232
0.8453369140625,6.8927001953125e-06,0.810699462890625,0.981445270064746
0.840301513671875,6.62261962890625e-06,0.8056640625,0.9429887454916787
0.83526611328125,6.2982177734375e-06,0.800628662109375,0.8967974623039152
0.830230712890625,5.9381103515625e-06,0.79559326171875,0.845522096206492
0.8251953125,5.55145263671875e-06,0.790557861328125,0.7904662582018859
0.820159912109375,5.14892578125e-06,0.7855224609375,0.7331508277929866
0.81512451171875,4.7491455078125e-06,0.780487060546875,0.6762264806848304
0.810089111328125,4.361572265625e-06,0.77545166015625,0.6210402815799765
0.8050537109375,3.9959716796875e-06,0.770416259765625,0.5689827488810673
0.800018310546875,3.6627197265625e-06,0.765380859375,0.5215313083909094
0.79498291015625,3.359375e-06,0.760345458984375,0.47833833050884283
0.789947509765625,3.09814453125e-06,0.75531005859375,0.44114196323816973
0.784912109375,2.87811279296875e-06,0.750274658203125,0.4098118454786425
0.779876708984375,2.7032470703125e-06,0.7452392578125,0.3849128753313345
0.77484130859375,2.57110595703125e-06,0.740203857421875,0.36609742319558514
0.769805908203125,2.48260498046875e-06,0.73516845703125,0.35349585017164215
0.7647705078125,2.43377685546875e-06,0.730133056640625,0.3465432581584322
0.759735107421875,2.423095703125e-06,0.72509765625,0.3450223786555425
0.75469970703125,2.44720458984375e-06,0.720062255859375,0.3484552209620649
0.749664306640625,2.50579833984375e-06,0.71502685546875,0.35679833137791683
0.74462890625,2.587890625e-06,0.709991455078125,0.368487376700126
0.739593505859375,2.6922607421875e-06,0.7049560546875,0.3833485421283623
0.73455810546875,2.81524658203125e-06,0.699920654296875,0.4008603832616347
0.729522705078125,2.94677734375e-06,0.69488525390625,0.419588927997219
0.7244873046875,3.08135986328125e-06,0.689849853515625,0.4387520097336288
0.719451904296875,3.211669921875e-06,0.684814453125,0.4573067396688828
0.71441650390625,3.32855224609375e-06,0.679779052734375,0.4739495068005041
0.709381103515625,3.42529296875e-06,0.67474365234375,0.48772432972667623
0.704345703125,3.49456787109375e-06,0.669708251953125,0.49758831964541783
0.699310302734375,3.52996826171875e-06,0.6646728515625,0.502628948854995
0.69427490234375,3.5296630859375e-06,0.659637451171875,0.5025854951549125
0.689239501953125,3.49029541015625e-06,0.65460205078125,0.49697996784426196
0.6842041015625,3.4136962890625e-06,0.649566650390625,0.48607308912353886
0.679168701171875,3.30169677734375e-06,0.64453125,0.47012558119323855
0.67413330078125,3.15948486328125e-06,0.639495849609375,0.4498761569547647
0.669097900390625,2.99346923828125e-06,0.63446044921875,0.4262373441098509
0.6640625,2.8094482421875e-06,0.629425048828125,0.40003476296006607
0.659027099609375,2.61505126953125e-06,0.6243896484375,0.37235475600747403
0.65399169921875,2.4163818359375e-06,0.619354248046875,0.3440663972537262
0.648956298828125,2.22076416015625e-06,0.61431884765625,0.3162125755008039
0.6439208984375,2.03125e-06,0.609283447265625,0.2892278277495329
0.638885498046875,1.8536376953125e-06,0.604248046875,0.2639377743014818
0.63385009765625,1.68853759765625e-06,0.599212646484375,0.2404293225568157
0.628814697265625,1.5380859375e-06,0.59417724609375,0.21900664841611264
0.623779296875,1.4031982421875e-06,0.589141845703125,0.19980011297962022
0.618743896484375,1.28448486328125e-06,0.5841064453125,0.1828966236475036
0.61370849609375,1.1810302734375e-06,0.579071044921875,0.16816581931951505
0.608673095703125,1.09100341796875e-06,0.57403564453125,0.15534697779515924
0.6036376953125,1.01318359375e-06,0.569000244140625,0.14426628427410593
0.598602294921875,9.478759765625e-07,0.56396484375,0.13496719245643768
0.59356689453125,8.9263916015625e-07,0.558929443359375,0.12710207274149393
0.588531494140625,8.45642089843751e-07,0.55389404296875,0.12041020292877953
0.58349609375,8.0596923828125e-07,0.548858642578125,0.11476122191804632
0.578460693359375,7.7362060546875e-07,0.5438232421875,0.11015512970929475
0.57342529296875,7.47375488281249e-07,0.538787841796875,0.10641811150219427
0.568389892578125,7.244873046875e-07,0.53375244140625,0.10315908399600227
0.5633544921875,7.061767578125e-07,0.528717041015625,0.10055186199104854
0.558319091796875,6.9091796875e-07,0.523681640625,0.09837917698692043
0.55328369140625,6.79626464843751e-07,0.518646240234375,0.09677139008386579
0.548248291015625,6.68945312500001e-07,0.51361083984375,0.09525051058097611
0.543212890625,6.610107421875e-07,0.508575439453125,0.09412071437882935
0.538177490234375,6.549072265625e-07,0.5035400390625,0.09325164037717812
0.53314208984375,6.4971923828125e-07,0.498504638671875,0.09251292747577457
0.528106689453125,6.45751953125e-07,0.49346923828125,0.09194802937470126
0.5230712890625,6.43005371093751e-07,0.488433837890625,0.09155694607395834
0.518035888671875,6.40869140625e-07,0.4833984375,0.09125277017338027
0.51300048828125,6.38427734375001e-07,0.478363037109375,0.09090514057271991
0.507965087890625,6.3751220703125e-07,0.47332763671875,0.09077477947247208
0.5029296875,6.3629150390625e-07,0.468292236328125,0.09060096467214183
0.497894287109375,6.35375976562501e-07,0.4632568359375,0.09047060357189429
0.49285888671875,6.35070800781251e-07,0.458221435546875,0.09042714987181173
0.487823486328125,6.34765625e-07,0.45318603515625,0.09038369617172902
0.4827880859375,6.35070800781251e-07,0.448150634765625,0.09042714987181173
0.477752685546875,6.35375976562501e-07,0.443115234375,0.09047060357189429
0.47271728515625,6.365966796875e-07,0.438079833984375,0.0906444183722244
0.467681884765625,6.37207031250001e-07,0.43304443359375,0.09073132577238967
0.462646484375,6.3812255859375e-07,0.428009033203125,0.09086168687263721
0.457611083984375,6.3934326171875e-07,0.4229736328125,0.09103550167296745
0.45257568359375,6.396484375e-07,0.417938232421875,0.09107895537305001
0.447540283203125,6.4117431640625e-07,0.41290283203125,0.09129622387346283
0.4425048828125,6.4239501953125e-07,0.407867431640625,0.09147003867379307
0.437469482421875,6.44226074218751e-07,0.40283203125,0.09173076087428858
0.43243408203125,6.44836425781251e-07,0.397796630859375,0.09181766827445371
0.427398681640625,6.46362304687501e-07,0.39276123046875,0.09203493677486652
0.42236328125,6.4666748046875e-07,0.387725830078125,0.09207839047494894
0.417327880859375,6.4727783203125e-07,0.3826904296875,0.09216529787511406
0.41229248046875,6.49719238281249e-07,0.377655029296875,0.09251292747577443
0.407257080078125,6.4971923828125e-07,0.37261962890625,0.09251292747577457
0.4022216796875,6.50939941406249e-07,0.367584228515625,0.09268674227610467
0.397186279296875,6.52160644531249e-07,0.362548828125,0.09286055707643492
0.39215087890625,6.52465820312501e-07,0.357513427734375,0.09290401077651778
0.387115478515625,6.52465820312501e-07,0.35247802734375,0.09290401077651778
0.382080078125,6.53381347656251e-07,0.347442626953125,0.09303437187676546
0.377044677734375,6.5460205078125e-07,0.3424072265625,0.09320818667709556
0.37200927734375,6.55517578125001e-07,0.337371826171875,0.09333854777734339
0.366973876953125,6.55822753906249e-07,0.33233642578125,0.09338200147742566
0.3619384765625,6.57043457031251e-07,0.327301025390625,0.09355581627775619
0.356903076171875,6.58569335937501e-07,0.322265625,0.09377308477816901
0.35186767578125,6.5887451171875e-07,0.317230224609375,0.09381653847825143
0.346832275390625,6.60400390625e-07,0.31219482421875,0.09403380697866423
0.341796875,6.61926269531249e-07,0.307159423828125,0.09425107547907689
0.336761474609375,6.63146972656251e-07,0.3021240234375,0.09442489027940744
0.33172607421875,6.64367675781251e-07,0.297088623046875,0.09459870507973768
0.326690673828125,6.671142578125e-07,0.29205322265625,0.0949897883804806
0.3216552734375,6.689453125e-07,0.287017822265625,0.09525051058097596
0.316619873046875,6.70776367187499e-07,0.281982421875,0.09551123278147121
0.31158447265625,6.7230224609375e-07,0.276947021484375,0.09572850128188416
0.306549072265625,6.75354003906249e-07,0.27191162109375,0.09616303828270963
0.301513671875,6.7779541015625e-07,0.266876220703125,0.09651066788337027
0.296478271484375,6.8023681640625e-07,0.2618408203125,0.09685829748403077
0.29144287109375,6.8359375e-07,0.256805419921875,0.09733628818493895
0.286407470703125,6.866455078125e-07,0.25177001953125,0.09777082518576456
0.2813720703125,6.90612792968751e-07,0.246734619140625,0.09833572328683801
0.276336669921875,6.9427490234375e-07,0.24169921875,0.09885716768782861
0.27130126953125,6.98242187500001e-07,0.236663818359375,0.09942206578890206
0.266265869140625,7.03124999999999e-07,0.23162841796875,0.10011732499022277
0.26123046875,7.08618164062501e-07,0.226593017578125,0.10089949159170918
0.256195068359375,7.13500976562499e-07,0.2215576171875,0.10159475079302988
0.25115966796875,7.19604492187499e-07,0.216522216796875,0.10246382479468112
0.246124267578125,7.26318359375e-07,0.21148681640625,0.10341980619649764
0.2410888671875,7.3394775390625e-07,0.206451416015625,0.10450614869856167
0.236053466796875,7.42187499999999e-07,0.201416015625,0.10567939860079072
0.23101806640625,7.50732421875e-07,0.196380615234375,0.1068961022031026
0.225982666015625,7.61108398437499e-07,0.19134521484375,0.10837352800590955
0.220947265625,7.720947265625e-07,0.186309814453125,0.10993786120888194
0.215911865234375,7.84912109375e-07,0.1812744140625,0.11176291661234954
0.21087646484375,7.98339843750001e-07,0.176239013671875,0.11367487941598242
0.205841064453125,8.135986328125e-07,0.17120361328125,0.11584756442011038
0.2008056640625,8.32214355468749e-07,0.166168212890625,0.11849824012514652
0.195770263671875,8.514404296875e-07,0.1611328125,0.12123582323034807
0.19073486328125,8.7432861328125e-07,0.156097412109375,0.12449485073654021
0.185699462890625,9.01184082031251e-07,0.15106201171875,0.1283187763438058
0.1806640625,9.31701660156251e-07,0.146026611328125,0.13266414635206203
0.175628662109375,9.68017578125001e-07,0.1409912109375,0.1378351366618869
0.17059326171875,1.00982666015625e-06,0.135955810546875,0.14378829357319775
0.165557861328125,1.0595703125e-06,0.13092041015625,0.15087124668665536
0.1605224609375,1.1175537109375e-06,0.125885009765625,0.15912744970234216
0.155487060546875,1.18438720703125e-06,0.120849609375,0.16864381002042322
0.15045166015625,1.26495361328125e-06,0.115814208984375,0.18011558684221962
