Potential,Current,Normalized_Potential,Normalized_Current
1.50497436523438,6.88781738281251e-07,1.419982910156255,0.08201308139534896
1.49993896484375,7.586669921875e-07,1.414947509765625,0.0903343023255814
1.49490356445313,7.4462890625e-07,1.409912109375005,0.08866279069767442
1.4898681640625,7.2601318359375e-07,1.404876708984375,0.08644622093023255
1.48483276367188,7.086181640625e-07,1.399841308593755,0.084375
1.47979736328125,6.93664550781251e-07,1.394805908203125,0.08259447674418616
1.47476196289063,6.7901611328125e-07,1.389770507812505,0.08085029069767441
1.4697265625,6.6680908203125e-07,1.384735107421875,0.0793968023255814
1.46469116210938,6.5460205078125e-07,1.379699707031255,0.07794331395348837
1.45965576171875,6.4544677734375e-07,1.374664306640625,0.0768531976744186
1.45462036132813,6.36901855468749e-07,1.369628906250005,0.07583575581395337
1.4495849609375,6.28662109375e-07,1.364593505859375,0.07485465116279069
1.44454956054688,6.22253417968749e-07,1.359558105468755,0.07409156976744175
1.43951416015625,6.16455078125e-07,1.354522705078125,0.07340116279069767
1.43447875976563,6.11267089843751e-07,1.349487304687505,0.07278343023255826
1.429443359375,6.07910156250001e-07,1.344451904296875,0.07238372093023267
1.42440795898438,6.0455322265625e-07,1.339416503906255,0.07198401162790698
1.41937255859375,6.02111816406251e-07,1.334381103515625,0.07169331395348849
1.41433715820313,5.999755859375e-07,1.329345703125005,0.07143895348837209
1.4093017578125,5.9844970703125e-07,1.324310302734375,0.07125726744186046
1.40426635742188,5.97534179687501e-07,1.319274902343755,0.0711482558139536
1.39923095703125,5.97534179687501e-07,1.314239501953125,0.0711482558139536
1.39419555664063,5.97534179687499e-07,1.309204101562505,0.07114825581395337
1.38916015625,5.99060058593749e-07,1.304168701171875,0.071329941860465
1.38412475585938,6.00280761718749e-07,1.299133300781255,0.0714752906976743
1.37908935546875,6.024169921875e-07,1.294097900390625,0.0717296511627907
1.37405395507813,6.05163574218751e-07,1.289062500000005,0.07205668604651175
1.3690185546875,6.0882568359375e-07,1.284027099609375,0.07249273255813952
1.36398315429688,6.121826171875e-07,1.278991699218755,0.07289244186046512
1.35894775390625,6.16455078125e-07,1.273956298828125,0.07340116279069767
1.35391235351563,6.2042236328125e-07,1.268920898437505,0.0738735465116279
1.348876953125,6.25000000000001e-07,1.263885498046875,0.07441860465116291
1.34384155273438,6.3018798828125e-07,1.258850097656255,0.07503633720930233
1.33880615234375,6.3507080078125e-07,1.253814697265625,0.07561773255813953
1.33377075195313,6.4117431640625e-07,1.248779296875005,0.07634447674418605
1.3287353515625,6.45751953125e-07,1.243743896484375,0.07688953488372094
1.32369995117188,6.50634765624999e-07,1.238708496093755,0.07747093023255802
1.31866455078125,6.5643310546875e-07,1.233673095703125,0.07816133720930234
1.31362915039063,6.622314453125e-07,1.228637695312505,0.07885174418604651
1.30859375,6.67419433593751e-07,1.223602294921875,0.07946947674418617
1.30355834960938,6.72607421875e-07,1.218566894531255,0.08008720930232559
1.29852294921875,6.7779541015625e-07,1.213531494140625,0.08070494186046512
1.29348754882813,6.8328857421875e-07,1.208496093750005,0.08135901162790697
1.2884521484375,6.87866210937499e-07,1.203460693359375,0.08190406976744173
1.28341674804688,6.93359375e-07,1.198425292968755,0.08255813953488372
1.27838134765625,6.988525390625e-07,1.193389892578125,0.08321220930232558
1.27334594726563,7.03735351562501e-07,1.188354492187505,0.08379360465116291
1.268310546875,7.09228515625e-07,1.183319091796875,0.08444767441860465
1.26327514648438,7.14721679687501e-07,1.178283691406255,0.08510174418604663
1.25823974609375,7.2052001953125e-07,1.173248291015625,0.0857921511627907
1.25320434570313,7.2601318359375e-07,1.168212890625005,0.08644622093023255
1.2481689453125,7.31506347656249e-07,1.163177490234375,0.0871002906976743
1.24313354492188,7.3699951171875e-07,1.158142089843755,0.08775436046511628
1.23809814453125,7.4371337890625e-07,1.153106689453125,0.08855377906976744
1.23306274414063,7.48596191406249e-07,1.148071289062505,0.08913517441860454
1.22802734375,7.550048828125e-07,1.143035888671875,0.0898982558139535
1.22299194335938,7.61718750000001e-07,1.138000488281255,0.09069767441860478
1.21795654296875,7.68432617187499e-07,1.132965087890625,0.09149709302325569
1.21292114257813,7.7392578125e-07,1.127929687500005,0.09215116279069768
1.2078857421875,7.80334472656249e-07,1.122894287109375,0.0929142441860464
1.20285034179688,7.8704833984375e-07,1.117858886718755,0.09371366279069768
1.19781494140625,7.9376220703125e-07,1.112823486328125,0.09451308139534884
1.19277954101563,8.00781249999999e-07,1.107788085937505,0.0953488372093022
1.187744140625,8.0718994140625e-07,1.102752685546875,0.09611191860465117
1.18270874023438,8.1451416015625e-07,1.097717285156255,0.09698401162790697
1.17767333984375,8.21533203125e-07,1.092681884765625,0.09781976744186047
1.17263793945313,8.2855224609375e-07,1.087646484375005,0.09865552325581396
1.1676025390625,8.35571289062501e-07,1.082611083984375,0.09949127906976755
1.16256713867188,8.43200683593751e-07,1.077575683593755,0.1003997093023257
1.15753173828125,8.50830078125e-07,1.072540283203125,0.10130813953488371
1.15249633789063,8.58459472656251e-07,1.067504882812505,0.10221656976744198
1.1474609375,8.66088867187499e-07,1.062469482421875,0.10312499999999988
1.14242553710938,8.740234375e-07,1.057434082031255,0.10406976744186046
1.13739013671875,8.81042480468751e-07,1.052398681640625,0.10490552325581406
1.13235473632813,8.892822265625e-07,1.047363281250005,0.10588662790697674
1.1273193359375,8.9630126953125e-07,1.042327880859375,0.10672238372093024
1.12228393554688,9.039306640625e-07,1.037292480468755,0.10763081395348838
1.11724853515625,9.11865234374999e-07,1.032257080078125,0.10857558139534872
1.11221313476563,9.185791015625e-07,1.027221679687505,0.109375
1.107177734375,9.25903320312499e-07,1.022186279296875,0.1102470930232557
1.10214233398438,9.320068359375e-07,1.017150878906255,0.11097383720930233
1.09710693359375,9.3841552734375e-07,1.012115478515625,0.11173691860465117
1.09207153320313,9.429931640625e-07,1.007080078125005,0.11228197674418605
1.0870361328125,9.48181152343749e-07,1.002044677734375,0.11289970930232546
1.08200073242188,9.51538085937501e-07,0.9970092773437551,0.11329941860465129
1.07696533203125,9.552001953125e-07,0.991973876953125,0.11373546511627908
1.07192993164063,9.57336425781249e-07,0.9869384765625051,0.11398982558139523
1.06689453125,9.58251953125e-07,0.981903076171875,0.11409883720930232
1.06185913085938,9.59167480468751e-07,0.9768676757812551,0.11420784883720943
1.05682373046875,9.58862304687501e-07,0.971832275390625,0.11417151162790709
1.05178833007813,9.58251953125e-07,0.9667968750000051,0.11409883720930232
1.0467529296875,9.55810546875e-07,0.961761474609375,0.11380813953488372
1.04171752929688,9.55505371093751e-07,0.9567260742187551,0.11377180232558151
1.03668212890625,9.52758789062499e-07,0.951690673828125,0.11344476744186034
1.03164672851563,9.503173828125e-07,0.9466552734375051,0.11315406976744187
1.026611328125,9.48181152343751e-07,0.941619873046875,0.1128997093023257
1.02157592773438,9.4512939453125e-07,0.9365844726562551,0.11253633720930233
1.01654052734375,9.4268798828125e-07,0.931549072265625,0.11224563953488373
1.01150512695313,9.393310546875e-07,0.9265136718750051,0.11184593023255814
1.0064697265625,9.3658447265625e-07,0.921478271484375,0.1115188953488372
1.00143432617188,9.3414306640625e-07,0.9164428710937551,0.1112281976744186
0.99639892578125,9.307861328125e-07,0.911407470703125,0.11082848837209303
0.991363525390625,9.2803955078125e-07,0.9063720703125,0.11050145348837209
0.986328125,9.25598144531251e-07,0.901336669921875,0.1102107558139536
0.981292724609375,9.2437744140625e-07,0.89630126953125,0.11006540697674419
0.97625732421875,9.2132568359375e-07,0.891265869140625,0.10970203488372093
0.971221923828125,9.20410156250001e-07,0.88623046875,0.10959302325581408
0.9661865234375,9.1827392578125e-07,0.881195068359375,0.10933866279069766
0.961151123046875,9.17358398437501e-07,0.87615966796875,0.1092296511627908
0.95611572265625,9.161376953125e-07,0.871124267578125,0.1090843023255814
0.951080322265625,9.1552734375e-07,0.8660888671875,0.10901162790697674
0.946044921875,9.14916992187501e-07,0.861053466796875,0.10893895348837222
0.941009521484375,9.15222167968749e-07,0.85601806640625,0.1089752906976743
0.93597412109375,9.1400146484375e-07,0.850982666015625,0.10882994186046512
0.930938720703125,9.14916992187501e-07,0.845947265625,0.10893895348837222
0.9259033203125,9.1583251953125e-07,0.840911865234375,0.10904796511627907
0.920867919921875,9.1705322265625e-07,0.83587646484375,0.10919331395348837
0.91583251953125,9.19494628906249e-07,0.830841064453125,0.10948401162790686
0.910797119140625,9.21630859375e-07,0.8258056640625,0.10973837209302326
0.90576171875,9.2437744140625e-07,0.820770263671875,0.11006540697674419
0.900726318359375,9.2742919921875e-07,0.81573486328125,0.11042877906976745
0.89569091796875,9.31091308593751e-07,0.810699462890625,0.11086482558139547
0.890655517578125,9.3505859375e-07,0.8056640625,0.11133720930232559
0.8856201171875,9.3963623046875e-07,0.800628662109375,0.11188226744186047
0.880584716796875,9.4573974609375e-07,0.79559326171875,0.11260901162790697
0.87554931640625,9.50927734375001e-07,0.790557861328125,0.11322674418604663
0.870513916015625,9.5794677734375e-07,0.7855224609375,0.11406250000000001
0.865478515625,9.65270996093749e-07,0.780487060546875,0.1149345930232557
0.860443115234375,9.7320556640625e-07,0.77545166015625,0.11587936046511628
0.85540771484375,9.81750488281251e-07,0.770416259765625,0.11689680232558151
0.850372314453125,9.92126464843751e-07,0.765380859375,0.11813226744186058
0.8453369140625,1.00189208984375e-06,0.760345458984375,0.11929505813953488
0.840301513671875,1.01409912109375e-06,0.75531005859375,0.12074854651162792
0.83526611328125,1.02691650390625e-06,0.750274658203125,0.12227470930232558
0.830230712890625,1.04095458984375e-06,0.7452392578125,0.12394622093023257
0.8251953125,1.055908203125e-06,0.740203857421875,0.1257267441860465
0.820159912109375,1.0723876953125e-06,0.73516845703125,0.1276889534883721
0.81512451171875,1.09130859375e-06,0.730133056640625,0.12994186046511627
0.810089111328125,1.1114501953125e-06,0.72509765625,0.13234011627906977
0.8050537109375,1.1328125e-06,0.720062255859375,0.13488372093023257
0.800018310546875,1.1578369140625e-06,0.71502685546875,0.13786337209302327
0.79498291015625,1.18194580078125e-06,0.709991455078125,0.14073401162790697
0.789947509765625,1.20880126953125e-06,0.7049560546875,0.14393168604651163
0.784912109375,1.23504638671875e-06,0.699920654296875,0.14705668604651162
0.779876708984375,1.26312255859375e-06,0.69488525390625,0.1503997093023256
0.77484130859375,1.29150390625e-06,0.689849853515625,0.15377906976744188
0.769805908203125,1.317138671875e-06,0.684814453125,0.1568313953488372
0.7647705078125,1.3421630859375e-06,0.679779052734375,0.1598110465116279
0.759735107421875,1.3629150390625e-06,0.67474365234375,0.16228197674418604
0.75469970703125,1.380615234375e-06,0.669708251953125,0.16438953488372093
0.749664306640625,1.39556884765625e-06,0.6646728515625,0.1661700581395349
0.74462890625,1.4019775390625e-06,0.659637451171875,0.16693313953488373
0.739593505859375,1.40289306640625e-06,0.65460205078125,0.1670421511627907
0.73455810546875,1.39862060546875e-06,0.649566650390625,0.16653343023255815
0.729522705078125,1.38824462890625e-06,0.64453125,0.1652979651162791
0.7244873046875,1.37420654296875e-06,0.639495849609375,0.1636264534883721
0.719451904296875,1.35498046875e-06,0.63446044921875,0.1613372093023256
0.71441650390625,1.331787109375e-06,0.629425048828125,0.15857558139534883
0.709381103515625,1.30706787109375e-06,0.6243896484375,0.15563226744186046
0.704345703125,1.280517578125e-06,0.619354248046875,0.15247093023255812
0.699310302734375,1.25244140625e-06,0.61431884765625,0.1491279069767442
0.69427490234375,1.2255859375e-06,0.609283447265625,0.14593023255813953
0.689239501953125,1.1981201171875e-06,0.604248046875,0.14265988372093025
0.6842041015625,1.173095703125e-06,0.599212646484375,0.13968023255813955
0.679168701171875,1.14837646484375e-06,0.59417724609375,0.13673691860465115
0.67413330078125,1.12518310546875e-06,0.589141845703125,0.13397529069767442
0.669097900390625,1.10321044921875e-06,0.5841064453125,0.13135901162790697
0.6640625,1.08245849609375e-06,0.579071044921875,0.12888808139534885
0.659027099609375,1.063232421875e-06,0.57403564453125,0.12659883720930235
0.65399169921875,1.04583740234375e-06,0.569000244140625,0.12452761627906977
0.648956298828125,1.0296630859375e-06,0.56396484375,0.12260174418604651
0.6439208984375,1.01348876953125e-06,0.558929443359375,0.12067587209302327
0.638885498046875,9.991455078125e-07,0.55389404296875,0.11896802325581395
0.63385009765625,9.86633300781251e-07,0.548858642578125,0.11747819767441872
0.628814697265625,9.735107421875e-07,0.5438232421875,0.1159156976744186
0.623779296875,9.61914062500001e-07,0.538787841796875,0.11453488372093036
0.618743896484375,9.51232910156249e-07,0.53375244140625,0.11326308139534873
0.61370849609375,9.40551757812499e-07,0.528717041015625,0.11199127906976733
0.608673095703125,9.3109130859375e-07,0.523681640625,0.11086482558139535
0.6036376953125,9.2071533203125e-07,0.518646240234375,0.10962936046511627
0.598602294921875,9.1217041015625e-07,0.51361083984375,0.10861191860465116
0.59356689453125,9.0484619140625e-07,0.508575439453125,0.10773982558139535
0.588531494140625,8.9691162109375e-07,0.5035400390625,0.10679505813953488
0.58349609375,8.88977050781251e-07,0.498504638671875,0.10585029069767454
0.578460693359375,8.8226318359375e-07,0.49346923828125,0.10505087209302326
0.57342529296875,8.7554931640625e-07,0.488433837890625,0.1042514534883721
0.568389892578125,8.697509765625e-07,0.4833984375,0.10356104651162791
0.5633544921875,8.6395263671875e-07,0.478363037109375,0.10287063953488372
0.558319091796875,8.58459472656251e-07,0.47332763671875,0.10221656976744198
0.55328369140625,8.53271484375e-07,0.468292236328125,0.10159883720930232
0.548248291015625,8.48388671875e-07,0.4632568359375,0.10101744186046512
0.543212890625,8.43200683593749e-07,0.458221435546875,0.10039970930232546
0.538177490234375,8.40148925781251e-07,0.45318603515625,0.10003633720930245
0.53314208984375,8.3587646484375e-07,0.448150634765625,0.09952761627906977
0.528106689453125,8.32519531249999e-07,0.443115234375,0.09912790697674406
0.5230712890625,8.2916259765625e-07,0.438079833984375,0.09872819767441861
0.518035888671875,8.26416015625001e-07,0.43304443359375,0.09840116279069779
0.51300048828125,8.24279785156251e-07,0.428009033203125,0.09814680232558153
0.507965087890625,8.221435546875e-07,0.4229736328125,0.09789244186046511
0.5029296875,8.2000732421875e-07,0.417938232421875,0.09763808139534884
0.497894287109375,8.18786621093751e-07,0.41290283203125,0.09749273255813966
0.49285888671875,8.16955566406249e-07,0.407867431640625,0.09727470930232546
0.487823486328125,8.1512451171875e-07,0.40283203125,0.09705668604651163
0.4827880859375,8.1329345703125e-07,0.397796630859375,0.09683866279069768
0.477752685546875,8.12683105468751e-07,0.39276123046875,0.09676598837209315
0.47271728515625,8.10852050781249e-07,0.387725830078125,0.09654796511627896
0.467681884765625,8.09020996093751e-07,0.3826904296875,0.09632994186046524
0.462646484375,8.0718994140625e-07,0.377655029296875,0.09611191860465117
0.457611083984375,8.056640625e-07,0.37261962890625,0.09593023255813954
0.45257568359375,8.03222656250001e-07,0.367584228515625,0.09563953488372105
0.447540283203125,8.0078125e-07,0.362548828125,0.09534883720930232
0.4425048828125,7.989501953125e-07,0.357513427734375,0.09513081395348837
0.437469482421875,7.977294921875e-07,0.35247802734375,0.09498546511627907
0.43243408203125,7.95898437500001e-07,0.347442626953125,0.09476744186046523
0.427398681640625,7.9376220703125e-07,0.3424072265625,0.09451308139534884
0.42236328125,7.92236328125e-07,0.337371826171875,0.09433139534883721
0.417327880859375,7.91320800781251e-07,0.33233642578125,0.09422238372093035
0.41229248046875,7.904052734375e-07,0.327301025390625,0.09411337209302326
0.407257080078125,7.90100097656249e-07,0.322265625,0.09407703488372082
0.4022216796875,7.9010009765625e-07,0.317230224609375,0.09407703488372093
0.397186279296875,7.89184570312501e-07,0.31219482421875,0.09396802325581408
0.39215087890625,7.904052734375e-07,0.307159423828125,0.09411337209302326
0.387115478515625,7.9071044921875e-07,0.3021240234375,0.09414970930232558
0.382080078125,7.91320800781249e-07,0.297088623046875,0.09422238372093011
0.377044677734375,7.92846679687501e-07,0.29205322265625,0.09440406976744198
0.37200927734375,7.94372558593751e-07,0.287017822265625,0.0945857558139536
0.366973876953125,7.965087890625e-07,0.281982421875,0.09484011627906977
0.3619384765625,7.98645019531251e-07,0.276947021484375,0.09509447674418617
0.356903076171875,8.013916015625e-07,0.27191162109375,0.09542151162790698
0.35186767578125,8.03222656250001e-07,0.266876220703125,0.09563953488372105
0.346832275390625,8.05969238281251e-07,0.2618408203125,0.09596656976744199
0.341796875,8.09631347656249e-07,0.256805419921875,0.09640261627906965
0.336761474609375,8.12377929687501e-07,0.25177001953125,0.09672965116279082
0.33172607421875,8.16650390625e-07,0.246734619140625,0.09723837209302326
0.326690673828125,8.2061767578125e-07,0.24169921875,0.09771075581395348
0.3216552734375,8.24584960937499e-07,0.236663818359375,0.0981831395348836
0.316619873046875,8.29467773437501e-07,0.23162841796875,0.09876453488372106
0.31158447265625,8.343505859375e-07,0.226593017578125,0.09934593023255814
0.306549072265625,8.39538574218751e-07,0.2215576171875,0.0999636627906978
0.301513671875,8.45947265625001e-07,0.216522216796875,0.10072674418604663
0.296478271484375,8.52355957031251e-07,0.21148681640625,0.10148982558139547
0.29144287109375,8.59985351562501e-07,0.206451416015625,0.1023982558139536
0.286407470703125,8.67614746093751e-07,0.201416015625,0.10330668604651175
0.2813720703125,8.758544921875e-07,0.196380615234375,0.10428779069767442
0.276336669921875,8.85620117187501e-07,0.19134521484375,0.10545058139534895
0.27130126953125,8.9599609375e-07,0.186309814453125,0.10668604651162791
0.266265869140625,9.07592773437499e-07,0.1812744140625,0.10806686046511617
0.26123046875,9.2132568359375e-07,0.176239013671875,0.10970203488372093
0.256195068359375,9.368896484375e-07,0.17120361328125,0.11155523255813954
0.25115966796875,9.54895019531249e-07,0.166168212890625,0.11369912790697664
0.246124267578125,9.75341796875e-07,0.1611328125,0.11613372093023257
0.2410888671875,9.9945068359375e-07,0.156097412109375,0.11900436046511628
0.236053466796875,1.02752685546875e-06,0.15106201171875,0.12234738372093022
0.23101806640625,1.06109619140625e-06,0.146026611328125,0.12634447674418606
0.225982666015625,1.09954833984375e-06,0.1409912109375,0.13092296511627907
0.220947265625,1.146240234375e-06,0.135955810546875,0.1364825581395349
0.215911865234375,1.19964599609375e-06,0.13092041015625,0.14284156976744186
0.21087646484375,1.26312255859375e-06,0.125885009765625,0.1503997093023256
0.205841064453125,1.3385009765625e-06,0.120849609375,0.15937500000000002
0.2008056640625,1.42730712890625e-06,0.115814208984375,0.16994912790697675
0.195770263671875,1.53167724609375e-06,0.11077880859375,0.1823764534883721
0.19073486328125,1.65374755859375e-06,0.105743408203125,0.19691133720930235
0.185699462890625,1.796875e-06,0.1007080078125,0.21395348837209302
0.1806640625,1.96502685546875e-06,0.095672607421875,0.23397529069767442
0.175628662109375,2.158203125e-06,0.09063720703125,0.25697674418604655
0.17059326171875,2.381591796875e-06,0.085601806640625,0.28357558139534883
0.165557861328125,2.6385498046875e-06,0.08056640625,0.31417151162790696
0.1605224609375,2.9278564453125e-06,0.075531005859375,0.3486191860465116
0.155487060546875,3.25164794921875e-06,0.07049560546875,0.3871729651162791
