Potential,Current,Normalized_Potential,Normalized_Current
1.50497436523438,7.9315185546875e-07,1.460266113281255,0.09788708523219464
1.49993896484375,8.47473144531251e-07,1.455230712890625,0.10459116417460748
1.49490356445313,8.251953125e-07,1.450195312500005,0.10184173854092124
1.4898681640625,7.98339843750001e-07,1.445159912109375,0.09852736243456002
1.48483276367188,7.74230957031249e-07,1.440124511718755,0.09555195661180357
1.47979736328125,7.5042724609375e-07,1.435089111328125,0.09261421415389251
1.47476196289063,7.2906494140625e-07,1.430053710937505,0.08997777861474143
1.4697265625,7.09228515625e-07,1.425018310546875,0.08752965989981544
1.46469116210938,6.9091796875e-07,1.419982910156255,0.08526985800911453
1.45965576171875,6.74133300781249e-07,1.414947509765625,0.08319837294263857
1.45462036132813,6.591796875e-07,1.409912109375005,0.08135286806523294
1.4495849609375,6.4544677734375e-07,1.404876708984375,0.07965801664720724
1.44454956054688,6.329345703125e-07,1.399841308593755,0.07811381868856164
1.43951416015625,6.21643066406249e-07,1.394805908203125,0.07672027418929594
1.43447875976563,6.121826171875e-07,1.389770507812505,0.0755527098791006
1.429443359375,6.03332519531249e-07,1.384735107421875,0.07446047229859502
1.42440795898438,5.95703125000001e-07,1.379699707031255,0.07351888817746989
1.41937255859375,5.8868408203125e-07,1.374664306640625,0.07265263078603443
1.41433715820313,5.8349609375e-07,1.369628906250005,0.07201235358366917
1.4093017578125,5.7861328125e-07,1.364593505859375,0.07140973974614892
1.40426635742188,5.75866699218751e-07,1.359558105468755,0.0710707694625439
1.39923095703125,5.72814941406251e-07,1.354522705078125,0.07069413581409376
1.39419555664063,5.706787109375e-07,1.349487304687505,0.07043049226017853
1.38916015625,5.6915283203125e-07,1.344451904296875,0.07024217543595344
1.38412475585938,5.6793212890625e-07,1.339416503906255,0.07009152197657338
1.37908935546875,5.6884765625e-07,1.334381103515625,0.07020451207110842
1.37405395507813,5.682373046875e-07,1.329345703125005,0.0701291853414184
1.3690185546875,5.69763183593749e-07,1.324310302734375,0.07031750216564335
1.36398315429688,5.706787109375e-07,1.319274902343755,0.07043049226017853
1.35894775390625,5.71289062499999e-07,1.314239501953125,0.07050581898986842
1.35391235351563,5.72814941406249e-07,1.309204101562505,0.0706941358140935
1.348876953125,5.755615234375e-07,1.304168701171875,0.07103310609769875
1.34384155273438,5.780029296875e-07,1.299133300781255,0.07133441301645888
1.33880615234375,5.80444335937501e-07,1.294097900390625,0.07163571993521914
1.33377075195313,5.8319091796875e-07,1.289062500000005,0.07197469021882413
1.3287353515625,5.865478515625e-07,1.284027099609375,0.07238898723211931
1.32369995117188,5.902099609375e-07,1.278991699218755,0.0728409476102595
1.31866455078125,5.938720703125e-07,1.273956298828125,0.07329290798839969
1.31362915039063,5.97839355468749e-07,1.268920898437505,0.07378253173138476
1.30859375,6.01806640625e-07,1.263885498046875,0.07427215547437008
1.30355834960938,6.0546875e-07,1.258850097656255,0.07472411585251025
1.29852294921875,6.09741210937499e-07,1.253814697265625,0.07525140296034034
1.29348754882813,6.1370849609375e-07,1.248779296875005,0.07574102670332566
1.2884521484375,6.1798095703125e-07,1.243743896484375,0.07626831381115588
1.28341674804688,6.2164306640625e-07,1.238708496093755,0.07672027418929606
1.27838134765625,6.24999999999999e-07,1.233673095703125,0.07713457120259111
1.27334594726563,6.29272460937499e-07,1.228637695312505,0.07766185831042133
1.268310546875,6.32629394531251e-07,1.223602294921875,0.07807615532371674
1.26327514648438,6.35986328124999e-07,1.218566894531255,0.07849045233701166
1.25823974609375,6.3995361328125e-07,1.213531494140625,0.07898007607999698
1.25320434570313,6.43310546875001e-07,1.208496093750005,0.07939437309329227
1.2481689453125,6.4697265625e-07,1.203460693359375,0.07984633347143233
1.24313354492188,6.50634765625e-07,1.198425292968755,0.0802982938495725
1.23809814453125,6.54296875e-07,1.193389892578125,0.0807502542277127
1.23306274414063,6.5765380859375e-07,1.188354492187505,0.08116455124100787
1.22802734375,6.61926269531249e-07,1.183319091796875,0.08169183834883795
1.22299194335938,6.66198730468749e-07,1.178283691406255,0.08221912545666817
1.21795654296875,6.70471191406249e-07,1.173248291015625,0.08274641256449838
1.21292114257813,6.74133300781249e-07,1.168212890625005,0.08319837294263857
1.2078857421875,6.78100585937499e-07,1.163177490234375,0.08368799668562377
1.20285034179688,6.8267822265625e-07,1.158142089843755,0.08425294715829912
1.19781494140625,6.87561035156251e-07,1.153106689453125,0.08485556099581948
1.19277954101563,6.927490234375e-07,1.148071289062505,0.08549583819818463
1.187744140625,6.96411132812499e-07,1.143035888671875,0.08594779857632469
1.18270874023438,7.01904296875e-07,1.138000488281255,0.08662573914353508
1.17767333984375,7.07092285156249e-07,1.132965087890625,0.08726601634590021
1.17263793945313,7.122802734375e-07,1.127929687500005,0.0879062935482656
1.1676025390625,7.16552734374999e-07,1.122894287109375,0.08843358065609568
1.16256713867188,7.2174072265625e-07,1.117858886718755,0.08907385785846107
1.15753173828125,7.26318359375e-07,1.112823486328125,0.0896388083311363
1.15249633789063,7.31201171875e-07,1.107788085937505,0.09024142216865653
1.1474609375,7.36083984375e-07,1.102752685546875,0.09084403600617678
1.14242553710938,7.40356445312501e-07,1.097717285156255,0.09137132311400711
1.13739013671875,7.45239257812501e-07,1.092681884765625,0.09197393695152736
1.13235473632813,7.4981689453125e-07,1.087646484375005,0.09253888742420248
1.1273193359375,7.5408935546875e-07,1.082611083984375,0.09306617453203268
1.12228393554688,7.58972167968749e-07,1.077575683593755,0.09366878836955281
1.11724853515625,7.63244628906251e-07,1.072540283203125,0.09419607547738326
1.11221313476563,7.66906738281251e-07,1.067504882812505,0.09464803585552345
1.107177734375,7.7056884765625e-07,1.062469482421875,0.09509999623366351
1.10214233398438,7.7484130859375e-07,1.057434082031255,0.09562728334149372
1.09710693359375,7.7789306640625e-07,1.052398681640625,0.09600391698994387
1.09207153320313,7.81860351562499e-07,1.047363281250005,0.09649354073292894
1.0870361328125,7.8460693359375e-07,1.042327880859375,0.09683251101653421
1.08200073242188,7.8857421875e-07,1.037292480468755,0.0973221347595194
1.07696533203125,7.91015625000001e-07,1.032257080078125,0.09762344167827966
1.07192993164063,7.9315185546875e-07,1.027221679687505,0.09788708523219464
1.06689453125,7.9498291015625e-07,1.022186279296875,0.09811306542126473
1.06185913085938,7.97119140624999e-07,1.017150878906255,0.09837670897517971
1.05682373046875,7.98950195312499e-07,1.012115478515625,0.0986026891642498
1.05178833007813,8.00476074218751e-07,1.007080078125005,0.09879100598847512
1.0467529296875,8.0108642578125e-07,1.002044677734375,0.09886633271816503
1.04171752929688,8.026123046875e-07,0.9970092773437551,0.09905464954239011
1.03668212890625,8.03527832031251e-07,0.991973876953125,0.09916763963692528
1.03164672851563,8.03527832031251e-07,0.9869384765625051,0.09916763963692528
1.026611328125,8.03527832031249e-07,0.981903076171875,0.09916763963692503
1.02157592773438,8.03527832031251e-07,0.9768676757812551,0.09916763963692528
1.01654052734375,8.03527832031249e-07,0.971832275390625,0.09916763963692503
1.01150512695313,8.026123046875e-07,0.9667968750000051,0.09905464954239011
1.0064697265625,8.02001953125001e-07,0.961761474609375,0.0989793228127002
1.00143432617188,8.0108642578125e-07,0.9567260742187551,0.09886633271816503
0.99639892578125,7.9925537109375e-07,0.951690673828125,0.09864035252909495
0.991363525390625,7.9803466796875e-07,0.9466552734375,0.09848969906971487
0.986328125,7.977294921875e-07,0.941619873046875,0.09845203570486986
0.981292724609375,7.9681396484375e-07,0.93658447265625,0.09833904561033482
0.97625732421875,7.9498291015625e-07,0.931549072265625,0.09811306542126473
0.971221923828125,7.9345703125e-07,0.926513671875,0.09792474859703965
0.9661865234375,7.92846679687501e-07,0.921478271484375,0.09784942186734975
0.961151123046875,7.91320800781249e-07,0.91644287109375,0.09766110504312442
0.95611572265625,7.9010009765625e-07,0.911407470703125,0.09751045158374448
0.951080322265625,7.89489746093749e-07,0.9063720703125,0.09743512485405433
0.946044921875,7.89794921875001e-07,0.901336669921875,0.09747278821889958
0.941009521484375,7.8887939453125e-07,0.89630126953125,0.09735979812436443
0.93597412109375,7.89489746093751e-07,0.891265869140625,0.09743512485405458
0.930938720703125,7.8887939453125e-07,0.88623046875,0.09735979812436443
0.9259033203125,7.904052734375e-07,0.881195068359375,0.09754811494858949
0.920867919921875,7.91320800781249e-07,0.87615966796875,0.09766110504312442
0.91583251953125,7.92846679687499e-07,0.871124267578125,0.0978494218673495
0.910797119140625,7.9498291015625e-07,0.8660888671875,0.09811306542126473
0.90576171875,7.97119140625001e-07,0.861053466796875,0.09837670897517996
0.900726318359375,8.00476074218749e-07,0.85601806640625,0.09879100598847489
0.89569091796875,8.0291748046875e-07,0.850982666015625,0.09909231290723512
0.890655517578125,8.06274414062499e-07,0.845947265625,0.09950660992053018
0.8856201171875,8.09936523437499e-07,0.840911865234375,0.09995857029867035
0.880584716796875,8.14208984374999e-07,0.83587646484375,0.10048585740650057
0.87554931640625,8.18481445312501e-07,0.830841064453125,0.10101314451433102
0.870513916015625,8.221435546875e-07,0.8258056640625,0.10146510489247108
0.865478515625,8.2733154296875e-07,0.820770263671875,0.10210538209483634
0.860443115234375,8.31298828125e-07,0.81573486328125,0.10259500583782154
0.85540771484375,8.3587646484375e-07,0.810699462890625,0.10315995631049678
0.850372314453125,8.4075927734375e-07,0.8056640625,0.10376257014801701
0.8453369140625,8.44726562499999e-07,0.800628662109375,0.1042521938910021
0.840301513671875,8.49304199218749e-07,0.79559326171875,0.10481714436367731
0.83526611328125,8.53576660156251e-07,0.790557861328125,0.10534443147150778
0.830230712890625,8.575439453125e-07,0.7855224609375,0.10583405521449285
0.8251953125,8.6212158203125e-07,0.780487060546875,0.10639900568716809
0.820159912109375,8.6517333984375e-07,0.77545166015625,0.10677563933561823
0.81512451171875,8.685302734375e-07,0.770416259765625,0.1071899363489134
0.810089111328125,8.71582031250001e-07,0.765380859375,0.10756656999736368
0.8050537109375,8.75244140625001e-07,0.760345458984375,0.10801853037550385
0.800018310546875,8.78601074218749e-07,0.75531005859375,0.10843282738879878
0.79498291015625,8.8043212890625e-07,0.750274658203125,0.108658807577869
0.789947509765625,8.82568359375001e-07,0.7452392578125,0.10892245113178423
0.784912109375,8.84399414062501e-07,0.740203857421875,0.10914843132085432
0.779876708984375,8.8653564453125e-07,0.73516845703125,0.1094120748747693
0.77484130859375,8.87451171875001e-07,0.730133056640625,0.10952506496930448
0.769805908203125,8.88671874999999e-07,0.72509765625,0.10967571842868429
0.7647705078125,8.892822265625e-07,0.720062255859375,0.10975104515837443
0.759735107421875,8.8958740234375e-07,0.71502685546875,0.10978870852321945
0.75469970703125,8.90197753906251e-07,0.709991455078125,0.10986403525290961
0.749664306640625,8.91418457031251e-07,0.7049560546875,0.11001468871228966
0.74462890625,8.892822265625e-07,0.699920654296875,0.10975104515837443
0.739593505859375,8.88671875e-07,0.69488525390625,0.10967571842868441
0.73455810546875,8.88366699218751e-07,0.689849853515625,0.10963805506383952
0.729522705078125,8.87451171875001e-07,0.684814453125,0.10952506496930448
0.7244873046875,8.85925292968751e-07,0.679779052734375,0.10933674814507939
0.719451904296875,8.85009765625e-07,0.67474365234375,0.10922375805054423
0.71441650390625,8.82873535156251e-07,0.669708251953125,0.10896011449662923
0.709381103515625,8.8165283203125e-07,0.6646728515625,0.10880946103724906
0.704345703125,8.7921142578125e-07,0.659637451171875,0.10850815411848894
0.699310302734375,8.7738037109375e-07,0.65460205078125,0.10828217392941884
0.69427490234375,8.7554931640625e-07,0.649566650390625,0.10805619374034875
0.689239501953125,8.7310791015625e-07,0.64453125,0.10775488682158862
0.6842041015625,8.697509765625e-07,0.639495849609375,0.10734058980829347
0.679168701171875,8.6669921875e-07,0.63446044921875,0.10696395615984332
0.67413330078125,8.64257812500001e-07,0.629425048828125,0.10666264924108332
0.669097900390625,8.60900878906251e-07,0.6243896484375,0.10624835222778815
0.6640625,8.57238769531249e-07,0.619354248046875,0.1057963918496477
0.659027099609375,8.5296630859375e-07,0.61431884765625,0.10526910474181762
0.65399169921875,8.502197265625e-07,0.609283447265625,0.10493013445821249
0.648956298828125,8.4564208984375e-07,0.604248046875,0.10436518398553725
0.6439208984375,8.41674804687501e-07,0.599212646484375,0.10387556024255218
0.638885498046875,8.380126953125e-07,0.59417724609375,0.10342359986441187
0.63385009765625,8.3343505859375e-07,0.589141845703125,0.10285864939173665
0.628814697265625,8.29467773437501e-07,0.5841064453125,0.10236902564875158
0.623779296875,8.251953125e-07,0.579071044921875,0.10184173854092124
0.618743896484375,8.2122802734375e-07,0.57403564453125,0.10135211479793604
0.61370849609375,8.16955566406249e-07,0.569000244140625,0.1008248276901057
0.608673095703125,8.1329345703125e-07,0.56396484375,0.10037286731196564
0.6036376953125,8.087158203125e-07,0.558929443359375,0.09980791683929041
0.598602294921875,8.05053710937501e-07,0.55389404296875,0.09935595646115035
0.59356689453125,8.013916015625e-07,0.548858642578125,0.09890399608301004
0.588531494140625,7.9803466796875e-07,0.5438232421875,0.09848969906971487
0.58349609375,7.93762207031251e-07,0.538787841796875,0.0979624119618848
0.578460693359375,7.904052734375e-07,0.53375244140625,0.09754811494858949
0.57342529296875,7.8704833984375e-07,0.528717041015625,0.09713381793529433
0.568389892578125,7.8399658203125e-07,0.523681640625,0.09675718428684418
0.5633544921875,7.80639648437501e-07,0.518646240234375,0.09634288727354913
0.558319091796875,7.781982421875e-07,0.51361083984375,0.09604158035478888
0.55328369140625,7.7545166015625e-07,0.508575439453125,0.09570261007118375
0.548248291015625,7.72705078125001e-07,0.5035400390625,0.09536363978757874
0.543212890625,7.69958496093751e-07,0.498504638671875,0.0950246695039736
0.538177490234375,7.6751708984375e-07,0.49346923828125,0.09472336258521336
0.53314208984375,7.65380859374999e-07,0.488433837890625,0.09445971903129813
0.528106689453125,7.62939453125e-07,0.4833984375,0.09415841211253813
0.5230712890625,7.60498046875e-07,0.478363037109375,0.093857105193778
0.518035888671875,7.58972167968749e-07,0.47332763671875,0.09366878836955281
0.51300048828125,7.5714111328125e-07,0.468292236328125,0.09344280818048283
0.507965087890625,7.54699707031251e-07,0.4632568359375,0.09314150126172284
0.5029296875,7.52868652343751e-07,0.458221435546875,0.09291552107265275
0.497894287109375,7.51953125e-07,0.45318603515625,0.09280253097811757
0.49285888671875,7.5042724609375e-07,0.448150634765625,0.09261421415389251
0.487823486328125,7.49511718750001e-07,0.443115234375,0.09250122405935758
0.4827880859375,7.48596191406251e-07,0.438079833984375,0.09238823396482254
0.477752685546875,7.476806640625e-07,0.43304443359375,0.09227524387028736
0.47271728515625,7.48291015625001e-07,0.428009033203125,0.0923505705999775
0.467681884765625,7.4798583984375e-07,0.4229736328125,0.09231290723513239
0.462646484375,7.476806640625e-07,0.417938232421875,0.09227524387028736
0.457611083984375,7.4798583984375e-07,0.41290283203125,0.09231290723513239
0.45257568359375,7.476806640625e-07,0.407867431640625,0.09227524387028736
0.447540283203125,7.4737548828125e-07,0.40283203125,0.09223758050544235
0.4425048828125,7.47070312499999e-07,0.397796630859375,0.0921999171405972
0.437469482421875,7.4737548828125e-07,0.39276123046875,0.09223758050544235
0.43243408203125,7.46765136718749e-07,0.387725830078125,0.0921622537757522
0.427398681640625,7.4615478515625e-07,0.3826904296875,0.09208692704606229
0.42236328125,7.45849609375e-07,0.377655029296875,0.09204926368121727
0.417327880859375,7.45544433593749e-07,0.37261962890625,0.09201160031637212
0.41229248046875,7.43713378906251e-07,0.367584228515625,0.09178562012730229
0.407257080078125,7.43408203125e-07,0.362548828125,0.09174795676245714
0.4022216796875,7.42797851562499e-07,0.357513427734375,0.09167263003276699
0.397186279296875,7.42492675781251e-07,0.35247802734375,0.09163496666792223
0.39215087890625,7.4127197265625e-07,0.347442626953125,0.09148431320854204
0.387115478515625,7.40661621093749e-07,0.3424072265625,0.0914089864788519
0.382080078125,7.4127197265625e-07,0.337371826171875,0.09148431320854204
0.377044677734375,7.40966796874999e-07,0.33233642578125,0.09144664984369691
0.37200927734375,7.415771484375e-07,0.327301025390625,0.09152197657338705
0.366973876953125,7.42187499999999e-07,0.322265625,0.09159730330307696
0.3619384765625,7.43408203125e-07,0.317230224609375,0.09174795676245714
0.356903076171875,7.4462890625e-07,0.31219482421875,0.09189861022183722
0.35186767578125,7.4615478515625e-07,0.307159423828125,0.09208692704606229
0.346832275390625,7.4737548828125e-07,0.3021240234375,0.09223758050544235
0.341796875,7.48901367187499e-07,0.297088623046875,0.0924258973296673
0.336761474609375,7.51953125e-07,0.29205322265625,0.09280253097811757
0.33172607421875,7.52868652343749e-07,0.287017822265625,0.0929155210726525
0.326690673828125,7.5531005859375e-07,0.281982421875,0.09321682799141275
0.3216552734375,7.586669921875e-07,0.276947021484375,0.09363112500470791
0.316619873046875,7.6171875e-07,0.27191162109375,0.09400775865315807
0.31158447265625,7.6446533203125e-07,0.266876220703125,0.0943467289367632
0.306549072265625,7.67822265625e-07,0.2618408203125,0.09476102595005836
0.301513671875,7.70874023437501e-07,0.256805419921875,0.09513765959850864
0.296478271484375,7.76062011718749e-07,0.25177001953125,0.09577793680087365
0.29144287109375,7.794189453125e-07,0.246734619140625,0.09619223381416896
0.286407470703125,7.8460693359375e-07,0.24169921875,0.09683251101653421
0.2813720703125,7.89489746093749e-07,0.236663818359375,0.09743512485405433
0.276336669921875,7.94372558593751e-07,0.23162841796875,0.09803773869157482
0.27130126953125,8.001708984375e-07,0.226593017578125,0.09875334262362999
0.266265869140625,8.05969238281251e-07,0.2215576171875,0.0994689465556854
0.26123046875,8.12683105468751e-07,0.216522216796875,0.10029754058227573
0.256195068359375,8.1939697265625e-07,0.21148681640625,0.10112613460886594
0.25115966796875,8.2763671875e-07,0.206451416015625,0.10214304545968135
0.246124267578125,8.35571289062501e-07,0.201416015625,0.10312229294565188
0.2410888671875,8.4503173828125e-07,0.196380615234375,0.10428985725584723
0.236053466796875,8.5601806640625e-07,0.19134521484375,0.10564573839026777
0.23101806640625,8.6639404296875e-07,0.186309814453125,0.1069262927949983
0.225982666015625,8.79516601562501e-07,0.1812744140625,0.10854581748333407
0.220947265625,8.9447021484375e-07,0.176239013671875,0.1103913223607397
0.215911865234375,9.112548828125e-07,0.17120361328125,0.11246280742721554
0.21087646484375,9.29870605468749e-07,0.166168212890625,0.11476027268276134
0.205841064453125,9.521484375e-07,0.1611328125,0.11750969831644757
0.2008056640625,9.77783203125e-07,0.156097412109375,0.12067342096342885
0.195770263671875,1.0076904296875e-06,0.15106201171875,0.12436443071824035
0.19073486328125,1.04278564453125e-06,0.146026611328125,0.1286957176754171
0.185699462890625,1.08428955078125e-06,0.1409912109375,0.1338179352943392
0.1806640625,1.1328125e-06,0.135955810546875,0.13980641030469662
0.175628662109375,1.18896484375e-06,0.13092041015625,0.14673646943617943
0.17059326171875,1.25701904296875e-06,0.125885009765625,0.1551353997966178
0.165557861328125,1.3360595703125e-06,0.120849609375,0.16489021129147677
0.1605224609375,1.42974853515625e-06,0.115814208984375,0.17645286429889645
0.155487060546875,1.53900146484375e-06,0.11077880859375,0.1899363489134119
