Potential,Current,Normalized_Potential,Normalized_Current
1.50497436523438,8.49304199218749e-07,1.460266113281255,0.10716623666679491
1.49993896484375,9.05761718750001e-07,1.455230712890625,0.1142901151372792
1.49490356445313,8.80126953125e-07,1.450195312500005,0.1110554892371674
1.4898681640625,8.526611328125e-07,1.445159912109375,0.1075898186299049
1.48483276367188,8.258056640625e-07,1.440124511718755,0.104201162925026
1.47979736328125,8.0108642578125e-07,1.435089111328125,0.10108205937848974
1.47476196289063,7.781982421875e-07,1.430053710937505,0.09819400053910432
1.4697265625,7.57446289062499e-07,1.425018310546875,0.09557549385806141
1.46469116210938,7.38525390625e-07,1.419982910156255,0.09318803188416959
1.45965576171875,7.2174072265625e-07,1.414947509765625,0.0910701220686203
1.45462036132813,7.061767578125e-07,1.409912109375005,0.08910624205783821
1.4495849609375,6.9244384765625e-07,1.404876708984375,0.08737340675420695
1.44454956054688,6.79931640625001e-07,1.399841308593755,0.08579460125534304
1.43951416015625,6.68945312499999e-07,1.394805908203125,0.08440833301243779
1.43447875976563,6.5948486328125e-07,1.389770507812505,0.08321460202549194
1.429443359375,6.500244140625e-07,1.384735107421875,0.08202087103854597
1.42440795898438,6.41784667968751e-07,1.379699707031255,0.08098116985636733
1.41937255859375,6.34765625e-07,1.374664306640625,0.08009549847895568
1.41433715820313,6.28662109375e-07,1.369628906250005,0.07932534945511957
1.4093017578125,6.23474121093749e-07,1.364593505859375,0.07867072278485875
1.40426635742188,6.18896484375001e-07,1.359558105468755,0.07809311101698192
1.39923095703125,6.14318847656249e-07,1.354522705078125,0.07751549924910459
1.39419555664063,6.10961914062501e-07,1.349487304687505,0.07709191728599497
1.38916015625,6.07910156250001e-07,1.344451904296875,0.07670684277407691
1.38412475585938,6.0546875e-07,1.339416503906255,0.07639878316454235
1.37908935546875,6.0302734375e-07,1.334381103515625,0.0760907235550079
1.37405395507813,6.00585937500001e-07,1.329345703125005,0.07578266394547359
1.3690185546875,5.9967041015625e-07,1.324310302734375,0.07566714159189804
1.36398315429688,5.9844970703125e-07,1.319274902343755,0.07551311178713081
1.35894775390625,5.9783935546875e-07,1.314239501953125,0.0754360968847472
1.35391235351563,5.975341796875e-07,1.309204101562505,0.0753975894335554
1.348876953125,5.9814453125e-07,1.304168701171875,0.07547460433593901
1.34384155273438,5.97229003906249e-07,1.299133300781255,0.07535908198236346
1.33880615234375,5.98754882812499e-07,1.294097900390625,0.0755516192383225
1.33377075195313,5.9967041015625e-07,1.289062500000005,0.07566714159189804
1.3287353515625,6.00585937499999e-07,1.284027099609375,0.07578266394547334
1.32369995117188,6.01806640625001e-07,1.278991699218755,0.0759366937502408
1.31866455078125,6.03637695312499e-07,1.273956298828125,0.07616773845739139
1.31362915039063,6.048583984375e-07,1.268920898437505,0.07632176826215874
1.30859375,6.06384277343749e-07,1.263885498046875,0.07651430551811764
1.30355834960938,6.08215332031251e-07,1.258850097656255,0.07674535022526872
1.29852294921875,6.1065673828125e-07,1.253814697265625,0.07705340983480304
1.29348754882813,6.1248779296875e-07,1.248779296875005,0.07728445454195387
1.2884521484375,6.1370849609375e-07,1.243743896484375,0.0774384843467211
1.28341674804688,6.15539550781249e-07,1.238708496093755,0.0776695290538718
1.27838134765625,6.17370605468751e-07,1.233673095703125,0.07790057376102288
1.27334594726563,6.18896484375001e-07,1.228637695312505,0.07809311101698192
1.268310546875,6.1981201171875e-07,1.223602294921875,0.07820863337055721
1.26327514648438,6.2103271484375e-07,1.218566894531255,0.07836266317532443
1.25823974609375,6.2286376953125e-07,1.213531494140625,0.07859370788247527
1.25320434570313,6.243896484375e-07,1.208496093750005,0.0787862451384343
1.2481689453125,6.2591552734375e-07,1.203460693359375,0.07897878239439332
1.24313354492188,6.268310546875e-07,1.198425292968755,0.07909430474796873
1.23809814453125,6.28051757812499e-07,1.193389892578125,0.07924833455273583
1.23306274414063,6.29577636718751e-07,1.188354492187505,0.07944087180869512
1.22802734375,6.30798339843749e-07,1.183319091796875,0.07959490161346208
1.22299194335938,6.32629394531249e-07,1.178283691406255,0.07982594632061292
1.21795654296875,6.3507080078125e-07,1.173248291015625,0.08013400593014748
1.21292114257813,6.3690185546875e-07,1.168212890625005,0.08036505063729832
1.2078857421875,6.38732910156251e-07,1.163177490234375,0.08059609534444928
1.20285034179688,6.427001953125e-07,1.158142089843755,0.08109669220994263
1.19781494140625,6.4422607421875e-07,1.153106689453125,0.08128922946590166
1.19277954101563,6.4788818359375e-07,1.148071289062505,0.08175131888020332
1.187744140625,6.52160644531251e-07,1.143035888671875,0.08229042319688873
1.18270874023438,6.5643310546875e-07,1.138000488281255,0.08282952751357389
1.17767333984375,6.6131591796875e-07,1.132965087890625,0.08344564673264276
1.17263793945313,6.671142578125e-07,1.127929687500005,0.08417728830528709
1.1676025390625,6.72607421875e-07,1.122894287109375,0.08487042242673959
1.16256713867188,6.805419921875e-07,1.117858886718755,0.08587161615772652
1.15753173828125,6.89086914062499e-07,1.112823486328125,0.08694982479109696
1.15249633789063,6.988525390625e-07,1.107788085937505,0.08818206322923487
1.1474609375,7.098388671875e-07,1.102752685546875,0.08956833147213987
1.14242553710938,7.22351074218749e-07,1.097717285156255,0.09114713697100378
1.13739013671875,7.37609863281249e-07,1.092681884765625,0.09307250953059405
1.13235473632813,7.537841796875e-07,1.087646484375005,0.09511340444375987
1.1273193359375,7.7392578125e-07,1.082611083984375,0.09765489622241905
1.12228393554688,7.95593261718751e-07,1.077575683593755,0.10038892525703738
1.11724853515625,8.21533203125001e-07,1.072540283203125,0.10366205860834085
1.11221313476563,8.4991455078125e-07,1.067504882812505,0.10724325156917865
1.107177734375,8.83178710937499e-07,1.062469482421875,0.11144056374908533
1.10214233398438,9.19494628906251e-07,1.057434082031255,0.11602295044091045
1.09710693359375,9.60693359375001e-07,1.052398681640625,0.12122145635180422
1.09207153320313,1.00494384765625e-06,1.047363281250005,0.1268050367746159
1.0870361328125,1.053466796875e-06,1.042327880859375,0.132927721514113
1.08200073242188,1.10626220703125e-06,1.037292480468755,0.13958951057029537
1.07696533203125,1.16058349609375e-06,1.032257080078125,0.14644383688243676
1.07192993164063,1.21673583984375e-06,1.027221679687505,0.153529207901729
1.06689453125,1.2738037109375e-06,1.022186279296875,0.16073010127459664
1.06185913085938,1.3287353515625e-06,1.017150878906255,0.16766144248912168
1.05682373046875,1.3800048828125e-06,1.012115478515625,0.17413069428934502
1.05178833007813,1.42608642578125e-06,1.007080078125005,0.17994531941930766
1.0467529296875,1.4654541015625e-06,1.002044677734375,0.18491278062305058
1.04171752929688,1.4959716796875e-06,0.9970092773437551,0.18876352574223115
1.03668212890625,1.5167236328125e-06,0.991973876953125,0.19138203242327392
1.03164672851563,1.52496337890625e-06,0.9869384765625051,0.19242173360545267
1.026611328125,1.52435302734375e-06,0.981903076171875,0.19234471870306907
1.02157592773438,1.5118408203125e-06,0.9768676757812551,0.19076591320420502
1.01654052734375,1.48895263671875e-06,0.971832275390625,0.1878778543648196
1.01150512695313,1.4569091796875e-06,0.9667968750000051,0.18383457198968
1.0064697265625,1.41754150390625e-06,0.961761474609375,0.1788671107859371
1.00143432617188,1.3739013671875e-06,0.9567260742187551,0.17336054526550887
0.99639892578125,1.3275146484375e-06,0.951690673828125,0.16750741268435443
0.991363525390625,1.27960205078125e-06,0.9466552734375,0.16146174284724096
0.986328125,1.234130859375e-06,0.941619873046875,0.1557241326196619
0.981292724609375,1.1907958984375e-06,0.93658447265625,0.15025607455042553
0.97625732421875,1.15142822265625e-06,0.931549072265625,0.14528861334668258
0.971221923828125,1.11602783203125e-06,0.926513671875,0.14082174900843314
0.9661865234375,1.0858154296875e-06,0.921478271484375,0.1370095113404444
0.961151123046875,1.060791015625e-06,0.91644287109375,0.13385190034271632
0.95611572265625,1.0406494140625e-06,0.911407470703125,0.13131040856405715
0.951080322265625,1.024169921875e-06,0.9063720703125,0.12923100619969966
0.946044921875,1.0137939453125e-06,0.901336669921875,0.12792175285917826
0.941009521484375,1.005859375e-06,0.89630126953125,0.12692055912819133
0.93597412109375,1.00250244140625e-06,0.891265869140625,0.12649697716508143
0.930938720703125,1.0028076171875e-06,0.88623046875,0.12653548461627326
0.9259033203125,1.0064697265625e-06,0.881195068359375,0.12699757403057493
0.920867919921875,1.01348876953125e-06,0.87615966796875,0.12788324540798646
0.91583251953125,1.021728515625e-06,0.871124267578125,0.12892294659016523
0.910797119140625,1.03240966796875e-06,0.8660888671875,0.1302707073818784
0.90576171875,1.04461669921875e-06,0.861053466796875,0.13181100542955063
0.900726318359375,1.0577392578125e-06,0.85601806640625,0.13346682583079827
0.89569091796875,1.0699462890625e-06,0.850982666015625,0.1350071238784705
0.890655517578125,1.08184814453125e-06,0.845947265625,0.13650891447495092
0.8856201171875,1.0919189453125e-06,0.840911865234375,0.1377796603642805
0.880584716796875,1.10107421875e-06,0.83587646484375,0.13893488390003467
0.87554931640625,1.107177734375e-06,0.830841064453125,0.1397050329238708
0.870513916015625,1.11083984375e-06,0.8258056640625,0.14016712233817247
0.865478515625,1.11236572265625e-06,0.820770263671875,0.1403596595941315
0.860443115234375,1.11114501953125e-06,0.81573486328125,0.14020562978936424
0.85540771484375,1.10809326171875e-06,0.810699462890625,0.13982055527744622
0.850372314453125,1.10382080078125e-06,0.8056640625,0.13928145096076092
0.8453369140625,1.09832763671875e-06,0.800628662109375,0.13858831683930842
0.840301513671875,1.09375e-06,0.79559326171875,0.13801070507143132
0.83526611328125,1.08978271484375e-06,0.790557861328125,0.13751010820593787
0.830230712890625,1.08795166015625e-06,0.7855224609375,0.13727906349878702
0.8251953125,1.08917236328125e-06,0.780487060546875,0.13743309330355424
0.820159912109375,1.09466552734375e-06,0.77545166015625,0.13812622742500674
0.81512451171875,1.10565185546875e-06,0.770416259765625,0.13951249566791174
0.810089111328125,1.1236572265625e-06,0.765380859375,0.1417844352882283
0.8050537109375,1.1492919921875e-06,0.760345458984375,0.14501906118833996
0.800018310546875,1.185302734375e-06,0.75531005859375,0.14956294042897303
0.79498291015625,1.229248046875e-06,0.750274658203125,0.15510801340059305
0.789947509765625,1.28509521484375e-06,0.7452392578125,0.16215487696869346
0.784912109375,1.35223388671875e-06,0.740203857421875,0.1706265162308907
0.779876708984375,1.43341064453125e-06,0.73516845703125,0.180869498247911
0.77484130859375,1.5289306640625e-06,0.730133056640625,0.19292233047094615
0.769805908203125,1.63909912109375e-06,0.72509765625,0.20682352035118798
0.7647705078125,1.76361083984375e-06,0.720062255859375,0.22253456043744466
0.759735107421875,1.90155029296875e-06,0.71502685546875,0.23993992837614078
0.75469970703125,2.0538330078125e-06,0.709991455078125,0.2591551465208518
0.749664306640625,2.2174072265625e-06,0.7049560546875,0.27979514035965963
0.74462890625,2.3858642578125e-06,0.699920654296875,0.3010512534175363
0.739593505859375,2.55828857421875e-06,0.69488525390625,0.3228079633409065
0.73455810546875,2.7294921875e-06,0.689849853515625,0.34441064345950945
0.729522705078125,2.8924560546875e-06,0.684814453125,0.3649736223959337
0.7244873046875,3.0419921875e-06,0.679779052734375,0.3838422734799184
0.719451904296875,3.17108154296875e-06,0.67474365234375,0.4001309253340522
0.71441650390625,3.2733154296875e-06,0.669708251953125,0.41303092148330706
0.709381103515625,3.3447265625e-06,0.6646728515625,0.4220416650621896
0.704345703125,3.38043212890625e-06,0.659637451171875,0.4265470368516308
0.699310302734375,3.37677001953125e-06,0.65460205078125,0.42608494743732916
0.69427490234375,3.33770751953125e-06,0.649566650390625,0.421155993684778
0.689239501953125,3.262939453125e-06,0.64453125,0.41172166814278566
0.6842041015625,3.15521240234375e-06,0.639495849609375,0.39812853787207825
0.679168701171875,3.0206298828125e-06,0.63446044921875,0.381146751896492
0.67413330078125,2.8668212890625e-06,0.629425048828125,0.361738996495822
0.669097900390625,2.69805908203125e-06,0.6243896484375,0.3404443759867535
0.6640625,2.52166748046875e-06,0.619354248046875,0.3181870691978898
0.659027099609375,2.3431396484375e-06,0.61431884765625,0.29566021025068356
0.65399169921875,2.1685791015625e-06,0.609283447265625,0.2736339481689707
0.648956298828125,2.0025634765625e-06,0.604248046875,0.25268589472062847
0.6439208984375,1.845703125e-06,0.599212646484375,0.23289306480804037
0.638885498046875,1.70166015625e-06,0.59417724609375,0.21471754784550812
0.63385009765625,1.572265625e-06,0.589141845703125,0.19839038854018257
0.628814697265625,1.456298828125e-06,0.5841064453125,0.1837575570872964
0.623779296875,1.35345458984375e-06,0.579071044921875,0.17078054603565793
0.618743896484375,1.2640380859375e-06,0.57403564453125,0.15949786283645886
0.61370849609375,1.1871337890625e-06,0.569000244140625,0.14979398513612385
0.608673095703125,1.1212158203125e-06,0.56396484375,0.14147637567869384
0.6036376953125,1.06353759765625e-06,0.558929443359375,0.13419846740344257
0.598602294921875,1.01593017578125e-06,0.55389404296875,0.1281913050175209
0.59356689453125,9.74121093749999e-07,0.548858642578125,0.12291578420424341
0.588531494140625,9.39025878906251e-07,0.5438232421875,0.11848742731718602
0.58349609375,9.09423828125e-07,0.538787841796875,0.11475220455158074
0.578460693359375,8.8470458984375e-07,0.53375244140625,0.11163310100504448
0.57342529296875,8.64257812500001e-07,0.528717041015625,0.10905310177519363
0.568389892578125,8.45947265625e-07,0.523681640625,0.10674265470368517
0.5633544921875,8.32519531250001e-07,0.518646240234375,0.10504832685124585
0.558319091796875,8.2000732421875e-07,0.51361083984375,0.1034695213523817
0.55328369140625,8.099365234375e-07,0.508575439453125,0.10219877546305212
0.548248291015625,8.0108642578125e-07,0.5035400390625,0.10108205937848974
0.543212890625,7.9345703125e-07,0.498504638671875,0.1001193730986946
0.538177490234375,7.87353515625e-07,0.49346923828125,0.0993492240748585
0.53314208984375,7.8094482421875e-07,0.488433837890625,0.09854056759983058
0.528106689453125,7.75451660156251e-07,0.4833984375,0.09784743347837821
0.5230712890625,7.708740234375e-07,0.478363037109375,0.097269821710501
0.518035888671875,7.66906738281249e-07,0.47332763671875,0.0967692248450074
0.51300048828125,7.6416015625e-07,0.468292236328125,0.09642265778428126
0.507965087890625,7.60803222656251e-07,0.4632568359375,0.09599907582117152
0.5029296875,7.57446289062499e-07,0.458221435546875,0.09557549385806141
0.497894287109375,7.54699707031251e-07,0.45318603515625,0.09522892679733543
0.49285888671875,7.52868652343749e-07,0.448150634765625,0.09499788209018432
0.487823486328125,7.51953125e-07,0.443115234375,0.09488235973660904
0.4827880859375,7.4951171875e-07,0.438079833984375,0.09457430012707459
0.477752685546875,7.48901367187499e-07,0.43304443359375,0.09449728522469086
0.47271728515625,7.4737548828125e-07,0.428009033203125,0.09430474796873196
0.467681884765625,7.47375488281249e-07,0.4229736328125,0.09430474796873183
0.462646484375,7.47070312499999e-07,0.417938232421875,0.09426624051754003
0.457611083984375,7.46459960937501e-07,0.41290283203125,0.09418922561515668
0.45257568359375,7.464599609375e-07,0.407867431640625,0.09418922561515654
0.447540283203125,7.4615478515625e-07,0.40283203125,0.09415071816396474
0.4425048828125,7.45544433593751e-07,0.397796630859375,0.09407370326158125
0.437469482421875,7.45544433593749e-07,0.39276123046875,0.09407370326158099
0.43243408203125,7.45544433593751e-07,0.387725830078125,0.09407370326158125
0.427398681640625,7.44018554687501e-07,0.3826904296875,0.09388116600562223
0.42236328125,7.44018554687499e-07,0.377655029296875,0.09388116600562198
0.417327880859375,7.4310302734375e-07,0.37261962890625,0.09376564365204668
0.41229248046875,7.4188232421875e-07,0.367584228515625,0.09361161384727945
0.407257080078125,7.42492675781249e-07,0.362548828125,0.09368862874966294
0.4022216796875,7.4005126953125e-07,0.357513427734375,0.09338056914012863
0.397186279296875,7.39440917968751e-07,0.35247802734375,0.09330355423774514
0.39215087890625,7.38525390625e-07,0.347442626953125,0.09318803188416959
0.387115478515625,7.37609863281249e-07,0.3424072265625,0.09307250953059405
0.382080078125,7.3699951171875e-07,0.337371826171875,0.09299549462821058
0.377044677734375,7.3699951171875e-07,0.33233642578125,0.09299549462821058
0.37200927734375,7.3699951171875e-07,0.327301025390625,0.09299549462821058
0.366973876953125,7.3699951171875e-07,0.322265625,0.09299549462821058
0.3619384765625,7.37915039062501e-07,0.317230224609375,0.0931110169817861
0.356903076171875,7.3883056640625e-07,0.31219482421875,0.0932265393353614
0.35186767578125,7.391357421875e-07,0.307159423828125,0.0932650467865532
0.346832275390625,7.40661621093749e-07,0.3021240234375,0.09345758404251212
0.341796875,7.415771484375e-07,0.297088623046875,0.09357310639608765
0.336761474609375,7.43713378906249e-07,0.29205322265625,0.09384265855443016
0.33172607421875,7.4432373046875e-07,0.287017822265625,0.0939196734568139
0.326690673828125,7.47070312499999e-07,0.281982421875,0.09426624051754003
0.3216552734375,7.49816894531251e-07,0.276947021484375,0.09461280757826653
0.316619873046875,7.5225830078125e-07,0.27191162109375,0.09492086718780084
0.31158447265625,7.550048828125e-07,0.266876220703125,0.0952674342485271
0.306549072265625,7.57446289062499e-07,0.2618408203125,0.09557549385806141
0.301513671875,7.60192871093751e-07,0.256805419921875,0.09592206091878792
0.296478271484375,7.6416015625e-07,0.25177001953125,0.09642265778428126
0.29144287109375,7.66906738281249e-07,0.246734619140625,0.0967692248450074
0.286407470703125,7.70874023437501e-07,0.24169921875,0.09726982171050112
0.2813720703125,7.7545166015625e-07,0.236663818359375,0.09784743347837807
0.276336669921875,7.794189453125e-07,0.23162841796875,0.09834803034387155
0.27130126953125,7.83691406249999e-07,0.226593017578125,0.0988871346605567
0.266265869140625,7.9010009765625e-07,0.2215576171875,0.09969579113558474
0.26123046875,7.95898437499999e-07,0.216522216796875,0.10042743270822893
0.256195068359375,8.00781249999999e-07,0.21148681640625,0.10104355192729782
0.25115966796875,8.07800292968749e-07,0.206451416015625,0.10192922330470934
0.246124267578125,8.15429687499999e-07,0.201416015625,0.10289190958450448
0.2410888671875,8.23364257812499e-07,0.196380615234375,0.10389310331549143
0.236053466796875,8.32214355468749e-07,0.19134521484375,0.1050098194000538
0.23101806640625,8.4259033203125e-07,0.186309814453125,0.10631907274057531
0.225982666015625,8.53576660156249e-07,0.1812744140625,0.10770534098348018
0.220947265625,8.6669921875e-07,0.176239013671875,0.10936116138472796
0.215911865234375,8.81042480468749e-07,0.17120361328125,0.11117101159074269
0.21087646484375,8.98132324218751e-07,0.166168212890625,0.11332742885748406
0.205841064453125,9.173583984375e-07,0.1611328125,0.11575339828256768
0.2008056640625,9.38720703125e-07,0.156097412109375,0.11844891986599408
0.195770263671875,9.64965820312499e-07,0.15106201171875,0.12176056066848924
0.19073486328125,9.94873046875e-07,0.146026611328125,0.1255342908852863
0.185699462890625,1.0302734375e-06,0.1409912109375,0.13000115522353575
0.1806640625,1.07177734375e-06,0.135955810546875,0.13523816858562132
0.175628662109375,1.12091064453125e-06,0.13092041015625,0.14143786822750204
0.17059326171875,1.1785888671875e-06,0.125885009765625,0.1487157765027533
0.165557861328125,1.24755859375e-06,0.120849609375,0.15741846047210137
0.1605224609375,1.3275146484375e-06,0.115814208984375,0.16750741268435443
0.155487060546875,1.422119140625e-06,0.11077880859375,0.1794447225538142
