Potential,Current,Normalized_Potential,Normalized_Current
1.50497436523438,8.60290527343749e-07,1.46530151367188,0.1257359500446029
1.49993896484375,9.307861328125e-07,1.46026611328125,0.1360392506690455
1.49490356445313,9.0850830078125e-07,1.45523071289063,0.13278322925958966
1.4898681640625,8.8165283203125e-07,1.4501953125,0.12885816235504013
1.48483276367188,8.56323242187501e-07,1.44515991210938,0.125156110615522
1.47979736328125,8.32519531249999e-07,1.44012451171875,0.12167707404103464
1.47476196289063,8.1024169921875e-07,1.43508911132813,0.11842105263157894
1.4697265625,7.89794921874999e-07,1.4300537109375,0.11543264942016042
1.46469116210938,7.71484375000001e-07,1.42501831054688,0.11275646743978604
1.45965576171875,7.54394531249999e-07,1.41998291015625,0.11025869759143607
1.45462036132813,7.3883056640625e-07,1.41494750976563,0.10798394290811775
1.4495849609375,7.24182128906251e-07,1.409912109375,0.10584299732381816
1.44454956054688,7.11669921875001e-07,1.40487670898438,0.10401427297056214
1.43951416015625,7.000732421875e-07,1.39984130859375,0.1023193577163247
1.43447875976563,6.8939208984375e-07,1.39480590820313,0.10075825156110614
1.429443359375,6.793212890625e-07,1.3897705078125,0.09928635147190008
1.42440795898438,6.7138671875e-07,1.38473510742188,0.09812667261373773
1.41937255859375,6.63452148437499e-07,1.37969970703125,0.09696699375557523
1.41433715820313,6.5643310546875e-07,1.37466430664063,0.09594112399643176
1.4093017578125,6.4971923828125e-07,1.36962890625,0.09495985727029438
1.40426635742188,6.4361572265625e-07,1.36459350585938,0.0940677966101695
1.39923095703125,6.38732910156251e-07,1.35955810546875,0.09335414808206972
1.39419555664063,6.3446044921875e-07,1.35452270507813,0.09272970561998216
1.38916015625,6.30798339843751e-07,1.3494873046875,0.09219446922390737
1.38412475585938,6.26525878906251e-07,1.34445190429688,0.09157002676181995
1.37908935546875,6.24389648437501e-07,1.33941650390625,0.09125780553077624
1.37405395507813,6.21948242187501e-07,1.33438110351563,0.09090098126672629
1.3690185546875,6.1920166015625e-07,1.329345703125,0.09049955396966992
1.36398315429688,6.17675781249999e-07,1.32431030273438,0.09027653880463857
1.35894775390625,6.15234375e-07,1.31927490234375,0.08991971454058877
1.35391235351563,6.146240234375e-07,1.31423950195313,0.08983050847457627
1.348876953125,6.14013671874999e-07,1.3092041015625,0.08974130240856364
1.34384155273438,6.13708496093751e-07,1.30416870117188,0.08969669937555769
1.33880615234375,6.1370849609375e-07,1.29913330078125,0.08969669937555753
1.33377075195313,6.14013671875001e-07,1.29409790039063,0.08974130240856393
1.3287353515625,6.1370849609375e-07,1.2890625,0.08969669937555753
1.32369995117188,6.146240234375e-07,1.28402709960938,0.08983050847457627
1.31866455078125,6.15234375e-07,1.27899169921875,0.08991971454058877
1.31362915039063,6.16455078125e-07,1.27395629882813,0.09009812667261373
1.30859375,6.1767578125e-07,1.2689208984375,0.09027653880463872
1.30355834960938,6.1981201171875e-07,1.26388549804688,0.09058876003568243
1.29852294921875,6.21643066406249e-07,1.25885009765625,0.09085637823371974
1.29348754882813,6.23779296875e-07,1.25381469726563,0.0911685994647636
1.2884521484375,6.25000000000001e-07,1.248779296875,0.09134701159678872
1.28341674804688,6.26831054687499e-07,1.24374389648438,0.0916146297948259
1.27838134765625,6.29882812499999e-07,1.23870849609375,0.09206066012488834
1.27334594726563,6.32629394531249e-07,1.23367309570313,0.09246208742194455
1.268310546875,6.34765625e-07,1.2286376953125,0.0927743086529884
1.26327514648438,6.3812255859375e-07,1.22360229492188,0.09326494201605709
1.25823974609375,6.40869140625e-07,1.21856689453125,0.0936663693131133
1.25320434570313,6.44531249999999e-07,1.21353149414063,0.09420160570918808
1.2481689453125,6.46362304687501e-07,1.20849609375,0.09446922390722583
1.24313354492188,6.50634765624999e-07,1.20346069335938,0.09509366636931296
1.23809814453125,6.53686523437499e-07,1.19842529296875,0.09553969669937541
1.23306274414063,6.573486328125e-07,1.19338989257813,0.09607493309545048
1.22802734375,6.6070556640625e-07,1.1883544921875,0.09656556645851917
1.22299194335938,6.64367675781251e-07,1.18331909179688,0.09710080285459426
1.21795654296875,6.6802978515625e-07,1.17828369140625,0.09763603925066903
1.21292114257813,6.72302246093751e-07,1.17324829101563,0.0982604817127566
1.2078857421875,6.7596435546875e-07,1.168212890625,0.09879571810883139
1.20285034179688,6.79626464843749e-07,1.16317749023438,0.09933095450490619
1.19781494140625,6.84204101562499e-07,1.15814208984375,0.09999999999999985
1.19277954101563,6.87561035156251e-07,1.15310668945313,0.10049063336306883
1.187744140625,6.91833496093749e-07,1.1480712890625,0.10111507582515596
1.18270874023438,6.9580078125e-07,1.14303588867188,0.10169491525423728
1.17767333984375,7.0037841796875e-07,1.13800048828125,0.10236396074933096
1.17263793945313,7.04345703124999e-07,1.13296508789063,0.10294380017841198
1.1676025390625,7.08923339843751e-07,1.1279296875,0.10361284567350594
1.16256713867188,7.13500976562501e-07,1.12289428710938,0.10428189116859961
1.15753173828125,7.1807861328125e-07,1.11785888671875,0.10495093666369312
1.15249633789063,7.232666015625e-07,1.11282348632813,0.10570918822479927
1.1474609375,7.27233886718751e-07,1.1077880859375,0.1062890276538806
1.14242553710938,7.3211669921875e-07,1.10275268554688,0.10700267618198038
1.13739013671875,7.36389160156251e-07,1.09771728515625,0.10762711864406795
1.13235473632813,7.41882324218751e-07,1.09268188476563,0.10842997323818034
1.1273193359375,7.4615478515625e-07,1.087646484375,0.10905441570026761
1.12228393554688,7.51342773437499e-07,1.08261108398438,0.10981266726137363
1.11724853515625,7.56225585937501e-07,1.07757568359375,0.11052631578947382
1.11221313476563,7.60803222656251e-07,1.07254028320313,0.11119536128456749
1.107177734375,7.659912109375e-07,1.0675048828125,0.1119536128456735
1.10214233398438,7.69958496093751e-07,1.06246948242188,0.11253345227475482
1.09710693359375,7.75756835937499e-07,1.05743408203125,0.11338090990187318
1.09207153320313,7.80029296875e-07,1.05239868164063,0.11400535236396074
1.0870361328125,7.84912109375001e-07,1.04736328125,0.1147190008920608
1.08200073242188,7.89794921874999e-07,1.04232788085938,0.11543264942016042
1.07696533203125,7.94677734375e-07,1.03729248046875,0.11614629794826048
1.07192993164063,7.9925537109375e-07,1.03225708007813,0.11681534344335415
1.06689453125,8.03222656249999e-07,1.0272216796875,0.11739518287243518
1.06185913085938,8.07495117187501e-07,1.02218627929688,0.11801962533452288
1.05682373046875,8.1207275390625e-07,1.01715087890625,0.11868867082961641
1.05178833007813,8.1634521484375e-07,1.01211547851563,0.11931311329170383
1.0467529296875,8.20312500000001e-07,1.007080078125,0.11989295272078515
1.04171752929688,8.2427978515625e-07,1.00204467773438,0.12047279214986618
1.03668212890625,8.270263671875e-07,0.99700927734375,0.12087421944692238
1.03164672851563,8.31298828125e-07,0.9919738769531301,0.1214986619090098
1.026611328125,8.3465576171875e-07,0.9869384765625,0.1219892952720785
1.02157592773438,8.3831787109375e-07,0.9819030761718801,0.12252453166815344
1.01654052734375,8.4228515625e-07,0.97686767578125,0.1231043710972346
1.01150512695313,8.44726562500001e-07,0.9718322753906301,0.12346119536128472
1.0064697265625,8.4808349609375e-07,0.966796875,0.12395182872435324
1.00143432617188,8.514404296875e-07,0.9617614746093801,0.12444246208742195
0.99639892578125,8.5479736328125e-07,0.95672607421875,0.12493309545049062
0.991363525390625,8.587646484375e-07,0.951690673828125,0.1255129348795718
0.986328125,8.62731933593749e-07,0.9466552734375,0.12609277430865284
0.981292724609375,8.6669921875e-07,0.941619873046875,0.12667261373773417
0.97625732421875,8.70666503906249e-07,0.93658447265625,0.1272524531668152
0.971221923828125,8.7493896484375e-07,0.931549072265625,0.12787689562890275
0.9661865234375,8.7921142578125e-07,0.926513671875,0.12850133809099018
0.961151123046875,8.8470458984375e-07,0.921478271484375,0.12930419268510257
0.95611572265625,8.89282226562499e-07,0.91644287109375,0.1299732381801961
0.951080322265625,8.9569091796875e-07,0.911407470703125,0.13090990187332738
0.946044921875,9.0240478515625e-07,0.9063720703125,0.13189116859946476
0.941009521484375,9.0911865234375e-07,0.901336669921875,0.13287243532560214
0.93597412109375,9.1583251953125e-07,0.89630126953125,0.1338537020517395
0.930938720703125,9.2437744140625e-07,0.891265869140625,0.13510258697591437
0.9259033203125,9.3353271484375e-07,0.88623046875,0.13644067796610168
0.920867919921875,9.4329833984375e-07,0.881195068359375,0.1378679750223015
0.91583251953125,9.5245361328125e-07,0.87615966796875,0.13920606601248886
0.910797119140625,9.63439941406249e-07,0.871124267578125,0.1408117752007135
0.90576171875,9.735107421875e-07,0.8660888671875,0.1422836752899197
0.900726318359375,9.844970703125e-07,0.861053466796875,0.1438893844781445
0.89569091796875,9.9456787109375e-07,0.85601806640625,0.1453612845673506
0.890655517578125,1.004638671875e-06,0.850982666015625,0.14683318465655662
0.8856201171875,1.014404296875e-06,0.845947265625,0.14826048171275646
0.880584716796875,1.02325439453125e-06,0.840911865234375,0.14955396966993753
0.87554931640625,1.03118896484375e-06,0.83587646484375,0.1507136485280999
0.870513916015625,1.03729248046875e-06,0.830841064453125,0.1516057091882248
0.865478515625,1.04248046875e-06,0.8258056640625,0.15236396074933095
0.860443115234375,1.0467529296875e-06,0.820770263671875,0.15298840321141835
0.85540771484375,1.04888916015625e-06,0.81573486328125,0.15330062444246206
0.850372314453125,1.0504150390625e-06,0.810699462890625,0.1535236396074933
0.8453369140625,1.05010986328125e-06,0.8056640625,0.15347903657448708
0.840301513671875,1.048583984375e-06,0.800628662109375,0.15325602140945585
0.83526611328125,1.046142578125e-06,0.79559326171875,0.15289919714540587
0.830230712890625,1.04339599609375e-06,0.790557861328125,0.15249776984834967
0.8251953125,1.0394287109375e-06,0.7855224609375,0.15191793041926852
0.820159912109375,1.0345458984375e-06,0.780487060546875,0.15120428189116858
0.81512451171875,1.0296630859375e-06,0.77545166015625,0.15049063336306867
0.810089111328125,1.0247802734375e-06,0.770416259765625,0.14977698483496876
0.8050537109375,1.02020263671875e-06,0.765380859375,0.14910793933987512
0.800018310546875,1.015625e-06,0.760345458984375,0.14843889384478143
0.79498291015625,1.00982666015625e-06,0.75531005859375,0.1475914362176628
0.789947509765625,1.00494384765625e-06,0.750274658203125,0.1468777876895629
0.784912109375,1.00006103515625e-06,0.7452392578125,0.14616413916146298
0.779876708984375,9.94873046875e-07,0.740203857421875,0.1454058876003568
0.77484130859375,9.89685058593749e-07,0.73516845703125,0.14464763603925052
0.769805908203125,9.8480224609375e-07,0.730133056640625,0.14393398751115075
0.7647705078125,9.7991943359375e-07,0.72509765625,0.14322033898305084
0.759735107421875,9.74426269531251e-07,0.720062255859375,0.1424174843889386
0.75469970703125,9.69848632812499e-07,0.71502685546875,0.14174843889384464
0.749664306640625,9.6588134765625e-07,0.709991455078125,0.1411685994647636
0.74462890625,9.6038818359375e-07,0.7049560546875,0.14036574487065118
0.739593505859375,9.5458984375e-07,0.699920654296875,0.13951828724353257
0.73455810546875,9.503173828125e-07,0.69488525390625,0.13889384478144515
0.729522705078125,9.45434570312499e-07,0.689849853515625,0.13818019625334507
0.7244873046875,9.40856933593749e-07,0.684814453125,0.1375111507582514
0.719451904296875,9.3597412109375e-07,0.679779052734375,0.13679750223015164
0.71441650390625,9.31396484374999e-07,0.67474365234375,0.13612845673505783
0.709381103515625,9.2681884765625e-07,0.669708251953125,0.13545941123996433
0.704345703125,9.22851562499999e-07,0.6646728515625,0.134879571810883
0.699310302734375,9.1766357421875e-07,0.659637451171875,0.13412132024977697
0.69427490234375,9.13085937499999e-07,0.65460205078125,0.13345227475468316
0.689239501953125,9.08813476562499e-07,0.649566650390625,0.13282783229259573
0.6842041015625,9.04235839843751e-07,0.64453125,0.13215878679750237
0.679168701171875,8.99047851562501e-07,0.639495849609375,0.13140053523639622
0.67413330078125,8.94775390625e-07,0.63446044921875,0.13077609277430866
0.669097900390625,8.8958740234375e-07,0.629425048828125,0.13001784121320248
0.6640625,8.84399414062501e-07,0.6243896484375,0.1292595896520965
0.659027099609375,8.79211425781251e-07,0.619354248046875,0.12850133809099032
0.65399169921875,8.746337890625e-07,0.61431884765625,0.1278322925958965
0.648956298828125,8.6944580078125e-07,0.609283447265625,0.12707404103479036
0.6439208984375,8.64562988281251e-07,0.604248046875,0.1263603925066906
0.638885498046875,8.5906982421875e-07,0.599212646484375,0.12555753791257807
0.63385009765625,8.54187011718749e-07,0.59417724609375,0.12484388938447799
0.628814697265625,8.48388671875e-07,0.589141845703125,0.12399643175735948
0.623779296875,8.4381103515625e-07,0.5841064453125,0.12332738626226583
0.618743896484375,8.3892822265625e-07,0.579071044921875,0.12261373773416592
0.61370849609375,8.34350585937499e-07,0.57403564453125,0.12194469223907212
0.608673095703125,8.28857421875e-07,0.569000244140625,0.12114183764495985
0.6036376953125,8.2427978515625e-07,0.56396484375,0.12047279214986618
0.598602294921875,8.197021484375e-07,0.558929443359375,0.11980374665477252
0.59356689453125,8.15734863281251e-07,0.55389404296875,0.11922390722569148
0.588531494140625,8.10852050781249e-07,0.548858642578125,0.1185102586975913
0.58349609375,8.06884765625e-07,0.5438232421875,0.11793041926851026
0.578460693359375,8.0291748046875e-07,0.538787841796875,0.11735057983942908
0.57342529296875,7.9864501953125e-07,0.53375244140625,0.11672613737734165
0.568389892578125,7.952880859375e-07,0.528717041015625,0.11623550401427296
0.5633544921875,7.9193115234375e-07,0.523681640625,0.11574487065120428
0.558319091796875,7.87963867187501e-07,0.518646240234375,0.11516503122212325
0.55328369140625,7.85217285156251e-07,0.51361083984375,0.11476360392506706
0.548248291015625,7.82165527343749e-07,0.508575439453125,0.11431757359500432
0.543212890625,7.79113769531249e-07,0.5035400390625,0.11387154326494185
0.538177490234375,7.76367187499999e-07,0.498504638671875,0.11347011596788566
0.53314208984375,7.74230957031251e-07,0.49346923828125,0.11315789473684223
0.528106689453125,7.71484375000001e-07,0.488433837890625,0.11275646743978604
0.5230712890625,7.68127441406251e-07,0.4833984375,0.11226583407671736
0.518035888671875,7.659912109375e-07,0.478363037109375,0.1119536128456735
0.51300048828125,7.64160156249999e-07,0.47332763671875,0.1116859946476359
0.507965087890625,7.61718750000001e-07,0.468292236328125,0.11132917038358624
0.5029296875,7.5958251953125e-07,0.4632568359375,0.11101694915254236
0.497894287109375,7.5836181640625e-07,0.458221435546875,0.1108385370205174
0.49285888671875,7.57751464843751e-07,0.45318603515625,0.11074933095450505
0.487823486328125,7.55920410156249e-07,0.448150634765625,0.11048171275646729
0.4827880859375,7.550048828125e-07,0.443115234375,0.1103479036574487
0.477752685546875,7.5531005859375e-07,0.438079833984375,0.11039250669045494
0.47271728515625,7.54699707031249e-07,0.43304443359375,0.11030330062444231
0.467681884765625,7.54699707031251e-07,0.428009033203125,0.1103033006244426
0.462646484375,7.55920410156249e-07,0.4229736328125,0.11048171275646729
0.457611083984375,7.56225585937501e-07,0.417938232421875,0.11052631578947382
0.45257568359375,7.5714111328125e-07,0.41290283203125,0.1106601248884924
0.447540283203125,7.58056640625e-07,0.407867431640625,0.11079393398751115
0.4425048828125,7.5836181640625e-07,0.40283203125,0.1108385370205174
0.437469482421875,7.58972167968749e-07,0.397796630859375,0.11092774308652974
0.43243408203125,7.598876953125e-07,0.39276123046875,0.11106155218554861
0.427398681640625,7.5958251953125e-07,0.387725830078125,0.11101694915254236
0.42236328125,7.5958251953125e-07,0.3826904296875,0.11101694915254236
0.417327880859375,7.5958251953125e-07,0.377655029296875,0.11101694915254236
0.41229248046875,7.58972167968751e-07,0.37261962890625,0.11092774308653003
0.407257080078125,7.58056640625e-07,0.367584228515625,0.11079393398751115
0.4022216796875,7.5714111328125e-07,0.362548828125,0.1106601248884924
0.397186279296875,7.5714111328125e-07,0.357513427734375,0.1106601248884924
0.39215087890625,7.55615234375e-07,0.35247802734375,0.1104371097234612
0.387115478515625,7.5439453125e-07,0.347442626953125,0.11025869759143621
0.382080078125,7.5408935546875e-07,0.3424072265625,0.11021409455842997
0.377044677734375,7.5408935546875e-07,0.337371826171875,0.11021409455842997
0.37200927734375,7.5439453125e-07,0.33233642578125,0.11025869759143621
0.366973876953125,7.5531005859375e-07,0.327301025390625,0.11039250669045494
0.3619384765625,7.56225585937501e-07,0.322265625,0.11052631578947382
0.356903076171875,7.57446289062499e-07,0.317230224609375,0.1107047279214985
0.35186767578125,7.58972167968749e-07,0.31219482421875,0.11092774308652974
0.346832275390625,7.6019287109375e-07,0.307159423828125,0.11110615521855487
0.341796875,7.62939453125e-07,0.3021240234375,0.11150758251561106
0.336761474609375,7.65380859374999e-07,0.297088623046875,0.11186440677966086
0.33172607421875,7.67822265625e-07,0.29205322265625,0.11222123104371096
0.326690673828125,7.7178955078125e-07,0.287017822265625,0.11280107047279214
0.3216552734375,7.7545166015625e-07,0.281982421875,0.11333630686886707
0.316619873046875,7.79113769531249e-07,0.276947021484375,0.11387154326494185
0.31158447265625,7.82470703125e-07,0.27191162109375,0.1143621766280107
0.306549072265625,7.86743164062499e-07,0.266876220703125,0.11498661909009797
0.301513671875,7.92236328125e-07,0.2618408203125,0.11578947368421053
0.296478271484375,7.965087890625e-07,0.256805419921875,0.11641391614629795
0.29144287109375,8.02307128906249e-07,0.25177001953125,0.11726137377341643
0.286407470703125,8.07800292968749e-07,0.246734619140625,0.11806422836752883
0.2813720703125,8.14208984374999e-07,0.24169921875,0.11900089206065997
0.276336669921875,8.2061767578125e-07,0.236663818359375,0.11993755575379125
0.27130126953125,8.270263671875e-07,0.23162841796875,0.12087421944692238
0.266265869140625,8.343505859375e-07,0.226593017578125,0.12194469223907226
0.26123046875,8.4197998046875e-07,0.2215576171875,0.12305976806422836
0.256195068359375,8.49609375e-07,0.216522216796875,0.12417484388938448
0.25115966796875,8.587646484375e-07,0.21148681640625,0.1255129348795718
0.246124267578125,8.67614746093749e-07,0.206451416015625,0.12680642283675275
0.2410888671875,8.77685546875e-07,0.201416015625,0.12827832292595898
0.236053466796875,8.87451171875001e-07,0.196380615234375,0.12970561998215893
0.23101806640625,8.990478515625e-07,0.19134521484375,0.13140053523639608
0.225982666015625,9.11865234375001e-07,0.186309814453125,0.13327386262265847
0.220947265625,9.2529296875e-07,0.1812744140625,0.1352363960749331
0.215911865234375,9.40856933593749e-07,0.176239013671875,0.1375111507582514
0.21087646484375,9.57336425781249e-07,0.17120361328125,0.1399197145405886
0.205841064453125,9.765625e-07,0.166168212890625,0.14272970561998216
0.2008056640625,9.9761962890625e-07,0.1611328125,0.145807314897413
0.195770263671875,1.02203369140625e-06,0.156097412109375,0.14937555753791257
0.19073486328125,1.048583984375e-06,0.15106201171875,0.15325602140945585
0.185699462890625,1.08154296875e-06,0.146026611328125,0.15807314897413022
0.1806640625,1.1175537109375e-06,0.1409912109375,0.16333630686886708
0.175628662109375,1.1602783203125e-06,0.135955810546875,0.1695807314897413
0.17059326171875,1.20941162109375e-06,0.13092041015625,0.17676181980374664
0.165557861328125,1.26617431640625e-06,0.125885009765625,0.1850579839429081
0.1605224609375,1.33270263671875e-06,0.120849609375,0.1947814451382694
0.155487060546875,1.41021728515625e-06,0.115814208984375,0.20611061552185547
0.15045166015625,1.4996337890625e-06,0.11077880859375,0.2191793041926851
0.145416259765625,1.60400390625e-06,0.105743408203125,0.23443354148082068
