Potential,Current,Normalized_Potential,Normalized_Current
1.50497436523438,9.539794921875e-07,1.470336914062505,0.1407537484803458
1.49993896484375,1.02264404296875e-06,1.465301513671875,0.15088477644198298
1.49490356445313,9.9517822265625e-07,1.460266113281255,0.1468323652573281
1.4898681640625,9.63745117187501e-07,1.455230712890625,0.14219460579044546
1.48483276367188,9.3353271484375e-07,1.450195312500005,0.13773695348732495
1.47979736328125,9.04235839843749e-07,1.445159912109375,0.13341438155702628
1.47476196289063,8.7860107421875e-07,1.440124511718755,0.12963213111801522
1.4697265625,8.5479736328125e-07,1.435089111328125,0.12612004142464767
1.46469116210938,8.32519531250001e-07,1.430053710937505,0.1228330856859833
1.45965576171875,8.11767578125e-07,1.425018310546875,0.1197712639020217
1.45462036132813,7.93762207031251e-07,1.419982910156255,0.11711468323652588
1.4495849609375,7.7667236328125e-07,1.414947509765625,0.11459318294385158
1.44454956054688,7.6141357421875e-07,1.409912109375005,0.1123418433968211
1.43951416015625,7.4798583984375e-07,1.404876708984375,0.11036066459543428
1.43447875976563,7.354736328125e-07,1.399841308593755,0.10851456616686928
1.429443359375,7.2479248046875e-07,1.394805908203125,0.10693862848394795
1.42440795898438,7.14721679687499e-07,1.389770507812505,0.10545274438290768
1.41937255859375,7.049560546875e-07,1.384735107421875,0.10401188707280831
1.41433715820313,6.98242187500001e-07,1.379699707031255,0.10302129767211506
1.4093017578125,6.90917968749999e-07,1.374664306640625,0.10194065468954011
1.40426635742188,6.84204101562501e-07,1.369628906250005,0.10095006528884701
1.39923095703125,6.7901611328125e-07,1.364593505859375,0.10018460984285649
1.39419555664063,6.75048828124999e-07,1.359558105468755,0.09959926156062841
1.38916015625,6.70166015625001e-07,1.354522705078125,0.09887883290557896
1.38412475585938,6.66198730468751e-07,1.349487304687505,0.09829348462335104
1.37908935546875,6.634521484375e-07,1.344451904296875,0.0978882435048854
1.37405395507813,6.6070556640625e-07,1.339416503906255,0.09748300238641991
1.3690185546875,6.5826416015625e-07,1.334381103515625,0.09712278805889503
1.36398315429688,6.56738281250001e-07,1.329345703125005,0.09689765410419214
1.35894775390625,6.55212402343751e-07,1.324310302734375,0.0966725201494891
1.35391235351563,6.54296875e-07,1.319274902343755,0.09653743977666712
1.348876953125,6.53686523437501e-07,1.314239501953125,0.09644738619478604
1.34384155273438,6.53076171875e-07,1.309204101562505,0.09635733261290468
1.33880615234375,6.5277099609375e-07,1.304168701171875,0.09631230582196407
1.33377075195313,6.5277099609375e-07,1.299133300781255,0.09631230582196407
1.3287353515625,6.5338134765625e-07,1.294097900390625,0.09640235940384528
1.32369995117188,6.5338134765625e-07,1.289062500000005,0.09640235940384528
1.31866455078125,6.55212402343751e-07,1.284027099609375,0.0966725201494891
1.31362915039063,6.5582275390625e-07,1.278991699218755,0.09676257373137015
1.30859375,6.5765380859375e-07,1.273956298828125,0.09703273447701381
1.30355834960938,6.5887451171875e-07,1.268920898437505,0.09721284164077626
1.29852294921875,6.610107421875e-07,1.263885498046875,0.09752802917736052
1.29348754882813,6.6192626953125e-07,1.258850097656255,0.09766310955018236
1.2884521484375,6.6375732421875e-07,1.253814697265625,0.097933270295826
1.28341674804688,6.66198730468751e-07,1.248779296875005,0.09829348462335104
1.27838134765625,6.683349609375e-07,1.243743896484375,0.09860867215993516
1.27334594726563,6.70471191406249e-07,1.238708496093755,0.09892385969651929
1.268310546875,6.72607421875e-07,1.233673095703125,0.0992390472331037
1.26327514648438,6.75354003906249e-07,1.228637695312505,0.09964428835156902
1.25823974609375,6.78405761718749e-07,1.223602294921875,0.10009455626097513
1.25320434570313,6.805419921875e-07,1.218566894531255,0.10040974379755954
1.2481689453125,6.8328857421875e-07,1.213531494140625,0.10081498491602503
1.24313354492188,6.866455078125e-07,1.208496093750005,0.10131027961637173
1.23809814453125,6.89392089843749e-07,1.203460693359375,0.10171552073483708
1.23306274414063,6.9244384765625e-07,1.198425292968755,0.10216578864424332
1.22802734375,6.95190429687499e-07,1.193389892578125,0.10257102976270865
1.22299194335938,6.9854736328125e-07,1.188354492187505,0.10306632446305551
1.21795654296875,7.02209472656251e-07,1.183319091796875,0.10360664595434298
1.21292114257813,7.049560546875e-07,1.178283691406255,0.10401188707280831
1.2078857421875,7.07702636718749e-07,1.173248291015625,0.10441712819127366
1.20285034179688,7.11669921874999e-07,1.168212890625005,0.10500247647350157
1.19781494140625,7.15332031249999e-07,1.163177490234375,0.1055427979647889
1.19277954101563,7.183837890625e-07,1.158142089843755,0.10599306587419513
1.187744140625,7.22656249999999e-07,1.153106689453125,0.10662344094736353
1.18270874023438,7.2662353515625e-07,1.148071289062505,0.10720878922959161
1.17767333984375,7.29980468749999e-07,1.143035888671875,0.10770408392993816
1.17263793945313,7.3455810546875e-07,1.138000488281255,0.10837948579404746
1.1676025390625,7.38220214843749e-07,1.132965087890625,0.10891980728533462
1.16256713867188,7.427978515625e-07,1.127929687500005,0.10959520914944391
1.15753173828125,7.4676513671875e-07,1.122894287109375,0.11018055743167184
1.15249633789063,7.50732421875e-07,1.117858886718755,0.11076590571389977
1.1474609375,7.55920410156251e-07,1.112823486328125,0.11153136115989028
1.14242553710938,7.60803222656249e-07,1.107788085937505,0.11225178981493973
1.13739013671875,7.65380859375001e-07,1.102752685546875,0.11292719167904917
1.13235473632813,7.70263671875e-07,1.097717285156255,0.11364762033409878
1.1273193359375,7.75756835937499e-07,1.092681884765625,0.1144581025710296
1.12228393554688,7.8094482421875e-07,1.087646484375005,0.11522355801702013
1.11724853515625,7.86743164062499e-07,1.082611083984375,0.11607906704489156
1.11221313476563,7.92541503906249e-07,1.077575683593755,0.11693457607276316
1.107177734375,7.98645019531251e-07,1.072540283203125,0.11783511189157564
1.10214233398438,8.056640625e-07,1.067504882812505,0.1188707280832095
1.09710693359375,8.1146240234375e-07,1.062469482421875,0.11972623711108109
1.09207153320313,8.1817626953125e-07,1.057434082031255,0.1207168265117745
1.0870361328125,8.25195312499999e-07,1.052398681640625,0.12175244270340838
1.08200073242188,8.3160400390625e-07,1.047363281250005,0.12269800531316133
1.07696533203125,8.3892822265625e-07,1.042327880859375,0.12377864829573595
1.07192993164063,8.45642089843751e-07,1.037292480468755,0.12476923769642952
1.06689453125,8.53271484375e-07,1.032257080078125,0.1258949074699446
1.06185913085938,8.59985351562499e-07,1.027221679687505,0.12688549687063788
1.05682373046875,8.6700439453125e-07,1.022186279296875,0.12792111306227205
1.05178833007813,8.7310791015625e-07,1.017150878906255,0.12882164888108424
1.0467529296875,8.79516601562501e-07,1.012115478515625,0.1297672114908372
1.04171752929688,8.868408203125e-07,1.007080078125005,0.13084785447341166
1.03668212890625,8.929443359375e-07,1.002044677734375,0.13174839029222388
1.03164672851563,8.9874267578125e-07,0.9970092773437551,0.13260389932009545
1.026611328125,9.05151367187501e-07,0.991973876953125,0.1335494619298484
1.02157592773438,9.11254882812501e-07,0.9869384765625051,0.1344499977486606
1.01654052734375,9.1705322265625e-07,0.981903076171875,0.13530550677653203
1.01150512695313,9.2315673828125e-07,0.9768676757812551,0.13620604259534422
1.0064697265625,9.30175781250001e-07,0.971832275390625,0.1372416587869784
1.00143432617188,9.37499999999999e-07,0.9667968750000051,0.13832230176955274
0.99639892578125,9.45739746093749e-07,0.961761474609375,0.1395380251249492
0.991363525390625,9.5367431640625e-07,0.95672607421875,0.14070872168940518
0.986328125,9.6466064453125e-07,0.951690673828125,0.14232968616326713
0.981292724609375,9.765625e-07,0.9466552734375,0.14408573100995092
0.97625732421875,9.8907470703125e-07,0.941619873046875,0.1459318294385159
0.971221923828125,1.00433349609375e-06,0.93658447265625,0.1481831689855464
0.9661865234375,1.02203369140625e-06,0.931549072265625,0.15079472286010176
0.961151123046875,1.0430908203125e-06,0.926513671875,0.15390157143500383
0.95611572265625,1.06658935546875e-06,0.921478271484375,0.15736863433743078
0.951080322265625,1.09405517578125e-06,0.91644287109375,0.16142104552208564
0.946044921875,1.12548828125e-06,0.911407470703125,0.16605880498896844
0.941009521484375,1.160888671875e-06,0.9063720703125,0.17128191273807913
0.93597412109375,1.2005615234375e-06,0.901336669921875,0.1771353955603584
0.930938720703125,1.2451171875e-06,0.89630126953125,0.18370930703768742
0.9259033203125,1.2945556640625e-06,0.891265869140625,0.19100364717006618
0.920867919921875,1.34918212890625e-06,0.88623046875,0.19906344274843532
0.91583251953125,1.4068603515625e-06,0.881195068359375,0.20757350623621054
0.910797119140625,1.46881103515625e-06,0.87615966796875,0.2167139447971543
0.90576171875,1.53289794921875e-06,0.871124267578125,0.22616957089468231
0.900726318359375,1.59820556640625e-06,0.8660888671875,0.23580530415597278
0.89569091796875,1.66168212890625e-06,0.861053466796875,0.2451708766716196
0.890655517578125,1.72332763671875e-06,0.85601806640625,0.25426628844162275
0.8856201171875,1.7822265625e-06,0.850982666015625,0.2629564590931604
0.880584716796875,1.83197021484375e-06,0.845947265625,0.2702958260164798
0.87554931640625,1.87408447265625e-06,0.840911865234375,0.2765095231662839
0.870513916015625,1.9049072265625e-06,0.83587646484375,0.2810572290512855
0.865478515625,1.9256591796875e-06,0.830841064453125,0.28411905083524697
0.860443115234375,1.932373046875e-06,0.8258056640625,0.2851096402359404
0.85540771484375,1.92657470703125e-06,0.820770263671875,0.2842541312080688
0.850372314453125,1.9091796875e-06,0.81573486328125,0.28168760412445404
0.8453369140625,1.88018798828125e-06,0.810699462890625,0.27741005898509613
0.840301513671875,1.84173583984375e-06,0.8056640625,0.2717366833265793
0.83526611328125,1.79443359375e-06,0.800628662109375,0.2647575307307848
0.830230712890625,1.74224853515625e-06,0.79559326171875,0.25705794947994054
0.8251953125,1.68609619140625e-06,0.790557861328125,0.24877301994686837
0.820159912109375,1.6265869140625e-06,0.7855224609375,0.2399927957134495
0.81512451171875,1.568603515625e-06,0.780487060546875,0.23143770543473366
0.810089111328125,1.5118408203125e-06,0.77545166015625,0.22306272231978025
0.8050537109375,1.4556884765625e-06,0.770416259765625,0.21477779278670808
0.800018310546875,1.4068603515625e-06,0.765380859375,0.20757350623621054
0.79498291015625,1.357421875e-06,0.760345458984375,0.20027916610383176
0.789947509765625,1.31317138671875e-06,0.75531005859375,0.19375028141744335
0.784912109375,1.2744140625e-06,0.750274658203125,0.18803187896798593
0.779876708984375,1.23779296875e-06,0.7452392578125,0.18262866405511277
0.77484130859375,1.20574951171875e-06,0.740203857421875,0.17790085100634878
0.769805908203125,1.17889404296875e-06,0.73516845703125,0.17393849340357512
0.7647705078125,1.1529541015625e-06,0.730133056640625,0.1701112161736233
0.759735107421875,1.13189697265625e-06,0.72509765625,0.16700436759872123
0.75469970703125,1.11297607421875e-06,0.720062255859375,0.16421270656040343
0.749664306640625,1.0980224609375e-06,0.71502685546875,0.16200639380431356
0.74462890625,1.0833740234375e-06,0.709991455078125,0.15984510783916428
0.739593505859375,1.07025146484375e-06,0.7049560546875,0.15790895582871806
0.73455810546875,1.060791015625e-06,0.699920654296875,0.1565131253095592
0.729522705078125,1.05255126953125e-06,0.69488525390625,0.15529740195416272
0.7244873046875,1.04522705078125e-06,0.689849853515625,0.1542167589715881
0.719451904296875,1.03851318359375e-06,0.684814453125,0.15322616957089466
0.71441650390625,1.03240966796875e-06,0.679779052734375,0.15232563375208247
0.709381103515625,1.026611328125e-06,0.67474365234375,0.15147012472421092
0.704345703125,1.0211181640625e-06,0.669708251953125,0.15065964248727992
0.699310302734375,1.01470947265625e-06,0.6646728515625,0.14971407987752713
0.69427490234375,1.00921630859375e-06,0.659637451171875,0.14890359764059616
0.689239501953125,1.00189208984375e-06,0.65460205078125,0.1478229546580215
0.6842041015625,9.94873046875e-07,0.649566650390625,0.14678733846638747
0.679168701171875,9.86328125000001e-07,0.64453125,0.14552658832005058
0.67413330078125,9.78698730468751e-07,0.639495849609375,0.14440091854653533
0.669097900390625,9.6893310546875e-07,0.63446044921875,0.14296006123643568
0.6640625,9.6038818359375e-07,0.629425048828125,0.1416993110900986
0.659027099609375,9.503173828125e-07,0.6243896484375,0.14021342698905848
0.65399169921875,9.4146728515625e-07,0.619354248046875,0.1389076500517808
0.648956298828125,9.326171875e-07,0.61431884765625,0.13760187311450311
0.6439208984375,9.2315673828125e-07,0.609283447265625,0.13620604259534422
0.638885498046875,9.136962890625e-07,0.604248046875,0.13481021207618532
0.63385009765625,9.063720703125e-07,0.599212646484375,0.1337295690936107
0.628814697265625,8.9752197265625e-07,0.59417724609375,0.13242379215633301
0.623779296875,8.89892578125e-07,0.589141845703125,0.13129812238281777
0.618743896484375,8.8226318359375e-07,0.5841064453125,0.13017245260930255
0.61370849609375,8.7554931640625e-07,0.579071044921875,0.1291818632086091
0.608673095703125,8.68530273437501e-07,0.57403564453125,0.12814624701697525
0.6036376953125,8.6212158203125e-07,0.569000244140625,0.1272006844072223
0.598602294921875,8.55102539062499e-07,0.56396484375,0.12616506821558812
0.59356689453125,8.502197265625e-07,0.558929443359375,0.1254446395605385
0.588531494140625,8.44421386718749e-07,0.55389404296875,0.12458913053266679
0.58349609375,8.38317871093749e-07,0.548858642578125,0.12368859471385459
0.578460693359375,8.33740234375001e-07,0.5438232421875,0.12301319284974574
0.57342529296875,8.28857421875e-07,0.538787841796875,0.12229276419469584
0.568389892578125,8.23974609375e-07,0.53375244140625,0.12157233553964608
0.5633544921875,8.1939697265625e-07,0.528717041015625,0.12089693367553693
0.558319091796875,8.16040039062499e-07,0.523681640625,0.12040163897519009
0.55328369140625,8.11767578125e-07,0.518646240234375,0.1197712639020217
0.548248291015625,8.08105468749999e-07,0.51361083984375,0.11923094241073424
0.543212890625,8.0413818359375e-07,0.508575439453125,0.11864559412850645
0.538177490234375,8.00170898437501e-07,0.5035400390625,0.11806024584627867
0.53314208984375,7.97424316406251e-07,0.498504638671875,0.11765500472781319
0.528106689453125,7.9345703125e-07,0.49346923828125,0.11706965644558512
0.5230712890625,7.9071044921875e-07,0.488433837890625,0.11666441532711963
0.518035888671875,7.86743164062501e-07,0.4833984375,0.11607906704489185
0.51300048828125,7.8399658203125e-07,0.478363037109375,0.11567382592642622
0.507965087890625,7.8094482421875e-07,0.47332763671875,0.11522355801702013
0.5029296875,7.7789306640625e-07,0.468292236328125,0.11477329010761401
0.497894287109375,7.75146484375e-07,0.4632568359375,0.11436804898914853
0.49285888671875,7.73010253906251e-07,0.458221435546875,0.11405286145256442
0.487823486328125,7.71179199218749e-07,0.45318603515625,0.11378270070692047
0.4827880859375,7.6904296875e-07,0.448150634765625,0.11346751317033635
0.477752685546875,7.6751708984375e-07,0.443115234375,0.1132423792156333
0.47271728515625,7.66906738281249e-07,0.438079833984375,0.11315232563375194
0.467681884765625,7.6568603515625e-07,0.43304443359375,0.11297221846998964
0.462646484375,7.65075683593749e-07,0.428009033203125,0.11288216488810827
0.457611083984375,7.6446533203125e-07,0.4229736328125,0.1127921113062272
0.45257568359375,7.64160156249999e-07,0.417938232421875,0.11274708451528645
0.447540283203125,7.6446533203125e-07,0.41290283203125,0.1127921113062272
0.4425048828125,7.6416015625e-07,0.407867431640625,0.11274708451528659
0.437469482421875,7.6416015625e-07,0.40283203125,0.11274708451528659
0.43243408203125,7.63549804687499e-07,0.397796630859375,0.11265703093340522
0.427398681640625,7.6263427734375e-07,0.39276123046875,0.11252195056058353
0.42236328125,7.611083984375e-07,0.387725830078125,0.11229681660588049
0.417327880859375,7.6019287109375e-07,0.3826904296875,0.11216173623305867
0.41229248046875,7.586669921875e-07,0.377655029296875,0.11193660227835561
0.407257080078125,7.56225585937499e-07,0.37261962890625,0.1115763879508306
0.4022216796875,7.5531005859375e-07,0.367584228515625,0.11144130757800892
0.397186279296875,7.53173828124999e-07,0.362548828125,0.11112612004142448
0.39215087890625,7.51342773437499e-07,0.357513427734375,0.11085595929578085
0.387115478515625,7.4920654296875e-07,0.35247802734375,0.11054077175919672
0.382080078125,7.476806640625e-07,0.347442626953125,0.11031563780449367
0.377044677734375,7.4615478515625e-07,0.3424072265625,0.11009050384979062
0.37200927734375,7.45544433593751e-07,0.337371826171875,0.11000045026790954
0.366973876953125,7.4432373046875e-07,0.33233642578125,0.10982034310414696
0.3619384765625,7.4493408203125e-07,0.327301025390625,0.10991039668602819
0.356903076171875,7.45239257812501e-07,0.322265625,0.10995542347696893
0.35186767578125,7.45239257812501e-07,0.317230224609375,0.10995542347696893
0.346832275390625,7.4615478515625e-07,0.31219482421875,0.11009050384979062
0.341796875,7.47070312500001e-07,0.307159423828125,0.1102255842226126
0.336761474609375,7.489013671875e-07,0.3021240234375,0.11049574496825611
0.33172607421875,7.51342773437501e-07,0.297088623046875,0.11085595929578114
0.326690673828125,7.53173828124999e-07,0.29205322265625,0.11112612004142448
0.3216552734375,7.56225585937501e-07,0.287017822265625,0.11157638795083089
0.316619873046875,7.5958251953125e-07,0.281982421875,0.11207168265117744
0.31158447265625,7.6263427734375e-07,0.276947021484375,0.11252195056058353
0.306549072265625,7.659912109375e-07,0.27191162109375,0.11301724526093025
0.301513671875,7.69958496093751e-07,0.266876220703125,0.11360259354315833
0.296478271484375,7.74536132812501e-07,0.2618408203125,0.11427799540726748
0.29144287109375,7.7880859375e-07,0.256805419921875,0.11490837048043585
0.286407470703125,7.83691406249999e-07,0.25177001953125,0.11562879913548546
0.2813720703125,7.9010009765625e-07,0.246734619140625,0.11657436174523841
0.276336669921875,7.965087890625e-07,0.24169921875,0.11751992435499123
0.27130126953125,8.01696777343751e-07,0.236663818359375,0.11828537980098172
0.266265869140625,8.0841064453125e-07,0.23162841796875,0.11927596920167499
0.26123046875,8.15734863281251e-07,0.226593017578125,0.12035661218424977
0.256195068359375,8.23364257812501e-07,0.2215576171875,0.121482281957765
0.25115966796875,8.32214355468751e-07,0.216522216796875,0.1227880588950427
0.246124267578125,8.4075927734375e-07,0.21148681640625,0.12404880904137962
0.2410888671875,8.50830078124999e-07,0.206451416015625,0.12553469314241958
0.236053466796875,8.6090087890625e-07,0.201416015625,0.12702057724345986
0.23101806640625,8.7188720703125e-07,0.196380615234375,0.1286415417173218
0.225982666015625,8.84094238281251e-07,0.19134521484375,0.13044261335494634
0.220947265625,8.9752197265625e-07,0.186309814453125,0.13242379215633301
0.215911865234375,9.1278076171875e-07,0.1812744140625,0.13467513170336348
0.21087646484375,9.2926025390625e-07,0.176239013671875,0.1371065784141564
0.205841064453125,9.4757080078125e-07,0.17120361328125,0.13980818587059302
0.2008056640625,9.68322753906251e-07,0.166168212890625,0.14287000765455463
0.195770263671875,9.918212890625e-07,0.1611328125,0.1463370705569814
0.19073486328125,1.0186767578125e-06,0.156097412109375,0.15029942815975506
0.185699462890625,1.04949951171875e-06,0.15106201171875,0.1548471340447566
0.1806640625,1.08489990234375e-06,0.146026611328125,0.16007024179386733
0.175628662109375,1.12640380859375e-06,0.1409912109375,0.16619388536179025
0.17059326171875,1.17340087890625e-06,0.135955810546875,0.17312801116664414
0.165557861328125,1.22802734375e-06,0.13092041015625,0.18118780674501325
0.1605224609375,1.2921142578125e-06,0.125885009765625,0.19064343284254132
0.155487060546875,1.36474609375e-06,0.120849609375,0.2013598090864064
