Potential - Start -0.2 V, Upper Vertex 1.5 V, Lower Vertex -0.2 V, Stop -0.19 V; Scan - # end cross 5, Rate 0.1 Vps, Step 0.01 V 
Scan	Index	Time (s)	Potential applied (V)	WE(1).Potential (V)	WE(1).Current (A)	WE(1).Power (W)	WE(1).Resistance (Ω)	WE(1).Charge (C)
1	1	67.5015968295749	-0.189971923828125	-0.189910888671875	-2.02026367187499E-07	3.83670055725815E-08	940030.25	0
1	2	67.6023048293206	-0.179901123046875	-0.1798095703125	-1.6632080078125E-07	2.99060722852573E-08	1081100.875	-1.85477535552536E-08
1	3	67.7030128290663	-0.169830322265625	-0.169708251953125	-1.39465332031249E-07	2.36684165599854E-08	1216849	-3.39453087860875E-08
1	4	67.8037208288121	-0.159759521484375	-0.15960693359375	-1.16882324218751E-07	1.86552284731079E-08	1365535.25	-4.68534366859785E-08
1	5	67.9044288285578	-0.149688720703125	-0.14959716796875	-9.67407226562494E-08	1.4472138154531E-08	1546372.25	-5.76102117122446E-08
1	6	68.0051368283035	-0.139617919921875	-0.1395263671875	-7.781982421875E-08	1.08579163438094E-08	1792941.25	-6.64000339156701E-08
1	7	68.1058448280493	-0.129547119140625	-0.12939453125	-5.92041015625003E-08	7.66068719570967E-09	2185567	-7.32997378349864E-08
1	8	68.206552827795	-0.119476318359375	-0.11932373046875	-4.05883789062506E-08	4.84315698656701E-09	2939849.75	-7.83246889568545E-08
1	9	68.3072608275407	-0.109405517578125	-0.10931396484375	-2.01416015624997E-08	2.20175810916601E-09	5427273	-8.13826801504547E-08
1	10	68.4079688272865	-0.099334716796875	-0.0992431640625	2.74658203125028E-09	-2.72579486759739E-10	-36133332	-8.22585946025356E-08
1	11	68.5086768270322	-0.089263916015625	-0.08917236328125	2.92968749999997E-08	-2.61247157240518E-09	-3043750	-8.06450728418895E-08
1	12	68.609384826778	-0.079193115234375	-0.0791015625	6.22558593750003E-08	-4.92453544609361E-09	-1270588.25	-7.60350289397138E-08
1	13	68.7100928265237	-0.069122314453125	-0.069091796875	1.04370117187499E-07	-7.21111881318848E-09	-661988.3125	-6.76447484693199E-08
1	14	68.8108008262694	-0.059051513671875	-0.058990478515625	1.59912109375E-07	-9.43329148128669E-09	-368893.125	-5.43370788363973E-08
1	15	68.9115088260152	-0.048980712890625	-0.048809814453125	2.33154296875E-07	-1.13802176571198E-08	-209345.546875	-3.45446125038507E-08
1	16	69.0122168257609	-0.038909912109375	-0.0387664794921875	3.30200195312499E-07	-1.28006991673146E-08	-117402.96875	-6.17746165332278E-09
1	17	69.1129248255066	-0.028839111328125	-0.0286834716796875	4.57763671875E-07	-1.31302515526954E-08	-62660.00390625	3.34996705930735E-08
1	18	69.2136328252524	-0.018768310546875	-0.0186309814453125	6.182861328125E-07	-1.1519277087757E-08	-30133.26953125	8.76830767992942E-08
1	19	69.3143408249981	-0.008697509765625	-0.0086181640625	8.12683105468751E-07	-7.00383617768807E-09	-10604.5810546875	1.59738107186058E-07
1	20	69.4150488247438	0.001373291015625	0.0014923095703125	1.03302001953125E-06	1.54158563692164E-09	1444.60864257813	2.52676642276128E-07
1	21	69.5157568244896	0.011444091796875	0.0115631103515625	1.2640380859375E-06	1.46162104641689E-08	9147.7548828125	3.68342682577349E-07
1	22	69.6164648242353	0.021514892578125	0.0216156005859375	1.48406982421875E-06	3.20790611851862E-08	14565.0830078125	5.06720937210048E-07
1	23	69.7171728239811	0.031585693359375	0.0316925048828125	1.6705322265625E-06	5.29433492602038E-08	18971.501953125	6.65567768010078E-07
1	24	69.8178808237268	0.041656494140625	0.041748046875	1.8072509765625E-06	7.5449193559507E-08	23100.3046875	8.40688016978675E-07
1	25	69.9185888234725	0.051727294921875	0.0517578125	1.88568115234375E-06	9.75987290985358E-08	27447.80859375	1.02664193946111E-06
1	26	70.0192968232183	0.061798095703125	0.0618896484375	1.91070556640625E-06	1.18252899028448E-07	32390.9921875	1.21780522022163E-06
1	27	70.120004822964	0.071868896484375	0.071929931640625	1.893310546875E-06	1.36185690280399E-07	37991.62109375	1.40935264880682E-06
1	28	70.2207128227097	0.081939697265625	0.08197021484375	1.84844970703125E-06	1.5151780985434E-07	44345.38671875	1.59776516284182E-06
1	29	70.3214208224555	0.092010498046875	0.092010498046875	1.7877197265625E-06	1.64488980658462E-07	51468.078125	1.78086088453711E-06
1	30	70.4221288222012	0.102081298828125	0.102203369140625	1.72088623046875E-06	1.75880373376458E-07	59389.96484375	1.95753318621428E-06
1	31	70.522836821947	0.112152099609375	0.1121826171875	1.654052734375E-06	1.85555961706996E-07	67822.8828125	2.12747477235098E-06
1	32	70.6235448216927	0.122222900390625	0.122344970703125	1.59027099609375E-06	1.94561650346259E-07	76933.4140625	2.29083957492549E-06
1	33	70.7242528214384	0.132293701171875	0.13226318359375	1.53167724609375E-06	2.02584502062564E-07	86351.8671875	2.44804209614813E-06
1	34	70.8249608211842	0.142364501953125	0.14239501953125	1.47857666015625E-06	2.10541955425469E-07	96305.46875	2.59962052950868E-06
1	35	70.9256688209299	0.152435302734375	0.152496337890625	1.43096923828125E-06	2.18217564906809E-07	106568.5703125	2.74612762041215E-06
1	36	71.0263768206756	0.162506103515625	0.16253662109375	1.387939453125E-06	2.25590980562629E-07	117106.421875	2.8880710942758E-06
1	37	71.1270848204214	0.172576904296875	0.172637939453125	1.35009765625E-06	2.33078068845316E-07	127870.7109375	3.02594207823859E-06
1	38	71.2277928201671	0.182647705078125	0.182708740234375	1.31622314453125E-06	2.4048546265476E-07	138812.890625	3.16020214086166E-06
1	39	71.3285008199128	0.192718505859375	0.192779541015625	1.2860107421875E-06	2.47916545959015E-07	149905.078125	3.29123486153549E-06
1	40	71.4292088196586	0.202789306640625	0.202880859375	1.25946044921875E-06	2.55520404834897E-07	161085.53125	3.41940949510899E-06
1	41	71.5299168194043	0.212860107421875	0.212982177734375	1.23504638671875E-06	2.6304286393497E-07	172448.71875	3.54501798938145E-06
1	42	71.6306248191501	0.222930908203125	0.22296142578125	1.21368408203125E-06	2.70604743946024E-07	183706.3125	3.66832136933226E-06
1	43	71.7313328188958	0.233001708984375	0.232940673828125	1.19384765625E-06	2.78095683370339E-07	195117.59375	3.78955019186833E-06
1	44	71.8320408186415	0.243072509765625	0.24310302734375	1.1761474609375E-06	2.85924983245422E-07	206694.359375	3.90888908441411E-06
1	45	71.9327488183873	0.253143310546875	0.253143310546875	1.16058349609375E-06	2.93793931405162E-07	218117.28125	4.02655268771923E-06
1	46	72.033456818133	0.263214111328125	0.263275146484375	1.1468505859375E-06	3.01937234326033E-07	229563.609375	4.14274109061807E-06
1	47	72.1341648178787	0.273284912109375	0.2733154296875	1.13311767578125E-06	3.0969852105045E-07	241206.578125	4.25754660682287E-06
1	48	72.2348728176245	0.283355712890625	0.283416748046875	1.1224365234375E-06	3.1811731560083E-07	252501.359375	4.37112294093822E-06
1	49	72.3355808173702	0.293426513671875	0.293426513671875	1.11114501953125E-06	3.26039412357204E-07	264075.8125	4.48359287474887E-06
1	50	72.436288817116	0.303497314453125	0.30352783203125	1.10198974609375E-06	3.34484553832226E-07	275436.1875	4.59503280580975E-06
1	51	72.5369968168617	0.313568115234375	0.313629150390625	1.09375E-06	3.4303189977436E-07	286746.65625	4.70559734822018E-06
1	52	72.6377048166074	0.323638916015625	0.32373046875	1.08642578125E-06	3.5170913292859E-07	297977.53125	4.81537790619768E-06
1	53	72.7384128163532	0.333709716796875	0.333770751953125	1.0791015625E-06	3.60172521141067E-07	309304.3125	4.92442086397205E-06
1	54	72.8391208160989	0.343780517578125	0.34381103515625	1.0736083984375E-06	3.69118396292833E-07	320238.78125	5.03281808050815E-06
1	55	72.9398288158446	0.353851318359375	0.35382080078125	1.0687255859375E-06	3.78137315237836E-07	331068	5.14069324708544E-06
1	56	73.0405368155904	0.363922119140625	0.363983154296875	1.0650634765625E-06	3.876651533119E-07	341747.875	5.24813822266879E-06
1	57	73.1412448153361	0.373992919921875	0.3740234375	1.06170654296875E-06	3.97103121940745E-07	352285.15625	5.35522940481314E-06
1	58	73.2419528150818	0.384063720703125	0.3841552734375	1.0601806640625E-06	4.07274001190672E-07	362348.875	5.46207502338802E-06
1	59	73.3426608148276	0.394134521484375	0.3941650390625	1.058349609375E-06	4.1716438659023E-07	372433.71875	5.56875147594837E-06
1	60	73.4433688145733	0.404205322265625	0.404296875	1.0577392578125E-06	4.27640685529695E-07	382227.34375	5.67530514672399E-06
1	61	73.5440768143191	0.414276123046875	0.414337158203125	1.05743408203125E-06	4.38134208025076E-07	391832.625	5.78181243326981E-06
1	62	73.6447848140648	0.424346923828125	0.424407958984375	1.05804443359375E-06	4.49042460104465E-07	401124.90625	5.88833518122556E-06
1	63	73.7454928138105	0.434417724609375	0.4344482421875	1.058349609375E-06	4.59798087604213E-07	410496	5.9949043134111E-06
1	64	73.8462008135563	0.444488525390625	0.4444580078125	1.0595703125E-06	4.70934509166909E-07	419470.0625	6.10154984315159E-06
1	65	73.946908813302	0.454559326171875	0.45452880859375	1.060791015625E-06	4.8216003278867E-07	428481.03125	6.20831860942417E-06
1	66	74.0476168130477	0.464630126953125	0.46453857421875	1.06231689453125E-06	4.93487164021644E-07	437288.15625	6.31522561889142E-06
1	67	74.1483248127935	0.474700927734375	0.4747314453125	1.06536865234375E-06	5.05764035096945E-07	445602.96875	6.42236318526557E-06
1	68	74.2490328125392	0.484771728515625	0.4847412109375	1.06903076171875E-06	5.18203250976512E-07	453439.90625	6.52983862892142E-06
1	69	74.3497408122849	0.494842529296875	0.494842529296875	1.07269287109375E-06	5.30814020294201E-07	461308.6875	6.63768287267885E-06
1	70	74.4504488120307	0.504913330078125	0.504913330078125	1.07696533203125E-06	5.43774149264209E-07	468829.71875	6.74592683935771E-06
1	71	74.5511568117764	0.514984130859375	0.514984130859375	1.082763671875E-06	5.57606085749285E-07	475620.0625	6.8546778493328E-06
1	72	74.6518648115222	0.525054931640625	0.5250244140625	1.0894775390625E-06	5.72002306853392E-07	481904.75	6.96405868438887E-06
1	73	74.7525728112679	0.535125732421875	0.535125732421875	1.097412109375E-06	5.87253452977166E-07	487625.125	7.07417757439543E-06
1	74	74.8532808110136	0.545196533203125	0.545166015625	1.1077880859375E-06	6.03928413056565E-07	492121.21875	7.18521823728224E-06
1	75	74.9539888107594	0.555267333984375	0.555267333984375	1.1212158203125E-06	6.22574475528381E-07	495236.84375	7.29745715943864E-06
1	76	75.0546968105051	0.565338134765625	0.5653076171875	1.138916015625E-06	6.43837893221644E-07	496355.84375	7.41126405046089E-06
1	77	75.1554048102508	0.575408935546875	0.575347900390625	1.163330078125E-06	6.6931949049831E-07	494569.8125	7.52719142838032E-06
1	78	75.2561128099966	0.585479736328125	0.58544921875	1.19781494140625E-06	7.01259750712779E-07	488764.375	7.64608466852224E-06
1	79	75.3568208097423	0.595550537109375	0.59552001953125	1.24542236328125E-06	7.41673943593923E-07	478167.125	7.76911110733636E-06
1	80	75.4575288094881	0.605621337890625	0.6055908203125	1.3134765625E-06	7.95429343725118E-07	461059.46875	7.89796195022063E-06
1	81	75.5582368092338	0.615692138671875	0.615753173828125	1.4093017578125E-06	8.67781977831328E-07	436920.75	8.0350646385341E-06
1	82	75.6589448089795	0.625762939453125	0.625762939453125	1.53900146484375E-06	9.63050069913152E-07	406603.21875	8.18352327769389E-06
1	83	75.7596528087253	0.635833740234375	0.635772705078125	1.70806884765625E-06	1.08594349512714E-06	372217.28125	8.34702677821042E-06
1	84	75.860360808471	0.645904541015625	0.6458740234375	1.91741943359375E-06	1.23841141430603E-06	336845.4375	8.52958419272909E-06
1	85	75.9610688082167	0.655975341796875	0.655914306640625	2.1612548828125E-06	1.41759790039941E-06	303487.71875	8.73496173880994E-06
1	86	76.0617768079625	0.666046142578125	0.665985107421875	2.42706298828125E-06	1.61638786266849E-06	274399.59375	8.96600249689072E-06
1	87	76.1624848077082	0.676116943359375	0.67608642578125	2.6922607421875E-06	1.82020096417546E-06	251122.1875	9.22378058021422E-06
1	88	76.2631928074539	0.686187744140625	0.68609619140625	2.930908203125E-06	2.0108848275413E-06	234089.96875	9.50692992773838E-06
1	89	76.3639008071997	0.696258544921875	0.696197509765625	3.12042236328125E-06	2.17243018596491E-06	223110.03125	9.81163793767337E-06
1	90	76.4646088069454	0.706329345703125	0.706298828125	3.2501220703125E-06	2.29555735131726E-06	217314.546875	1.01324203569675E-05
1	91	76.5653168066912	0.716400146484375	0.71624755859375	3.31512451171875E-06	2.37444965023315E-06	216054.515625	1.04630071291467E-05
1	92	76.6660248064369	0.726470947265625	0.726409912109375	3.3294677734375E-06	2.41855832427973E-06	218175.984375	1.07975893115508E-05
1	93	76.7667328061826	0.736541748046875	0.736419677734375	3.31024169921875E-06	2.43772706198797E-06	222467.046875	1.11319250208908E-05
1	94	76.8674408059284	0.746612548828125	0.746490478515625	3.2763671875E-06	2.44577677221969E-06	227840.90625	1.14635868158075E-05
1	95	76.9681488056741	0.756683349609375	0.75714111328125	3.24554443359375E-06	2.45733508563717E-06	233286.328125	1.17919917101972E-05
1	96	77.0688568054198	0.766754150390625	0.7666015625	3.233642578125E-06	2.47891534854716E-06	237070.59375	1.21182438306278E-05
1	97	77.1695648051656	0.776824951171875	0.77728271484375	3.253173828125E-06	2.52863560490368E-06	238930.59375	1.24448815768119E-05
1	98	77.2702728049113	0.786895751953125	0.78704833984375	3.3172607421875E-06	2.61084460362326E-06	237258.515625	1.27757293739705E-05
1	99	77.3709808046571	0.796966552734375	0.797119140625	3.43505859375E-06	2.73815089713025E-06	232054.015625	1.31157348732813E-05
1	100	77.4716888044028	0.807037353515625	0.80718994140625	3.612060546875E-06	2.9156187792978E-06	223470.765625	1.34705860546092E-05
1	101	77.5723968041485	0.817108154296875	0.81695556640625	3.84552001953125E-06	3.14161889036768E-06	212443.453125	1.38461045935401E-05
1	102	77.6731048038943	0.827178955078125	0.82733154296875	4.12506103515625E-06	3.41279314852727E-06	200562.265625	1.42474555104855E-05
1	103	77.77381280364	0.837249755859375	0.83740234375	4.42657470703125E-06	3.70682369066344E-06	189176.15625	1.46780648719869E-05
1	104	77.8745208033857	0.847320556640625	0.84716796875	4.72198486328125E-06	4.00031422032043E-06	179409.296875	1.51387312143925E-05
1	105	77.9752288031315	0.857391357421875	0.85723876953125	4.98046875E-06	4.26945052822703E-06	172120.109375	1.56272890308173E-05
1	106	78.0759368028772	0.867462158203125	0.86822509765625	5.1727294921875E-06	4.49109347755439E-06	167846.609375	1.6138543287525E-05
1	107	78.1766448026229	0.877532958984375	0.87738037109375	5.2825927734375E-06	4.63484320789576E-06	166088.96875	1.66650097526144E-05
1	108	78.2773528023687	0.887603759765625	0.8880615234375	5.316162109375E-06	4.72107876703376E-06	167049.375	1.71986994246254E-05
1	109	78.3780608021144	0.897674560546875	0.89752197265625	5.28564453125E-06	4.74398211736116E-06	169803.703125	1.77325437107356E-05
1	110	78.4787688018602	0.907745361328125	0.9075927734375	5.21240234375E-06	4.73073851026129E-06	174121.78125	1.82611620402895E-05
1	111	78.5794768016059	0.917816162109375	0.91766357421875	5.1177978515625E-06	4.69641645395313E-06	179308.296875	1.87813293450745E-05
1	112	78.6801848013516	0.927886962890625	0.927734375	5.023193359375E-06	4.66018900624476E-06	184690.15625	1.92919687833637E-05
1	113	78.7808928010974	0.937957763671875	0.93780517578125	4.94384765625E-06	4.63636615677387E-06	189691.359375	1.97938479686854E-05
1	114	78.8816008008431	0.948028564453125	0.9478759765625	4.88800048828125E-06	4.63321794086369E-06	193918.96875	2.02889204956591E-05
1	115	78.9823088005888	0.958099365234375	0.95855712890625	4.87030029296875E-06	4.66846086055739E-06	196816.859375	2.07802913791966E-05
1	116	79.0830168003346	0.968170166015625	0.968017578125	4.8944091796875E-06	4.73787395094405E-06	197780.28125	2.1271982404869E-05
1	117	79.1837248000803	0.978240966796875	0.97808837890625	4.9652099609375E-06	4.85641430714168E-06	196988.328125	2.1768453734694E-05
1	118	79.284432799826	0.988311767578125	0.98846435546875	5.072021484375E-06	5.01351223647362E-06	194885.6875	2.22738690354163E-05
1	119	79.3851407995718	0.998382568359375	0.99853515625	5.2032470703125E-06	5.19562490808312E-06	191906.15625	2.27912696573185E-05
1	120	79.4858487993175	1.00845336914063	1.0089111328125	5.340576171875E-06	5.38816675543785E-06	188914.28125	2.33221926464466E-05
1	121	79.5865567990633	1.01852416992188	1.0186767578125	5.4595947265625E-06	5.56156192033086E-06	186584.703125	2.38660250033718E-05
1	122	79.687264798809	1.02859497070313	1.02874755859375	5.5419921875E-06	5.70131078347913E-06	185627.765625	2.44199982262217E-05
1	123	79.7879727985547	1.03866577148438	1.03851318359375	5.5755615234375E-06	5.79029392611119E-06	186261.640625	2.49798122240463E-05
1	124	79.8886807983005	1.04873657226563	1.048583984375	5.5633544921875E-06	5.83364453632385E-06	188480.53125	2.55407012446085E-05
1	125	79.9893887980462	1.05880737304688	1.0589599609375	5.5084228515625E-06	5.83319933866733E-06	192243.765625	2.60982087638695E-05
1	126	80.0900967977919	1.06887817382813	1.0693359375	5.426025390625E-06	5.80224377699778E-06	197075.359375	2.66488023044076E-05
1	127	80.1908047975377	1.07894897460938	1.0784912109375	5.328369140625E-06	5.74659907215391E-06	202405.515625	2.71903300017584E-05
1	128	80.2915127972834	1.08901977539063	1.0888671875	5.2276611328125E-06	5.69222856938723E-06	208289.5625	2.7721867809305E-05
1	129	80.3922207970292	1.09909057617188	1.0992431640625	5.1239013671875E-06	5.63241337658837E-06	214532.46875	2.82431101368275E-05
1	130	80.4929287967749	1.10916137695313	1.10931396484375	5.0262451171875E-06	5.57568409931264E-06	220704.3125	2.87542115984252E-05
1	131	80.5936367965206	1.11923217773438	1.11907958984375	4.93560791015625E-06	5.52333767700475E-06	226735.9375	2.92558306682622E-05
1	132	80.6943447962664	1.12930297851563	1.12945556640625	4.85321044921875E-06	5.48148500456591E-06	232723.40625	2.97487367788563E-05
1	133	80.7950527960121	1.13937377929688	1.13983154296875	4.77874755859375E-06	5.44696740689687E-06	238520.984375	3.02337430184707E-05
1	134	80.8957607957578	1.14944458007813	1.14898681640625	4.7119140625E-06	5.41392682862352E-06	243847.171875	3.07116351905279E-05
1	135	80.9964687955036	1.15951538085938	1.15966796875	4.6514892578125E-06	5.39418306289008E-06	249311.109375	3.11831208819058E-05
1	136	81.0971767952493	1.16958618164063	1.16973876953125	4.59716796875E-06	5.37748564966023E-06	254447.703125	3.1648829462938E-05
1	137	81.197884794995	1.17965698242188	1.1798095703125	4.54803466796875E-06	5.36581501364708E-06	259410.859375	3.21093248203397E-05
1	138	81.2985927947408	1.18972778320313	1.1895751953125	4.50347900390625E-06	5.35722710992559E-06	264145.84375	3.25651053572074E-05
1	139	81.3993007944865	1.19979858398438	1.19964599609375	4.464111328125E-06	5.35535309609259E-06	268731.21875	3.30166585627012E-05
1	140	81.5000087942323	1.20986938476563	1.21002197265625	4.42901611328125E-06	5.359206625144E-06	273203.34375	3.34644646500237E-05
1	141	81.600716793978	1.21994018554688	1.2200927734375	4.39697265625E-06	5.36471452505793E-06	277484.71875	3.39088874170557E-05
1	142	81.7014247937237	1.23001098632813	1.2298583984375	4.368896484375E-06	5.37312416781788E-06	281503.21875	3.43502833857201E-05
1	143	81.8021327934695	1.24008178710938	1.240234375	4.3438720703125E-06	5.38741915079299E-06	285513.59375	3.47890054399613E-05
1	144	81.9028407932152	1.25015258789063	1.25	4.3212890625E-06	5.40161136086681E-06	289265.53125	3.52253337041475E-05
1	145	82.0035487929609	1.26022338867188	1.26007080078125	4.302978515625E-06	5.42205771125737E-06	292836.875	3.565959923435E-05
1	146	82.1042567927067	1.27029418945313	1.2701416015625	4.287109375E-06	5.4452357289847E-06	296269.9375	3.60921440005768E-05
1	147	82.2049647924524	1.28036499023438	1.28082275390625	4.27398681640625E-06	5.4742195061408E-06	299678.6875	3.65232299373019E-05
1	148	82.3056727921982	1.29043579101563	1.290283203125	4.26422119140625E-06	5.50205277249916E-06	302583.5625	3.69531626347452E-05
1	149	82.4063807919439	1.30050659179688	1.30035400390625	4.25689697265625E-06	5.53547261006315E-06	305469.9375	3.73822367691901E-05
1	150	82.5070887916896	1.31057739257813	1.31072998046875	4.2529296875E-06	5.57444218429737E-06	308194.625	3.78107397409622E-05
1	151	82.6077967914354	1.32064819335938	1.32080078125	4.2510986328125E-06	5.61485467187595E-06	310696.34375	3.82389516744297E-05
1	152	82.7085047911811	1.33071899414063	1.33056640625	4.251708984375E-06	5.65718119105441E-06	312948.59375	3.86671017622575E-05
1	153	82.8092127909268	1.34078979492188	1.3409423828125	4.25506591796875E-06	5.70579823033768E-06	315140.21875	3.90954519389197E-05
1	154	82.9099207906726	1.35086059570313	1.35040283203125	4.2596435546875E-06	5.75223475607345E-06	317022.5	3.95242022932507E-05
1	155	83.0106287904183	1.36093139648438	1.36077880859375	4.2657470703125E-06	5.8047380662174E-06	319001.28125	3.99534874304663E-05
1	156	83.111336790164	1.37100219726563	1.37054443359375	4.27337646484375E-06	5.85685211262899E-06	320717	4.03834674216341E-05
1	157	83.2120447899098	1.38107299804688	1.38092041015625	4.28131103515625E-06	5.91214939049678E-06	322546.1875	4.08142295782454E-05
1	158	83.3127527896555	1.39114379882813	1.39129638671875	4.29107666015625E-06	5.97015923631261E-06	324230.15625	4.12458830396645E-05
1	159	83.4134607894013	1.40121459960938	1.40106201171875	4.30145263671875E-06	6.02660156800994E-06	325718.34375	4.16785514971707E-05
1	160	83.514168789147	1.41128540039063	1.4117431640625	4.315185546875E-06	6.09193330092239E-06	327157	4.21124350395985E-05
1	161	83.6148767888927	1.42135620117188	1.4215087890625	4.33197021484375E-06	6.15793351244065E-06	328143.71875	4.25478538090829E-05
1	162	83.7155847886385	1.43142700195313	1.4312744140625	4.3560791015625E-06	6.23474443273153E-06	328569.4375	4.29853316745721E-05
1	163	83.8162927883842	1.44149780273438	1.44195556640625	4.38720703125E-06	6.32615729045938E-06	328672.8125	4.34255925938487E-05
1	164	83.9170007881299	1.45156860351563	1.451416015625	4.43115234375E-06	6.43144539935747E-06	327548.21875	4.38696297351271E-05
1	165	84.0177087878757	1.46163940429688	1.4617919921875	4.48974609375E-06	6.56307474855566E-06	325584.5625	4.43188328063115E-05
1	166	84.1184167876214	1.47171020507813	1.47216796875	4.5654296875E-06	6.72107944410527E-06	322459.90625	4.47747988800984E-05
1	167	84.2191247873672	1.48178100585938	1.48223876953125	4.65911865234375E-06	6.9059260567883E-06	318137.15625	4.52392923762091E-05
1	168	84.3198327871129	1.49185180664063	1.49139404296875	4.769287109375E-06	7.11288612365024E-06	312707.96875	4.57140486105345E-05
1	169	84.4205407868586	1.50192260742188	1.50177001953125	4.89349365234375E-06	7.34890181774972E-06	306891.1875	4.62006064481102E-05
1	170	84.5212487866044	1.49185180664063	1.49200439453125	4.54498291015625E-06	6.78113428875804E-06	328275.03125	4.66758719994687E-05
1	171	84.6219567863501	1.48178100585938	1.48223876953125	4.28680419921875E-06	6.35406740912003E-06	345767.78125	4.7120589442784E-05
1	172	84.7226647860958	1.47171020507813	1.4715576171875	4.08172607421875E-06	6.00649491389049E-06	360523.375	4.75419765280094E-05
1	173	84.8233727858416	1.46163940429688	1.46270751953125	3.91265869140625E-06	5.72307499169256E-06	373839.8125	4.79445261589717E-05
1	174	84.9240807855873	1.45156860351563	1.451416015625	3.77166748046875E-06	5.47425861441297E-06	384820.78125	4.83314652228728E-05
1	175	85.024788785333	1.44149780273438	1.441650390625	3.65203857421875E-06	5.26496251040953E-06	394752.25	4.87052784592379E-05
1	176	85.1254967850788	1.43142700195313	1.4312744140625	3.5504150390625E-06	5.08161792822648E-06	403128.78125	4.90679485665169E-05
1	177	85.2262047848245	1.42135620117188	1.42181396484375	3.4619140625E-06	4.92219760417356E-06	410701.6875	4.94210471515544E-05
1	178	85.3269127845703	1.41128540039063	1.4111328125	3.385009765625E-06	4.77669800602598E-06	416877.03125	4.97658184031025E-05
1	179	85.427620784316	1.40121459960938	1.40167236328125	3.31817626953125E-06	4.65099583379924E-06	422422.53125	5.01033500768244E-05
1	180	85.5283287840617	1.39114379882813	1.39129638671875	3.25927734375E-06	4.53462052973919E-06	426872.65625	5.04345516674221E-05
1	181	85.6290367838075	1.38107299804688	1.38092041015625	3.20709228515625E-06	4.42873897554819E-06	430583.3125	5.07601580466144E-05
1	182	85.7297447835532	1.37100219726563	1.370849609375	3.1597900390625E-06	4.33159675594652E-06	433842	5.10807585669681E-05
1	183	85.8304527832989	1.36093139648438	1.36016845703125	3.1170654296875E-06	4.2397336983413E-06	436361.875	5.13968225277495E-05
1	184	85.9311607830447	1.35086059570313	1.351318359375	3.07891845703125E-06	4.16059901908739E-06	438893.875	5.17088155902456E-05
1	185	86.0318687827904	1.34078979492188	1.34063720703125	3.0438232421875E-06	4.08066262025386E-06	440445.15625	5.20171197422314E-05
1	186	86.1325767825361	1.33071899414063	1.33056640625	3.01116943359375E-06	4.00656062993221E-06	441876.96875	5.23220114700962E-05
1	187	86.2332847822819	1.32064819335938	1.32080078125	2.98126220703125E-06	3.93765367334709E-06	443034.09375	5.26237563462928E-05
1	188	86.3339927820276	1.31057739257813	1.31072998046875	2.95318603515625E-06	3.87082945962902E-06	443835.90625	5.29225799255073E-05
1	189	86.4347007817734	1.30050659179688	1.300048828125	2.92724609375E-06	3.80556275558774E-06	444120.125	5.32186822965741E-05
1	190	86.5354087815191	1.29043579101563	1.29058837890625	2.9022216796875E-06	3.74557362192718E-06	444689.8125	5.35122198925819E-05
1	191	86.6361167812648	1.28036499023438	1.280517578125	2.8790283203125E-06	3.68664632333093E-06	444774.25	5.38033273187466E-05
1	192	86.7368247810106	1.27029418945313	1.27044677734375	2.857666015625E-06	3.63051253771118E-06	444574.96875	5.40921937499661E-05
1	193	86.8375327807563	1.26022338867188	1.26007080078125	2.8369140625E-06	3.57471253664698E-06	444169.53125	5.43789392395411E-05
1	194	86.938240780502	1.25015258789063	1.2506103515625	2.81768798828125E-06	3.52382971868792E-06	443842.71875	5.46636692888569E-05
1	195	87.0389487802478	1.24008178710938	1.240234375	2.79876708984375E-06	3.47112722920428E-06	443135.96875	5.49464821233414E-05
1	196	87.1396567799935	1.23001098632813	1.22955322265625	2.7801513671875E-06	3.41834402206587E-06	442261.25	5.52274032088462E-05
1	197	87.2403647797393	1.21994018554688	1.219482421875	2.7630615234375E-06	3.36950483870169E-06	441351.90625	5.55065234948415E-05
1	198	87.341072779485	1.20986938476563	1.21002197265625	2.7459716796875E-06	3.3226860978175E-06	440653.5	5.57839266548399E-05
1	199	87.4417807792307	1.19979858398438	1.19964599609375	2.7301025390625E-06	3.27515658682387E-06	439414.25	5.60596672585234E-05
1	200	87.5424887789765	1.18972778320313	1.18988037109375	2.7142333984375E-06	3.22961295751156E-06	438385.46875	5.63338144274894E-05
1	201	87.6431967787222	1.17965698242188	1.18011474609375	2.69775390625E-06	3.18365914608876E-06	437443.4375	5.6606328143971E-05
1	202	87.7439047784679	1.16958618164063	1.16943359375	2.6812744140625E-06	3.13557211484294E-06	436148.4375	5.68771829421166E-05
1	203	87.8446127782137	1.15951538085938	1.15997314453125	2.66510009765625E-06	3.0914445687813E-06	435245.625	5.71463933738414E-05
1	204	87.9453207779594	1.14944458007813	1.14959716796875	2.64739990234375E-06	3.0434434847848E-06	434236.3125	5.74139012314845E-05
1	205	88.0460287777051	1.13937377929688	1.1395263671875	2.62786865234375E-06	2.99452540275524E-06	433631.4375	5.76795318920631E-05
1	206	88.1467367774509	1.12930297851563	1.1297607421875	2.60650634765625E-06	2.9447285214701E-06	433438.71875	5.79431034566369E-05
1	207	88.2474447771966	1.11923217773438	1.119384765625	2.58087158203125E-06	2.88898831968254E-06	433723.5625	5.82043066970073E-05
1	208	88.3481527769424	1.10916137695313	1.10931396484375	2.55126953125E-06	2.83015879176673E-06	434808.625	5.8462730521569E-05
1	209	88.4488607766881	1.09909057617188	1.0992431640625	2.513427734375E-06	2.76286823464034E-06	437348.21875	5.87177601119038E-05
1	210	88.5495687764338	1.08901977539063	1.0888671875	2.46429443359375E-06	2.68328926722461E-06	441857.59375	5.89684095757548E-05
1	211	88.6502767761796	1.07894897460938	1.0791015625	2.4005126953125E-06	2.59039688899065E-06	449529.65625	5.92133692407515E-05
1	212	88.7509847759253	1.06887817382813	1.06903076171875	2.31536865234375E-06	2.47520029006409E-06	461710.8125	5.94508346694056E-05
1	213	88.851692775671	1.05880737304688	1.0589599609375	2.20489501953125E-06	2.33489549827937E-06	480276.8125	5.96784484514501E-05
1	214	88.9524007754168	1.04873657226563	1.04888916015625	2.06207275390625E-06	2.16288572119083E-06	508657.6875	5.98933074797969E-05
1	215	89.0531087751625	1.03866577148438	1.03851318359375	1.8865966796875E-06	1.95925531443208E-06	550469.125	6.00921375735197E-05
1	216	89.1538167749083	1.02859497070313	1.02874755859375	1.67999267578125E-06	1.72828822542215E-06	612352.4375	6.02717300353106E-05
1	217	89.254524774654	1.01852416992188	1.0186767578125	1.45263671875E-06	1.47976720654697E-06	701260.5625	6.04294691584073E-05
1	218	89.3552327743997	1.00845336914063	1.00830078125	1.22161865234375E-06	1.23175902899675E-06	825381	6.05641289439518E-05
1	219	89.4559407741455	0.998382568359375	0.99884033203125	1.0089111328125E-06	1.00774116162938E-06	990018.1875	6.06764442636631E-05
1	220	89.5566487738912	0.988311767578125	0.9881591796875	8.34045410156251E-07	8.24169603674818E-07	1184778.625	6.07692454650532E-05
1	221	89.6573567736369	0.978240966796875	0.9783935546875	7.110595703125E-07	6.9569608740494E-07	1375965.75	6.08470472798217E-05
1	222	89.7580647733827	0.968170166015625	0.968017578125	6.4056396484375E-07	6.20077173607569E-07	1511195.875	6.09151065873448E-05
1	223	89.8587727731284	0.958099365234375	0.958251953125	6.1798095703125E-07	5.92181436331884E-07	1550617.25	6.09784801781643E-05
1	224	89.9594807728741	0.948028564453125	0.9478759765625	6.2744140625E-07	5.94736661696516E-07	1510700.375	6.10411952948198E-05
1	225	90.0601887726199	0.937957763671875	0.9381103515625	6.4971923828125E-07	6.09508276738779E-07	1443870.5	6.11055002082139E-05
1	226	90.1608967723656	0.927886962890625	0.92803955078125	6.64672851562501E-07	6.16842669387552E-07	1396235.125	6.11716895946302E-05
1	227	90.2616047721114	0.917816162109375	0.91766357421875	6.57958984375E-07	6.03784997110779E-07	1394712.375	6.12382864346728E-05
1	228	90.3623127718571	0.907745361328125	0.9075927734375	6.146240234375E-07	5.57828286673612E-07	1476663.375	6.13023657933809E-05
1	229	90.4630207716028	0.897674560546875	0.8978271484375	5.2337646484375E-07	4.6990157898108E-07	1715451.875	6.13596712355502E-05
1	230	90.5637287713486	0.887603759765625	0.88775634765625	3.7689208984375E-07	3.34588321493356E-07	2355465.75	6.14050004514866E-05
1	231	90.6644367710943	0.877532958984375	0.877685546875	1.708984375E-07	1.49995088349897E-07	5135714.5	6.14325836068019E-05
1	232	90.76514477084	0.867462158203125	0.86761474609375	-9.39941406250006E-08	-8.15507021911799E-08	-9230520	6.14364544162527E-05
1	233	90.8658527705858	0.857391357421875	0.8575439453125	-4.0252685546875E-07	-3.45184446359781E-07	-2130402	6.14114542258903E-05
1	234	90.9665607703315	0.847320556640625	0.84747314453125	-7.305908203125E-07	-6.19156082848349E-07	-1159983.375	6.13543961662799E-05
1	235	91.0672687700772	0.837249755859375	0.83770751953125	-1.05010986328125E-06	-8.79684932897362E-07	-797733.25	6.12647345406003E-05
1	236	91.167976769823	0.827178955078125	0.82794189453125	-1.32537841796875E-06	-1.0973362805089E-06	-624683.375	6.11451177974232E-05
1	237	91.2686847695687	0.817108154296875	0.81756591796875	-1.5338134765625E-06	-1.25399367334467E-06	-533028.25	6.10011447861325E-05
1	238	91.3693927693145	0.807037353515625	0.8074951171875	-1.656494140625E-06	-1.3376109109231E-06	-487472.375	6.08405025559478E-05
1	239	91.4701007690602	0.796966552734375	0.797119140625	-1.7010498046875E-06	-1.35593927552691E-06	-468604.25	6.06714347668458E-05
1	240	91.5708087688059	0.786895751953125	0.78704833984375	-1.67938232421875E-06	-1.32175500766607E-06	-468653.46875	6.05012173764408E-05
1	241	91.6715167685517	0.776824951171875	0.7769775390625	-1.61590576171875E-06	-1.25552242025151E-06	-480831	6.03352855250705E-05
1	242	91.7722247682974	0.766754150390625	0.76690673828125	-1.53228759765625E-06	-1.17512161068589E-06	-500497.90625	6.01767642365303E-05
1	243	91.8729327680431	0.756683349609375	0.75714111328125	-1.44989013671875E-06	-1.09777136003686E-06	-522205.875	6.002659938531E-05
1	244	91.9736407677889	0.746612548828125	0.746551513671875	-1.38458251953125E-06	-1.03366210169042E-06	-539188.9375	5.98838705627713E-05
1	245	92.0743487675346	0.736541748046875	0.73651123046875	-1.3482666015625E-06	-9.93013486549899E-07	-546265.3125	5.97462603764143E-05
1	246	92.1750567672804	0.726470947265625	0.726470947265625	-1.351318359375E-06	-9.81693574431119E-07	-537601.625	5.96103272982873E-05
1	247	92.2757647670261	0.716400146484375	0.716339111328125	-1.4007568359375E-06	-1.00341685538297E-06	-511394.34375	5.94717494095676E-05
1	248	92.3764727667718	0.706329345703125	0.70623779296875	-1.4990234375E-06	-1.05866695321311E-06	-471131.9375	5.93257318541873E-05
1	249	92.4771807665176	0.696258544921875	0.696197509765625	-1.64398193359375E-06	-1.14453609967313E-06	-423482.46875	5.91674688621424E-05
1	250	92.5778887662633	0.686187744140625	0.686187744140625	-1.81976318359375E-06	-1.24869916362513E-06	-377075.3125	5.89930568821728E-05
1	251	92.678596766009	0.676116943359375	0.676055908203125	-2.00836181640625E-06	-1.3577647450802E-06	-336620.59375	5.88002949371003E-05
1	252	92.7793047657548	0.666046142578125	0.665985107421875	-2.18170166015625E-06	-1.45298076859035E-06	-305259.5	5.8589310356183E-05
1	253	92.8800127655005	0.655975341796875	0.65594482421875	-2.315673828125E-06	-1.51895426370174E-06	-283263.0625	5.83628461754415E-05
1	254	92.9807207652462	0.645904541015625	0.6458740234375	-2.391357421875E-06	-1.54451561229507E-06	-270086.78125	5.81258282181807E-05
1	255	93.081428764992	0.635833740234375	0.635833740234375	-2.4053955078125E-06	-1.52943152897933E-06	-264336.46875	5.78842955292203E-05
1	256	93.1821367647377	0.625762939453125	0.625732421875	-2.3651123046875E-06	-1.47992750498815E-06	-264567.75	5.7644079788588E-05
1	257	93.2828447644835	0.615692138671875	0.615631103515625	-2.2833251953125E-06	-1.40568590722978E-06	-269620.4375	5.74100122321397E-05
1	258	93.3835527642292	0.605621337890625	0.6055908203125	-2.177734375E-06	-1.31881597553729E-06	-278082.96875	5.7185381592717E-05
1	259	93.4842607639749	0.595550537109375	0.595550537109375	-2.06085205078125E-06	-1.2273414995434E-06	-288982.6875	5.69719522900414E-05
1	260	93.5849687637207	0.585479736328125	0.58551025390625	-1.9415283203125E-06	-1.1367847037036E-06	-301571.8125	5.67704155400861E-05
1	261	93.6856767634664	0.575408935546875	0.575408935546875	-1.82647705078125E-06	-1.05097126379405E-06	-315037.59375	5.6580680393381E-05
1	262	93.7863847632121	0.565338134765625	0.565399169921875	-1.71875E-06	-9.71779741121281E-07	-328959.53125	5.64021647733171E-05
1	263	93.8870927629579	0.555267333984375	0.55523681640625	-1.6192626953125E-06	-8.99074223070784E-07	-342894.84375	5.62340828764718E-05
1	264	93.9878007627036	0.545196533203125	0.54522705078125	-1.52862548828125E-06	-8.33447984405211E-07	-356677.96875	5.6075572501868E-05
1	265	94.0885087624494	0.535125732421875	0.53509521484375	-1.44500732421875E-06	-7.73216527250042E-07	-370306.21875	5.59258405701257E-05
1	266	94.1892167621951	0.525054931640625	0.5250244140625	-1.36993408203125E-06	-7.19248816949403E-07	-383247.96875	5.5784094001865E-05
1	267	94.2899247619408	0.514984130859375	0.51495361328125	-1.30096435546875E-06	-6.6993624159295E-07	-395824.5625	5.56496052013244E-05
1	268	94.3906327616866	0.504913330078125	0.504913330078125	-1.239013671875E-06	-6.25594509529037E-07	-407512.34375	5.55217084183823E-05
1	269	94.4913407614323	0.494842529296875	0.494873046875	-1.181640625E-06	-5.84762119615334E-07	-418801.65625	5.53998179384507E-05
1	270	94.592048761178	0.484771728515625	0.48480224609375	-1.129150390625E-06	-5.47414629181731E-07	-429351.34375	5.52834608242847E-05
1	271	94.6927567609238	0.474700927734375	0.474700927734375	-1.080322265625E-06	-5.12829956278438E-07	-439406.78125	5.51722041564062E-05
1	272	94.7934647606695	0.464630126953125	0.46466064453125	-1.0357666015625E-06	-4.81279982977867E-07	-448615.21875	5.50656513951253E-05
1	273	94.8941727604152	0.454559326171875	0.454559326171875	-9.94262695312501E-07	-4.51951365221248E-07	-457182.34375	5.49634314666037E-05
1	274	94.994880760161	0.444488525390625	0.444488525390625	-9.5550537109375E-07	-4.24711174673575E-07	-465186.84375	5.48652533325367E-05
1	275	95.0955887599067	0.434417724609375	0.4344482421875	-9.197998046875E-07	-3.99605397660707E-07	-472329.125	5.4770822316641E-05
1	276	95.1962967596525	0.424346923828125	0.42431640625	-8.8653564453125E-07	-3.76171612970211E-07	-478623.0625	5.46798655705061E-05
1	277	95.2970047593982	0.414276123046875	0.414276123046875	-8.5479736328125E-07	-3.54122136059232E-07	-484648.34375	5.45921830052976E-05
1	278	95.3977127591439	0.404205322265625	0.404205322265625	-8.2550048828125E-07	-3.33671692942517E-07	-489648.8125	5.4507574532181E-05
1	279	95.4984207588897	0.394134521484375	0.394134521484375	-7.9803466796875E-07	-3.14532996981143E-07	-493881.46875	5.44258218724281E-05
1	280	95.5991287586354	0.384063720703125	0.38409423828125	-7.720947265625E-07	-2.96557146839405E-07	-497470.34375	5.43467613169923E-05
1	281	95.6998367583811	0.373992919921875	0.373992919921875	-7.47070312500001E-07	-2.79399017699689E-07	-500612.75	5.42702655366156E-05
1	282	95.8005447581269	0.363922119140625	0.363983154296875	-7.2357177734375E-07	-2.63367923025726E-07	-503036.71875	5.41962108400185E-05
1	283	95.9012527578726	0.353851318359375	0.3538818359375	-7.00988769531249E-07	-2.48067209440705E-07	-504832.375	5.41244771739002E-05
1	284	96.0019607576183	0.343780517578125	0.343780517578125	-6.8023681640625E-07	-2.33852148312508E-07	-505383.59375	5.40549299330451E-05
1	285	96.1026687573641	0.333709716796875	0.33367919921875	-6.59790039062499E-07	-2.20158213437571E-07	-505735.4375	5.39874527021311E-05
1	286	96.2033767571098	0.323638916015625	0.32366943359375	-6.40258789062501E-07	-2.0723219051888E-07	-505529.09375	5.39219909114763E-05
1	287	96.3040847568556	0.313568115234375	0.313690185546875	-6.21948242187501E-07	-1.95099062239024E-07	-504367.03125	5.38584317837376E-05
1	288	96.4047927566013	0.303497314453125	0.30352783203125	-6.0455322265625E-07	-1.83498713113295E-07	-502069.6875	5.37966734555084E-05
1	289	96.505500756347	0.293426513671875	0.293426513671875	-5.88073730468749E-07	-1.72556411826008E-07	-498962.125	5.37366213393398E-05
1	290	96.6062087560928	0.283355712890625	0.28338623046875	-5.72509765625E-07	-1.6224137766585E-07	-494989.34375	5.36781808477826E-05
1	291	96.7069167558385	0.273284912109375	0.273284912109375	-5.57861328125001E-07	-1.52455086777081E-07	-489879.65625	5.36212610313669E-05
1	292	96.8076247555842	0.263214111328125	0.26324462890625	-5.43823242187499E-07	-1.43158544574362E-07	-484062.875	5.35657854925375E-05
1	293	96.90833275533	0.253143310546875	0.253173828125	-5.31005859375E-07	-1.34436788812309E-07	-476781.59375	5.35116669198032E-05
1	294	97.0090407550757	0.243072509765625	0.24310302734375	-5.18798828125E-07	-1.26121562971093E-07	-468588.25	5.34588034497574E-05
1	295	97.1097487548215	0.233001708984375	0.233001708984375	-5.078125E-07	-1.18321182185355E-07	-458834.125	5.34071077709086E-05
1	296	97.2104567545672	0.222930908203125	0.222930908203125	-4.974365234375E-07	-1.10893978444437E-07	-448159.5	5.33564925717656E-05
1	297	97.3111647543129	0.212860107421875	0.212921142578125	-4.88891601562499E-07	-1.0409535633471E-07	-435518.09375	5.33068268850911E-05
1	298	97.4118727540587	0.202789306640625	0.20281982421875	-4.80041503906251E-07	-9.73619265209891E-08	-422504.78125	5.32580343133304E-05
1	299	97.5125807538044	0.192718505859375	0.192779541015625	-4.72412109375001E-07	-9.10713850998945E-08	-408074.9375	5.32100748387165E-05
1	300	97.6132887535501	0.182647705078125	0.182708740234375	-4.66308593750001E-07	-8.51986570182817E-08	-391819.375	5.3162806580076E-05
1	301	97.7139967532959	0.172576904296875	0.172607421875	-4.620361328125E-07	-7.97508619143628E-08	-373579.9375	5.31160621903837E-05
1	302	97.8147047530416	0.162506103515625	0.162506103515625	-4.5928955078125E-07	-7.46373558513369E-08	-353820.59375	5.30696706846356E-05
1	303	97.9154127527873	0.152435302734375	0.15252685546875	-4.58679199218751E-07	-6.99608904142224E-08	-332534.9375	5.30234465259127E-05
1	304	98.0161207525331	0.142364501953125	0.14239501953125	-4.61730957031251E-07	-6.57481820098837E-08	-308393.9375	5.29770986759104E-05
1	305	98.1168287522788	0.132293701171875	0.132354736328125	-4.69055175781249E-07	-6.20816678065239E-08	-282173.09375	5.29302305949386E-05
1	306	98.2175367520246	0.122222900390625	0.122314453125	-4.82177734375E-07	-5.89773030412744E-08	-253670.890625	5.28823329659645E-05
1	307	98.3182447517703	0.112152099609375	0.112213134765625	-5.02929687500001E-07	-5.64353115350968E-08	-223118.953125	5.28327291249298E-05
1	308	98.418952751516	0.102081298828125	0.10223388671875	-5.3436279296875E-07	-5.4629982315646E-08	-191319.265625	5.27804950252175E-05
1	309	98.5196607512618	0.092010498046875	0.092041015625	-5.7952880859375E-07	-5.3340418304515E-08	-158820.4375	5.27244083059486E-05
1	310	98.6203687510075	0.081939697265625	0.08197021484375	-6.4422607421875E-07	-5.28073513805793E-08	-127238.2734375	5.26627882209141E-05
1	311	98.7210767507532	0.071868896484375	0.07196044921875	-7.33032226562499E-07	-5.27493284607772E-08	-98168.1953125	5.25934374309145E-05
1	312	98.821784750499	0.061798095703125	0.0618896484375	-8.50830078125001E-07	-5.26575760773085E-08	-72740.3125	5.25136820215266E-05
1	313	98.9224927502447	0.051727294921875	0.051727294921875	-1.00189208984375E-06	-5.18251681569382E-08	-51629.60546875	5.24203896929976E-05
1	314	99.0232007499905	0.041656494140625	0.0417449951171875	-1.18560791015625E-06	-4.94931953198829E-08	-35209.78515625	5.23102426086552E-05
1	315	99.1239087497362	0.031585693359375	0.0316558837890625	-1.39373779296875E-06	-4.41200036505052E-08	-22712.94140625	5.21803594892845E-05
1	316	99.2246167494819	0.021514892578125	0.0216278076171875	-1.60980224609375E-06	-3.48164945762619E-08	-13435.0712890625	5.2029121434316E-05
1	317	99.3253247492277	0.011444091796875	0.0115631103515625	-1.81243896484375E-06	-2.09574295695347E-08	-6379.8623046875	5.18567976541817E-05
1	318	99.4260327489734	0.001373291015625	0.00146484375	-1.9805908203125E-06	-2.90125590218793E-09	-739.599426269531	5.16658037668094E-05
1	319	99.5267407487191	-0.008697509765625	-0.008587646484375	-2.09686279296875E-06	1.80071157984685E-08	4095.4736328125	5.14604871568736E-05
1	320	99.6274487484649	-0.018768310546875	-0.01866455078125	-2.15728759765625E-06	4.02648012709506E-08	8651.8603515625	5.12462720507756E-05
1	321	99.7281567482106	-0.028839111328125	-0.0287017822265625	-2.16827392578125E-06	6.22333189426172E-08	13237.158203125	5.10284626216162E-05
1	322	99.8288647479563	-0.038909912109375	-0.0387908935546875	-2.1405029296875E-06	8.30320132649831E-08	18122.328125	5.08115008415189E-05
1	323	99.9295727477021	-0.048980712890625	-0.048834228515625	-2.0867919921875E-06	1.01906870497714E-07	23401.580078125	5.05986390635371E-05
1	324	100.030280747448	-0.059051513671875	-0.05902099609375	-2.0208740234375E-06	1.192739915723E-07	29205.677734375	5.03918017784599E-05
1	325	100.130988747194	-0.069122314453125	-0.069061279296875	-1.9500732421875E-06	1.34674550622549E-07	35414.7109375	5.01918475492857E-05
1	326	100.231696746939	-0.079193115234375	-0.079132080078125	-1.88079833984375E-06	1.48831489354961E-07	42073.6640625	4.99989473610185E-05
1	327	100.332404746685	-0.089263916015625	-0.089141845703125	-1.8157958984375E-06	1.61863397352136E-07	49092.4375	4.98128101753537E-05
1	328	100.433112746431	-0.099334716796875	-0.0992431640625	-1.756591796875E-06	1.74329713331645E-07	56497.5703125	4.96329266752582E-05
1	329	100.533820746177	-0.109405517578125	-0.109283447265625	-1.70379638671875E-06	1.86196743356959E-07	64141.14453125	4.94586820423137E-05
1	330	100.634528745922	-0.119476318359375	-0.11932373046875	-1.65740966796875E-06	1.97768301291035E-07	71994.109375	4.92894323542714E-05
1	331	100.735236745668	-0.129547119140625	-0.12945556640625	-1.6156005859375E-06	2.09148481644661E-07	80128.4453125	4.91246210003737E-05
1	332	100.835944745414	-0.139617919921875	-0.1395263671875	-1.57958984375E-06	2.20394426264647E-07	88330.7578125	4.89637313876301E-05
1	333	100.936652745159	-0.149688720703125	-0.149566650390625	-1.54937744140625E-06	2.31735185707294E-07	96533.3828125	4.88061741634738E-05
1	334	101.037360744905	-0.159759521484375	-0.159576416015625	-1.52252197265625E-06	2.42958606122556E-07	104810.5859375	4.86514945805538E-05
1	335	101.138068744651	-0.169830322265625	-0.169677734375	-1.50054931640625E-06	2.54609801686456E-07	113077.0859375	4.84992706333287E-05
1	336	101.238776744397	-0.179901123046875	-0.17974853515625	-1.48223876953125E-06	2.66430248530014E-07	121268.2734375	4.83490730402991E-05
1	337	101.339484744142	-0.189971923828125	-0.1898193359375	-1.4666748046875E-06	2.78403234688085E-07	129421.5546875	4.82005852973089E-05
1	338	101.440192743888	-0.200042724609375	-0.199920654296875	-1.455078125E-06	2.90900146637796E-07	137395.140625	4.80534617963713E-05
1	339	101.540900743634	-0.189971923828125	-0.1898193359375	-1.29974365234375E-06	2.46716467700026E-07	146043.671875	4.79147456644569E-05
2	340	101.64160874338	-0.179901123046875	-0.17974853515625	-1.18927001953125E-06	2.13769524748386E-07	151141.921875	4.77894136565737E-05
2	341	101.742316743125	-0.169830322265625	-0.169708251953125	-1.09954833984375E-06	1.86602420626514E-07	154343.609375	4.76741624879651E-05
2	342	101.843024742871	-0.159759521484375	-0.159698486328125	-1.02294921875E-06	1.63363438332453E-07	156115.765625	4.75672859465703E-05
2	343	101.943732742617	-0.149688720703125	-0.14959716796875	-9.55810546875E-07	1.42986536388889E-07	156513.421875	4.74676489830017E-05
2	344	102.044440742363	-0.139617919921875	-0.139495849609375	-8.95080566406251E-07	1.24860022765461E-07	155847.265625	4.73744476039428E-05
2	345	102.145148742108	-0.129547119140625	-0.12945556640625	-8.38623046875001E-07	1.08564414347256E-07	154366.8125	4.72871506644879E-05
2	346	102.245856741854	-0.119476318359375	-0.119384765625	-7.861328125E-07	9.3852278837403E-08	151863.359375	4.72053361590952E-05
2	347	102.3465647416	-0.109405517578125	-0.10931396484375	-7.34863281250001E-07	8.03308140007175E-08	148754.15625	4.71287494292483E-05
2	348	102.447272741346	-0.099334716796875	-0.099334716796875	-6.8359375E-07	6.790458684236E-08	145312.5	4.70573249913286E-05
2	349	102.547980741091	-0.089263916015625	-0.0892333984375	-6.298828125E-07	5.62065807230283E-08	141666.671875	4.69911865366157E-05
2	350	102.648688740837	-0.079193115234375	-0.079193115234375	-5.718994140625E-07	4.52904984626912E-08	138473.84375	4.69306723971386E-05
2	351	102.749396740583	-0.069122314453125	-0.069091796875	-5.05981445312501E-07	3.49591644521752E-08	136550.078125	4.68763937533367E-05
2	352	102.850104740328	-0.059051513671875	-0.0589599609375	-4.2694091796875E-07	2.51724188160551E-08	138098.640625	4.68294201709796E-05
2	353	102.950812740074	-0.048980712890625	-0.0488189697265625	-3.3111572265625E-07	1.61647264462772E-08	147437.796875	4.67912468593568E-05
2	354	103.05152073982	-0.038909912109375	-0.038775634765625	-2.11181640624999E-07	8.18870127261562E-09	183612.71875	4.67639401904307E-05
2	355	103.152228739566	-0.028839111328125	-0.0286590576171875	-6.28662109374997E-08	1.80168613361786E-09	455873.8125	4.67501413368154E-05
2	356	103.252936739311	-0.018768310546875	-0.0186370849609375	1.19628906249999E-07	-2.22953411288529E-09	-155790.8125	4.67530007881578E-05
2	357	103.353644739057	-0.008697509765625	-0.0086029052734375	3.3294677734375E-07	-2.86430945628524E-09	-25838.6796875	4.67757890874054E-05
2	358	103.454352738803	0.001373291015625	0.001483154296875	5.694580078125E-07	8.44594061355508E-10	2604.50146484375	4.6821227442706E-05
2	359	103.555060738549	0.011444091796875	0.0115264892578125	8.1329345703125E-07	9.37441768655844E-09	14172.609375	4.68908547190949E-05
2	360	103.655768738294	0.021514892578125	0.021636962890625	1.04278564453125E-06	2.25627125871597E-08	20749.197265625	4.69843143946491E-05
2	361	103.75647673804	0.031585693359375	0.031695556640625	1.23504638671875E-06	3.91454832993077E-08	25663.453125	4.70990125904791E-05
2	362	103.857184737786	0.041656494140625	0.041754150390625	1.37603759765625E-06	5.74552743159984E-08	30343.7578125	4.72304927825462E-05
2	363	103.957892737532	0.051727294921875	0.05181884765625	1.45843505859375E-06	7.55744196112573E-08	35530.4453125	4.7373217967106E-05
2	364	104.058600737277	0.061798095703125	0.0618896484375	1.488037109375E-06	9.20940976811835E-08	41591.46875	4.75215856567957E-05
2	365	104.159308737023	0.071868896484375	0.071929931640625	1.478271484375E-06	1.06331960125772E-07	48658.13671875	4.76709501526784E-05
2	366	104.260016736769	0.081939697265625	0.08203125	1.441650390625E-06	1.18260381043456E-07	56900.9296875	4.78179827041458E-05
2	367	104.360724736514	0.092010498046875	0.092071533203125	1.39068603515625E-06	1.28042586311494E-07	66205.84375	4.79606023873203E-05
2	368	104.46143273626	0.102081298828125	0.1021728515625	1.3336181640625E-06	1.36259572514064E-07	76613.2734375	4.80977796541993E-05
2	369	104.562140736006	0.112152099609375	0.112213134765625	1.27716064453125E-06	1.43314196066058E-07	87861.40625	4.82292452943511E-05
2	370	104.662848735752	0.122222900390625	0.122344970703125	1.22314453125E-06	1.49645586589031E-07	100024.953125	4.83551448269282E-05
2	371	104.763556735497	0.132293701171875	0.132415771484375	1.1749267578125E-06	1.55578831595449E-07	112701.296875	4.84758966194931E-05
2	372	104.864264735243	0.142364501953125	0.142425537109375	1.13128662109375E-06	1.61124091846432E-07	125896.953125	4.85920245409943E-05
2	373	104.964972734989	0.152435302734375	0.15240478515625	1.09283447265625E-06	1.66553192570973E-07	139458.265625	4.87040160805918E-05
2	374	105.065680734735	0.162506103515625	0.16259765625	1.0589599609375E-06	1.72184400071274E-07	153544.671875	4.88123696413822E-05
2	375	105.16638873448	0.172576904296875	0.172637939453125	1.02874755859375E-06	1.77600853135118E-07	167813.703125	4.8917492676992E-05
2	376	105.267096734226	0.182647705078125	0.182708740234375	1.00311279296875E-06	1.83277464316234E-07	182141.78125	4.90198035549838E-05
2	377	105.367804733972	0.192718505859375	0.192718505859375	9.808349609375E-07	1.89025030294943E-07	196484.140625	4.91197060910054E-05
2	378	105.468512733718	0.202789306640625	0.20281982421875	9.6099853515625E-07	1.94909546280542E-07	211051.140625	4.92174840474036E-05
2	379	105.569220733463	0.212860107421875	0.212921142578125	9.43908691406251E-07	2.00978107045557E-07	225573.875	4.93134029966313E-05
2	380	105.669928733209	0.222930908203125	0.222991943359375	9.28649902343751E-07	2.07081441772061E-07	240124.890625	4.94076957693323E-05
2	381	105.770636732955	0.233001708984375	0.2330322265625	9.14611816406249E-07	2.13134029536377E-07	254788.125	4.95005115226377E-05
2	382	105.871344732701	0.243072509765625	0.243133544921875	9.0362548828125E-07	2.19701661308136E-07	269064.53125	4.9592064897297E-05
2	383	105.972052732446	0.253143310546875	0.253082275390625	8.929443359375E-07	2.25988372903885E-07	283424.5	4.96825305162929E-05
2	384	106.072760732192	0.263214111328125	0.26324462890625	8.837890625E-07	2.32652709541981E-07	297859.125	4.97719956911169E-05
2	385	106.173468731938	0.273284912109375	0.27325439453125	8.758544921875E-07	2.39331086504535E-07	311986.0625	4.98606023029424E-05
2	386	106.274176731683	0.283355712890625	0.283355712890625	8.685302734375E-07	2.4610301352368E-07	326247.375	4.99484376632608E-05
2	387	106.374884731429	0.293426513671875	0.29339599609375	8.6181640625E-07	2.52853482152204E-07	340439.09375	5.00355672556907E-05
2	388	106.475592731175	0.303497314453125	0.303466796875	8.5662841796875E-07	2.59958284232198E-07	354257.21875	5.01220965816174E-05
2	389	106.576300730921	0.313568115234375	0.313568115234375	8.5174560546875E-07	2.67080253024687E-07	368147.625	5.02081202284899E-05
2	390	106.677008730666	0.323638916015625	0.32366943359375	8.4808349609375E-07	2.74498688668245E-07	381648.09375	5.02937145938631E-05
2	391	106.777716730412	0.333709716796875	0.333709716796875	8.4503173828125E-07	2.81995284012737E-07	394907.9375	5.03789706272073E-05
2	392	106.878424730158	0.343780517578125	0.343780517578125	8.4197998046875E-07	2.89456295377022E-07	408300.125	5.04639174323529E-05
2	393	106.979132729904	0.353851318359375	0.353851318359375	8.404541015625E-07	2.97395786219568E-07	421023.96875	5.05486350448336E-05
2	394	107.079840729649	0.363922119140625	0.363983154296875	8.392333984375E-07	3.05466812733357E-07	433709.09375	5.06332144141197E-05
2	395	107.180548729395	0.373992919921875	0.3740234375	8.3892822265625E-07	3.13778798499698E-07	445834.875	5.07177173858508E-05
2	396	107.281256729141	0.384063720703125	0.384063720703125	8.38623046875001E-07	3.22084673598511E-07	457969.4375	5.08021876157727E-05
2	397	107.381964728887	0.394134521484375	0.394134521484375	8.38623046875001E-07	3.30530269820883E-07	469978.1875	5.08866432937793E-05
2	398	107.482672728632	0.404205322265625	0.40423583984375	8.3953857421875E-07	3.39371553081946E-07	481497.65625	5.09711462655105E-05
2	399	107.583380728378	0.414276123046875	0.414337158203125	8.39843749999999E-07	3.47978470927046E-07	493350.3125	5.10557074449025E-05
2	400	107.684088728124	0.424346923828125	0.42431640625	8.41064453125E-07	3.56877450258253E-07	504499.28125	5.11403486598283E-05
2	401	107.78479672787	0.434417724609375	0.434417724609375	8.428955078125E-07	3.66168734444727E-07	515387.40625	5.1225142669864E-05
2	402	107.885504727615	0.444488525390625	0.4444580078125	8.4381103515625E-07	3.75038553102058E-07	526727	5.13100749230944E-05
2	403	107.986212727361	0.454559326171875	0.45452880859375	8.4564208984375E-07	3.84368689765324E-07	537495.5	5.13951454195194E-05
2	404	108.086920727107	0.464630126953125	0.464630126953125	8.47473144531249E-07	3.93761553141303E-07	548253.5	5.14804014528636E-05
2	405	108.187628726852	0.474700927734375	0.474700927734375	8.49609375E-07	4.03310366436926E-07	558728.4375	5.15658575750422E-05
2	406	108.288336726598	0.484771728515625	0.48480224609375	8.52355957031251E-07	4.13224057638217E-07	568779.125	5.16515574418008E-05
2	407	108.389044726344	0.494842529296875	0.49481201171875	8.563232421875E-07	4.23719001219069E-07	577833.25	5.17375956405886E-05
2	408	108.48975272609	0.504913330078125	0.504913330078125	8.59680175781249E-07	4.34063963439257E-07	587326.9375	5.18240049132146E-05
2	409	108.590460725835	0.514984130859375	0.5150146484375	8.648681640625E-07	4.45419743755338E-07	595483.4375	5.19108434673399E-05
2	410	108.691168725581	0.525054931640625	0.5250244140625	8.70666503906251E-07	4.57121160479801E-07	603014.375	5.19982349942438E-05
2	411	108.791876725327	0.535125732421875	0.535125732421875	8.77685546875E-07	4.69672102099139E-07	609701	5.20862704433966E-05
2	412	108.892584725073	0.545196533203125	0.545196533203125	8.880615234375E-07	4.84168026559928E-07	613917.5625	5.2175182645442E-05
2	413	108.993292724818	0.555267333984375	0.55523681640625	9.01184082031251E-07	5.00370560985175E-07	616119.1875	5.22652771905996E-05
2	414	109.094000724564	0.565338134765625	0.56536865234375	9.1888427734375E-07	5.19508375873556E-07	615277.3125	5.23569251527078E-05
2	415	109.19470872431	0.575408935546875	0.575408935546875	9.43908691406251E-07	5.43133467090229E-07	609602.3125	5.24507231602911E-05
2	416	109.295416724056	0.585479736328125	0.585479736328125	9.783935546875E-07	5.72829605971492E-07	598409.1875	5.25475188624114E-05
2	417	109.396124723801	0.595550537109375	0.59552001953125	1.029052734375E-06	6.128214522505E-07	578707.0625	5.26486037415452E-05
2	418	109.496832723547	0.605621337890625	0.605560302734375	1.10015869140625E-06	6.66212429223378E-07	550430	5.2755818614969E-05
2	419	109.597540723293	0.615692138671875	0.615631103515625	1.199951171875E-06	7.38727237603598E-07	513046.8125	5.28716373082716E-05
2	420	109.698248723039	0.625762939453125	0.625732421875	1.33514404296875E-06	8.35442904190131E-07	468662.875	5.29992903466336E-05
2	421	109.798956722784	0.635833740234375	0.635833740234375	1.51123046875E-06	9.60891270551656E-07	420739.125	5.31426157976966E-05
2	422	109.89966472253	0.645904541015625	0.64593505859375	1.727294921875E-06	1.11572023797635E-06	373957.625	5.33056881977245E-05
2	423	110.000372722276	0.655975341796875	0.65594482421875	1.9781494140625E-06	1.29755687794386E-06	331595.1875	5.34922728547826E-05
2	424	110.101080722021	0.666046142578125	0.665985107421875	2.2503662109375E-06	1.49871038956917E-06	295945.21875	5.37051964784041E-05
2	425	110.201788721767	0.676116943359375	0.67608642578125	2.51861572265625E-06	1.70280191014172E-06	268435.71875	5.39453321835026E-05
2	426	110.302496721513	0.686187744140625	0.68609619140625	2.75848388671875E-06	1.89258526006597E-06	248722.21875	5.42110537935514E-05
2	427	110.403204721259	0.696258544921875	0.696197509765625	2.94677734375E-06	2.05153901333688E-06	236257.265625	5.44983377039898E-05
2	428	110.503912721004	0.706329345703125	0.70623779296875	3.072509765625E-06	2.16992248169845E-06	229856.96875	5.48014322703239E-05
2	429	110.60462072075	0.716400146484375	0.716339111328125	3.13446044921875E-06	2.24533641812741E-06	228536.671875	5.51139783055987E-05
2	430	110.705328720496	0.726470947265625	0.7264404296875	3.1463623046875E-06	2.28564476856263E-06	230882.65625	5.54302423552144E-05
2	431	110.806036720242	0.736541748046875	0.7364501953125	3.12591552734375E-06	2.30208115681307E-06	235595.03125	5.57460771233309E-05
2	432	110.906744719987	0.746612548828125	0.746551513671875	3.0926513671875E-06	2.30882346841099E-06	241395.3125	5.60592088731937E-05
2	433	111.007452719733	0.756683349609375	0.7568359375	3.06427001953125E-06	2.31914964388125E-06	246987.359375	5.63692337891553E-05
2	434	111.108160719479	0.766754150390625	0.7672119140625	3.05633544921875E-06	2.34485696637421E-06	251023.46875	5.66774288017768E-05
2	435	111.208868719225	0.776824951171875	0.77667236328125	3.08013916015625E-06	2.39225892073591E-06	252154.96875	5.69864278077148E-05
2	436	111.30957671897	0.786895751953125	0.78704833984375	3.1500244140625E-06	2.47922139351431E-06	249854.671875	5.73001416341867E-05
2	437	111.410284718716	0.796966552734375	0.79681396484375	3.272705078125E-06	2.60773708760098E-06	243472.59375	5.76235506741796E-05
2	438	111.510992718462	0.807037353515625	0.80718994140625	3.45367431640625E-06	2.78777110906958E-06	233719.1875	5.79622501390986E-05
2	439	111.611700718208	0.817108154296875	0.8172607421875	3.690185546875E-06	3.01584373119113E-06	221468.75	5.83219734835438E-05
2	440	111.712408717953	0.827178955078125	0.82733154296875	3.970947265625E-06	3.28528972204367E-06	208346.15625	5.8707741118269E-05
2	441	111.813116717699	0.837249755859375	0.83770751953125	4.2694091796875E-06	3.5765160646406E-06	196211.578125	5.91226744290907E-05
2	442	111.913824717445	0.847320556640625	0.8477783203125	4.559326171875E-06	3.86529791285284E-06	185943.78125	5.95672390772961E-05
2	443	112.01453271719	0.857391357421875	0.858154296875	4.8065185546875E-06	4.12473445976502E-06	178539.6875	6.00388448219746E-05
2	444	112.115240716936	0.867462158203125	0.86761474609375	4.9896240234375E-06	4.3290710891597E-06	173883.796875	6.0532122006407E-05
2	445	112.215948716682	0.877532958984375	0.87799072265625	5.09033203125E-06	4.46926424046978E-06	172482.015625	6.10396891715936E-05
2	446	112.316656716428	0.887603759765625	0.88775634765625	5.1116943359375E-06	4.5379388211586E-06	173671.65625	6.15534008829854E-05
2	447	112.417364716173	0.897674560546875	0.8978271484375	5.072021484375E-06	4.55379858976812E-06	177015.640625	6.20661885477602E-05
2	448	112.518072715919	0.907745361328125	0.90789794921875	4.9957275390625E-06	4.53561096946942E-06	181734.875	6.25731408945285E-05
2	449	112.618780715665	0.917816162109375	0.9173583984375	4.896240234375E-06	4.49160688731354E-06	187359.765625	6.30712384008802E-05
2	450	112.719488715411	0.927886962890625	0.927734375	4.80133056640625E-06	4.45435898654978E-06	193224.4375	6.35595497442409E-05
2	451	112.820196715156	0.937957763671875	0.93841552734375	4.72320556640625E-06	4.43232966063078E-06	198681.90625	6.40391517663375E-05
2	452	112.920904714902	0.948028564453125	0.94818115234375	4.67132568359375E-06	4.42926284449641E-06	202979.03125	6.45122054265812E-05
2	453	113.021612714648	0.958099365234375	0.958251953125	4.65576171875E-06	4.46139256382594E-06	205820.671875	6.49818612146191E-05
2	454	113.122320714394	0.968170166015625	0.96832275390625	4.68292236328125E-06	4.53458005722496E-06	206777.453125	6.54520990792662E-05
2	455	113.223028714139	0.978240966796875	0.9783935546875	4.75311279296875E-06	4.65041466668481E-06	205842.703125	6.59272409393452E-05
2	456	113.323736713885	0.988311767578125	0.9881591796875	4.86114501953125E-06	4.80358494314714E-06	203277.046875	6.64113613311201E-05
2	457	113.424444713631	0.998382568359375	0.99884033203125	4.9957275390625E-06	4.9899340410775E-06	199938.90625	6.69076907797717E-05
2	458	113.525152713377	1.00845336914063	1.00860595703125	5.1300048828125E-06	5.17415355716366E-06	196609.15625	6.74175607855432E-05
2	459	113.625860713122	1.01852416992188	1.01806640625	5.2459716796875E-06	5.34074706592946E-06	194066.328125	6.79400327499025E-05
2	460	113.726568712868	1.02859497070313	1.029052734375	5.3253173828125E-06	5.48003208677983E-06	193237.828125	6.84723418089561E-05
2	461	113.827276712614	1.03866577148438	1.03851318359375	5.352783203125E-06	5.55893575437949E-06	194013.6875	6.90100278006867E-05
2	462	113.927984712359	1.04873657226563	1.0479736328125	5.3314208984375E-06	5.58718829779536E-06	196565.546875	6.9548019382637E-05
2	463	114.028692712105	1.05880737304688	1.0589599609375	5.2734375E-06	5.58435885977815E-06	200810.203125	7.00820164638571E-05
2	464	114.129400711851	1.06887817382813	1.06903076171875	5.18798828125E-06	5.54611915504211E-06	206058.828125	7.06087885191664E-05
2	465	114.230108711597	1.07894897460938	1.0791015625	5.0872802734375E-06	5.48969183000736E-06	212117.59375	7.11261891410686E-05
2	466	114.330816711342	1.08901977539063	1.08917236328125	4.9835205078125E-06	5.42791258340003E-06	218554.8125	7.16332942829467E-05
2	467	114.431524711088	1.09909057617188	1.0986328125	4.88006591796875E-06	5.36140032636467E-06	225126.640625	7.21299657016061E-05
2	468	114.532232710834	1.10916137695313	1.109619140625	4.7821044921875E-06	5.30631450601504E-06	232035.734375	7.26164944353513E-05
2	469	114.63294071058	1.11923217773438	1.119384765625	4.69146728515625E-06	5.2515565585054E-06	238600.15625	7.309352804441E-05
2	470	114.733648710325	1.12930297851563	1.12884521484375	4.60784912109375E-06	5.20154844707577E-06	244983.125	7.35617868485861E-05
2	471	114.834356710071	1.13937377929688	1.138916015625	4.53277587890625E-06	5.1624506340886E-06	251262.390625	7.40220566513017E-05
2	472	114.935064709817	1.14944458007813	1.14959716796875	4.46441650390625E-06	5.13228042109404E-06	257502.234375	7.44750941521488E-05
2	473	115.035772709563	1.15951538085938	1.15966796875	4.40277099609375E-06	5.10575273438008E-06	263395.03125	7.49215978430584E-05
2	474	115.136480709308	1.16958618164063	1.16912841796875	4.34722900390625E-06	5.08246876051999E-06	268936.5	7.53621934563853E-05
2	475	115.237188709054	1.17965698242188	1.1798095703125	4.2974853515625E-06	5.0702142289083E-06	274534.875	7.5797492172569E-05
2	476	115.3378967088	1.18972778320313	1.1895751953125	4.251708984375E-06	5.05772777614766E-06	279787.53125	7.62279742048122E-05
2	477	115.438604708546	1.19979858398438	1.19964599609375	4.21112060546875E-06	5.05185380461626E-06	284875.71875	7.66541124903597E-05
2	478	115.539312708291	1.20986938476563	1.21002197265625	4.1741943359375E-06	5.05086654811748E-06	289881.5625	7.70763435866684E-05
2	479	115.640020708037	1.21994018554688	1.21978759765625	4.14154052734375E-06	5.0517996896815E-06	294525.09375	7.74950749473646E-05
2	480	115.740728707783	1.23001098632813	1.23016357421875	4.11163330078125E-06	5.05798152516945E-06	299190.96875	7.79106558184139E-05
2	481	115.841436707528	1.24008178710938	1.2396240234375	4.08477783203125E-06	5.06358856000588E-06	303474.0625	7.83233772381209E-05
2	482	115.942144707274	1.25015258789063	1.25030517578125	4.0618896484375E-06	5.07860158904805E-06	307813.65625	7.87335957284085E-05
2	483	116.04285270702	1.26022338867188	1.26007080078125	4.04144287109375E-06	5.09250412505935E-06	311787.34375	7.9141631431412E-05
2	484	116.143560706766	1.27029418945313	1.2701416015625	4.02496337890625E-06	5.11227335664444E-06	315566	7.95478117652237E-05
2	485	116.244268706511	1.28036499023438	1.280517578125	4.01031494140625E-06	5.13527902512578E-06	319305.96875	7.99524132162333E-05
2	486	116.344976706257	1.29043579101563	1.2908935546875	3.99993896484375E-06	5.16349564350094E-06	322728.3125	8.03557632025331E-05
2	487	116.445684706003	1.30050659179688	1.3006591796875	3.9923095703125E-06	5.19263358000899E-06	325791.1875	8.07582036941312E-05
2	488	116.546392705749	1.31057739257813	1.31072998046875	3.9874267578125E-06	5.22643949807389E-06	328715.75	8.11600184533745E-05
2	489	116.647100705494	1.32064819335938	1.32080078125	3.98590087890625E-06	5.26458097738214E-06	331368.1875	8.15615057945251E-05
2	490	116.74780870524	1.33071899414063	1.3311767578125	3.98681640625E-06	5.30715715285623E-06	333894.6875	8.19629640318453E-05
2	491	116.848516704986	1.34078979492188	1.34063720703125	3.99078369140625E-06	5.35019307790208E-06	335933.3125	8.23646696517244E-05
2	492	116.949224704732	1.35086059570313	1.3507080078125	3.99688720703125E-06	5.39862776349764E-06	337939.96875	8.27668773126788E-05
2	493	117.049932704477	1.36093139648438	1.361083984375	4.0057373046875E-06	5.45214470548672E-06	339783.65625	8.31698416732252E-05
2	494	117.150640704223	1.37100219726563	1.37115478515625	4.01580810546875E-06	5.50629420104087E-06	341439.34375	8.35737591842189E-05
2	495	117.251348703969	1.38107299804688	1.38153076171875	4.02740478515625E-06	5.56398390472168E-06	343032.5	8.39787680888548E-05
2	496	117.352056703715	1.39114379882813	1.3909912109375	4.04083251953125E-06	5.62076229471131E-06	344233.84375	8.4385035734158E-05
2	497	117.45276470346	1.40121459960938	1.4013671875	4.05548095703125E-06	5.68321820537676E-06	345548.9375	8.47927221911959E-05
2	498	117.553472703206	1.41128540039063	1.41143798828125	4.0716552734375E-06	5.74688874621643E-06	346649.6875	8.52019511512481E-05
2	499	117.654180702952	1.42135620117188	1.42120361328125	4.09149169921875E-06	5.81484255235409E-06	347355.875	8.56129991007037E-05
2	500	117.754888702697	1.43142700195313	1.43157958984375	4.1156005859375E-06	5.89180945098633E-06	347842.21875	8.60262589412741E-05
2	501	117.855596702443	1.44149780273438	1.4410400390625	4.14886474609375E-06	5.97868029217352E-06	347333.59375	8.64424073370174E-05
2	502	117.956304702189	1.45156860351563	1.45172119140625	4.19158935546875E-06	6.08501886745216E-06	346341.46875	8.68623828864656E-05
2	503	118.057012701935	1.46163940429688	1.46209716796875	4.2486572265625E-06	6.211949767021E-06	344131.59375	8.72873861226253E-05
2	504	118.15772070168	1.47171020507813	1.47186279296875	4.32037353515625E-06	6.35899732515099E-06	340679.53125	8.77188722370192E-05
2	505	118.258428701426	1.48178100585938	1.48223876953125	4.41009521484375E-06	6.53681399853667E-06	336101.3125	8.81584855960682E-05
2	506	118.359136701172	1.49185180664063	1.49200439453125	4.51629638671875E-06	6.73833437758731E-06	330360.15625	8.8607965153642E-05
2	507	118.459844700918	1.50192260742188	1.50238037109375	4.63653564453125E-06	6.96583947501495E-06	324030.8125	8.90688461367972E-05
2	508	118.560552700663	1.49185180664063	1.49139404296875	4.31243896484375E-06	6.43154544377467E-06	345835.40625	8.95194607437588E-05
2	509	118.661260700409	1.48178100585938	1.48162841796875	4.0728759765625E-06	6.03448870606371E-06	363779.40625	8.99416918400675E-05
2	510	118.761968700155	1.47171020507813	1.47186279296875	3.88275146484375E-06	5.71487771594548E-06	379077.25	9.03422915143892E-05
2	511	118.862676699901	1.46163940429688	1.46240234375	3.72589111328125E-06	5.44875183550175E-06	392497.34375	9.07254216144793E-05
2	512	118.963384699646	1.45156860351563	1.45172119140625	3.59588623046875E-06	5.22022401128197E-06	403717.25	9.10941016627476E-05
2	513	119.064092699392	1.44149780273438	1.441650390625	3.485107421875E-06	5.02430611959426E-06	413660.25	9.1450652689673E-05
2	514	119.164800699138	1.43142700195313	1.4312744140625	3.39080810546875E-06	4.85317650600336E-06	422104.25	9.17968864087015E-05
2	515	119.265508698884	1.42135620117188	1.42120361328125	3.309326171875E-06	4.70322629553266E-06	429454.09375	9.21342652873136E-05
2	516	119.366216698629	1.41128540039063	1.4117431640625	3.238525390625E-06	4.57196620118339E-06	435921.59375	9.24639753066003E-05
2	517	119.466924698375	1.40121459960938	1.40045166015625	3.17718505859375E-06	4.44949409938999E-06	440783.8125	9.27870278246701E-05
2	518	119.567632698121	1.39114379882813	1.390380859375	3.12255859375E-06	4.34154571848921E-06	445269.75	9.31042450247332E-05
2	519	119.668340697866	1.38107299804688	1.3812255859375	3.07403564453125E-06	4.24593645220739E-06	449320	9.34162744670175E-05
2	520	119.769048697612	1.37100219726563	1.370849609375	3.03070068359375E-06	4.15463455283316E-06	452321.03125	9.37236691243015E-05
2	521	119.869756697358	1.36093139648438	1.36077880859375	2.99163818359375E-06	4.07095785703859E-06	454860.75	9.40269164857455E-05
2	522	119.970464697104	1.35086059570313	1.3507080078125	2.955322265625E-06	3.99177724830224E-06	457042.5625	9.43263730732724E-05
2	523	120.071172696849	1.34078979492188	1.34063720703125	2.92236328125E-06	3.91782896258519E-06	458751.0625	9.46223372011445E-05
2	524	120.171880696595	1.33071899414063	1.33026123046875	2.89154052734375E-06	3.8465041143354E-06	460052.78125	9.49150926317088E-05
2	525	120.272588696341	1.32064819335938	1.32110595703125	2.86346435546875E-06	3.78293975700217E-06	461366.3125	9.52048794715665E-05
2	526	120.373296696087	1.31057739257813	1.31103515625	2.8363037109375E-06	3.71849364455556E-06	462233.71875	9.54918868956156E-05
2	527	120.474004695832	1.30050659179688	1.30035400390625	2.811279296875E-06	3.6556582472258E-06	462548.84375	9.57762604230084E-05
2	528	120.574712695578	1.29043579101563	1.290283203125	2.78717041015625E-06	3.59623913936957E-06	462936.59375	9.60581674007699E-05
2	529	120.675420695324	1.28036499023438	1.280517578125	2.7642822265625E-06	3.53971176991763E-06	463236.9375	9.63377024163492E-05
2	530	120.77612869507	1.27029418945313	1.27044677734375	2.74261474609375E-06	3.48434605257353E-06	463224.65625	9.66149964369833E-05
2	531	120.876836694815	1.26022338867188	1.2603759765625	2.72216796875E-06	3.43095507560065E-06	463004.5	9.68901731539518E-05
2	532	120.977544694561	1.25015258789063	1.25030517578125	2.70233154296875E-06	3.37873916578246E-06	462676.4375	9.71633198787458E-05
2	533	121.078252694307	1.24008178710938	1.2396240234375	2.6837158203125E-06	3.32679860548524E-06	461905.84375	9.74345239228569E-05
2	534	121.178960694053	1.23001098632813	1.2298583984375	2.66571044921875E-06	3.27844622916018E-06	461362.34375	9.77038944256492E-05
2	535	121.279668693798	1.21994018554688	1.2200927734375	2.6483154296875E-06	3.23119047607179E-06	460705.25	9.79714750428684E-05
2	536	121.380376693544	1.20986938476563	1.21002197265625	2.63153076171875E-06	3.18420984513068E-06	459816.78125	9.82373385340907E-05
2	537	121.48108469329	1.19979858398438	1.19964599609375	2.61505126953125E-06	3.13713576360897E-06	458746.65625	9.85015212791041E-05
2	538	121.581792693035	1.18972778320313	1.18988037109375	2.598876953125E-06	3.09235247186734E-06	457844.09375	9.87640669336542E-05
2	539	121.682500692781	1.17965698242188	1.1798095703125	2.5836181640625E-06	3.04817740470753E-06	456650.125	9.90250264294446E-05
2	540	121.783208692527	1.16958618164063	1.17034912109375	2.5677490234375E-06	3.0051626254135E-06	455788	9.92844143183902E-05
2	541	121.883916692273	1.15951538085938	1.1590576171875	2.55218505859375E-06	2.95812947115337E-06	454143.28125	9.95422233245336E-05
2	542	121.984624692018	1.14944458007813	1.1492919921875	2.53509521484375E-06	2.91356445814017E-06	453352.625	9.97983879642561E-05
2	543	122.085332691764	1.13937377929688	1.13922119140625	2.5177001953125E-06	2.86821727968345E-06	452484.875	0.000100052820926066
2	544	122.18604069151	1.12930297851563	1.12945556640625	2.496337890625E-06	2.81950269709341E-06	452445	0.000100305296655279
2	545	122.286748691256	1.11923217773438	1.11968994140625	2.47314453125E-06	2.76915488939267E-06	452739.40625	0.000100555531389546
2	546	122.387456691001	1.10916137695313	1.10931396484375	2.44415283203125E-06	2.71133285423275E-06	453864.40625	0.000100803132227156
2	547	122.488164690747	1.09909057617188	1.0986328125	2.4078369140625E-06	2.64532854998833E-06	456273.78125	0.000101047451607883
2	548	122.588872690493	1.08901977539063	1.0888671875	2.36083984375E-06	2.57064084507874E-06	461220.28125	0.000101287572761066
2	549	122.689580690239	1.07894897460938	1.0791015625	2.2979736328125E-06	2.47974685407826E-06	469588.3125	0.000101522164186463
2	550	122.790288689984	1.06887817382813	1.06903076171875	2.21588134765625E-06	2.36884534388082E-06	482440.4375	0.000101749450550415
2	551	122.89099668973	1.05880737304688	1.0589599609375	2.10784912109375E-06	2.23212759919988E-06	502388.90625	0.000101967169030104
2	552	122.991704689476	1.04873657226563	1.0491943359375	1.9683837890625E-06	2.06521690415684E-06	533023.3125	0.0001021724237944
2	553	123.092412689222	1.03866577148438	1.038818359375	1.7962646484375E-06	1.86599265816767E-06	578321.4375	0.00010236199159408
2	554	123.193120688967	1.02859497070313	1.02874755859375	1.5924072265625E-06	1.63818504006485E-06	646032.9375	0.00010253262007609
2	555	123.293828688713	1.01852416992188	1.01837158203125	1.36627197265625E-06	1.39137250698695E-06	745365.25	0.000102681602584198
2	556	123.394536688459	1.00845336914063	1.00860595703125	1.13494873046875E-06	1.14471595225041E-06	888679.8125	0.0001028075494105
2	557	123.495244688204	0.998382568359375	0.99853515625	9.2010498046875E-07	9.1875716634604E-07	1085240.5	0.000102911028079689
2	558	123.59595268795	0.988311767578125	0.98846435546875	7.40966796875001E-07	7.32419209725776E-07	1334019.875	0.000102994672488421
2	559	123.696660687696	0.978240966796875	0.97808837890625	6.12792968750001E-07	5.99365705511445E-07	1596115.5	0.000103062840935308
2	560	123.797368687442	0.968170166015625	0.968017578125	5.39550781250001E-07	5.22294612892438E-07	1794117.75	0.000103120866697282
2	561	123.898076687187	0.958099365234375	0.95855712890625	5.14831542968749E-07	4.93495406317379E-07	1861885	0.000103173959359992
2	562	123.998784686933	0.948028564453125	0.94818115234375	5.24291992187501E-07	4.97123778586683E-07	1808498.25	0.000103226280771196
2	563	124.099492686679	0.937957763671875	0.93780517578125	5.48095703125E-07	5.1400695610937E-07	1711024.625	0.000103280282928608
2	564	124.200200686425	0.927886962890625	0.9283447265625	5.6610107421875E-07	5.25536904660839E-07	1639892.25	0.000103336387837771
2	565	124.30090868617	0.917816162109375	0.91766357421875	5.6182861328125E-07	5.15569638537272E-07	1633351.5	0.00010339317668695
2	566	124.401616685916	0.907745361328125	0.908203125	5.20935058593749E-07	4.73114823762444E-07	1743409.625	0.000103447702713311
2	567	124.502324685662	0.897674560546875	0.89752197265625	4.3365478515625E-07	3.89214676488336E-07	2069669.25	0.00010349576768931
2	568	124.603032685408	0.887603759765625	0.88775634765625	2.9327392578125E-07	2.60355790260292E-07	3027055.25	0.000103532373032067
2	569	124.703740685153	0.877532958984375	0.87799072265625	9.21630859374994E-08	8.09183333672081E-08	9526490	0.000103551778011024
2	570	124.804448684899	0.867462158203125	0.86700439453125	-1.66015625E-07	-1.43936276231216E-07	-5222426.5	0.000103548059996683
2	571	124.905156684645	0.857391357421875	0.85784912109375	-4.7027587890625E-07	-4.03425730155504E-07	-1824140.25	0.000103516023955308
2	572	125.005864684391	0.847320556640625	0.84747314453125	-7.965087890625E-07	-6.75019748541672E-07	-1063984.75	0.000103452235634904
2	573	125.106572684136	0.837249755859375	0.83770751953125	-1.11572265625E-06	-9.3464922201747E-07	-750820.5625	0.000103355945611838
2	574	125.207280683882	0.827178955078125	0.82794189453125	-1.39495849609375E-06	-1.15494447072706E-06	-593524.4375	0.000103229525848292
2	575	125.307988683628	0.817108154296875	0.8172607421875	-1.60858154296875E-06	-1.31463059460657E-06	-508062.96875	0.000103078280517366
2	576	125.408696683373	0.807037353515625	0.80718994140625	-1.7401123046875E-06	-1.40460110742424E-06	-463872.34375	0.000102909660199657
2	577	125.509404683119	0.796966552734375	0.7965087890625	-1.79229736328125E-06	-1.42758062793291E-06	-444406.625	0.000102731792139821
2	578	125.610112682865	0.786895751953125	0.78704833984375	-1.77825927734375E-06	-1.39957603551011E-06	-442594.8125	0.000102552003227174
2	579	125.710820682611	0.776824951171875	0.77728271484375	-1.72088623046875E-06	-1.3376151173361E-06	-451675.84375	0.000102375801361632
2	580	125.811528682356	0.766754150390625	0.76690673828125	-1.6412353515625E-06	-1.25867438782734E-06	-467274.09375	0.000102206511655822
2	581	125.912236682102	0.756683349609375	0.7568359375	-1.5606689453125E-06	-1.18117031888687E-06	-484943.3125	0.000102045276435092
2	582	126.012944681848	0.746612548828125	0.746490478515625	-1.49658203125E-06	-1.11718418338569E-06	-498796.9375	0.000101891331723891
2	583	126.113652681594	0.736541748046875	0.73651123046875	-1.4599609375E-06	-1.07527762338577E-06	-504473.25	0.000101742458355147
2	584	126.214360681339	0.726470947265625	0.7264404296875	-1.4605712890625E-06	-1.06101799701719E-06	-497367.3125	0.000101595403975807
2	585	126.315068681085	0.716400146484375	0.71636962890625	-1.5069580078125E-06	-1.07953883343725E-06	-475374.6875	0.000101445970358327
2	586	126.415776680831	0.706329345703125	0.706268310546875	-1.60125732421875E-06	-1.13091732600878E-06	-441071.09375	0.000101289464510046
2	587	126.516484680577	0.696258544921875	0.696197509765625	-1.7401123046875E-06	-1.21146183573728E-06	-400087.71875	0.000101121207990218
2	588	126.617192680322	0.686187744140625	0.686065673828125	-1.91253662109375E-06	-1.31212573251105E-06	-358720.28125	0.000100937286333647
2	589	126.717900680068	0.676116943359375	0.676116943359375	-2.098388671875E-06	-1.41875614190212E-06	-322207.6875	0.000100735320302192
2	590	126.818608679814	0.666046142578125	0.666015625	-2.27203369140625E-06	-1.51321000885218E-06	-293136.34375	0.000100515251688194
2	591	126.91931667956	0.655975341796875	0.655975341796875	-2.4078369140625E-06	-1.57948147716525E-06	-272433.46875	0.000100279597972985
2	592	127.020024679305	0.645904541015625	0.645904541015625	-2.4871826171875E-06	-1.60648255587148E-06	-259693.25	0.000100033117632847
2	593	127.120732679051	0.635833740234375	0.6358642578125	-2.50518798828125E-06	-1.59295950652449E-06	-253818.984375	9.97817332972772E-05
2	594	127.221440678797	0.625762939453125	0.62579345703125	-2.46826171875E-06	-1.54462202317518E-06	-253536.09375	9.9531294836197E-05
2	595	127.322148678542	0.615692138671875	0.615692138671875	-2.3907470703125E-06	-1.47196419675311E-06	-257531.265625	9.92866262095049E-05
2	596	127.422856678288	0.605621337890625	0.6055908203125	-2.28668212890625E-06	-1.38479367706168E-06	-264833.84375	9.90511034615338E-05
2	597	127.523564678034	0.595550537109375	0.595489501953125	-2.17132568359375E-06	-1.29300156004319E-06	-274251.59375	9.8826625617221E-05
2	598	127.62427267778	0.585479736328125	0.585418701171875	-2.0538330078125E-06	-1.20235222311749E-06	-285037.15625	9.86138693406247E-05
2	599	127.724980677525	0.575408935546875	0.57537841796875	-1.939697265625E-06	-1.11605993424746E-06	-296633.09375	9.84127764240839E-05
2	600	127.825688677271	0.565338134765625	0.565338134765625	-1.832275390625E-06	-1.03585512079007E-06	-308544.3125	9.82228448265232E-05
2	601	127.926396677017	0.555267333984375	0.5552978515625	-1.7333984375E-06	-9.62552462624444E-07	-320352.125	9.8043296020478E-05
2	602	128.027104676763	0.545196533203125	0.545196533203125	-1.64337158203125E-06	-8.95960454272426E-07	-331754.875	9.78732641669922E-05
2	603	128.127812676508	0.535125732421875	0.535125732421875	-1.56005859375E-06	-8.34827460494125E-07	-343016.4375	9.77119561866857E-05
2	604	128.228520676254	0.525054931640625	0.52508544921875	-1.4849853515625E-06	-7.79744198098342E-07	-353596.40625	9.7558629931882E-05
2	605	128.329228676	0.514984130859375	0.51507568359375	-1.41632080078125E-06	-7.29512350972072E-07	-363671.625	9.74125359789468E-05
2	606	128.429936675746	0.504913330078125	0.504913330078125	-1.353759765625E-06	-6.83531368395052E-07	-372971.125	9.72730485955253E-05
2	607	128.530644675491	0.494842529296875	0.494873046875	-1.2969970703125E-06	-6.41848885152285E-07	-381552.9375	9.71395784290507E-05
2	608	128.631352675237	0.484771728515625	0.4847412109375	-1.243896484375E-06	-6.02967872964655E-07	-389695.78125	9.70116307144053E-05
2	609	128.732060674983	0.474700927734375	0.47467041015625	-1.19598388671875E-06	-5.67698123177252E-07	-396886.96875	9.68887761700898E-05
2	610	128.832768674729	0.464630126953125	0.464630126953125	-1.15081787109375E-06	-5.34704668098129E-07	-403739.0625	9.67706000665203E-05
2	611	128.933476674474	0.454559326171875	0.45458984375	-1.1090087890625E-06	-5.0414411134625E-07	-409906.46875	9.66568113653921E-05
2	612	129.03418467422	0.444488525390625	0.44451904296875	-1.070556640625E-06	-4.75882814043871E-07	-415222.34375	9.65470608207397E-05
2	613	129.134892673966	0.434417724609375	0.43438720703125	-1.0345458984375E-06	-4.4939349663764E-07	-419882	9.64410646702163E-05
2	614	129.235600673711	0.424346923828125	0.42431640625	-1.0009765625E-06	-4.24730785653082E-07	-423902.4375	9.63385682553053E-05
2	615	129.336308673457	0.414276123046875	0.414306640625	-9.69848632812501E-07	-4.0181473082157E-07	-427186.90625	9.62393241934478E-05
2	616	129.437016673203	0.404205322265625	0.404266357421875	-9.40856933593751E-07	-3.80356794948966E-07	-429678.875	9.61431142059155E-05
2	617	129.537724672949	0.394134521484375	0.394134521484375	-9.130859375E-07	-3.59878669087266E-07	-431651.09375	9.60497636697255E-05
2	618	129.638432672694	0.384063720703125	0.38409423828125	-8.868408203125E-07	-3.40630435857747E-07	-433103.9375	9.59591270657256E-05
2	619	129.73914067244	0.373992919921875	0.37396240234375	-8.6212158203125E-07	-3.2240106406789E-07	-433769.90625	9.58710588747635E-05
2	620	129.839848672186	0.363922119140625	0.363922119140625	-8.3892822265625E-07	-3.05304524772509E-07	-433794.125	9.57854063017294E-05
2	621	129.940556671932	0.353851318359375	0.35382080078125	-8.1634521484375E-07	-2.88839913764605E-07	-433420.5625	9.57020529313013E-05
2	622	130.041264671677	0.343780517578125	0.343780517578125	-7.94677734375E-07	-2.73194700639579E-07	-432603.71875	9.56209332798608E-05
2	623	130.141972671423	0.333709716796875	0.333740234375	-7.7362060546875E-07	-2.5818832227742E-07	-431400.40625	9.5541967311874E-05
2	624	130.242680671169	0.323638916015625	0.323699951171875	-7.54394531249999E-07	-2.44197480014918E-07	-429085.75	9.5465024060104E-05
2	625	130.343388670915	0.313568115234375	0.313690185546875	-7.36083984374999E-07	-2.30902315934145E-07	-426160.875	9.53899725573137E-05
2	626	130.44409667066	0.303497314453125	0.303466796875	-7.183837890625E-07	-2.18005624219586E-07	-422429.90625	9.53167327679694E-05
2	627	130.544804670406	0.293426513671875	0.29345703125	-7.0220947265625E-07	-2.06068293095996E-07	-417905.28125	9.52452028286643E-05
2	628	130.645512670152	0.283355712890625	0.28338623046875	-6.85729980468749E-07	-1.94326432279013E-07	-413262.15625	9.51753099798225E-05
2	629	130.746220669898	0.273284912109375	0.273284912109375	-6.7169189453125E-07	-1.83563244604557E-07	-406860.53125	9.51069596339948E-05
2	630	130.846928669643	0.263214111328125	0.263214111328125	-6.5765380859375E-07	-1.73103757106219E-07	-400232.03125	9.50400208239444E-05
2	631	130.947636669389	0.253143310546875	0.253143310546875	-6.439208984375E-07	-1.63004258979527E-07	-393127.96875	9.49744862737134E-05
2	632	131.048344669135	0.243072509765625	0.24310302734375	-6.317138671875E-07	-1.53571548366926E-07	-384830.90625	9.49102468439378E-05
2	633	131.14905266888	0.233001708984375	0.2330322265625	-6.207275390625E-07	-1.44649519029372E-07	-375417.90625	9.48471861192957E-05
2	634	131.249760668626	0.222930908203125	0.22296142578125	-6.1004638671875E-07	-1.36016808482964E-07	-365482.75	9.4785209512338E-05
2	635	131.350468668372	0.212860107421875	0.212921142578125	-6.00280761718749E-07	-1.27812469941091E-07	-354702.59375	9.47242660913616E-05
2	636	131.451176668118	0.202789306640625	0.202789306640625	-5.9173583984375E-07	-1.19997707770381E-07	-342702.4375	9.46642394410446E-05
2	637	131.551884667863	0.192718505859375	0.192779541015625	-5.841064453125E-07	-1.12603771640352E-07	-330041.8125	9.4605034973938E-05
2	638	131.652592667609	0.182647705078125	0.182647705078125	-5.7861328125E-07	-1.0568238195674E-07	-315664.5625	9.45464853430167E-05
2	639	131.753300667355	0.172576904296875	0.172607421875	-5.74340820312499E-07	-9.91354838220104E-08	-300531.375	9.44884304772131E-05
2	640	131.854008667101	0.162506103515625	0.16253662109375	-5.7098388671875E-07	-9.28057914961755E-08	-284660.59375	9.44307612371631E-05
2	641	131.954716666846	0.152435302734375	0.1524658203125	-5.706787109375E-07	-8.70089991167333E-08	-267165.78125	9.43732738960534E-05
2	642	132.055424666592	0.142364501953125	0.142364501953125	-5.74340820312499E-07	-8.17657408447303E-08	-247874.609375	9.4315611931961E-05
2	643	132.156132666338	0.132293701171875	0.13232421875	-5.8135986328125E-07	-7.69279893120256E-08	-227611.546875	9.42574188229628E-05
2	644	132.256840666084	0.122222900390625	0.12237548828125	-5.9417724609375E-07	-7.27127229538382E-08	-205957.890625	9.41982289077714E-05
2	645	132.357548665829	0.112152099609375	0.1121826171875	-6.146240234375E-07	-6.89501291617489E-08	-182522.34375	9.41373582463712E-05
2	646	132.458256665575	0.102081298828125	0.102142333984375	-6.451416015625E-07	-6.58962662214435E-08	-158325.453125	9.40739264478907E-05
2	647	132.558964665321	0.092010498046875	0.092010498046875	-6.89086914062501E-07	-6.34032275570462E-08	-133525.25	9.40067402552813E-05
2	648	132.659672665067	0.081939697265625	0.081939697265625	-7.50732421875E-07	-6.15147826010798E-08	-109146.34375	9.39342426136136E-05
2	649	132.760380664812	0.071868896484375	0.0718994140625	-8.36181640625E-07	-6.01209677597581E-08	-85985.3984375	9.3854330771137E-05
2	650	132.861088664558	0.061798095703125	0.061859130859375	-9.50927734375E-07	-5.88235593568243E-08	-65051.3515625	9.37643490033224E-05
2	651	132.961796664304	0.051727294921875	0.051788330078125	-1.09710693359375E-06	-5.68173312842646E-08	-47204.453125	9.3661219580099E-05
2	652	133.062504664049	0.041656494140625	0.041729736328125	-1.27593994140625E-06	-5.32446371437345E-08	-32705.095703125	9.35417265282013E-05
2	653	133.163212663795	0.031585693359375	0.0316864013671875	-1.4801025390625E-06	-4.68991245838879E-08	-21408.25	9.34029521886259E-05
2	654	133.263920663541	0.021514892578125	0.021630859375	-1.69219970703125E-06	-3.66037333776603E-08	-12782.6865234375	9.32432085392065E-05
2	655	133.364628663287	0.011444091796875	0.01156005859375	-1.893310546875E-06	-2.18867786117016E-08	-6105.73828125	9.30626629269682E-05
2	656	133.465336663032	0.001373291015625	0.00147705078125	-2.0611572265625E-06	-3.04443381615727E-09	-716.612426757813	9.28635417949408E-05
2	657	133.566044662778	-0.008697509765625	-0.00860595703125	-2.17926025390625E-06	1.87546209673428E-08	3949.02661132813	9.2650021542795E-05
2	658	133.666752662524	-0.018768310546875	-0.0186309814453125	-2.2418212890625E-06	4.17673291508436E-08	8310.6455078125	9.24273990676738E-05
2	659	133.76746066227	-0.028839111328125	-0.0286865234375	-2.25494384765625E-06	6.46865032649657E-08	12721.61328125	9.22009712667204E-05
2	660	133.868168662015	-0.038909912109375	-0.0387908935546875	-2.22991943359375E-06	8.65005631567328E-08	17395.6484375	9.19751400942914E-05
2	661	133.968876661761	-0.048980712890625	-0.0488311767578125	-2.17864990234375E-06	1.06386032427963E-07	22413.50390625	9.17531506274827E-05
2	662	134.069584661507	-0.059051513671875	-0.058990478515625	-2.11517333984375E-06	1.24775084486828E-07	27889.1953125	9.15369382710196E-05
2	663	134.170292661253	-0.069122314453125	-0.069061279296875	-2.04681396484375E-06	1.41355585014935E-07	33740.8671875	9.13273688638583E-05
2	664	134.271000660998	-0.079193115234375	-0.079132080078125	-1.97906494140625E-06	1.56607512735718E-07	39984.58203125	9.11246461328119E-05
2	665	134.371708660744	-0.089263916015625	-0.089202880859375	-1.9146728515625E-06	1.70794322684742E-07	46589.09765625	9.09285809029825E-05
2	666	134.47241666049	-0.099334716796875	-0.099273681640625	-1.85760498046875E-06	1.84411277359686E-07	53441.76171875	9.07386347535066E-05
2	667	134.573124660236	-0.109405517578125	-0.109344482421875	-1.8060302734375E-06	1.97479437247239E-07	60544.10546875	9.0554152848199E-05
2	668	134.673832659981	-0.119476318359375	-0.119384765625	-1.76055908203125E-06	2.10183927151775E-07	67810.7109375	9.03745603864081E-05
2	669	134.774540659727	-0.129547119140625	-0.129364013671875	-1.72149658203125E-06	2.22699711116547E-07	75146.25	9.01992243598215E-05
2	670	134.875248659473	-0.139617919921875	-0.139495849609375	-1.68670654296875E-06	2.35288553085411E-07	82703.09375	9.00276136235334E-05
2	671	134.975956659218	-0.149688720703125	-0.1495361328125	-1.65802001953125E-06	2.47933883201767E-07	90189.5859375	8.98591897566803E-05
2	672	135.076664658964	-0.159759521484375	-0.15966796875	-1.63360595703125E-06	2.60834553955647E-07	97739.5859375	8.96934434422292E-05
2	673	135.17737265871	-0.169830322265625	-0.169677734375	-1.61346435546875E-06	2.7376896127862E-07	105163.609375	8.95299381227233E-05
2	674	135.278080658456	-0.179901123046875	-0.17974853515625	-1.59698486328125E-06	2.87055684111692E-07	112554.9453125	8.93682808964513E-05
2	675	135.378788658201	-0.189971923828125	-0.1898193359375	-1.58447265625E-06	3.00763559835104E-07	119799.6875	8.92080861376598E-05
2	676	135.479496657947	-0.200042724609375	-0.19989013671875	-1.57562255859375E-06	3.14951392965668E-07	126864.234375	8.90489609446377E-05
2	677	135.580204657693	-0.189971923828125	-0.189910888671875	-1.41265869140625E-06	2.68279251258718E-07	134435.09375	8.88984868652187E-05
