Potential,Current,Normalized_Potential,Normalized_Current
-0.204925537109375,7.5836181640625e-07,-0.206451416015625,0.09695290858725762
-0.19989013671875,9.31701660156251e-07,-0.201416015625,0.11911357340720236
-0.194854736328125,9.36584472656249e-07,-0.196380615234375,0.11973781748663716
-0.1898193359375,9.3841552734375e-07,-0.19134521484375,0.11997190901642543
-0.184783935546875,9.3963623046875e-07,-0.186309814453125,0.1201279700362842
-0.17974853515625,9.42382812499999e-07,-0.1812744140625,0.12047910733096628
-0.174713134765625,9.46655273437501e-07,-0.176239013671875,0.12102532090047223
-0.169677734375,9.53369140625e-07,-0.17120361328125,0.1218836565096953
-0.164642333984375,9.6282958984375e-07,-0.166168212890625,0.12309312941360073
-0.15960693359375,9.7503662109375e-07,-0.1611328125,0.12465373961218837
-0.154571533203125,9.9029541015625e-07,-0.156097412109375,0.12660450236042292
-0.1495361328125,1.00921630859375e-06,-0.15106201171875,0.1290234481682338
-0.144500732421875,1.03240966796875e-06,-0.146026611328125,0.1319886075455503
-0.13946533203125,1.06170654296875e-06,-0.1409912109375,0.13573407202216067
-0.134429931640625,1.09710693359375e-06,-0.135955810546875,0.14025984159806487
-0.12939453125,1.1395263671875e-06,-0.13092041015625,0.14568296203815692
-0.124359130859375,1.19232177734375e-06,-0.125885009765625,0.1524326011470485
-0.11932373046875,1.25518798828125e-06,-0.120849609375,0.1604697436697749
-0.114288330078125,1.3299560546875e-06,-0.115814208984375,0.17002848113612423
-0.1092529296875,1.41937255859375e-06,-0.11077880859375,0.18145995084077876
-0.104217529296875,1.5277099609375e-06,-0.105743408203125,0.19531036635324414
-0.09918212890625,1.6522216796875e-06,-0.1007080078125,0.21122859037883815
-0.094146728515625,1.80328369140625e-06,-0.095672607421875,0.23054114158636027
-0.089111328125,1.97845458984375e-06,-0.09063720703125,0.252935897936093
-0.084075927734375,2.1826171875e-06,-0.085601806640625,0.27903710350747146
-0.07904052734375,2.4169921875e-06,-0.08056640625,0.3090008193203543
-0.074005126953125,2.68310546875e-06,-0.075531005859375,0.34302212164956497
-0.0689697265625,2.9840087890625e-06,-0.07049560546875,0.38149116304475056
-0.063934326171875,3.3184814453125e-06,-0.065460205078125,0.4242518824860521
-0.05889892578125,3.68560791015625e-06,-0.0604248046875,0.4711872342085756
-0.053863525390625,4.08203125e-06,-0.055389404296875,0.5218680504077094
-0.048828125,4.50103759765625e-06,-0.05035400390625,0.5754359954742305
-0.043792724609375,4.94537353515625e-06,-0.045318603515625,0.6322422067028208
-0.03875732421875,5.394287109375e-06,-0.040283203125,0.6896336467558816
-0.033721923828125,5.8392333984375e-06,-0.035247802734375,0.7465178884944014
-0.0286865234375,6.2750244140625e-06,-0.03021240234375,0.8022316725839804
-0.023651123046875,6.67938232421875e-06,-0.025177001953125,0.8539268854121963
-0.01861572265625,7.04345703125e-06,-0.0201416015625,0.9004720845850729
-0.013580322265625,7.34893798828125e-06,-0.015106201171875,0.9395263548047287
-0.008544921875,7.5872802734375e-06,-0.01007080078125,0.9699972689321525
-0.003509521484375,7.745361328125e-06,-0.005035400390625,0.9902071710038627
0.00152587890625,7.82196044921875e-06,0.0,1.0
0.006561279296875,7.7923583984375e-06,0.005035400390625,0.9962155202684251
0.0115966796875,7.67730712890625e-06,0.01007080078125,0.9815067691467365
0.016632080078125,7.47222900390625e-06,0.015106201171875,0.955288517810464
0.02166748046875,7.19024658203125e-06,0.0201416015625,0.9192384222230894
0.026702880859375,6.8359375e-06,0.025177001953125,0.8739417112090828
0.03173828125,6.431884765625e-06,0.03021240234375,0.8222855136358317
0.036773681640625,5.98846435546875e-06,0.035247802734375,0.7655963481721353
0.04180908203125,5.51605224609375e-06,0.040283203125,0.7052007334867934
0.046844482421875,5.04150390625e-06,0.045318603515625,0.6445320120166986
0.0518798828125,4.57366943359375e-06,0.05035400390625,0.584721626155827
0.056915283203125,4.12109375e-06,0.055389404296875,0.5268620030431899
0.06195068359375,3.69598388671875e-06,0.0604248046875,0.47251375287737507
0.066986083984375,3.3013916015625e-06,0.065460205078125,0.4220670282080294
0.072021484375,2.94342041015625e-06,0.07049560546875,0.3763021341344466
0.077056884765625,2.6226806640625e-06,0.075531005859375,0.33529710116655614
0.08209228515625,2.3370361328125e-06,0.08056640625,0.2987788225196052
0.087127685546875,2.08770751953125e-06,0.085601806640625,0.2669033592134525
0.0921630859375,1.871337890625e-06,0.09063720703125,0.23924154344348642
0.097198486328125,1.68609619140625e-06,0.095672607421875,0.21555928367991886
0.10223388671875,1.527099609375e-06,0.1007080078125,0.19523233584331476
0.107269287109375,1.3916015625e-06,0.105743408203125,0.17790956263899185
0.1123046875,1.27777099609375e-06,0.11077880859375,0.16335687253716202
0.117340087890625,1.180419921875e-06,0.115814208984375,0.15091100620342554
0.12237548828125,1.09954833984375e-06,0.120849609375,0.14057196363778238
0.127410888671875,1.0308837890625e-06,0.125885009765625,0.13179353127072685
0.1324462890625,9.735107421875e-07,0.13092041015625,0.12445866333736491
0.137481689453125,9.2437744140625e-07,0.135955810546875,0.11817720728804965
0.14251708984375,8.8348388671875e-07,0.1409912109375,0.11294916312278101
0.147552490234375,8.4930419921875e-07,0.146026611328125,0.10857945456673561
0.152587890625,8.20007324218751e-07,0.15106201171875,0.10483399009012537
0.157623291015625,7.94677734374999e-07,0.156097412109375,0.10159572392805574
0.16265869140625,7.7362060546875e-07,0.1611328125,0.09890367133549219
0.167694091796875,7.55920410156249e-07,0.166168212890625,0.09664078654753996
0.1727294921875,7.39746093750001e-07,0.17120361328125,0.09457297803441159
0.177764892578125,7.269287109375e-07,0.176239013671875,0.09293433732589443
0.18280029296875,7.14721679687501e-07,0.1812744140625,0.0913737271273069
0.187835693359375,7.05566406250001e-07,0.186309814453125,0.09020326947836618
0.19287109375,6.9610595703125e-07,0.19134521484375,0.08899379657446062
0.197906494140625,6.8756103515625e-07,0.196380615234375,0.08790136943544927
0.20294189453125,6.805419921875e-07,0.201416015625,0.08700401857126137
0.207977294921875,6.7474365234375e-07,0.206451416015625,0.08626272872693225
0.2130126953125,6.689453125e-07,0.21148681640625,0.08552143888260309
0.218048095703125,6.640625e-07,0.216522216796875,0.08489719480316806
0.22308349609375,6.5826416015625e-07,0.2215576171875,0.0841559049588389
0.228118896484375,6.54296875e-07,0.226593017578125,0.08364870664429792
0.233154296875,6.50634765625001e-07,0.23162841796875,0.08318052358472176
0.238189697265625,6.4666748046875e-07,0.236663818359375,0.08267332527018065
0.24322509765625,6.43310546874999e-07,0.24169921875,0.08224415746556892
0.248260498046875,6.40869140625e-07,0.246734619140625,0.08193203542585152
0.2532958984375,6.38122558593751e-07,0.25177001953125,0.08158089813116942
0.258331298828125,6.35375976562501e-07,0.256805419921875,0.0812297608364872
0.26336669921875,6.33544921875e-07,0.2618408203125,0.08099566930669892
0.268402099609375,6.3201904296875e-07,0.266876220703125,0.08080059303187546
0.2734375,6.304931640625e-07,0.27191162109375,0.08060551675705202
0.278472900390625,6.28662109375e-07,0.276947021484375,0.08037142522726387
0.28350830078125,6.2744140625e-07,0.281982421875,0.08021536420740509
0.288543701171875,6.26831054687499e-07,0.287017822265625,0.0801373336974756
0.2935791015625,6.256103515625e-07,0.29205322265625,0.07998127267761695
0.298614501953125,6.256103515625e-07,0.297088623046875,0.07998127267761695
0.30364990234375,6.24694824218749e-07,0.3021240234375,0.07986422691272275
0.308685302734375,6.256103515625e-07,0.307159423828125,0.07998127267761695
0.313720703125,6.256103515625e-07,0.31219482421875,0.07998127267761695
0.318756103515625,6.2591552734375e-07,0.317230224609375,0.08002028793258165
0.32379150390625,6.26831054687499e-07,0.322265625,0.0801373336974756
0.328826904296875,6.2744140625e-07,0.327301025390625,0.08021536420740509
0.3338623046875,6.29577636718749e-07,0.33233642578125,0.08048847099215782
0.338897705078125,6.31103515625001e-07,0.337371826171875,0.08068354726698151
0.34393310546875,6.3323974609375e-07,0.3424072265625,0.08095665405173424
0.348968505859375,6.35375976562501e-07,0.347442626953125,0.0812297608364872
0.35400390625,6.3751220703125e-07,0.35247802734375,0.0815028676212399
0.359039306640625,6.40258789062499e-07,0.357513427734375,0.081854004915922
0.36407470703125,6.42089843749999e-07,0.362548828125,0.08208809644571015
0.369110107421875,6.4544677734375e-07,0.367584228515625,0.08251726425032188
0.3741455078125,6.4849853515625e-07,0.37261962890625,0.0829074167999688
0.379180908203125,6.512451171875e-07,0.377655029296875,0.08325855409465102
0.38421630859375,6.53991699218751e-07,0.3826904296875,0.08360969138933336
0.389251708984375,6.5765380859375e-07,0.387725830078125,0.08407787444890953
0.394287109375,6.610107421875e-07,0.39276123046875,0.08450704225352113
0.399322509765625,6.6497802734375e-07,0.397796630859375,0.08501424056806212
0.40435791015625,6.683349609375e-07,0.40283203125,0.08544340837267372
0.409393310546875,6.719970703125e-07,0.407867431640625,0.08591159143225002
0.4144287109375,6.76879882812499e-07,0.41290283203125,0.08653583551168495
0.419464111328125,6.817626953125e-07,0.417938232421875,0.08716007959112013
0.42449951171875,6.8756103515625e-07,0.4229736328125,0.08790136943544927
0.429534912109375,6.9427490234375e-07,0.428009033203125,0.08875970504467247
0.4345703125,7.0220947265625e-07,0.43304443359375,0.08977410167375444
0.439605712890625,7.10449218750001e-07,0.438079833984375,0.09082751355780123
0.44464111328125,7.19604492187499e-07,0.443115234375,0.0919979712067417
0.449676513671875,7.31201171875001e-07,0.448150634765625,0.09348055089540024
0.4547119140625,7.43408203125e-07,0.45318603515625,0.09504116109398776
0.459747314453125,7.586669921875e-07,0.458221435546875,0.09699192384222231
0.46478271484375,7.75146484375e-07,0.4632568359375,0.09909874761031563
0.469818115234375,7.94372558593751e-07,0.468292236328125,0.10155670867309131
0.474853515625,8.15124511718751e-07,0.47332763671875,0.10420974601069032
0.479888916015625,8.40148925781249e-07,0.478363037109375,0.10740899691779474
0.48492431640625,8.70056152343751e-07,0.4833984375,0.11123249190433472
0.489959716796875,9.0301513671875e-07,0.488433837890625,0.11544613944052126
0.4949951171875,9.42077636718751e-07,0.49346923828125,0.12044009207600186
0.500030517578125,9.87548828125001e-07,0.498504638671875,0.12625336506574084
0.50506591796875,1.04095458984375e-06,0.5035400390625,0.13308103468456167
0.510101318359375,1.1041259765625e-06,0.508575439453125,0.14115719246225275
0.51513671875,1.17828369140625e-06,0.51361083984375,0.1506378994186727
0.520172119140625,1.265869140625e-06,0.518646240234375,0.1618352775935391
0.52520751953125,1.36962890625e-06,0.523681640625,0.1751004642815341
0.530242919921875,1.492919921875e-06,0.528717041015625,0.19086262728726933
0.5352783203125,1.63970947265625e-06,0.53375244140625,0.2096289649252858
0.540313720703125,1.812744140625e-06,0.538787841796875,0.2317506144902657
0.54534912109375,2.01629638671875e-06,0.5438232421875,0.25777378955171476
0.550384521484375,2.25128173828125e-06,0.548858642578125,0.28781553587452696
0.555419921875,2.5201416015625e-06,0.55389404296875,0.32218797549841993
0.560455322265625,2.82440185546875e-06,0.558929443359375,0.361086184698217
0.56549072265625,3.1646728515625e-06,0.56396484375,0.4045881939838477
0.570526123046875,3.54522705078125e-06,0.569000244140625,0.45324021692481764
0.5755615234375,3.9703369140625e-06,0.57403564453125,0.5075884670906324
0.580596923828125,4.442138671875e-06,0.579071044921875,0.5679060512660451
0.58563232421875,4.96612548828125e-06,0.5841064453125,0.6348952440404199
0.590667724609375,5.53619384765625e-06,0.589141845703125,0.707775740314463
0.595703125,6.15631103515625e-06,0.59417724609375,0.7870547384027154
0.600738525390625,6.81365966796875e-06,0.599212646484375,0.8710935975966604
0.60577392578125,7.50457763671875e-06,0.604248046875,0.9594241348367212
0.610809326171875,8.214111328125e-06,0.609283447265625,1.0501346026296283
0.6158447265625,8.93829345703125e-06,0.61431884765625,1.1427178026608404
0.620880126953125,9.65362548828125e-06,0.619354248046875,1.2341695602980767
0.62591552734375,1.03494262695313e-05,0.6243896484375,1.323124341617579
0.630950927734375,1.10076904296875e-05,0.629425048828125,1.4072802465764116
0.635986328125,1.16207885742188e-05,0.63446044921875,1.4856618938004824
0.641021728515625,1.21670532226562e-05,0.639495849609375,1.555499200187267
0.64605712890625,1.26358032226562e-05,0.64453125,1.6154266318130326
0.651092529296875,1.3017578125e-05,0.649566650390625,1.6642347157738677
0.6561279296875,1.33108520507813e-05,0.65460205078125,1.7017283757949422
0.661163330078125,1.34991455078125e-05,0.659637451171875,1.7258007881081505
0.66619873046875,1.35772705078125e-05,0.6646728515625,1.7357886933791113
0.671234130859375,1.35443115234375e-05,0.669708251953125,1.7315750458429247
0.67626953125,1.34051513671875e-05,0.67474365234375,1.7137840895790255
0.681304931640625,1.31515502929688e-05,0.679779052734375,1.6813624127033737
0.68634033203125,1.27896118164063e-05,0.684814453125,1.6350903203152498
0.691375732421875,1.23233032226563e-05,0.689849853515625,1.5754750107292015
0.6964111328125,1.17727661132812e-05,0.69488525390625,1.5050914907728858
0.701446533203125,1.1129150390625e-05,0.699920654296875,1.4228083180523585
0.70648193359375,1.04376220703125e-05,0.7049560546875,1.3343997503023683
0.711517333984375,9.7088623046875e-06,0.709991455078125,1.2412313214466857
0.716552734375,8.96575927734375e-06,0.71502685546875,1.1462291756076626
0.721588134765625,8.240966796875e-06,0.720062255859375,1.0535679450665212
0.72662353515625,7.5457763671875e-06,0.72509765625,0.9646911942569546
0.731658935546875,6.9097900390625e-06,0.730133056640625,0.8833834029105381
0.7366943359375,6.34368896484375e-06,0.73516845703125,0.8110101049510359
0.741729736328125,5.8612060546875e-06,0.740203857421875,0.7493269868518592
0.74676513671875,5.46539306640625e-06,0.7452392578125,0.6987242011626547
0.751800537109375,5.15869140625e-06,0.750274658203125,0.65951386992314
0.7568359375,4.954833984375e-06,0.75531005859375,0.6334516796067263
0.761871337890625,4.83978271484375e-06,0.760345458984375,0.6187429284850378
0.76690673828125,4.81231689453125e-06,0.765380859375,0.6152315555382155
0.771942138671875,4.873046875e-06,0.770416259765625,0.622995591276189
0.7769775390625,5.0054931640625e-06,0.77545166015625,0.639928211930865
0.782012939453125,5.20111083984375e-06,0.780487060546875,0.6649369903632321
0.78704833984375,5.45379638671875e-06,0.7855224609375,0.6972416214739964
0.792083740234375,5.74554443359375e-06,0.790557861328125,0.7345402052202411
0.797119140625,6.0650634765625e-06,0.79559326171875,0.7753891771682728
0.802154541015625,6.38946533203125e-06,0.800628662109375,0.8168623931957396
0.80718994140625,6.705322265625e-06,0.8056640625,0.8572431820841949
0.812225341796875,6.99310302734375e-06,0.810699462890625,0.8940345675158987
0.8172607421875,7.23785400390625e-06,0.81573486328125,0.925324801997581
0.822296142578125,7.42279052734375e-06,0.820770263671875,0.9489680465061839
0.82733154296875,7.54119873046875e-06,0.8258056640625,0.9641059654324842
0.832366943359375,7.5885009765625e-06,0.830841064453125,0.9701533299520113
0.83740234375,7.554931640625e-06,0.83587646484375,0.9658616519058952
0.842437744140625,7.44171142578125e-06,0.840911865234375,0.9513869923139949
0.84747314453125,7.25250244140625e-06,0.845947265625,0.9271975342358862
0.852508544921875,7.00164794921875e-06,0.850982666015625,0.8951269946549101
0.8575439453125,6.69281005859375e-06,0.85601806640625,0.8556435566306426
0.862579345703125,6.33880615234375e-06,0.861053466796875,0.8103858608716009
0.86761474609375,5.9600830078125e-06,0.8660888671875,0.7619679294604191
0.872650146484375,5.57159423828125e-06,0.871124267578125,0.7123015098903672
0.877685546875,5.1873779296875e-06,0.87615966796875,0.6631813038898209
0.882720947265625,4.827880859375e-06,0.881195068359375,0.6172213335414147
0.88775634765625,4.4952392578125e-06,0.88623046875,0.5746947056299013
0.892791748046875,4.205322265625e-06,0.891265869140625,0.5376302134134447
0.8978271484375,3.9642333984375e-06,0.89630126953125,0.5068081619913386
0.902862548828125,3.7811279296875e-06,0.901336669921875,0.4833990090125239
0.90789794921875,3.6651611328125e-06,0.9063720703125,0.4685732121259413
0.912933349609375,3.6163330078125e-06,0.911407470703125,0.4623307713315907
0.91796875,3.631591796875e-06,0.91644287109375,0.4642815340798252
0.923004150390625,3.7200927734375e-06,0.921478271484375,0.47559595801958565
0.92803955078125,3.875732421875e-06,0.926513671875,0.4954937380515782
0.933074951171875,4.095458984375e-06,0.931549072265625,0.5235847216261559
0.9381103515625,4.3670654296875e-06,0.93658447265625,0.5583082985447311
0.943145751953125,4.69970703125e-06,0.941619873046875,0.6008349264562445
0.94818115234375,5.0689697265625e-06,0.9466552734375,0.6480433849635208
0.953216552734375,5.46783447265625e-06,0.951690673828125,0.6990363232023722
0.958251953125,5.88714599609375e-06,0.95672607421875,0.7526432835238579
0.963287353515625,6.30462646484375e-06,0.961761474609375,0.8060161523155555
0.96832275390625,6.7083740234375e-06,0.966796875,0.8576333346338418
0.973358154296875,7.07611083984375e-06,0.971832275390625,0.9046467168662947
0.9783935546875,7.38861083984375e-06,0.97686767578125,0.9445983379501386
0.983428955078125,7.63641357421875e-06,0.981903076171875,0.9762787249814678
0.98846435546875,7.80517578125e-06,0.9869384765625,0.997854160976942
0.993499755859375,7.89306640625e-06,0.991973876953125,1.009090554406773
0.99853515625,7.8875732421875e-06,0.99700927734375,1.0083882798174089
1.00357055664063,7.79876708984375e-06,1.00204467773438,0.9970348406226835
1.00860595703125,7.62054443359375e-06,1.007080078125,0.9742499317233039
1.01364135742188,7.36083984375e-06,1.01211547851563,0.9410479497483517
1.0186767578125,7.02545166015625e-06,1.01715087890625,0.898170184542156
1.02371215820313,6.634521484375e-06,1.02218627929688,0.8481916429323867
1.02874755859375,6.1981201171875e-06,1.0272216796875,0.7923998283328783
1.03378295898438,5.72509765625e-06,1.03225708007813,0.7319261831376068
1.038818359375,5.2398681640625e-06,1.03729248046875,0.6698919277437478
1.04385375976563,4.754638671875e-06,1.04232788085938,0.6078576723498889
1.04888916015625,4.28466796875e-06,1.04736328125,0.5477741797042643
1.05392456054688,3.8360595703125e-06,1.05239868164063,0.49042175490616835
1.0589599609375,3.41796875e-06,1.05743408203125,0.4369708556045414
1.06399536132813,3.033447265625e-06,1.06246948242188,0.3878116343490305
1.06903076171875,2.685546875e-06,1.0675048828125,0.3433342436892825
1.07406616210938,2.38037109375e-06,1.07254028320313,0.30431898872459134
1.0791015625,2.1087646484375e-06,1.07757568359375,0.26959541180601615
1.08413696289063,1.873779296875e-06,1.08261108398438,0.23955366548320395
1.08917236328125,1.67236328125e-06,1.087646484375,0.21380359720650777
1.09420776367188,1.50146484375e-06,1.09268188476563,0.1919550544262807
1.0992431640625,1.35498046875e-06,1.09771728515625,0.17322773204322892
1.10427856445313,1.23291015625e-06,1.10275268554688,0.15762163005735244
1.10931396484375,1.129150390625e-06,1.1077880859375,0.14435644336935743
1.11434936523438,1.043701171875e-06,1.11282348632813,0.1334321719792439
1.119384765625,9.735107421875e-07,1.11785888671875,0.12445866333736491
1.12442016601563,9.1552734375e-07,1.12289428710938,0.11704576489407359
1.12945556640625,8.6669921875e-07,1.1279296875,0.110803324099723
1.13449096679688,8.23974609375001e-07,1.13296508789063,0.10534118840466637
1.1395263671875,7.9345703125e-07,1.13800048828125,0.1014396629081971
1.14456176757813,7.6904296875e-07,1.14303588867188,0.09831844251102181
1.14959716796875,7.476806640625e-07,1.1480712890625,0.09558737466349343
1.15463256835938,7.29370117187499e-07,1.15310668945313,0.09324645936561184
