Potential,Current,Normalized_Potential,Normalized_Current
-0.204925537109375,7.63549804687499e-07,-0.206451416015625,0.09800618903991525
-0.19989013671875,9.521484375e-07,-0.201416015625,0.12221395275960671
-0.194854736328125,9.6221923828125e-07,-0.196380615234375,0.12350660033687179
-0.1898193359375,9.6710205078125e-07,-0.19134521484375,0.12413333855615183
-0.184783935546875,9.716796875e-07,-0.186309814453125,0.12472090563672686
-0.17974853515625,9.7808837890625e-07,-0.1812744140625,0.1255434995495319
-0.174713134765625,9.84497070312501e-07,-0.176239013671875,0.12636609346233707
-0.169677734375,9.94873046875e-07,-0.17120361328125,0.127697912178307
-0.164642333984375,1.0064697265625e-06,-0.166168212890625,0.12918641544909712
-0.15960693359375,1.0211181640625e-06,-0.1611328125,0.1310666301069372
-0.154571533203125,1.0382080078125e-06,-0.156097412109375,0.13326021387441733
-0.1495361328125,1.05865478515625e-06,-0.15106201171875,0.13588468016765246
-0.144500732421875,1.083984375e-06,-0.146026611328125,0.13913588468016766
-0.13946533203125,1.11480712890625e-06,-0.1409912109375,0.14309216968937286
-0.134429931640625,1.15203857421875e-06,-0.135955810546875,0.14787104861138312
-0.12939453125,1.1956787109375e-06,-0.13092041015625,0.15347252144619844
-0.124359130859375,1.25030517578125e-06,-0.125885009765625,0.1604841552743938
-0.11932373046875,1.31439208984375e-06,-0.120849609375,0.16871009440244425
-0.114288330078125,1.38946533203125e-06,-0.115814208984375,0.1783461945238748
-0.1092529296875,1.48040771484375e-06,-0.11077880859375,0.19001919385796542
-0.104217529296875,1.58905029296875e-06,-0.105743408203125,0.20396411923694618
-0.09918212890625,1.7144775390625e-06,-0.1007080078125,0.22006345724470208
-0.094146728515625,1.86492919921875e-06,-0.095672607421875,0.23937482862626813
-0.089111328125,2.04010009765625e-06,-0.09063720703125,0.2618590622429394
-0.084075927734375,2.24395751953125e-06,-0.085601806640625,0.2880253828978808
-0.07904052734375,2.4774169921875e-06,-0.08056640625,0.3179913040072075
-0.074005126953125,2.7423095703125e-06,-0.075531005859375,0.35199185240314934
-0.0689697265625,3.04168701171875e-06,-0.07049560546875,0.3904187394727564
-0.063934326171875,3.37432861328125e-06,-0.065460205078125,0.4331152806612088
-0.05889892578125,3.73809814453125e-06,-0.0604248046875,0.4798072779975714
-0.053863525390625,4.1314697265625e-06,-0.055389404296875,0.5302988757883191
-0.048828125,4.54681396484375e-06,-0.05035400390625,0.5836107955658271
-0.043792724609375,4.98565673828125e-06,-0.045318603515625,0.6399388930236201
-0.03875732421875,5.42938232421875e-06,-0.040283203125,0.6968937287006933
-0.033721923828125,5.8697509765625e-06,-0.035247802734375,0.7534176818520114
-0.0286865234375,6.29730224609375e-06,-0.03021240234375,0.8082964471777194
-0.023651123046875,6.69525146484375e-06,-0.025177001953125,0.8593756120490422
-0.01861572265625,7.04986572265625e-06,-0.0201416015625,0.9048924752242546
-0.013580322265625,7.34649658203125e-06,-0.015106201171875,0.9429668220455169
-0.008544921875,7.57568359375e-06,-0.01007080078125,0.9723843472129734
-0.003509521484375,7.72613525390625e-06,-0.005035400390625,0.9916957185945395
0.00152587890625,7.79083251953125e-06,0.0,1.0
0.006561279296875,7.7532958984375e-06,0.005035400390625,0.9951819499392847
0.0115966796875,7.630615234375e-06,0.01007080078125,0.9794351521798738
0.016632080078125,7.41851806640625e-06,0.015106201171875,0.9522112107798973
0.02166748046875,7.12921142578125e-06,0.0201416015625,0.9150769712875553
0.026702880859375,6.77490234375e-06,0.025177001953125,0.8695992792510477
0.03173828125,6.3671875e-06,0.03021240234375,0.8172666379411648
0.036773681640625,5.92132568359375e-06,0.035247802734375,0.7600376042931568
0.04180908203125,5.4559326171875e-06,0.040283203125,0.7003016177680285
0.046844482421875,4.984130859375e-06,0.045318603515625,0.6397430373300951
0.0518798828125,4.52789306640625e-06,0.05035400390625,0.581182184966117
0.056915283203125,4.08172607421875e-06,0.055389404296875,0.5239139801794038
0.06195068359375,3.66607666015625e-06,0.0604248046875,0.47056288926319084
0.066986083984375,3.28216552734375e-06,0.065460205078125,0.42128559677229815
0.072021484375,2.93548583984375e-06,0.07049560546875,0.3767871832034157
0.077056884765625,2.62420654296875e-06,0.075531005859375,0.3368326217243135
0.08209228515625,2.34954833984375e-06,0.08056640625,0.3015785968898116
0.087127685546875,2.109375e-06,0.085601806640625,0.2707509107289749
0.0921630859375,1.9024658203125e-06,0.09063720703125,0.24419287868698342
0.097198486328125,1.7242431640625e-06,0.095672607421875,0.22131693368326216
0.10223388671875,1.57257080078125e-06,0.1007080078125,0.2018488777468761
0.107269287109375,1.44378662109375e-06,0.105743408203125,0.18531865721336518
0.1123046875,1.33392333984375e-06,0.11077880859375,0.1712170472795644
0.117340087890625,1.2420654296875e-06,0.115814208984375,0.15942653452935876
0.12237548828125,1.16455078125e-06,0.120849609375,0.14947706529828822
0.127410888671875,1.09893798828125e-06,0.125885009765625,0.14105527047671276
0.1324462890625,1.0443115234375e-06,0.13092041015625,0.13404363664851737
0.137481689453125,9.97619628906249e-07,0.135955810546875,0.12805045242665192
0.14251708984375,9.5855712890625e-07,0.1409912109375,0.12303654667241176
0.147552490234375,9.25598144531251e-07,0.146026611328125,0.11880606369227166
0.152587890625,8.9752197265625e-07,0.15106201171875,0.11520231893141132
0.157623291015625,8.72802734375e-07,0.156097412109375,0.11202945669630615
0.16265869140625,8.52050781249999e-07,0.1611328125,0.10936581926436588
0.167694091796875,8.3465576171875e-07,0.166168212890625,0.10713306435818089
0.1727294921875,8.19091796875e-07,0.17120361328125,0.10513533628422578
0.177764892578125,8.05053710937499e-07,0.176239013671875,0.10333346390379554
0.18280029296875,7.9315185546875e-07,0.1812744140625,0.1018057894943006
0.187835693359375,7.82470703125e-07,0.186309814453125,0.10043479963962551
0.19287109375,7.733154296875e-07,0.19134521484375,0.09925966547847546
0.197906494140625,7.64770507812501e-07,0.196380615234375,0.09816287359473552
0.20294189453125,7.568359375e-07,0.201416015625,0.09714442398840534
0.207977294921875,7.4981689453125e-07,0.206451416015625,0.0962434877981903
0.2130126953125,7.4310302734375e-07,0.21148681640625,0.09538172274668023
0.218048095703125,7.373046875e-07,0.216522216796875,0.0946374711112852
0.22308349609375,7.32421875e-07,0.2215576171875,0.09401073289200516
0.228118896484375,7.26928710937499e-07,0.226593017578125,0.09330565239531499
0.233154296875,7.22351074218749e-07,0.23162841796875,0.09271808531473998
0.238189697265625,7.1746826171875e-07,0.236663818359375,0.09209134709546006
0.24322509765625,7.13500976562501e-07,0.24169921875,0.09158212229229516
0.248260498046875,7.10449218749999e-07,0.246734619140625,0.09119041090524488
0.2532958984375,7.06787109375e-07,0.25177001953125,0.09072035724078499
0.258331298828125,7.02819824218749e-07,0.256805419921875,0.09021113243761983
0.26336669921875,7.01293945312501e-07,0.2618408203125,0.09001527674409507
0.268402099609375,6.9854736328125e-07,0.266876220703125,0.08966273649574993
0.2734375,6.9580078125e-07,0.27191162109375,0.08931019624740491
0.278472900390625,6.9427490234375e-07,0.276947021484375,0.08911434055387989
0.28350830078125,6.92138671875e-07,0.281982421875,0.08884014258294487
0.288543701171875,6.9122314453125e-07,0.287017822265625,0.08872262916682988
0.2935791015625,6.8939208984375e-07,0.29205322265625,0.08848760233459986
0.298614501953125,6.89086914062501e-07,0.297088623046875,0.08844843119589499
0.30364990234375,6.8817138671875e-07,0.3021240234375,0.08833091777977986
0.308685302734375,6.87561035156249e-07,0.307159423828125,0.08825257550236972
0.313720703125,6.8695068359375e-07,0.31219482421875,0.08817423322495983
0.318756103515625,6.87255859375e-07,0.317230224609375,0.08821340436366484
0.32379150390625,6.8817138671875e-07,0.322265625,0.08833091777977986
0.328826904296875,6.878662109375e-07,0.327301025390625,0.08829174664107485
0.3338623046875,6.89086914062501e-07,0.33233642578125,0.08844843119589499
0.338897705078125,6.8939208984375e-07,0.337371826171875,0.08848760233459986
0.34393310546875,6.9122314453125e-07,0.3424072265625,0.08872262916682988
0.348968505859375,6.927490234375e-07,0.347442626953125,0.08891848486035489
0.35400390625,6.93664550781249e-07,0.35247802734375,0.08903599827646975
0.359039306640625,6.9610595703125e-07,0.357513427734375,0.0893493673861099
0.36407470703125,6.97937011718749e-07,0.362548828125,0.08958439421833979
0.369110107421875,6.99462890625e-07,0.367584228515625,0.08978024991186492
0.3741455078125,7.0068359375e-07,0.37261962890625,0.08993693446668495
0.379180908203125,7.0220947265625e-07,0.377655029296875,0.09013279016020995
0.38421630859375,7.037353515625e-07,0.3826904296875,0.09032864585373497
0.389251708984375,7.05871582031251e-07,0.387725830078125,0.0906028438246701
0.394287109375,7.061767578125e-07,0.39276123046875,0.09064201496337498
0.399322509765625,7.0770263671875e-07,0.397796630859375,0.09083787065689998
0.40435791015625,7.08618164062501e-07,0.40283203125,0.09095538407301512
0.409393310546875,7.10449218750001e-07,0.407867431640625,0.09119041090524514
0.4144287109375,7.10754394531249e-07,0.41290283203125,0.09122958204394989
0.419464111328125,7.11669921875001e-07,0.417938232421875,0.09134709546006514
0.42449951171875,7.13500976562501e-07,0.4229736328125,0.09158212229229516
0.429534912109375,7.15332031249999e-07,0.428009033203125,0.09181714912452492
0.4345703125,7.159423828125e-07,0.43304443359375,0.09189549140193505
0.439605712890625,7.18078613281249e-07,0.438079833984375,0.09216968937286994
0.44464111328125,7.1990966796875e-07,0.443115234375,0.09240471620510007
0.449676513671875,7.21435546875e-07,0.448150634765625,0.0926005718986251
0.4547119140625,7.24182128906251e-07,0.45318603515625,0.09295311214697023
0.459747314453125,7.26318359375e-07,0.458221435546875,0.09322731011790512
0.46478271484375,7.2906494140625e-07,0.4632568359375,0.09357985036625015
0.469818115234375,7.31201171875e-07,0.468292236328125,0.09385404833718515
0.474853515625,7.34252929687501e-07,0.47332763671875,0.09424575972423531
0.479888916015625,7.3699951171875e-07,0.478363037109375,0.09459829997258021
0.48492431640625,7.39440917968751e-07,0.4833984375,0.09491166908222035
0.489959716796875,7.42492675781251e-07,0.488433837890625,0.09530338046927037
0.4949951171875,7.45239257812499e-07,0.49346923828125,0.09565592071761513
0.500030517578125,7.4798583984375e-07,0.498504638671875,0.09600846096596027
0.50506591796875,7.5103759765625e-07,0.5035400390625,0.0964001723530103
0.510101318359375,7.5408935546875e-07,0.508575439453125,0.09679188374006031
0.51513671875,7.568359375e-07,0.51361083984375,0.09714442398840534
0.520172119140625,7.60498046874999e-07,0.518646240234375,0.09761447765286523
0.52520751953125,7.62939453125e-07,0.523681640625,0.09792784676250539
0.530242919921875,7.659912109375e-07,0.528717041015625,0.09831955814955541
0.5352783203125,7.68432617187501e-07,0.53375244140625,0.09863292725919555
0.540313720703125,7.72399902343751e-07,0.538787841796875,0.09914215206236057
0.54534912109375,7.7545166015625e-07,0.5438232421875,0.09953386344941047
0.550384521484375,7.781982421875e-07,0.548858642578125,0.09988640369775548
0.555419921875,7.8125e-07,0.55389404296875,0.10027811508480551
0.560455322265625,7.84606933593751e-07,0.558929443359375,0.10070899761056065
0.56549072265625,7.86437988281251e-07,0.56396484375,0.10094402444279067
0.570526123046875,7.89489746093749e-07,0.569000244140625,0.10133573582984043
0.5755615234375,7.92846679687499e-07,0.57403564453125,0.10176661835559547
0.580596923828125,7.9498291015625e-07,0.579071044921875,0.1020408163265306
0.58563232421875,7.97424316406251e-07,0.5841064453125,0.10235418543617075
0.590667724609375,7.9925537109375e-07,0.589141845703125,0.10258921226840065
0.595703125,8.0169677734375e-07,0.59417724609375,0.10290258137804066
0.600738525390625,8.03833007812499e-07,0.599212646484375,0.10317677934897554
0.60577392578125,8.056640625e-07,0.604248046875,0.10341180618120568
0.610809326171875,8.06884765625e-07,0.609283447265625,0.1035684907360257
0.6158447265625,8.07800292968751e-07,0.61431884765625,0.10368600415214083
0.620880126953125,8.09326171875e-07,0.619354248046875,0.1038818598456657
0.62591552734375,8.10546875000001e-07,0.6243896484375,0.10403854440048584
0.630950927734375,8.1024169921875e-07,0.629425048828125,0.10399937326178071
0.635986328125,8.11157226562501e-07,0.63446044921875,0.10411688667789586
0.641021728515625,8.10546875e-07,0.639495849609375,0.10403854440048571
0.64605712890625,8.10546875e-07,0.64453125,0.10403854440048571
0.651092529296875,8.1024169921875e-07,0.649566650390625,0.10399937326178071
0.6561279296875,8.09326171875001e-07,0.65460205078125,0.10388185984566584
0.661163330078125,8.07800292968749e-07,0.659637451171875,0.10368600415214056
0.66619873046875,8.06274414062501e-07,0.6646728515625,0.10349014845861582
0.671234130859375,8.0413818359375e-07,0.669708251953125,0.10321595048768066
0.67626953125,8.026123046875e-07,0.67474365234375,0.10302009479415566
0.681304931640625,8.013916015625e-07,0.679779052734375,0.10286341023933565
0.68634033203125,7.98645019531249e-07,0.684814453125,0.1025108699909905
0.691375732421875,7.9559326171875e-07,0.689849853515625,0.10211915860394061
0.6964111328125,7.92846679687499e-07,0.69488525390625,0.10176661835559547
0.701446533203125,7.9010009765625e-07,0.699920654296875,0.10141407810725057
0.70648193359375,7.87353515625e-07,0.7049560546875,0.10106153785890555
0.711517333984375,7.84606933593751e-07,0.709991455078125,0.10070899761056065
0.716552734375,7.8155517578125e-07,0.71502685546875,0.10031728622351051
0.721588134765625,7.7850341796875e-07,0.720062255859375,0.0999255748364605
0.72662353515625,7.75146484375e-07,0.72509765625,0.09949469231070546
0.731658935546875,7.720947265625e-07,0.730133056640625,0.09910298092365544
0.7366943359375,7.68737792968749e-07,0.73516845703125,0.09867209839790028
0.741729736328125,7.65380859374999e-07,0.740203857421875,0.09824121587214527
0.74676513671875,7.6263427734375e-07,0.7452392578125,0.09788867562380037
0.751800537109375,7.586669921875e-07,0.750274658203125,0.09737945082063534
0.7568359375,7.5653076171875e-07,0.75531005859375,0.09710525284970033
0.761871337890625,7.53173828124999e-07,0.760345458984375,0.09667437032394517
0.76690673828125,7.5042724609375e-07,0.765380859375,0.0963218300756003
0.771942138671875,7.476806640625e-07,0.770416259765625,0.09596928982725528
0.7769775390625,7.4615478515625e-07,0.77545166015625,0.09577343413373025
0.782012939453125,7.43713378906251e-07,0.780487060546875,0.09546006502409038
0.78704833984375,7.415771484375e-07,0.7855224609375,0.09518586705315522
0.792083740234375,7.4005126953125e-07,0.790557861328125,0.09499001135963023
0.797119140625,7.3822021484375e-07,0.79559326171875,0.09475498452740021
0.802154541015625,7.373046875e-07,0.800628662109375,0.0946374711112852
0.80718994140625,7.354736328125e-07,0.8056640625,0.09440244427905518
0.812225341796875,7.3516845703125e-07,0.810699462890625,0.09436327314035019
0.8172607421875,7.342529296875e-07,0.81573486328125,0.09424575972423518
0.822296142578125,7.33032226562501e-07,0.820770263671875,0.09408907516941531
0.82733154296875,7.3272705078125e-07,0.8258056640625,0.09404990403071016
0.832366943359375,7.33032226562501e-07,0.830841064453125,0.09408907516941531
0.83740234375,7.33032226562501e-07,0.83587646484375,0.09408907516941531
0.842437744140625,7.33337402343751e-07,0.840911865234375,0.0941282463081203
0.84747314453125,7.33337402343749e-07,0.845947265625,0.09412824630812004
0.852508544921875,7.34558105468751e-07,0.850982666015625,0.0942849308629403
0.8575439453125,7.3577880859375e-07,0.85601806640625,0.09444161541776018
0.862579345703125,7.354736328125e-07,0.861053466796875,0.09440244427905518
0.86761474609375,7.373046875e-07,0.8660888671875,0.0946374711112852
0.872650146484375,7.38525390625e-07,0.871124267578125,0.0947941556661052
0.877685546875,7.39746093749999e-07,0.87615966796875,0.09495084022092508
0.882720947265625,7.4127197265625e-07,0.881195068359375,0.09514669591445023
0.88775634765625,7.4310302734375e-07,0.88623046875,0.09538172274668023
0.892791748046875,7.45239257812501e-07,0.891265869140625,0.09565592071761538
0.8978271484375,7.464599609375e-07,0.89630126953125,0.09581260527243526
0.902862548828125,7.4737548828125e-07,0.901336669921875,0.09593011868855028
0.90789794921875,7.4920654296875e-07,0.9063720703125,0.09616514552078027
0.912933349609375,7.5042724609375e-07,0.911407470703125,0.0963218300756003
0.91796875,7.525634765625e-07,0.91644287109375,0.09659602804653532
0.923004150390625,7.5347900390625e-07,0.921478271484375,0.09671354146265031
0.92803955078125,7.550048828125e-07,0.926513671875,0.09690939715617533
0.933074951171875,7.55920410156251e-07,0.931549072265625,0.09702691057229046
0.9381103515625,7.56530761718749e-07,0.93658447265625,0.09710525284970022
0.943145751953125,7.574462890625e-07,0.941619873046875,0.09722276626581533
0.94818115234375,7.58056640625e-07,0.9466552734375,0.09730110854322535
0.953216552734375,7.586669921875e-07,0.951690673828125,0.09737945082063534
0.958251953125,7.5836181640625e-07,0.95672607421875,0.09734027968193035
0.963287353515625,7.59277343749999e-07,0.961761474609375,0.09745779309804523
0.96832275390625,7.58972167968749e-07,0.966796875,0.09741862195934023
0.973358154296875,7.59277343750001e-07,0.971832275390625,0.09745779309804549
0.9783935546875,7.586669921875e-07,0.97686767578125,0.09737945082063534
0.983428955078125,7.58056640625e-07,0.981903076171875,0.09730110854322535
0.98846435546875,7.5714111328125e-07,0.9869384765625,0.09718359512711033
0.993499755859375,7.5653076171875e-07,0.991973876953125,0.09710525284970033
0.99853515625,7.5531005859375e-07,0.99700927734375,0.09694856829488033
1.00357055664063,7.537841796875e-07,1.00204467773438,0.09675271260135532
1.00860595703125,7.52868652343749e-07,1.007080078125,0.09663519918524018
1.01364135742188,7.51647949218751e-07,1.01211547851563,0.09647851463042043
1.0186767578125,7.4951171875e-07,1.01715087890625,0.09620431665948528
1.02371215820313,7.476806640625e-07,1.02218627929688,0.09596928982725528
1.02874755859375,7.464599609375e-07,1.0272216796875,0.09581260527243526
1.03378295898438,7.4462890625e-07,1.03225708007813,0.09557757844020526
1.038818359375,7.42492675781251e-07,1.03729248046875,0.09530338046927037
1.04385375976563,7.4066162109375e-07,1.04232788085938,0.09506835363704022
1.04888916015625,7.3944091796875e-07,1.04736328125,0.09491166908222022
1.05392456054688,7.37915039062499e-07,1.05239868164063,0.09471581338869509
1.0589599609375,7.3577880859375e-07,1.05743408203125,0.09444161541776018
1.06399536132813,7.330322265625e-07,1.06246948242188,0.09408907516941517
1.06903076171875,7.3211669921875e-07,1.0675048828125,0.09397156175330017
1.07406616210938,7.29980468749999e-07,1.07254028320313,0.09369736378236501
1.0791015625,7.28149414062501e-07,1.07757568359375,0.09346233695013527
1.08413696289063,7.269287109375e-07,1.08261108398438,0.09330565239531513
1.08917236328125,7.25402832031251e-07,1.087646484375,0.09310979670179025
1.09420776367188,7.2418212890625e-07,1.09268188476563,0.09295311214697011
1.0992431640625,7.22961425781249e-07,1.09771728515625,0.09279642759214997
1.10427856445313,7.2174072265625e-07,1.10275268554688,0.0926397430373301
1.10931396484375,7.208251953125e-07,1.1077880859375,0.09252222962121508
1.11434936523438,7.2021484375e-07,1.11282348632813,0.09244388734380507
1.119384765625,7.19299316406249e-07,1.11785888671875,0.09232637392768994
1.12442016601563,7.18994140625e-07,1.12289428710938,0.09228720278898507
1.12945556640625,7.1868896484375e-07,1.1279296875,0.09224803165028007
1.13449096679688,7.177734375e-07,1.13296508789063,0.09213051823416506
1.1395263671875,7.18078613281249e-07,1.13800048828125,0.09216968937286994
1.14456176757813,7.18994140625e-07,1.14303588867188,0.09228720278898507
1.14959716796875,7.1868896484375e-07,1.1480712890625,0.09224803165028007
