Potential - Start -0.2 V, Upper Vertex 1.5 V, Lower Vertex -0.2 V, Stop -0.19 V; Scan - # end cross 5, Rate 0.1 Vps, Step 0.01 V 
Scan	Index	Time (s)	Potential applied (V)	WE(1).Potential (V)	WE(1).Current (A)	WE(1).Power (W)	WE(1).Resistance (Ω)	WE(1).Charge (C)
1	1	65.3115688351041	-0.189971923828125	-0.1898193359375	-1.9500732421875E-07	3.70161608032049E-08	973395.9375	0
1	2	65.4122768348499	-0.179901123046875	-0.179718017578125	-1.6357421875E-07	2.93972330922543E-08	1098694.125	-1.80560135731866E-08
1	3	65.5129848345956	-0.169830322265625	-0.169708251953125	-1.385498046875E-07	2.35130457326704E-08	1224889.875	-3.32691669768792E-08
1	4	65.6136928343414	-0.159759521484375	-0.15960693359375	-1.18103027343749E-07	1.88500610676101E-08	1351421.25	-4.61926639161447E-08
1	5	65.7144008340871	-0.149688720703125	-0.14959716796875	-1.00097656250001E-07	1.49743257793489E-08	1494512.25	-5.7179942558605E-08
1	6	65.8151088338328	-0.139617919921875	-0.139495849609375	-8.33129882812506E-08	1.16218155099546E-08	1674359.125	-6.64154029550446E-08
1	7	65.9158168335786	-0.129547119140625	-0.129425048828125	-6.74438476562497E-08	8.72892247372192E-09	1919004.625	-7.40066070648027E-08
1	8	66.0165248333243	-0.119476318359375	-0.119384765625	-5.27954101562506E-08	6.30296748127535E-09	2261271.75	-8.00611346107871E-08
1	9	66.11723283307	-0.109405517578125	-0.10931396484375	-3.78417968750003E-08	4.13663681086973E-09	2888709.75	-8.4625085605694E-08
1	10	66.2179408328158	-0.099334716796875	-0.0992431640625	-2.288818359375E-08	2.27149588027942E-09	4336000	-8.76830767992942E-08
1	11	66.3186488325615	-0.089263916015625	-0.08917236328125	-6.40869140624972E-09	5.71478142585846E-10	13914286	-8.91582914164246E-08
1	12	66.4193568323072	-0.079193115234375	-0.07916259765625	1.220703125E-08	-9.66340230057483E-10	-6485000	-8.88663223008734E-08
1	13	66.520064832053	-0.069122314453125	-0.069091796875	3.38745117187497E-08	-2.34045072211586E-09	-2039639.75	-8.65459384158385E-08
1	14	66.6207728317987	-0.059051513671875	-0.058990478515625	6.07299804687503E-08	-3.58249074849937E-09	-971356.75	-8.17822183307726E-08
1	15	66.7214808315445	-0.048980712890625	-0.0488067626953125	9.49096679687497E-08	-4.63223370772425E-09	-514244.40625	-7.39451451181594E-08
1	16	66.8221888312902	-0.038909912109375	-0.0387786865234375	1.4068603515625E-07	-5.45561906761804E-09	-275639.90625	-6.20819591290456E-08
1	17	66.9228968310359	-0.028839111328125	-0.028704833984375	2.01416015625E-07	-5.78161296616031E-09	-142515.15625	-4.48557493371027E-08
1	18	67.0236048307817	-0.018768310546875	-0.0186492919921875	2.84423828124999E-07	-5.30430277478899E-09	-65568.6640625	-2.03917700503098E-08
1	19	67.1243128305274	-0.008697509765625	-0.00860595703125	3.94592285156251E-07	-3.39584405040227E-09	-21809.74609375	1.37994060622759E-08
1	20	67.2250208302731	0.001373291015625	0.00145263671875	5.39550781250001E-07	7.83771214596385E-10	2692.30786132813	6.08372445753957E-08
1	21	67.3257288300189	0.011444091796875	0.011541748046875	7.22351074218749E-07	8.33719404624844E-09	15978.0322265625	1.2437904217677E-07
1	22	67.4264368297646	0.021514892578125	0.0215972900390625	9.4024658203125E-07	2.0306776704615E-08	22969.81640625	2.08097489462489E-07
1	23	67.5271448295103	0.031585693359375	0.03167724609375	1.182861328125E-06	3.74697890492826E-08	26780.185546875	3.15004456297174E-07
1	24	67.6278528292561	0.041656494140625	0.04176025390625	1.43310546875E-06	5.98468474777292E-08	29139.693359375	4.46728847691702E-07
1	25	67.7285608290018	0.051727294921875	0.0517578125	1.6650390625E-06	8.61787796679891E-08	31085.044921875	6.02732825427665E-07
1	26	67.8292688287476	0.061798095703125	0.06182861328125	1.85455322265625E-06	1.14664452155466E-07	33338.8203125	7.7995838410061E-07
1	27	67.9299768284933	0.071868896484375	0.071929931640625	1.9854736328125E-06	1.42814982950767E-07	36228.09765625	9.73319060904032E-07
1	28	68.030684828239	0.081939697265625	0.082000732421875	2.05291748046875E-06	1.68340733353034E-07	39943.515625	1.17666820642626E-06
1	29	68.1313928279848	0.092010498046875	0.092071533203125	2.0648193359375E-06	1.90111066444842E-07	44590.6015625	1.38401264848653E-06
1	30	68.2321008277305	0.102081298828125	0.102142333984375	2.03521728515625E-06	2.07881839742186E-07	50187.4375	1.59046589942591E-06
1	31	68.3328088274762	0.112152099609375	0.11212158203125	1.97906494140625E-06	2.21895874119582E-07	56653.8203125	1.79260109689494E-06
1	32	68.433516827222	0.122222900390625	0.122222900390625	1.9091796875E-06	2.33345474498492E-07	64018.54296875	1.988389840335E-06
1	33	68.5342248269677	0.132293701171875	0.13232421875	1.8341064453125E-06	2.42696700070155E-07	72146.4296875	2.17687920667231E-06
1	34	68.6349328267135	0.142364501953125	0.1424560546875	1.76025390625E-06	2.50758830588893E-07	80929.265625	2.35786956181983E-06
1	35	68.7356408264592	0.152435302734375	0.152435302734375	1.69097900390625E-06	2.57764895650325E-07	90146.1875	2.53165308095049E-06
1	36	68.8363488262049	0.162506103515625	0.162506103515625	1.627197265625E-06	2.64429473872951E-07	99868.71875	2.6987363526132E-06
1	37	68.9370568259507	0.172576904296875	0.172607421875	1.56951904296875E-06	2.70910618382914E-07	109974.7265625	2.8597039545275E-06
1	38	69.0377648256964	0.182647705078125	0.1826171875	1.5179443359375E-06	2.77202701681745E-07	120305.59375	3.01517002299079E-06
1	39	69.1384728254421	0.192718505859375	0.192779541015625	1.47216796875E-06	2.83803842648922E-07	130949.421875	3.16573414238519E-06
1	40	69.2391808251879	0.202789306640625	0.202789306640625	1.4312744140625E-06	2.90247157863632E-07	141684.4375	3.31193405145314E-06
1	41	69.3398888249336	0.212860107421875	0.21282958984375	1.3946533203125E-06	2.96823486678477E-07	152603.9375	3.45423086400842E-06
1	42	69.4405968246793	0.222930908203125	0.22296142578125	1.36199951171875E-06	3.0367334602488E-07	163701.546875	3.59303930963506E-06
1	43	69.5413048244251	0.233001708984375	0.23297119140625	1.3323974609375E-06	3.10410229076297E-07	174851.125	3.72871295439836E-06
1	44	69.6420128241708	0.243072509765625	0.243072509765625	1.30615234375E-06	3.17489707413188E-07	186098.140625	3.86157444154378E-06
1	45	69.7427208239166	0.253143310546875	0.253173828125	1.2823486328125E-06	3.24657122519056E-07	197429.796875	3.99191594624426E-06
1	46	69.8434288236623	0.263214111328125	0.26324462890625	1.26068115234375E-06	3.31867511249584E-07	208811.4375	4.11996779803303E-06
1	47	69.944136823408	0.273284912109375	0.2733154296875	1.24176025390625E-06	3.39392215664702E-07	220103.234375	4.24597556047956E-06
1	48	70.0448448231538	0.283355712890625	0.283355712890625	1.22406005859375E-06	3.46844416299064E-07	231488.40625	4.37013932241825E-06
1	49	70.1455528228995	0.293426513671875	0.29339599609375	1.2078857421875E-06	3.54388816958817E-07	242900.46875	4.49259778179112E-06
1	50	70.2462608226452	0.303497314453125	0.303466796875	1.1932373046875E-06	3.6210789744473E-07	254322.265625	4.61350373370806E-06
1	51	70.346968822391	0.313568115234375	0.313568115234375	1.180419921875E-06	3.70142032579679E-07	265641.15625	4.73302679893095E-06
1	52	70.4476768221367	0.323638916015625	0.3236083984375	1.16790771484375E-06	3.77944758156445E-07	277083.875	4.85127475258196E-06
1	53	70.5483848218825	0.333709716796875	0.333740234375	1.1572265625E-06	3.86213059755391E-07	288396.625	4.96835446028854E-06
1	54	70.6490928216282	0.343780517578125	0.343780517578125	1.1474609375E-06	3.94474710674331E-07	299601.0625	5.08440461999271E-06
1	55	70.7498008213739	0.353851318359375	0.353851318359375	1.13800048828125E-06	4.0268295720125E-07	310941.28125	5.19948662258685E-06
1	56	70.8505088211197	0.363922119140625	0.36395263671875	1.13067626953125E-06	4.11512587561447E-07	321889.375	5.31372370460304E-06
1	57	70.9512168208654	0.373992919921875	0.373931884765625	1.12335205078125E-06	4.20057148176056E-07	332871.5	5.42722318641609E-06
1	58	71.0519248206111	0.384063720703125	0.384063720703125	1.116943359375E-06	4.28977386945917E-07	343852.46875	5.54003099750844E-06
1	59	71.1526328203569	0.394134521484375	0.3941650390625	1.112060546875E-06	4.38335376884424E-07	354445.65625	5.65226991966483E-06
1	60	71.2533408201026	0.404205322265625	0.40423583984375	1.10687255859375E-06	4.47437571438059E-07	365205.40625	5.76400225327234E-06
1	61	71.3540488198483	0.414276123046875	0.414215087890625	1.103515625E-06	4.57092824035499E-07	375359.53125	5.87530394113855E-06
1	62	71.4547568195941	0.424346923828125	0.42437744140625	1.1004638671875E-06	4.6701200062671E-07	385635.0625	5.98628321313299E-06
1	63	71.5554648193398	0.434417724609375	0.43438720703125	1.0980224609375E-06	4.76966874884965E-07	395608.6875	6.09698599873809E-06
1	64	71.6561728190856	0.444488525390625	0.444488525390625	1.09588623046875E-06	4.87108820834692E-07	405597.34375	6.20745777268894E-06
1	65	71.7568808188313	0.454559326171875	0.45452880859375	1.09466552734375E-06	4.9755703912524E-07	415221.625	6.31776083537261E-06
1	66	71.857588818577	0.464630126953125	0.464599609375	1.09344482421875E-06	5.08014011302294E-07	424895.34375	6.42794111627154E-06
1	67	71.9582968183228	0.474700927734375	0.4747314453125	1.09283447265625E-06	5.18802835358656E-07	434403.84375	6.53802908345824E-06
1	68	72.0590048180685	0.484771728515625	0.4847412109375	1.092529296875E-06	5.29593933151773E-07	443687.15625	6.64807066641515E-06
1	69	72.1597128178142	0.494842529296875	0.494873046875	1.09375E-06	5.41267411335866E-07	452455.34375	6.75815863360185E-06
1	70	72.26042081756	0.504913330078125	0.50494384765625	1.09466552734375E-06	5.52744609194633E-07	461276.8125	6.86835437591071E-06
1	71	72.3611288173057	0.514984130859375	0.5150146484375	1.09588623046875E-06	5.6439745321768E-07	469952.65625	6.97865743859438E-06
1	72	72.4618368170514	0.525054931640625	0.52496337890625	1.09771728515625E-06	5.76261356854957E-07	478231.875	7.0891137511353E-06
1	73	72.5625448167972	0.535125732421875	0.535125732421875	1.099853515625E-06	5.88559942116262E-07	486542.71875	7.19977060725796E-06
1	74	72.6632528165429	0.545196533203125	0.545196533203125	1.10260009765625E-06	6.01133763211692E-07	494464.4375	7.3106730269501E-06
1	75	72.7639608162887	0.555267333984375	0.55517578125	1.10504150390625E-06	6.13492261436477E-07	502402.65625	7.42183647162165E-06
1	76	72.8646688160344	0.565338134765625	0.5653076171875	1.10809326171875E-06	6.26413509507984E-07	510162.5	7.53327640268253E-06
1	77	72.9653768157801	0.575408935546875	0.575408935546875	1.11114501953125E-06	6.39362781384989E-07	517852.25	7.64502419769997E-06
1	78	73.0660848155259	0.585479736328125	0.585357666015625	1.114501953125E-06	6.52382254884287E-07	525219.0625	7.75709395384183E-06
1	79	73.1667928152716	0.595550537109375	0.595458984375	1.11785888671875E-06	6.65639106500748E-07	532678.125	7.86950295150746E-06
1	80	73.2675008150173	0.605621337890625	0.6055908203125	1.12152099609375E-06	6.791828468522E-07	539972.8125	7.98226392362267E-06
1	81	73.3682088147631	0.615692138671875	0.615692138671875	1.12548828125E-06	6.92954245096189E-07	547044.5	8.09541052149143E-06
1	82	73.4689168145088	0.625762939453125	0.625762939453125	1.12884521484375E-06	7.06389471361035E-07	554339.0625	8.20892455521971E-06
1	83	73.5696248142546	0.635833740234375	0.635833740234375	1.1328125E-06	7.20280411314889E-07	561287.75	8.32280875329161E-06
1	84	73.6703328140003	0.645904541015625	0.645843505859375	1.13616943359375E-06	7.33787658191432E-07	568439.4375	8.43706038722303E-06
1	85	73.771040813746	0.655975341796875	0.655914306640625	1.14044189453125E-06	7.48032164210599E-07	575140.5	8.551697646908E-06
1	86	73.8717488134918	0.666046142578125	0.665985107421875	1.14501953125E-06	7.62565946388349E-07	581636.5	8.66677964950213E-06
1	87	73.9724568132375	0.676116943359375	0.676025390625	1.14959716796875E-06	7.77156799358636E-07	588054.1875	8.78232276591007E-06
1	88	74.0731648129832	0.686187744140625	0.68609619140625	1.153564453125E-06	7.91456159277004E-07	594761.9375	8.89829607331194E-06
1	89	74.173872812729	0.696258544921875	0.696136474609375	1.15875244140625E-06	8.0664983670431E-07	600763.75	9.01473049452761E-06
1	90	74.2745808124747	0.706329345703125	0.706329345703125	1.16302490234375E-06	8.21478579382529E-07	607320.9375	9.13164149096701E-06
1	91	74.3752888122204	0.716400146484375	0.716339111328125	1.1663818359375E-06	8.35524929243547E-07	614154.875	9.24893629417056E-06
1	92	74.4759968119662	0.726470947265625	0.72637939453125	1.1700439453125E-06	8.49895798182843E-07	620813.8125	9.3665839813184E-06
1	93	74.5767048117119	0.736541748046875	0.7364501953125	1.1724853515625E-06	8.63477055190742E-07	628110.375	9.48453998717014E-06
1	94	74.6774128114577	0.746612548828125	0.74658203125	1.17462158203125E-06	8.76951332884346E-07	635593.6875	9.60272609518142E-06
1	95	74.7781208112034	0.756683349609375	0.75714111328125	1.1761474609375E-06	8.90509568307607E-07	643746.8125	9.72109683061717E-06
1	96	74.8788288109491	0.766754150390625	0.7666015625	1.17767333984375E-06	9.02806220892671E-07	650945.875	9.83962127065752E-06
1	97	74.9795368106949	0.776824951171875	0.7769775390625	1.17889404296875E-06	9.15974112558615E-07	659073.3125	9.95828395389253E-06
1	98	75.0802448104406	0.786895751953125	0.78765869140625	1.18072509765625E-06	9.30008411614835E-07	667097.4375	1.00771003417321E-05
1	99	75.1809528101863	0.796966552734375	0.79681396484375	1.18255615234375E-06	9.42277267768077E-07	673806.4375	1.01961004475015E-05
1	100	75.2816608099321	0.807037353515625	0.80718994140625	1.18560791015625E-06	9.57010684032866E-07	680823.6875	1.03153470263351E-05
1	101	75.3823688096778	0.817108154296875	0.8172607421875	1.187744140625E-06	9.70696646618308E-07	688078.125	1.0434854630148E-05
1	102	75.4830768094236	0.827178955078125	0.82733154296875	1.1907958984375E-06	9.85182964541309E-07	694771.9375	1.05546241684351E-05
1	103	75.5837848091693	0.837249755859375	0.83770751953125	1.1944580078125E-06	1.00060640306765E-06	701328.625	1.06747311292565E-05
1	104	75.684492808915	0.847320556640625	0.84747314453125	1.1981201171875E-06	1.0153746643482E-06	707335.6875	1.07952073449269E-05
1	105	75.7852008086608	0.857391357421875	0.85784912109375	1.202392578125E-06	1.03147147001437E-06	713451.75	1.09160828287713E-05
1	106	75.8859088084065	0.867462158203125	0.86700439453125	1.20697021484375E-06	1.04644846032897E-06	718331.25	1.10374030555249E-05
1	107	75.9866168081522	0.877532958984375	0.87738037109375	1.21124267578125E-06	1.06272057109891E-06	724363.8125	1.11591698441771E-05
1	108	76.087324807898	0.887603759765625	0.88775634765625	1.21612548828125E-06	1.07962307538401E-06	729987.4375	1.12813977466431E-05
1	109	76.1880328076437	0.897674560546875	0.89752197265625	1.22039794921875E-06	1.09533402792295E-06	735433.875	1.14040867629228E-05
1	110	76.2887408073894	0.907745361328125	0.90728759765625	1.2249755859375E-06	1.11140514036379E-06	740657.6875	1.15272205221117E-05
1	111	76.3894488071352	0.917816162109375	0.91796875	1.22955322265625E-06	1.1286913377262E-06	746587.25	1.16508163046092E-05
1	112	76.4901568068809	0.927886962890625	0.927734375	1.23321533203125E-06	1.14409624529799E-06	752289	1.17748268166906E-05
1	113	76.5908648066267	0.937957763671875	0.93780517578125	1.23748779296875E-06	1.16052240173303E-06	757829.875	1.18992365969461E-05
1	114	76.6915728063724	0.948028564453125	0.9478759765625	1.241455078125E-06	1.17674539978907E-06	763520.1875	1.20240611067857E-05
1	115	76.7922808061181	0.958099365234375	0.9576416015625	1.24481201171875E-06	1.19208368687396E-06	769306.25	1.21492548714741E-05
1	116	76.8929888058639	0.968170166015625	0.968017578125	1.248779296875E-06	1.20884033094626E-06	775171.0625	1.22748169815168E-05
1	117	76.9936968056096	0.978240966796875	0.97808837890625	1.25244140625E-06	1.22499841381796E-06	780945.4375	1.24007628983236E-05
1	118	77.0944048053553	0.988311767578125	0.98846435546875	1.2554931640625E-06	1.24101018172951E-06	787311.6875	1.25270480566542E-05
1	119	77.1951128051011	0.998382568359375	0.99822998046875	1.25823974609375E-06	1.25601263789576E-06	793354.3125	1.26536242532893E-05
1	120	77.2958208048468	1.00845336914063	1.00860595703125	1.26129150390625E-06	1.27214605072368E-06	799661.3125	1.27804923977237E-05
1	121	77.3965288045925	1.01852416992188	1.01837158203125	1.26434326171875E-06	1.28757130823942E-06	805455	1.2907668860862E-05
1	122	77.4972368043383	1.02859497070313	1.02874755859375	1.26708984375E-06	1.30351554616936E-06	811897.875	1.30351363623049E-05
1	123	77.597944804084	1.03866577148438	1.03851318359375	1.26983642578125E-06	1.3187418517191E-06	817832.25	1.31628803501371E-05
1	124	77.6986528038298	1.04873657226563	1.0491943359375	1.2725830078125E-06	1.33518676648237E-06	824460.5	1.32909017338534E-05
1	125	77.7993608035755	1.05880737304688	1.05865478515625	1.27532958984375E-06	1.35013374347182E-06	830102.9375	1.3419199603959E-05
1	126	77.9000688033212	1.06887817382813	1.06842041015625	1.27777099609375E-06	1.3651965673489E-06	836159.5625	1.3547758499044E-05
1	127	78.000776803067	1.07894897460938	1.07879638671875	1.28082275390625E-06	1.38174698349758E-06	842268.3125	1.36765938805183E-05
1	128	78.1014848028127	1.08901977539063	1.0894775390625	1.28387451171875E-06	1.39875237437082E-06	848585.75	1.38057366712019E-05
1	129	78.2021928025584	1.09909057617188	1.0986328125	1.28631591796875E-06	1.41318878377206E-06	854092.5625	1.39351559482748E-05
1	130	78.3029008023042	1.10916137695313	1.1090087890625	1.28936767578125E-06	1.42992007567955E-06	860118.375	1.4064851711737E-05
1	131	78.4036088020499	1.11923217773438	1.119384765625	1.292724609375E-06	1.44705620641616E-06	865911.25	1.41948703458183E-05
1	132	78.5043168017957	1.12930297851563	1.129150390625	1.29638671875E-06	1.46381557897257E-06	870998.125	1.43252427733387E-05
1	133	78.6050248015414	1.13937377929688	1.13922119140625	1.29974365234375E-06	1.48069545957696E-06	876496.8125	1.44559680848033E-05
1	134	78.7057328012871	1.14944458007813	1.1492919921875	1.3043212890625E-06	1.49904599311412E-06	881141.8125	1.4587092664442E-05
1	135	78.8064408010329	1.15951538085938	1.15966796875	1.3079833984375E-06	1.51682638716011E-06	886607.625	1.47186328831594E-05
1	136	78.9071488007786	1.16958618164063	1.16943359375	1.312255859375E-06	1.53459598095651E-06	891162.8125	1.48505723700509E-05
1	137	79.0078568005243	1.17965698242188	1.17950439453125	1.31805419921875E-06	1.55465068019112E-06	894883.125	1.4983019354986E-05
1	138	79.1085648002701	1.18972778320313	1.18988037109375	1.32354736328125E-06	1.5748629493828E-06	899008.5625	1.51160347741097E-05
1	139	79.2092728000158	1.19979858398438	1.20025634765625	1.329345703125E-06	1.59555554546387E-06	902892.625	1.52496177179273E-05
1	140	79.3099807997615	1.20986938476563	1.21002197265625	1.33544921875E-06	1.61592276981537E-06	906078.625	1.53838009282481E-05
1	141	79.4106887995073	1.21994018554688	1.2200927734375	1.3433837890625E-06	1.63905269801035E-06	908223.625	1.55186917254468E-05
1	142	79.511396799253	1.23001098632813	1.229248046875	1.3519287109375E-06	1.66185566286003E-06	909255.125	1.56544101628242E-05
1	143	79.6121047989988	1.24008178710938	1.23992919921875	1.36077880859375E-06	1.68726933225116E-06	911190.875	1.57910071720835E-05
1	144	79.7128127987445	1.25015258789063	1.25	1.37115478515625E-06	1.71394344761211E-06	911640.3125	1.5928570064716E-05
1	145	79.8135207984902	1.26022338867188	1.26007080078125	1.38153076171875E-06	1.74082651938079E-06	912083.0625	1.60671788762556E-05
1	146	79.914228798236	1.27029418945313	1.2701416015625	1.39251708984375E-06	1.76869389179046E-06	912119.1875	1.62068627105327E-05
1	147	80.0149367979817	1.28036499023438	1.280517578125	1.405029296875E-06	1.79916469278396E-06	911381.4375	1.63477307069115E-05
1	148	80.1156447977274	1.29043579101563	1.29058837890625	1.41876220703125E-06	1.83103793460759E-06	909658	1.64899211085867E-05
1	149	80.2163527974732	1.30050659179688	1.3006591796875	1.43280029296875E-06	1.86358477094473E-06	907774.25	1.66335084941238E-05
1	150	80.3170607972189	1.31057739257813	1.3104248046875	1.4483642578125E-06	1.89797231087141E-06	904761.9375	1.67785856319824E-05
1	151	80.4177687969647	1.32064819335938	1.32080078125	1.46453857421875E-06	1.93436358131294E-06	901854.5625	1.69252616615267E-05
1	152	80.5184767967104	1.33071899414063	1.33056640625	1.48101806640625E-06	1.97059284801071E-06	898413.375	1.70735820574919E-05
1	153	80.6191847964561	1.34078979492188	1.34033203125	1.49932861328125E-06	2.00959811991197E-06	893954.8125	1.7223655959242E-05
1	154	80.7198927962019	1.35086059570313	1.3507080078125	1.5179443359375E-06	2.05029937205836E-06	889827.125	1.73755870491732E-05
1	155	80.8206007959476	1.36093139648438	1.36077880859375	1.53717041015625E-06	2.09174891097064E-06	885249.125	1.75294244399993E-05
1	156	80.9213087956933	1.37100219726563	1.370849609375	1.55670166015625E-06	2.13400380744133E-06	880611.6875	1.76852136064554E-05
1	157	81.0220167954391	1.38107299804688	1.3818359375	1.5777587890625E-06	2.18020386455464E-06	875822.0625	1.78430454980116E-05
1	158	81.1227247951848	1.39114379882813	1.3916015625	1.5985107421875E-06	2.22449011744175E-06	870561.3125	1.80029837792972E-05
1	159	81.2234327949305	1.40121459960938	1.4013671875	1.619873046875E-06	2.27003692998551E-06	865109.25	1.81650430022273E-05
1	160	81.3241407946763	1.41128540039063	1.41143798828125	1.6424560546875E-06	2.31822491514322E-06	859346	1.83293141162721E-05
1	161	81.424848794422	1.42135620117188	1.4208984375	1.66595458984375E-06	2.3671520921198E-06	852903.5	1.84959044418065E-05
1	162	81.5255567941678	1.43142700195313	1.4312744140625	1.69158935546875E-06	2.42112855630694E-06	846112.25	1.86649704119191E-05
1	163	81.6262647939135	1.44149780273438	1.441650390625	1.7205810546875E-06	2.48047626882908E-06	837885.75	1.88367866940098E-05
1	164	81.7269727936592	1.45156860351563	1.451416015625	1.756591796875E-06	2.54954534284479E-06	826268.3125	1.90118771570269E-05
1	165	81.827680793405	1.46163940429688	1.46209716796875	1.80328369140625E-06	2.63657602772582E-06	810797.125	1.91911312867887E-05
1	166	81.9283887931507	1.47171020507813	1.47216796875	1.8670654296875E-06	2.74863396043656E-06	788493	1.93759478861466E-05
1	167	82.0290967928964	1.48178100585938	1.48101806640625	1.95159912109375E-06	2.89035324385623E-06	758874.1875	1.95682332559954E-05
1	168	82.1298047926422	1.49185180664063	1.49139404296875	2.05535888671875E-06	3.06535002891906E-06	725612.5	1.97699991986156E-05
1	169	82.2305127923879	1.50192260742188	1.50146484375	2.17498779296875E-06	3.2656676012266E-06	690332.5625	1.99830137717072E-05
1	170	82.3312207921336	1.49185180664063	1.49169921875	1.87835693359375E-06	2.80194353763363E-06	794151.125	2.01871152967215E-05
1	171	82.4319287918794	1.48178100585938	1.48193359375	1.666259765625E-06	2.46928630076582E-06	889377.3125	2.0365601812955E-05
1	172	82.5326367916251	1.47171020507813	1.47125244140625	1.50238037109375E-06	2.21038067138579E-06	979280.9375	2.0525154468487E-05
1	173	82.6333447913709	1.46163940429688	1.4617919921875	1.3739013671875E-06	2.0083580238861E-06	1063971.625	2.06699878617655E-05
1	174	82.7340527911166	1.45156860351563	1.45172119140625	1.27044677734375E-06	1.84433451977384E-06	1142685.625	2.08031415240839E-05
1	175	82.8347607908623	1.44149780273438	1.441650390625	1.18682861328125E-06	1.71099190993118E-06	1214708.125	2.09268746402813E-05
1	176	82.9354687906081	1.43142700195313	1.4312744140625	1.11968994140625E-06	1.60258355208498E-06	1278277.5	2.10430171136977E-05
1	177	83.0361767903538	1.42135620117188	1.4215087890625	1.0650634765625E-06	1.51399706282973E-06	1334670.5	2.11530277738348E-05
1	178	83.1368847900995	1.41128540039063	1.4111328125	1.02081298828125E-06	1.4405027286557E-06	1382361.75	2.12580598599743E-05
1	179	83.2375927898453	1.40121459960938	1.4013671875	9.844970703125E-07	1.37964195801032E-06	1423434.625	2.13590355997439E-05
1	180	83.338300789591	1.39114379882813	1.390380859375	9.5428466796875E-07	1.32681907416554E-06	1456987.625	2.14566607610323E-05
1	181	83.4390087893368	1.38107299804688	1.380615234375	9.2803955078125E-07	1.28126555409835E-06	1487668.625	2.15514446608722E-05
1	182	83.5397167890825	1.37100219726563	1.37115478515625	9.051513671875E-07	1.24110260912857E-06	1514834.875	2.1643752916134E-05
1	183	83.6404247888282	1.36093139648438	1.36077880859375	8.8470458984375E-07	1.2038872228004E-06	1538116.625	2.17338783841114E-05
1	184	83.741132788574	1.35086059570313	1.3507080078125	8.65783691406249E-07	1.16942089789518E-06	1560098.75	2.18220229726285E-05
1	185	83.8418407883197	1.34078979492188	1.3409423828125	8.48388671875E-07	1.13764031084429E-06	1580575.625	2.19083376578055E-05
1	186	83.9425487880654	1.33071899414063	1.33056640625	8.3282470703125E-07	1.10812857201381E-06	1597654.875	2.19929934246466E-05
1	187	84.0432567878112	1.32064819335938	1.3201904296875	8.16650390625E-07	1.07813400518353E-06	1616592	2.20760521187913E-05
1	188	84.1439647875569	1.31057739257813	1.3104248046875	8.0230712890625E-07	1.05136314232368E-06	1633320.625	2.21575719479006E-05
1	189	84.2446727873026	1.30050659179688	1.3006591796875	7.88269042968751E-07	1.02526928458246E-06	1650019.375	2.22376638703281E-05
1	190	84.3453807870484	1.29043579101563	1.29058837890625	7.75146484375E-07	1.00039505923633E-06	1664960.625	2.23163879127242E-05
1	191	84.4460887867941	1.28036499023438	1.28021240234375	7.6171875E-07	9.75161810856662E-07	1680689.125	2.2393776816898E-05
1	192	84.5467967865399	1.27029418945313	1.27044677734375	7.4981689453125E-07	9.52602420056792E-07	1694342.75	2.24698887905106E-05
1	193	84.6475047862856	1.26022338867188	1.26007080078125	7.38525390625E-07	9.30594296733034E-07	1706198.375	2.25448311539367E-05
1	194	84.7482127860313	1.25015258789063	1.24969482421875	7.275390625E-07	9.09201787635538E-07	1717701.375	2.26186548388796E-05
1	195	84.8489207857771	1.24008178710938	1.24053955078125	7.1685791015625E-07	8.89290561190137E-07	1730523.75	2.2691385311191E-05
1	196	84.9496287855228	1.23001098632813	1.23016357421875	7.06787109375E-07	8.69463747221744E-07	1740500.875	2.27630716835847E-05
1	197	85.0503367852685	1.21994018554688	1.21978759765625	6.9732666015625E-07	8.50590367917903E-07	1749234.125	2.28337739827111E-05
1	198	85.1510447850143	1.20986938476563	1.21002197265625	6.8817138671875E-07	8.32702482966852E-07	1758314.875	2.29035395022947E-05
1	199	85.25175278476	1.19979858398438	1.19903564453125	6.793212890625E-07	8.14530380921497E-07	1765049.5	2.29723991651554E-05
1	200	85.3524607845058	1.18972778320313	1.190185546875	6.70776367187501E-07	7.98348310127039E-07	1774340.375	2.30403820751235E-05
1	201	85.4531687842515	1.17965698242188	1.17919921875	6.6253662109375E-07	7.81262656346371E-07	1779825	2.3107519155019E-05
1	202	85.5538767839972	1.16958618164063	1.1700439453125	6.549072265625E-07	7.66270204621833E-07	1786579.75	2.31738576985663E-05
1	203	85.654584783743	1.15951538085938	1.1590576171875	6.4697265625E-07	7.49878552142036E-07	1791509.5	2.32394122576807E-05
1	204	85.7552927834887	1.14944458007813	1.1492919921875	6.3934326171875E-07	7.34792024559283E-07	1797613.5	2.33041828323621E-05
1	205	85.8560007832344	1.13937377929688	1.13922119140625	6.3140869140625E-07	7.19314130037674E-07	1804253.25	2.33681712416001E-05
1	206	85.9567087829802	1.12930297851563	1.129150390625	6.2408447265625E-07	7.04685191976751E-07	1809291	2.34313902183203E-05
1	207	86.0574167827259	1.11923217773438	1.11907958984375	6.1676025390625E-07	6.9020381943119E-07	1814448.375	2.34938706853427E-05
1	208	86.1581247824716	1.10916137695313	1.10870361328125	6.09130859375E-07	6.75345575018582E-07	1820140.375	2.35555999097414E-05
1	209	86.2588327822174	1.09909057617188	1.0992431640625	6.01806640625E-07	6.61531828427542E-07	1826572.125	2.36165760725271E-05
1	210	86.3595407819631	1.08901977539063	1.0888671875	5.94482421875001E-07	6.47312390356092E-07	1831622.25	2.36768137256149E-05
1	211	86.4602487817089	1.07894897460938	1.07879638671875	5.8746337890625E-07	6.33753359124967E-07	1836363.625	2.37363292399095E-05
1	212	86.5609567814546	1.06887817382813	1.0687255859375	5.79833984375E-07	6.19683419245121E-07	1843158	2.37951080634957E-05
1	213	86.6616647812003	1.05880737304688	1.05865478515625	5.72509765625E-07	6.06090168275841E-07	1849147.125	2.38531320064794E-05
1	214	86.7623727809461	1.04873657226563	1.048583984375	5.65490722656251E-07	5.92964511270111E-07	1854290.375	2.39104356296593E-05
1	215	86.8630807806918	1.03866577148438	1.03851318359375	5.5816650390625E-07	5.7966326494352E-07	1860579.5	2.39670152950566E-05
1	216	86.9637887804375	1.02859497070313	1.0284423828125	5.511474609375E-07	5.66823359804403E-07	1866002.375	2.40228746406501E-05
1	217	87.0644967801833	1.01852416992188	1.0186767578125	5.43823242187499E-07	5.53980044060154E-07	1873176.375	2.4078010028461E-05
1	218	87.165204779929	1.00845336914063	1.00830078125	5.3680419921875E-07	5.41260078534833E-07	1878340	2.41324250964681E-05
1	219	87.2659127796747	0.998382568359375	0.99853515625	5.291748046875E-07	5.28399596078089E-07	1886966.625	2.41860998357879E-05
1	220	87.3666207794205	0.988311767578125	0.9881591796875	5.22766113281251E-07	5.16576108111622E-07	1890251.125	2.42390706262086E-05
1	221	87.4673287791662	0.978240966796875	0.97900390625	5.16357421875E-07	5.05515970417036E-07	1895981	2.42913938564016E-05
1	222	87.568036778912	0.968170166015625	0.96832275390625	5.09033203125001E-07	4.92908441174222E-07	1902278.125	2.43430258706212E-05
1	223	87.6687447786577	0.958099365234375	0.95794677734375	5.02929687500001E-07	4.81779864003329E-07	1904733.125	2.43939830397721E-05
1	224	87.7694527784034	0.948028564453125	0.9478759765625	4.9560546875E-07	4.69772487576847E-07	1912561.75	2.4444263544865E-05
1	225	87.8701607781492	0.937957763671875	0.9381103515625	4.88891601562499E-07	4.58634275446457E-07	1918851.5	2.44938364630798E-05
1	226	87.9708687778949	0.927886962890625	0.92803955078125	4.81567382812501E-07	4.46913588803E-07	1927123	2.4542703613406E-05
1	227	88.0715767776406	0.917816162109375	0.91827392578125	4.75158691406249E-07	4.36325819919148E-07	1932562.625	2.45908777287696E-05
1	228	88.1722847773864	0.907745361328125	0.90789794921875	4.6844482421875E-07	4.25300100914683E-07	1938110.75	2.46383915509796E-05
1	229	88.2729927771321	0.897674560546875	0.89752197265625	4.61730957031251E-07	4.14413648286427E-07	1943820.375	2.46852305281209E-05
1	230	88.3737007768779	0.887603759765625	0.8880615234375	4.55322265624999E-07	4.04354182137467E-07	1950402.125	2.47314073931193E-05
1	231	88.4744087766236	0.877532958984375	0.87738037109375	4.486083984375E-07	3.93600174675157E-07	1955782.375	2.47769239649642E-05
1	232	88.5751167763693	0.867462158203125	0.86761474609375	4.43115234374999E-07	3.84453301194299E-07	1957989	2.48218257183908E-05
1	233	88.6758247761151	0.857391357421875	0.85723876953125	4.3670654296875E-07	3.74361775357102E-07	1962963	2.48661290243035E-05
1	234	88.7765327758608	0.847320556640625	0.84747314453125	4.31213378906251E-07	3.65441763960916E-07	1965322	2.49098320637131E-05
1	235	88.8772407756065	0.837249755859375	0.83740234375	4.254150390625E-07	3.56243560872826E-07	1968436.125	2.49529657594394E-05
1	236	88.9779487753523	0.827178955078125	0.82733154296875	4.20532226562501E-07	3.47919581145106E-07	1967344	2.49955628532916E-05
1	237	89.078656775098	0.817108154296875	0.81695556640625	4.1534423828125E-07	3.39317779207704E-07	1966936.125	2.50376524491003E-05
1	238	89.1793647748437	0.807037353515625	0.806884765625	4.107666015625E-07	3.31441327716675E-07	1964338.75	2.507925091777E-05
1	239	89.2800727745895	0.796966552734375	0.79681396484375	4.058837890625E-07	3.23413871683442E-07	1963157.875	2.51203728112159E-05
1	240	89.3807807743352	0.786895751953125	0.78765869140625	4.010009765625E-07	3.15851877985551E-07	1964231.375	2.51610017585335E-05
1	241	89.481488774081	0.776824951171875	0.77667236328125	3.9520263671875E-07	3.06942951056044E-07	1965251	2.52010941039771E-05
1	242	89.5821967738267	0.766754150390625	0.76751708984375	3.90625E-07	2.99811347304058E-07	1964843.75	2.52406643994618E-05
1	243	89.6829047735724	0.756683349609375	0.7568359375	3.8482666015625E-07	2.91250643158492E-07	1966693.125	2.52797108259983E-05
1	244	89.7836127733182	0.746612548828125	0.74652099609375	3.7841796875E-07	2.82496955605893E-07	1972742	2.53181442531059E-05
1	245	89.8843207730639	0.736541748046875	0.7364501953125	3.7200927734375E-07	2.73966321628905E-07	1979655.375	2.53559301199857E-05
1	246	89.9850287728096	0.726470947265625	0.72637939453125	3.64990234375E-07	2.65121371967325E-07	1990133.875	2.53930411417969E-05
1	247	90.0857367725554	0.716400146484375	0.71630859375	3.57971191406251E-07	2.56417820310162E-07	2001023.125	2.542944457673E-05
1	248	90.1864447723011	0.706329345703125	0.706268310546875	3.5064697265625E-07	2.4765083139755E-07	2014186.375	2.54651276918594E-05
1	249	90.2871527720469	0.696258544921875	0.6961669921875	3.436279296875E-07	2.39222430309383E-07	2025932.5	2.55000868492061E-05
1	250	90.3878607717926	0.686187744140625	0.686126708984375	3.36608886718751E-07	2.30956345603772E-07	2038350	2.55343402386643E-05
1	251	90.4885687715383	0.676116943359375	0.676025390625	3.30810546875E-07	2.23636320129117E-07	2043542.5	2.55679460678948E-05
1	252	90.5892767712841	0.666046142578125	0.665985107421875	3.253173828125E-07	2.16656530938053E-07	2047185.75	2.56009861914208E-05
1	253	90.6899847710298	0.655975341796875	0.655914306640625	3.2073974609375E-07	2.10377777420945E-07	2045004.875	2.56335169979138E-05
1	254	90.7906927707755	0.645904541015625	0.64581298828125	3.16467285156249E-07	2.04378665102922E-07	2040694.5	2.5665602152003E-05
1	255	90.8914007705213	0.635833740234375	0.635711669921875	3.125E-07	1.98659890315867E-07	2034277.375	2.56972743954975E-05
1	256	90.992108770267	0.625762939453125	0.625732421875	3.08837890624999E-07	1.93249874769208E-07	2026087	2.57285610132385E-05
1	257	91.0928167700127	0.615692138671875	0.615631103515625	3.05786132812499E-07	1.88251448207666E-07	2013273.5	2.57595092989504E-05
1	258	91.1935247697585	0.605621337890625	0.60552978515625	3.02734374999999E-07	1.83314682544733E-07	2000201.625	2.57901501754532E-05
1	259	91.2942327695042	0.595550537109375	0.595489501953125	2.9937744140625E-07	1.78276124529475E-07	1989092.875	2.58204690908315E-05
1	260	91.39494076925	0.585479736328125	0.585418701171875	2.960205078125E-07	1.73295930494533E-07	1977629	2.58504496741807E-05
1	261	91.4956487689957	0.575408935546875	0.575347900390625	2.9296875E-07	1.68558941027186E-07	1963854.25	2.58801082964055E-05
1	262	91.5963567687414	0.565338134765625	0.565338134765625	2.899169921875E-07	1.63901120231458E-07	1950000.125	2.59094595094211E-05
1	263	91.6970647684872	0.555267333984375	0.555206298828125	2.8717041015625E-07	1.59438812374901E-07	1933368.875	2.59385178651428E-05
1	264	91.7977727682329	0.545196533203125	0.545166015625	2.8411865234375E-07	1.54891822035097E-07	1918797.125	2.59672833635705E-05
1	265	91.8984807679786	0.535125732421875	0.535064697265625	2.81372070312499E-07	1.50552253330716E-07	1901627	2.5995759642683E-05
1	266	91.9991887677244	0.525054931640625	0.525054931640625	2.78625488281251E-07	1.46293686498211E-07	1884446.875	2.60239576164167E-05
1	267	92.0998967674701	0.514984130859375	0.514984130859375	2.7618408203125E-07	1.42230405231203E-07	1864641	2.60518936556764E-05
1	268	92.2006047672159	0.504913330078125	0.5048828125	2.73742675781249E-07	1.38207965960646E-07	1844370.125	2.60795841313666E-05
1	269	92.3013127669616	0.494842529296875	0.49481201171875	2.7191162109375E-07	1.34545132368658E-07	1819753.25	2.61070599663071E-05
1	270	92.4020207667073	0.484771728515625	0.4847412109375	2.69165039062499E-07	1.30475385162754E-07	1800907	2.61343066085828E-05
1	271	92.5027287664531	0.474700927734375	0.474700927734375	2.6702880859375E-07	1.26758820329087E-07	1777714.25	2.61613058682997E-05
1	272	92.6034367661988	0.464630126953125	0.464599609375	2.642822265625E-07	1.22785422718152E-07	1757967.75	2.6188059564447E-05
1	273	92.7041447659445	0.454559326171875	0.454620361328125	2.62451171875E-07	1.1931564358747E-07	1732209.375	2.62145822489401E-05
1	274	92.8048527656903	0.444488525390625	0.4444580078125	2.60009765624999E-07	1.15563416613895E-07	1709389.75	2.62408902926836E-05
1	275	92.905560765436	0.434417724609375	0.43438720703125	2.57568359375E-07	1.11884396858386E-07	1686492.875	2.62669527728576E-05
1	276	93.0062687651817	0.424346923828125	0.424346923828125	2.55126953125E-07	1.08262327103148E-07	1663277.625	2.62927696894621E-05
1	277	93.1069767649275	0.414276123046875	0.414215087890625	2.5299072265625E-07	1.04792569288747E-07	1637274	2.6318353775423E-05
1	278	93.2076847646732	0.404205322265625	0.404205322265625	2.5054931640625E-07	1.01273364805365E-07	1613276.5	2.63437104877084E-05
1	279	93.308392764419	0.394134521484375	0.394134521484375	2.48107910156251E-07	9.77878897856499E-08	1588560.875	2.6368819817435E-05
1	280	93.4091007641647	0.384063720703125	0.384033203125	2.459716796875E-07	9.44612921216503E-08	1561290.375	2.63936981355073E-05
1	281	93.5098087639104	0.373992919921875	0.373992919921875	2.44140625E-07	9.13068589625254E-08	1531875.125	2.64183763647452E-05
1	282	93.6105167636562	0.363922119140625	0.363922119140625	2.41699218749999E-07	8.79596910863256E-08	1505681.875	2.64428417722229E-05
1	283	93.7112247634019	0.353851318359375	0.353912353515625	2.392578125E-07	8.46762944206603E-08	1479209.125	2.64670597971417E-05
1	284	93.8119327631476	0.343780517578125	0.343780517578125	2.37426757812501E-07	8.16226872757397E-08	1447943.5	2.64910631813109E-05
1	285	93.9126407628934	0.333709716796875	0.333740234375	2.3468017578125E-07	7.83222162681341E-08	1422106.625	2.65148355538258E-05
1	286	94.0133487626391	0.323638916015625	0.323699951171875	2.3193359375E-07	7.50768904822507E-08	1395658	2.65383314399514E-05
1	287	94.1140567623848	0.313568115234375	0.3135986328125	2.29797363281251E-07	7.20641324392091E-08	1364674.75	2.65615799435182E-05
1	288	94.2147647621306	0.303497314453125	0.30352783203125	2.2705078125E-07	6.89162291678258E-08	1336828	2.65845847025048E-05
1	289	94.3154727618763	0.293426513671875	0.293426513671875	2.2430419921875E-07	6.58167991218761E-08	1308163.375	2.66073129751021E-05
1	290	94.4161807616221	0.283355712890625	0.283355712890625	2.2125244140625E-07	6.2693139568637E-08	1280689.75	2.66297483904054E-05
1	291	94.5168887613678	0.273284912109375	0.273284912109375	2.178955078125E-07	5.95475526665723E-08	1254201.75	2.66518600255949E-05
1	292	94.6175967611135	0.263214111328125	0.26318359375	2.1484375E-07	5.65433495580692E-08	1225000	2.66736515186494E-05
1	293	94.7183047608593	0.253143310546875	0.253143310546875	2.105712890625E-07	5.3304713532043E-08	1202173.875	2.66950719378656E-05
1	294	94.819012760605	0.243072509765625	0.243072509765625	2.06604003906249E-07	5.02197536889071E-08	1176514	2.67160794464871E-05
1	295	94.9197207603507	0.233001708984375	0.232940673828125	2.02026367187499E-07	4.70601548840932E-08	1153021.25	2.67366540356306E-05
1	296	95.0204287600965	0.222930908203125	0.222900390625	1.971435546875E-07	4.39433733845362E-08	1130650.125	2.67567538685398E-05
1	297	95.1211367598422	0.212860107421875	0.212890625	1.910400390625E-07	4.06706313071936E-08	1114377	2.67763007286703E-05
1	298	95.221844759588	0.202789306640625	0.202880859375	1.8463134765625E-07	3.74581645701255E-08	1098843	2.67952182184672E-05
1	299	95.3225527593337	0.192718505859375	0.192718505859375	1.7578125E-07	3.38762973228768E-08	1096354.25	2.68133662757464E-05
1	300	95.4232607590794	0.182647705078125	0.18267822265625	1.65710449218751E-07	3.027168915537E-08	1102394.125	2.68305611825781E-05
1	301	95.5239687588252	0.172576904296875	0.172576904296875	1.53198242187499E-07	2.64384780734872E-08	1126494	2.68466192210326E-05
1	302	95.6246767585709	0.162506103515625	0.162506103515625	1.36718750000001E-07	2.22176321784673E-08	1188616	2.68612184299855E-05
1	303	95.7253847583166	0.152435302734375	0.15252685546875	1.141357421875E-07	1.74087659843281E-08	1336363.75	2.68738494924037E-05
1	304	95.8260927580624	0.142364501953125	0.142364501953125	8.36181640625003E-08	1.1904258023776E-08	1702554.75	2.68838066403987E-05
1	305	95.9268007578081	0.132293701171875	0.13232421875	4.21142578125006E-08	5.57273605039654E-09	3142029.25	2.68901385425124E-05
1	306	96.0275087575538	0.122222900390625	0.122283935546875	-1.52587890625E-08	-1.86590454198665E-09	-8014000.5	2.68914900516393E-05
1	307	96.1282167572996	0.112152099609375	0.11212158203125	-9.36889648437495E-08	-1.05045545595317E-08	-1196742.75	2.68860057985876E-05
1	308	96.2289247570453	0.102081298828125	0.10211181640625	-1.99279785156251E-07	-2.03488212946468E-08	-512404.28125	2.68712519755354E-05
1	309	96.3296327567911	0.092010498046875	0.09210205078125	-3.387451171875E-07	-3.11991179557936E-08	-271891.90625	2.68441617663484E-05
1	310	96.4303407565368	0.081939697265625	0.082000732421875	-5.16357421875E-07	-4.23416892658679E-08	-158806.140625	2.68011026491877E-05
1	311	96.5310487562825	0.071868896484375	0.07196044921875	-7.3272705078125E-07	-5.27273655848148E-08	-98209.0859375	2.67382074525813E-05
1	312	96.6317567560283	0.061798095703125	0.061859130859375	-9.783935546875E-07	-6.0522573619437E-08	-63225.19921875	2.66520455625141E-05
1	313	96.732464755774	0.051727294921875	0.051788330078125	-1.23748779296875E-06	-6.40874233681643E-08	-41849.5703125	2.65404669335112E-05
1	314	96.8331727555197	0.041656494140625	0.041766357421875	-1.4849853515625E-06	-6.20224298586436E-08	-28125.771484375	2.6403378797113E-05
1	315	96.9338807552655	0.031585693359375	0.031658935546875	-1.69647216796875E-06	-5.37085043106345E-08	-18661.630859375	2.62431804003427E-05
1	316	97.0345887550112	0.021514892578125	0.0216033935546875	-1.8487548828125E-06	-3.99393798033998E-08	-11685.375	2.60646629612893E-05
1	317	97.135296754757	0.011444091796875	0.0115509033203125	-1.93572998046875E-06	-2.23594280868156E-08	-5967.20849609375	2.58741001744056E-05
1	318	97.2360047545027	0.001373291015625	0.0014923095703125	-1.96044921875E-06	-2.92559731995823E-09	-761.2080078125	2.56779112532968E-05
1	319	97.3367127542484	-0.008697509765625	-0.00858459472656251	-1.93695068359375E-06	1.66279363611466E-08	4432.01513671875	2.54816623055376E-05
1	320	97.4374207539942	-0.018768310546875	-0.01866455078125	-1.88079833984375E-06	3.51042537261037E-08	9923.73828125	2.52894224104239E-05
1	321	97.5381287537399	-0.028839111328125	-0.0287506103515625	-1.80755615234375E-06	5.19683425181938E-08	15905.791015625	2.5103699954343E-05
1	322	97.6388367534856	-0.038909912109375	-0.038775634765625	-1.7279052734375E-06	6.70006201630713E-08	22440.833984375	2.4925675461418E-05
1	323	97.7395447532314	-0.048980712890625	-0.048809814453125	-1.6485595703125E-06	8.04658881747855E-08	29607.5546875	2.4755656340858E-05
1	324	97.8402527529771	-0.059051513671875	-0.05902099609375	-1.57318115234375E-06	9.28507120079303E-08	37516.9765625	2.45934297709027E-05
1	325	97.9409607527228	-0.069122314453125	-0.069122314453125	-1.5045166015625E-06	1.03995667188883E-07	45943.203125	2.443845369271E-05
1	326	98.0416687524686	-0.079193115234375	-0.079132080078125	-1.44256591796875E-06	1.14153245078796E-07	54855.0859375	2.42900568991899E-05
1	327	98.1423767522143	-0.089263916015625	-0.089202880859375	-1.387939453125E-06	1.2380819214286E-07	64270.01171875	2.41475299844751E-05
1	328	98.2430847519601	-0.099334716796875	-0.0992431640625	-1.34002685546875E-06	1.32988503764864E-07	74060.578125	2.40101653616875E-05
1	329	98.3437927517058	-0.109405517578125	-0.10931396484375	-1.29730224609375E-06	1.41813245591038E-07	84262.53125	2.38773664023029E-05
1	330	98.4445007514515	-0.119476318359375	-0.119384765625	-1.25946044921875E-06	1.50360392581206E-07	94790.40625	2.37486219702987E-05
1	331	98.5452087511973	-0.129547119140625	-0.1295166015625	-1.22650146484375E-06	1.58852301979096E-07	105598.40625	2.36234445765149E-05
1	332	98.645916750943	-0.139617919921875	-0.139556884765625	-1.19720458984375E-06	1.67078141544152E-07	116568.953125	2.35014013014734E-05
1	333	98.7466247506887	-0.149688720703125	-0.149566650390625	-1.17156982421875E-06	1.75227768295372E-07	127663.453125	2.33821247093147E-05
1	334	98.8473327504345	-0.159759521484375	-0.159637451171875	-1.14898681640625E-06	1.83421335009371E-07	138937.578125	2.32652746490203E-05
1	335	98.9480407501802	-0.169830322265625	-0.169708251953125	-1.12945556640625E-06	1.91677926864031E-07	150256.6875	2.31505455303704E-05
1	336	99.0487487499259	-0.179901123046875	-0.179718017578125	-1.11236572265625E-06	1.9991215083337E-07	161563.796875	2.30376608669758E-05
1	337	99.1494567496717	-0.189971923828125	-0.189788818359375	-1.09710693359375E-06	2.08218608577226E-07	172990.28125	2.29264060180867E-05
1	338	99.2501647494174	-0.200042724609375	-0.199920654296875	-1.08428955078125E-06	2.16771880445776E-07	184379.390625	2.28165627049748E-05
1	339	99.3508727491632	-0.189971923828125	-0.1898193359375	-9.50012207031251E-07	1.80330687271635E-07	199807.265625	2.27141281357035E-05
2	340	99.4515807489089	-0.179901123046875	-0.1798095703125	-8.59985351562501E-07	1.54633596594067E-07	209084.46875	2.26229876716388E-05
2	341	99.5522887486546	-0.169830322265625	-0.169677734375	-7.8857421875E-07	1.33803482071926E-07	215170.28125	2.25399762712186E-05
2	342	99.6529967484004	-0.159759521484375	-0.15966796875	-7.28759765625001E-07	1.16359586854742E-07	219095.484375	2.24635714403121E-05
2	343	99.7537047481461	-0.149688720703125	-0.14959716796875	-6.7718505859375E-07	1.01304962640825E-07	220910.328125	2.23927763727261E-05
2	344	99.8544127478918	-0.139617919921875	-0.139556884765625	-6.30798339843749E-07	8.80322446050741E-08	221238.53125	2.23269144044025E-05
2	345	99.9551207476376	-0.129547119140625	-0.1295166015625	-5.8868408203125E-07	7.62443619350961E-08	220010.359375	2.22655089601176E-05
2	346	100.055828747383	-0.119476318359375	-0.119384765625	-5.4962158203125E-07	6.56164402812465E-08	217212.65625	2.22081907850225E-05
2	347	100.156536747129	-0.109405517578125	-0.109344482421875	-5.126953125E-07	5.60604007660004E-08	213273.8125	2.21546997636324E-05
2	348	100.257244746875	-0.099334716796875	-0.09930419921875	-4.77294921875E-07	4.7397389124626E-08	208056.265625	2.21048485400388E-05
2	349	100.357952746621	-0.089263916015625	-0.08917236328125	-4.41894531250001E-07	3.94047781071549E-08	201795.59375	2.20585643546656E-05
2	350	100.458660746366	-0.079193115234375	-0.07916259765625	-4.0557861328125E-07	3.21066551123295E-08	195184.359375	2.20158908632584E-05
2	351	100.559368746112	-0.069122314453125	-0.069122314453125	-3.6651611328125E-07	2.53344420997337E-08	188592.84375	2.1977011783747E-05
2	352	100.660076745858	-0.059051513671875	-0.058990478515625	-3.23486328125E-07	1.90826128232402E-08	182358.5	2.19422672671499E-05
2	353	100.760784745603	-0.048980712890625	-0.0488555908203125	-2.72216796874999E-07	1.32993127621717E-08	179473.09375	2.19122721318854E-05
2	354	100.861492745349	-0.038909912109375	-0.0387786865234375	-2.09655761718749E-07	8.13017475564948E-09	184963.609375	2.18880086322315E-05
2	355	100.962200745095	-0.028839111328125	-0.028692626953125	-1.30310058593749E-07	3.73893804805903E-09	220187.359375	2.18708901229547E-05
2	356	101.062908744841	-0.018768310546875	-0.0186370849609375	-2.86865234375003E-08	5.34633171067611E-10	649680.875	2.18628829316003E-05
2	357	101.163616744586	-0.008697509765625	-0.008575439453125	1.03149414062501E-07	-8.8455154312328E-10	-83136.09375	2.1866631868761E-05
2	358	101.264324744332	0.001373291015625	0.0014617919921875	2.69775390625E-07	3.943554927055E-10	5418.552734375	2.18854111153632E-05
2	359	101.365032744078	0.011444091796875	0.0115325927734375	4.7576904296875E-07	5.48685052947917E-09	24239.896484375	2.19229514186736E-05
2	360	101.465740743824	0.021514892578125	0.0216400146484375	7.1746826171875E-07	1.55260231338161E-08	30161.6328125	2.19830362766515E-05
2	361	101.566448743569	0.031585693359375	0.0316497802734375	9.82666015625E-07	3.1101158981528E-08	32208.076171875	2.206864519394E-05
2	362	101.667156743315	0.041656494140625	0.0417510986328125	1.25091552734375E-06	5.22270937608482E-08	33376.43359375	2.21811151277507E-05
2	363	101.767864743061	0.051727294921875	0.051727294921875	1.4971923828125E-06	7.74457120655825E-08	34549.53125	2.2319492927636E-05
2	364	101.868572742807	0.061798095703125	0.061798095703125	1.6949462890625E-06	1.04744451334682E-07	36460.2109375	2.24802297452698E-05
2	365	101.969280742552	0.071868896484375	0.071868896484375	1.8292236328125E-06	1.31464275909821E-07	39289.2890625	2.26576867135009E-05
2	366	102.069988742298	0.081939697265625	0.08203125	1.89910888671875E-06	1.55786267441727E-07	43194.6015625	2.28454227908514E-05
2	367	102.170696742044	0.092010498046875	0.09210205078125	1.9110107421875E-06	1.76008001062655E-07	48195.46484375	2.30372770602116E-05
2	368	102.27140474179	0.102081298828125	0.10211181640625	1.88140869140625E-06	1.92114043784386E-07	54274.1328125	2.32282400247641E-05
2	369	102.372112741535	0.112152099609375	0.1121826171875	1.82525634765625E-06	2.04762031330574E-07	61461.296875	2.34148865274619E-05
2	370	102.472820741281	0.122222900390625	0.122283935546875	1.756591796875E-06	2.1480295231413E-07	69614.3203125	2.35952466027811E-05
2	371	102.573528741027	0.132293701171875	0.132354736328125	1.683349609375E-06	2.22799286575537E-07	78625.8203125	2.37684616877232E-05
2	372	102.674236740772	0.142364501953125	0.14239501953125	1.6119384765625E-06	2.29531991635668E-07	88337.7578125	2.3934391720104E-05
2	373	102.774944740518	0.152435302734375	0.15240478515625	1.54510498046875E-06	2.35481394383896E-07	98637.171875	2.40933622990269E-05
2	374	102.875652740264	0.162506103515625	0.16253662109375	1.4837646484375E-06	2.411661057522E-07	109543.3984375	2.42458772845566E-05
2	375	102.97636074001	0.172576904296875	0.172607421875	1.429443359375E-06	2.46732525965854E-07	120751.5	2.43925696850056E-05
2	376	103.077068739755	0.182647705078125	0.182769775390625	1.38092041015625E-06	2.52390492505583E-07	132353.59375	2.45340816036332E-05
2	377	103.177776739501	0.192718505859375	0.192779541015625	1.337890625E-06	2.57917918133899E-07	144092.15625	2.46709860221017E-05
2	378	103.278484739247	0.202789306640625	0.20281982421875	1.29974365234375E-06	2.63613770812299E-07	156046.015625	2.4803801352391E-05
2	379	103.379192738993	0.212860107421875	0.212921142578125	1.26617431640625E-06	2.69595290092184E-07	168161	2.49330041697249E-05
2	380	103.479900738738	0.222930908203125	0.222930908203125	1.23565673828125E-06	2.75466049970419E-07	180414.921875	2.50589819188463E-05
2	381	103.580608738484	0.233001708984375	0.2330322265625	1.20880126953125E-06	2.81689636949523E-07	192779.609375	2.51820711127948E-05
2	382	103.68131673823	0.243072509765625	0.24310302734375	1.18499755859375E-06	2.88076478227595E-07	205150.671875	2.53026082646102E-05
2	383	103.782024737976	0.253143310546875	0.253204345703125	1.163330078125E-06	2.94560209113115E-07	217654.78125	2.54208553087665E-05
2	384	103.882732737721	0.263214111328125	0.263214111328125	1.143798828125E-06	3.01064005725493E-07	230122.734375	2.55370287050027E-05
2	385	103.983440737467	0.273284912109375	0.273193359375	1.126708984375E-06	3.07809415289739E-07	242470.203125	2.56513576459838E-05
2	386	104.084148737213	0.283355712890625	0.283355712890625	1.11175537109375E-06	3.15022219865568E-07	254872.375	2.57640731433639E-05
2	387	104.184856736959	0.293426513671875	0.293426513671875	1.09710693359375E-06	3.21920254009456E-07	267454.8125	2.58752988884225E-05
2	388	104.285564736704	0.303497314453125	0.303497314453125	1.0845947265625E-06	3.29171570001563E-07	279825.5625	2.59851549344603E-05
2	389	104.38627273645	0.313568115234375	0.3135986328125	1.0723876953125E-06	3.36299308401067E-07	292430.28125	2.60937686107354E-05
2	390	104.486980736196	0.323638916015625	0.323699951171875	1.06231689453125E-06	3.43871931818285E-07	304711.3125	2.62012599705486E-05
2	391	104.587688735941	0.333709716796875	0.333709716796875	1.05255126953125E-06	3.5124659802932E-07	317048.40625	2.63077508861898E-05
2	392	104.688396735687	0.343780517578125	0.34381103515625	1.04400634765625E-06	3.5894089478461E-07	329318.90625	2.64133213931927E-05
2	393	104.789104735433	0.353851318359375	0.353851318359375	1.03668212890625E-06	3.66831329756678E-07	341330.59375	2.65180933638476E-05
2	394	104.889812735179	0.363922119140625	0.36395263671875	1.0296630859375E-06	3.74748594822449E-07	353467.71875	2.66221413767198E-05
2	395	104.990520734924	0.373992919921875	0.373992919921875	1.0235595703125E-06	3.82804017817762E-07	365384.625	2.67255290964385E-05
2	396	105.09122873467	0.384063720703125	0.384063720703125	1.01898193359375E-06	3.91354006978872E-07	376909.25	2.68283802142832E-05
2	397	105.191936734416	0.394134521484375	0.3941650390625	1.01409912109375E-06	3.99722409838432E-07	388684.9375	2.69307529379148E-05
2	398	105.292644734162	0.404205322265625	0.404205322265625	1.01043701171875E-06	4.08424028819354E-07	400030.1875	2.70326963800471E-05
2	399	105.393352733907	0.414276123046875	0.414276123046875	1.007080078125E-06	4.17209236047711E-07	411363.625	2.71342869382352E-05
2	400	105.494060733653	0.424346923828125	0.424407958984375	1.00494384765625E-06	4.26506147732653E-07	422320.09375	2.72355991910445E-05
2	401	105.594768733399	0.434417724609375	0.4344482421875	1.00250244140625E-06	4.35535440601598E-07	433363.75	2.73366822511889E-05
2	402	105.695476733145	0.444488525390625	0.44451904296875	1.0003662109375E-06	4.44681830913396E-07	444356.3125	2.74375361186685E-05
2	403	105.79618473289	0.454559326171875	0.4544677734375	9.9853515625E-07	4.53802044830809E-07	455134.46875	2.75381880783243E-05
2	404	105.896892732636	0.464630126953125	0.464630126953125	9.97314453125001E-07	4.63382292537062E-07	465881.3125	2.76386872428702E-05
2	405	105.997600732382	0.474700927734375	0.47467041015625	9.97314453125001E-07	4.73395630251616E-07	475948.625	2.77391245617764E-05
2	406	106.098308732128	0.484771728515625	0.484771728515625	9.967041015625E-07	4.8317394885089E-07	486374.78125	2.78395309578627E-05
2	407	106.199016731873	0.494842529296875	0.49481201171875	9.967041015625E-07	4.93181175897917E-07	496448.25	2.79399082501186E-05
2	408	106.299724731619	0.504913330078125	0.504913330078125	9.9700927734375E-07	5.03403271068237E-07	506427.9375	2.80402982753003E-05
2	409	106.400432731365	0.514984130859375	0.51495361328125	9.979248046875E-07	5.13884970132494E-07	516024.5	2.81407519651111E-05
2	410	106.50114073111	0.525054931640625	0.52508544921875	9.9945068359375E-07	5.24796973877528E-07	525374.0625	2.8241327527212E-05
2	411	106.601848730856	0.535125732421875	0.535125732421875	1.0003662109375E-06	5.35321703409863E-07	534929.875	2.83420267805923E-05
2	412	106.702556730602	0.545196533203125	0.545135498046875	1.002197265625E-06	5.46333296824741E-07	543940.3125	2.84428642771672E-05
2	413	106.803264730348	0.555267333984375	0.555206298828125	1.00494384765625E-06	5.5795112530177E-07	552475	2.85439309664071E-05
2	414	106.903972730093	0.565338134765625	0.5653076171875	1.00677490234375E-06	5.69137455386226E-07	561503.5	2.86452286673011E-05
2	415	107.004680729839	0.575408935546875	0.57537841796875	1.01043701171875E-06	5.81383631015342E-07	569435.1875	2.87468046735739E-05
2	416	107.105388729585	0.585479736328125	0.58544921875	1.01318359375E-06	5.93167555962282E-07	577831.3125	2.88487008219818E-05
2	417	107.206096729331	0.595550537109375	0.59552001953125	1.01654052734375E-06	6.05370246375969E-07	585830.0625	2.89509061985882E-05
2	418	107.306804729076	0.605621337890625	0.60552978515625	1.0205078125E-06	6.17947819137044E-07	593361.3125	2.90534790110542E-05
2	419	107.407512728822	0.615692138671875	0.615692138671875	1.02508544921875E-06	6.3113702708506E-07	600625.1875	2.91564829240087E-05
2	420	107.508220728568	0.625762939453125	0.625701904296875	1.029052734375E-06	6.43880241568695E-07	608036.8125	2.9259917937452E-05
2	421	107.608928728314	0.635833740234375	0.635711669921875	1.03424072265625E-06	6.57478835819347E-07	614665.125	2.93638131552143E-05
2	422	107.709636728059	0.645904541015625	0.645843505859375	1.03851318359375E-06	6.70716929107584E-07	621892.5	2.9468183129211E-05
2	423	107.810344727805	0.655975341796875	0.6558837890625	1.0443115234375E-06	6.84946996898361E-07	628053.8125	2.95730624202406E-05
2	424	107.911052727551	0.666046142578125	0.666046142578125	1.051025390625E-06	7.00031421274616E-07	633710.8125	2.96785710816039E-05
2	425	108.011760727297	0.676116943359375	0.67608642578125	1.05712890625E-06	7.14710495230975E-07	639549.6875	2.97847254842054E-05
2	426	108.112468727042	0.686187744140625	0.6861572265625	1.063232421875E-06	7.29544581190567E-07	645350.1875	2.98914947052253E-05
2	427	108.213176726788	0.696258544921875	0.69622802734375	1.0699462890625E-06	7.44926580864558E-07	650713.0625	2.99989078484941E-05
2	428	108.313884726534	0.706329345703125	0.706268310546875	1.07666015625E-06	7.60410955535917E-07	655980.6875	3.0106997655821E-05
2	429	108.414592726279	0.716400146484375	0.716339111328125	1.0821533203125E-06	7.75188709667418E-07	661957.125	3.02157022815663E-05
2	430	108.515300726025	0.726470947265625	0.7264404296875	1.0870361328125E-06	7.8966701266836E-07	668276.25	3.03249307762599E-05
2	431	108.616008725771	0.736541748046875	0.736419677734375	1.09100341796875E-06	8.0343636454927E-07	674993.0625	3.04346031043679E-05
2	432	108.716716725517	0.746612548828125	0.746551513671875	1.09527587890625E-06	8.17679847386898E-07	681610.5	3.05446919810493E-05
2	433	108.817424725262	0.756683349609375	0.7568359375	1.09832763671875E-06	8.31253828437184E-07	689080.3125	3.06551482935902E-05
2	434	108.918132725008	0.766754150390625	0.76690673828125	1.10076904296875E-06	8.44187184156908E-07	696700.875	3.07658810925204E-05
2	435	109.018840724754	0.776824951171875	0.7769775390625	1.10260009765625E-06	8.5669552163381E-07	704677.5625	3.08768285322003E-05
2	436	109.1195487245	0.786895751953125	0.787353515625	1.10504150390625E-06	8.70058329383028E-07	712510.375	3.09879942506086E-05
2	437	109.220256724245	0.796966552734375	0.79742431640625	1.10687255859375E-06	8.82647100297618E-07	720430.125	3.10993709717877E-05
2	438	109.320964723991	0.807037353515625	0.8074951171875	1.10931396484375E-06	8.9576565187599E-07	727922.9375	3.12109659716953E-05
2	439	109.421672723737	0.817108154296875	0.81695556640625	1.11175537109375E-06	9.0825466259048E-07	734834	3.13228047161829E-05
2	440	109.522380723483	0.827178955078125	0.82794189453125	1.1138916015625E-06	9.22237518352631E-07	743287.6875	3.14348762913141E-05
2	441	109.623088723228	0.837249755859375	0.83740234375	1.116943359375E-06	9.35330945139867E-07	749726.8125	3.15472061629407E-05
2	442	109.723796722974	0.847320556640625	0.84747314453125	1.1199951171875E-06	9.49165780639305E-07	756675.75	3.16598452627659E-05
2	443	109.82450472272	0.857391357421875	0.85784912109375	1.12396240234375E-06	9.64190121521824E-07	763236.5	3.17728372465353E-05
2	444	109.925212722466	0.867462158203125	0.8673095703125	1.1273193359375E-06	9.77734771367977E-07	769355.75	3.18862003041431E-05
2	445	110.025920722211	0.877532958984375	0.87738037109375	1.131591796875E-06	9.92836362456728E-07	775350.625	3.19999453495257E-05
2	446	110.126628721957	0.887603759765625	0.88775634765625	1.13555908203125E-06	1.00809972991556E-06	781779.125	3.21141051244922E-05
2	447	110.227336721703	0.897674560546875	0.89813232421875	1.14013671875E-06	1.02399360457639E-06	787740.9375	3.2228694180958E-05
2	448	110.328044721448	0.907745361328125	0.90789794921875	1.14471435546875E-06	1.03928380212892E-06	793121.8125	3.23437452607322E-05
2	449	110.428752721194	0.917816162109375	0.91766357421875	1.1492919921875E-06	1.0546633575359E-06	798459.9375	3.2459258363815E-05
2	450	110.52946072094	0.927886962890625	0.927734375	1.15386962890625E-06	1.07048447262059E-06	804020.125	3.25752334902063E-05
2	451	110.630168720686	0.937957763671875	0.93841552734375	1.15966796875E-06	1.08825042843819E-06	809210.5625	3.2691728847567E-05
2	452	110.730876720431	0.948028564453125	0.9478759765625	1.16485595703125E-06	1.10413895981765E-06	813728.0625	3.28087771777064E-05
2	453	110.831584720177	0.958099365234375	0.95794677734375	1.1700439453125E-06	1.12083978365263E-06	818727.1875	3.2926349376794E-05
2	454	110.932292719923	0.968170166015625	0.968017578125	1.17523193359375E-06	1.13764508569147E-06	823682.1875	3.3044441806851E-05
2	455	111.033000719669	0.978240966796875	0.9783935546875	1.180419921875E-06	1.15491513952293E-06	828852.125	3.31630581058562E-05
2	456	111.133708719414	0.988311767578125	0.98876953125	1.18560791015625E-06	1.17229296847654E-06	833976.875	3.32821982738096E-05
2	457	111.23441671916	0.998382568359375	0.99822998046875	1.1907958984375E-06	1.18868808840489E-06	838288.125	3.34018586727325E-05
2	458	111.335124718906	1.00845336914063	1.00830078125	1.19598388671875E-06	1.20591141694604E-06	843072.25	3.35220429406036E-05
2	459	111.435832718652	1.01852416992188	1.01806640625	1.20086669921875E-06	1.22256199119875E-06	847776.375	3.36427328875288E-05
2	460	111.536540718397	1.02859497070313	1.02874755859375	1.2054443359375E-06	1.24009784485679E-06	853417.75	3.37639030476566E-05
2	461	111.637248718143	1.03866577148438	1.03851318359375	1.21002197265625E-06	1.25662381833536E-06	858259.75	3.38855315931141E-05
2	462	111.737956717889	1.04873657226563	1.04827880859375	1.21368408203125E-06	1.27227929169749E-06	863716.375	3.40075748681556E-05
2	463	111.838664717635	1.05880737304688	1.0589599609375	1.21734619140625E-06	1.28912085983757E-06	869892.25	3.41299855790567E-05
2	464	111.93937271738	1.06887817382813	1.0687255859375	1.220703125E-06	1.30459659430926E-06	875500	3.42527528118808E-05
2	465	112.040080717126	1.07894897460938	1.0791015625	1.2249755859375E-06	1.32187301460363E-06	880916.8125	3.43759020324796E-05
2	466	112.140788716872	1.08901977539063	1.08917236328125	1.226806640625E-06	1.33620380893262E-06	887811	3.44993568432983E-05
2	467	112.241496716617	1.09909057617188	1.09893798828125	1.22955322265625E-06	1.35120262712007E-06	893770.1875	3.46230444847606E-05
2	468	112.342204716363	1.10916137695313	1.10931396484375	1.2322998046875E-06	1.3670072576133E-06	900198.1875	3.47470086126123E-05
2	469	112.442912716109	1.11923217773438	1.11968994140625	1.23443603515625E-06	1.38218558731751E-06	907045.75	3.48712201230228E-05
2	470	112.543620715855	1.12930297851563	1.12945556640625	1.23687744140625E-06	1.39699807277793E-06	913150.75	3.49956608260982E-05
2	471	112.6443287156	1.13937377929688	1.1395263671875	1.23931884765625E-06	1.4122365428193E-06	919477.9375	3.51203452737536E-05
2	472	112.745036715346	1.14944458007813	1.15020751953125	1.24237060546875E-06	1.42898397825775E-06	925816.8125	3.52453098457772E-05
2	473	112.845744715092	1.15951538085938	1.15966796875	1.24542236328125E-06	1.44427644954703E-06	931144.3125	3.53705800080206E-05
2	474	112.946452714838	1.16958618164063	1.16943359375	1.24847412109375E-06	1.46000752465625E-06	936690.3125	3.54961557604838E-05
2	475	113.047160714583	1.17965698242188	1.17889404296875	1.25152587890625E-06	1.47541641126736E-06	941965.375	3.56220407411456E-05
2	476	113.147868714329	1.18972778320313	1.1895751953125	1.25518798828125E-06	1.49314041664184E-06	947726.75	3.57482640538365E-05
2	477	113.248576714075	1.19979858398438	1.19964599609375	1.25885009765625E-06	1.51017445659818E-06	952969.75	3.58748584403656E-05
2	478	113.349284713821	1.20986938476563	1.21002197265625	1.26373291015625E-06	1.52914458340092E-06	957498.1875	3.60018784704152E-05
2	479	113.449992713566	1.21994018554688	1.22039794921875	1.26922607421875E-06	1.54896076764999E-06	961529.25	3.61294260073919E-05
2	480	113.550700713312	1.23001098632813	1.23016357421875	1.275634765625E-06	1.56923942995491E-06	964354.0625	3.62575665349141E-05
2	481	113.651408713058	1.24008178710938	1.24053955078125	1.28326416015625E-06	1.59193996296381E-06	966706.3125	3.63864201062825E-05
2	482	113.752116712804	1.25015258789063	1.25030517578125	1.2908935546875E-06	1.61401089826541E-06	968557.875	3.65160376532003E-05
2	483	113.852824712549	1.26022338867188	1.26007080078125	1.3006591796875E-06	1.63892264026799E-06	968794	3.66465319530107E-05
2	484	113.953532712295	1.27029418945313	1.27044677734375	1.31103515625E-06	1.66560039360775E-06	969041	3.67780412489083E-05
2	485	114.054240712041	1.28036499023438	1.28021240234375	1.32293701171875E-06	1.69364034263708E-06	967704.75	3.69106746802572E-05
2	486	114.154948711786	1.29043579101563	1.290283203125	1.33636474609375E-06	1.72428894984478E-06	965517.3125	3.70445814041886E-05
2	487	114.255656711532	1.30050659179688	1.30096435546875	1.351318359375E-06	1.75801699242584E-06	962737.125	3.71799142158125E-05
2	488	114.356364711278	1.31057739257813	1.31072998046875	1.3671875E-06	1.7920135633176E-06	958705.375	3.73168040823657E-05
2	489	114.457072711024	1.32064819335938	1.32110595703125	1.3848876953125E-06	1.82958342520578E-06	953944.4375	3.74553819710854E-05
2	490	114.557780710769	1.33071899414063	1.33087158203125	1.40411376953125E-06	1.86869510798715E-06	947837.4375	3.75958188669756E-05
2	491	114.658488710515	1.34078979492188	1.34063720703125	1.424560546875E-06	1.90981882042252E-06	941088.25	3.77382530132309E-05
2	492	114.759196710261	1.35086059570313	1.3507080078125	1.4459228515625E-06	1.95301959138305E-06	934149.4375	3.78827935492154E-05
2	493	114.859904710007	1.36093139648438	1.361083984375	1.46881103515625E-06	1.99917508325598E-06	926657	3.80295641662087E-05
2	494	114.960612709752	1.37100219726563	1.370849609375	1.4923095703125E-06	2.04573188966606E-06	918609.4375	3.81786667276174E-05
2	495	115.061320709498	1.38107299804688	1.3812255859375	1.5167236328125E-06	2.09493737202138E-06	910664	3.83301849069539E-05
2	496	115.162028709244	1.39114379882813	1.3909912109375	1.541748046875E-06	2.14455803870806E-06	902216.9375	3.84841914637946E-05
2	497	115.26273670899	1.40121459960938	1.40106201171875	1.5667724609375E-06	2.19514527088904E-06	894234.5625	3.86407155019697E-05
2	498	115.363444708735	1.41128540039063	1.4117431640625	1.5936279296875E-06	2.24979316953977E-06	885867.5	3.87998552469071E-05
2	499	115.464152708481	1.42135620117188	1.4215087890625	1.61865234375E-06	2.30092837227858E-06	878205.1875	3.8961607060628E-05
2	500	115.564860708227	1.43142700195313	1.43096923828125	1.6461181640625E-06	2.35554443861474E-06	869299.25	3.91260000469629E-05
2	501	115.665568707973	1.44149780273438	1.441650390625	1.6748046875E-06	2.41448265114741E-06	860787.25	3.92932233808096E-05
2	502	115.766276707718	1.45156860351563	1.45172119140625	1.70806884765625E-06	2.47963976107712E-06	849919.625	3.94635644624941E-05
2	503	115.866984707464	1.46163940429688	1.46209716796875	1.75018310546875E-06	2.55893769463E-06	835396.6875	3.96376999560744E-05
2	504	115.96769270721	1.47171020507813	1.4715576171875	1.80938720703125E-06	2.66261758952169E-06	813290.625	3.9816939533921E-05
2	505	116.068400706955	1.48178100585938	1.48223876953125	1.88995361328125E-06	2.8013623705192E-06	784272.625	4.00032149627805E-05
2	506	116.169108706701	1.49185180664063	1.49139404296875	1.9927978515625E-06	2.9720465590799E-06	748392.0625	4.01987272198312E-05
2	507	116.269816706447	1.50192260742188	1.50177001953125	2.11212158203125E-06	3.171920980094E-06	711024.4375	4.04054262617137E-05
2	508	116.370524706193	1.49185180664063	1.49200439453125	1.81884765625E-06	2.7137286906509E-06	820302	4.06033650506288E-05
2	509	116.471232705938	1.48178100585938	1.48162841796875	1.6107177734375E-06	2.38648522099538E-06	919856	4.07760599046014E-05
2	510	116.571940705684	1.47171020507813	1.4715576171875	1.45294189453125E-06	2.13808766602597E-06	1012812.4375	4.09303247579373E-05
2	511	116.67264870543	1.46163940429688	1.4617919921875	1.32843017578125E-06	1.94188851310173E-06	1100390.625	4.10703796660528E-05
2	512	116.773356705176	1.45156860351563	1.45172119140625	1.2298583984375E-06	1.78541154127743E-06	1180397	4.11992004956119E-05
2	513	116.874064704921	1.44149780273438	1.4410400390625	1.15081787109375E-06	1.658374571889E-06	1252187.75	4.13190755352844E-05
2	514	116.974772704667	1.43142700195313	1.43157958984375	1.0882568359375E-06	1.55792622535955E-06	1315479.625	4.14318237744737E-05
2	515	117.075480704413	1.42135620117188	1.42120361328125	1.03729248046875E-06	1.47420382745622E-06	1370108.875	4.15388531109784E-05
2	516	117.176188704159	1.41128540039063	1.41082763671875	9.97314453125001E-07	1.40703866691183E-06	1414626.75	4.16413022321649E-05
2	517	117.276896703904	1.40121459960938	1.40167236328125	9.6405029296875E-07	1.35128266265383E-06	1453941.125	4.17400660808198E-05
2	518	117.37760470365	1.39114379882813	1.3916015625	9.368896484375E-07	1.30377713958296E-06	1485342	4.18357849412132E-05
2	519	117.478312703396	1.38107299804688	1.3812255859375	9.1278076171875E-07	1.26075610751286E-06	1513206.25	4.19289244746324E-05
2	520	117.579020703142	1.37100219726563	1.3714599609375	8.90502929687501E-07	1.22128915336361E-06	1540096	4.20197247876786E-05
2	521	117.679728702887	1.36093139648438	1.36077880859375	8.709716796875E-07	1.18519972147624E-06	1562368.75	4.21084223489743E-05
2	522	117.780436702633	1.35086059570313	1.351318359375	8.52355957031251E-07	1.15180421289551E-06	1585392.125	4.21951990574598E-05
2	523	117.881144702379	1.34078979492188	1.34063720703125	8.3526611328125E-07	1.11978874883789E-06	1605042.125	4.22801786044147E-05
2	524	117.981852702124	1.33071899414063	1.33056640625	8.18481445312499E-07	1.08904384887865E-06	1625652.625	4.2363451939309E-05
2	525	118.08256070187	1.32064819335938	1.32049560546875	8.0291748046875E-07	1.06024890556E-06	1644621.875	4.24450954596978E-05
2	526	118.183268701616	1.31057739257813	1.31072998046875	7.88269042968751E-07	1.03320780908689E-06	1662795.25	4.25252183049452E-05
2	527	118.283976701362	1.30050659179688	1.30035400390625	7.7362060546875E-07	1.00598060726043E-06	1680867.875	4.26038641307969E-05
2	528	118.384684701107	1.29043579101563	1.290283203125	7.5958251953125E-07	9.80076606538205E-07	1698674.125	4.2681069317041E-05
2	529	118.485392700853	1.28036499023438	1.28082275390625	7.464599609375E-07	9.5608288575022E-07	1715862.75	4.27569029852748E-05
2	530	118.586100700599	1.27029418945313	1.27044677734375	7.33337402343751E-07	9.31666136239073E-07	1732417.875	4.28314160672016E-05
2	531	118.686808700345	1.26022338867188	1.2603759765625	7.20825195312499E-07	9.08510742192448E-07	1748518.25	4.29046413046308E-05
2	532	118.78751670009	1.25015258789063	1.25	7.09228515625E-07	8.86535644895048E-07	1762478.5	4.29766478191596E-05
2	533	118.888224699836	1.24008178710938	1.23992919921875	6.98242187500001E-07	8.65770857672032E-07	1775786.75	4.30475192843005E-05
2	534	118.988932699582	1.23001098632813	1.22955322265625	6.87561035156251E-07	8.45392833070946E-07	1788282.375	4.31173029937781E-05
2	535	119.089640699328	1.21994018554688	1.2200927734375	6.76574707031249E-07	8.25483880362299E-07	1803337.875	4.31859916716348E-05
2	536	119.190348699073	1.20986938476563	1.209716796875	6.6680908203125E-07	8.06650120921404E-07	1814187.75	4.32536362495739E-05
2	537	119.291056698819	1.19979858398438	1.199951171875	6.57043457031251E-07	7.88420038588811E-07	1826289	4.3320298573235E-05
2	538	119.391764698565	1.18972778320313	1.1895751953125	6.47583007812499E-07	7.70348606238258E-07	1836946.375	4.33859895565547E-05
2	539	119.492472698311	1.17965698242188	1.17950439453125	6.3812255859375E-07	7.52668313452887E-07	1848398	4.34507310274057E-05
2	540	119.593180698056	1.16958618164063	1.16973876953125	6.2835693359375E-07	7.35013486519165E-07	1861583.25	4.3514504795894E-05
2	541	119.693888697802	1.15951538085938	1.15936279296875	6.195068359375E-07	7.18233138741198E-07	1871428.625	4.35773399658501E-05
2	542	119.794596697548	1.14944458007813	1.14990234375	6.1004638671875E-07	7.0149371822481E-07	1884942.625	4.36392510891892E-05
2	543	119.895304697293	1.13937377929688	1.13922119140625	6.00585937500001E-07	6.84200188061368E-07	1896849.75	4.37002127000596E-05
2	544	119.996012697039	1.12930297851563	1.12945556640625	5.9173583984375E-07	6.68339339426893E-07	1908715.875	4.37602502643131E-05
2	545	120.096720696785	1.11923217773438	1.119384765625	5.8258056640625E-07	6.52131745937368E-07	1921425	4.38193819718435E-05
2	546	120.197428696531	1.10916137695313	1.1090087890625	5.72814941406249E-07	6.35256810710416E-07	1936068.25	4.38775605289266E-05
2	547	120.298136696276	1.09909057617188	1.09893798828125	5.6427001953125E-07	6.20097750925197E-07	1947539.25	4.39348150393926E-05
2	548	120.398844696022	1.08901977539063	1.0888671875	5.55419921875E-07	6.04778506385628E-07	1960439.625	4.39911964349449E-05
2	549	120.499552695768	1.07894897460938	1.0784912109375	5.4595947265625E-07	5.88812440582842E-07	1975405.375	4.4046657421859E-05
2	550	120.600260695514	1.06887817382813	1.06842041015625	5.37109375E-07	5.73858642383129E-07	1989204.5	4.41011943621561E-05
2	551	120.700968695259	1.05880737304688	1.05865478515625	5.279541015625E-07	5.5892115824463E-07	2005202.25	4.41548218077514E-05
2	552	120.801676695005	1.04873657226563	1.048583984375	5.1910400390625E-07	5.44324109341687E-07	2019988.25	4.42075470346026E-05
2	553	120.902384694751	1.03866577148438	1.0382080078125	5.0994873046875E-07	5.29432838902721E-07	2035906.625	4.4259362766752E-05
2	554	121.003092694497	1.02859497070313	1.0284423828125	5.01098632812499E-07	5.15351075591752E-07	2052375.25	4.43102726421785E-05
2	555	121.103800694242	1.01852416992188	1.01837158203125	4.9285888671875E-07	5.01913461903314E-07	2066253.875	4.43603239546064E-05
2	556	121.204508693988	1.00845336914063	1.00860595703125	4.84313964843749E-07	4.88481930460694E-07	2082545.75	4.44095276179723E-05
2	557	121.305216693734	0.998382568359375	0.99822998046875	4.7576904296875E-07	4.74926935112308E-07	2098139.75	4.44578727183398E-05
2	558	121.40592469348	0.988311767578125	0.98876953125	4.67834472656251E-07	4.62580459270612E-07	2113503	4.45053883595392E-05
2	559	121.506632693225	0.978240966796875	0.9783935546875	4.6051025390625E-07	4.50560264653177E-07	2124585.75	4.45521327492315E-05
2	560	121.607340692971	0.968170166015625	0.9686279296875	4.52880859375E-07	4.38673026792458E-07	2138814	4.45981240773108E-05
2	561	121.708048692717	0.958099365234375	0.958251953125	4.4586181640625E-07	4.27247954348786E-07	2149212.75	4.4643380533671E-05
2	562	121.808756692462	0.948028564453125	0.94818115234375	4.38842773437501E-07	4.16102437839072E-07	2160639.75	4.46879275841638E-05
2	563	121.909464692208	0.937957763671875	0.93841552734375	4.32739257812501E-07	4.06089242233065E-07	2168547.25	4.47318161604926E-05
2	564	122.010172691954	0.927886962890625	0.927734375	4.254150390625E-07	3.94672156289744E-07	2180774.75	4.47750280727632E-05
2	565	122.1108806917	0.917816162109375	0.91766357421875	4.193115234375E-07	3.84786886797883E-07	2188500.75	4.48175633209758E-05
2	566	122.211588691445	0.907745361328125	0.90789794921875	4.13818359375E-07	3.75704843236235E-07	2193952.75	4.48595164925791E-05
2	567	122.312296691191	0.897674560546875	0.89752197265625	4.0771484375E-07	3.65933004786712E-07	2201347.5	4.49008839495946E-05
2	568	122.413004690937	0.887603759765625	0.8880615234375	4.01916503906249E-07	3.56926562972149E-07	2209567.25	4.49416511401068E-05
2	569	122.513712690683	0.877532958984375	0.877685546875	3.96728515625E-07	3.48202860322999E-07	2212307.75	4.49818653578404E-05
2	570	122.614420690428	0.867462158203125	0.8673095703125	3.91845703125E-07	3.39851538910807E-07	2213395.75	4.50215738965198E-05
2	571	122.715128690174	0.857391357421875	0.8575439453125	3.863525390625E-07	3.31314282675521E-07	2219589.25	4.5060758566251E-05
2	572	122.81583668992	0.847320556640625	0.84716796875	3.814697265625E-07	3.23168904969862E-07	2220800.25	4.50994230050128E-05
2	573	122.916544689666	0.837249755859375	0.83740234375	3.75976562499999E-07	3.14843646265217E-07	2227272.75	4.51375635748263E-05
2	574	123.017252689411	0.827178955078125	0.8270263671875	3.69873046874999E-07	3.05894758412251E-07	2235973.5	4.5175118430052E-05
2	575	123.117960689157	0.817108154296875	0.81756591796875	3.643798828125E-07	2.97904563240081E-07	2243718.75	4.52120912086684E-05
2	576	123.218668688903	0.807037353515625	0.806884765625	3.582763671875E-07	2.89087751070838E-07	2252129.5	4.5248478272697E-05
2	577	123.319376688649	0.796966552734375	0.79681396484375	3.521728515625E-07	2.80616234249464E-07	2262565	4.52842541562859E-05
2	578	123.420084688394	0.786895751953125	0.78643798828125	3.460693359375E-07	2.72162054670844E-07	2272486.75	4.53194115834776E-05
2	579	123.52079268814	0.776824951171875	0.77667236328125	3.387451171875E-07	2.63093966168526E-07	2292792.75	4.53538959845901E-05
2	580	123.621500687886	0.766754150390625	0.7666015625	3.32031250000001E-07	2.54535677868262E-07	2308823.5	4.53876709798351E-05
2	581	123.722208687631	0.756683349609375	0.75714111328125	3.2470703125E-07	2.4584903712821E-07	2331767	4.54207402071916E-05
2	582	123.822916687377	0.746612548828125	0.74652099609375	3.16772460937501E-07	2.36477291082338E-07	2356647.5	4.54530418210197E-05
2	583	123.923624687123	0.736541748046875	0.736480712890625	3.0853271484375E-07	2.27228397875479E-07	2387042.5	4.54845285275951E-05
2	584	124.024332686869	0.726470947265625	0.72637939453125	2.99987792968751E-07	2.17904954524784E-07	2421363.25	4.55151712230872E-05
2	585	124.125040686614	0.716400146484375	0.71630859375	2.911376953125E-07	2.08544435054137E-07	2460377.25	4.55449371656869E-05
2	586	124.22574868636	0.706329345703125	0.70623779296875	2.825927734375E-07	1.99577684156793E-07	2499136.25	4.5573826355394E-05
2	587	124.326456686106	0.696258544921875	0.6961669921875	2.74658203125E-07	1.91207973898599E-07	2534666.75	4.56018860859331E-05
2	588	124.427164685852	0.686187744140625	0.686065673828125	2.67639160156249E-07	1.83618041660338E-07	2563398	4.56291927548591E-05
2	589	124.527872685597	0.676116943359375	0.676055908203125	2.6123046875E-07	1.76606405943858E-07	2587967.25	4.5655822759727E-05
2	590	124.628580685343	0.666046142578125	0.665985107421875	2.55737304687501E-07	1.70317221659388E-07	2604176.75	4.56818561360706E-05
2	591	124.729288685089	0.655975341796875	0.65594482421875	2.51159667968751E-07	1.64746879249833E-07	2611664.75	4.57073801953811E-05
2	592	124.829996684835	0.645904541015625	0.6458740234375	2.4749755859375E-07	1.59852234560276E-07	2609617.75	4.57324895251077E-05
2	593	124.93070468458	0.635833740234375	0.63580322265625	2.4444580078125E-07	1.55419428438108E-07	2600998.75	4.57572605228052E-05
2	594	125.031412684326	0.625762939453125	0.62567138671875	2.4139404296875E-07	1.51033347606244E-07	2591909	4.5781722292304E-05
2	595	125.132120684072	0.615692138671875	0.61566162109375	2.392578125E-07	1.47301861375126E-07	2573214.25	4.58059257653076E-05
2	596	125.232828683818	0.605621337890625	0.605560302734375	2.3681640625E-07	1.43406609254271E-07	2557087.75	4.58299000456464E-05
2	597	125.333536683563	0.595550537109375	0.595550537109375	2.3529052734375E-07	1.40127397685319E-07	2531128.5	4.58536705991719E-05
2	598	125.434244683309	0.585479736328125	0.58544921875	2.32849121093751E-07	1.36321332888656E-07	2514285.75	4.58772447018418E-05
2	599	125.534952683055	0.575408935546875	0.575286865234375	2.31323242187501E-07	1.33077222130851E-07	2486939.25	4.59006187156774E-05
2	600	125.6356606828	0.565338134765625	0.565277099609375	2.2918701171875E-07	1.29554166505841E-07	2466444.75	4.59238071925938E-05
2	601	125.736368682546	0.555267333984375	0.555267333984375	2.27966308593749E-07	1.26582236248396E-07	2435743	4.59468246845063E-05
2	602	125.837076682292	0.545196533203125	0.545166015625	2.2613525390625E-07	1.23281253650021E-07	2410796.25	4.59696893813089E-05
2	603	125.937784682038	0.535125732421875	0.53515625	2.2430419921875E-07	1.20037782380678E-07	2385850.5	4.59923721791711E-05
2	604	126.038492681783	0.525054931640625	0.524993896484375	2.2308349609375E-07	1.17117473052986E-07	2353351.75	4.60148985439446E-05
2	605	126.139200681529	0.514984130859375	0.514923095703125	2.215576171875E-07	1.14085132452146E-07	2324104.75	4.60372903035022E-05
2	606	126.239908681275	0.504913330078125	0.5048828125	2.2003173828125E-07	1.11090244558909E-07	2294590.75	4.60595256299712E-05
2	607	126.340616681021	0.494842529296875	0.4947509765625	2.1820068359375E-07	1.07955003159077E-07	2267412.5	4.6081593609415E-05
2	608	126.441324680766	0.484771728515625	0.4847412109375	2.1697998046875E-07	1.0517913295871E-07	2234036.75	4.61035051557701E-05
2	609	126.542032680512	0.474700927734375	0.474700927734375	2.1484375E-07	1.0198652944382E-07	2209517	4.61252493551001E-05
2	610	126.642740680258	0.464630126953125	0.464630126953125	2.1392822265625E-07	9.9397496455822E-08	2171897.25	4.61468407593202E-05
2	611	126.743448680004	0.454559326171875	0.454559326171875	2.11486816406251E-07	9.61332986548769E-08	2149350.75	4.61682611785363E-05
2	612	126.844156679749	0.444488525390625	0.444488525390625	2.093505859375E-07	9.30539272303577E-08	2123178	4.61894524050876E-05
2	613	126.944864679495	0.434417724609375	0.43438720703125	2.0751953125E-07	9.01438212963512E-08	2093235.375	4.62104435428046E-05
2	614	127.045572679241	0.424346923828125	0.42431640625	2.06298828125E-07	8.75359731367098E-08	2056804.75	4.62312818854116E-05
2	615	127.146280678986	0.414276123046875	0.414276123046875	2.044677734375E-07	8.47061158992801E-08	2026119.5	4.62519637949299E-05
2	616	127.246988678732	0.404205322265625	0.4041748046875	2.0294189453125E-07	8.2024001812897E-08	1991579	4.62724783574231E-05
2	617	127.347696678478	0.394134521484375	0.3941650390625	2.01416015625E-07	7.93911496543842E-08	1956969.75	4.62928401248064E-05
2	618	127.448404678224	0.384063720703125	0.384063720703125	1.995849609375E-07	7.66533432283723E-08	1924311.875	4.63130309071857E-05
2	619	127.549112677969	0.373992919921875	0.374053955078125	1.97753906250001E-07	7.39706322860911E-08	1891512.375	4.63330397906248E-05
2	620	127.649820677715	0.363922119140625	0.36395263671875	1.96533203125E-07	7.15287740149506E-08	1851863.5	4.63528922409751E-05
2	621	127.750528677461	0.353851318359375	0.353912353515625	1.94702148437501E-07	6.8907489492176E-08	1817711.75	4.63725918962155E-05
2	622	127.851236677207	0.343780517578125	0.34375	1.92871093749999E-07	6.62994352751411E-08	1782278.625	4.63921096525155E-05
2	623	127.951944676952	0.333709716796875	0.333740234375	1.91345214843749E-07	6.38595949453702E-08	1744178.75	4.64114564238116E-05
2	624	128.052652676698	0.323638916015625	0.3236083984375	1.8951416015625E-07	6.13283717143531E-08	1707568.5	4.64306358480826E-05
2	625	128.153360676444	0.313568115234375	0.313568115234375	1.873779296875E-07	5.87557416054096E-08	1673452.875	4.64496115455404E-05
2	626	128.25406867619	0.303497314453125	0.303497314453125	1.849365234375E-07	5.61277389010684E-08	1641089.125	4.64683580503333E-05
2	627	128.354776675935	0.293426513671875	0.293426513671875	1.82495117187501E-07	5.35489057540417E-08	1607859.5	4.64868608105462E-05
2	628	128.455484675681	0.283355712890625	0.283355712890625	1.800537109375E-07	5.10192457170433E-08	1573728.875	4.65051161882002E-05
2	629	128.556192675427	0.273284912109375	0.273284912109375	1.77001953125E-07	4.83719624355672E-08	1543965.5	4.65230950794648E-05
2	630	128.656900675173	0.263214111328125	0.26318359375	1.739501953125E-07	4.57808333464982E-08	1512982.5	4.65407683805097E-05
2	631	128.757608674918	0.253143310546875	0.25311279296875	1.70288085937501E-07	4.31020907853963E-08	1486380	4.65581033495255E-05
2	632	128.858316674664	0.243072509765625	0.243072509765625	1.666259765625E-07	4.0502193598968E-08	1458791.25	4.6575067244703E-05
2	633	128.95902467441	0.233001708984375	0.233001708984375	1.62658691406251E-07	3.78997526695457E-08	1432457.75	4.65916491521057E-05
2	634	129.059732674155	0.222930908203125	0.222930908203125	1.57470703125E-07	3.51050850611045E-08	1415697.75	4.66077690361999E-05
2	635	129.160440673901	0.212860107421875	0.212890625	1.51977539062501E-07	3.23545918945456E-08	1400803.25	4.66233504994307E-05
2	636	129.261148673647	0.202789306640625	0.202880859375	1.45568847656249E-07	2.95331332722526E-08	1393710.75	4.66383316961583E-05
2	637	129.361856673393	0.192718505859375	0.1927490234375	1.373291015625E-07	2.64700492635939E-08	1403555.625	4.66525780211668E-05
2	638	129.462564673138	0.182647705078125	0.18267822265625	1.26953125E-07	2.31915713300168E-08	1438942.25	4.66658857476432E-05
2	639	129.563272672884	0.172576904296875	0.172607421875	1.141357421875E-07	1.97006748692274E-08	1512299.5	4.66780256829225E-05
2	640	129.66398067263	0.162506103515625	0.16253662109375	9.73510742187503E-08	1.58231134861353E-08	1669592.5	4.66886740468908E-05
2	641	129.764688672376	0.152435302734375	0.1524658203125	7.56835937500006E-08	1.15391616262173E-08	2014516.125	4.66973870061338E-05
2	642	129.865396672121	0.142364501953125	0.142425537109375	4.54711914062503E-08	6.47625864047541E-09	3132215	4.67034878965933E-05
2	643	129.966104671867	0.132293701171875	0.13232421875	4.27246093750028E-09	5.65350044556823E-10	30971428	4.67059908260126E-05
2	644	130.066812671613	0.122222900390625	0.122222900390625	-5.27954101562506E-08	-6.45280762157086E-09	-2315029	4.6703549742233E-05
2	645	130.167520671359	0.112152099609375	0.112152099609375	-1.3092041015625E-07	-1.46829988167951E-08	-856643.3125	4.66942983621266E-05
2	646	130.268228671104	0.102081298828125	0.10211181640625	-2.35900878906251E-07	-2.4088265604405E-08	-432859	4.6675828343723E-05
2	647	130.36893667085	0.092010498046875	0.092071533203125	-3.74755859375001E-07	-3.45043460470151E-08	-245684.046875	4.66450765088666E-05
2	648	130.469644670596	0.081939697265625	0.082061767578125	-5.5267333984375E-07	-4.53533495203828E-08	-148481.5	4.65983794128988E-05
2	649	130.570352670342	0.071868896484375	0.071868896484375	-7.6934814453125E-07	-5.5292201039947E-08	-93415.3125	4.65318080387078E-05
2	650	130.671060670087	0.061798095703125	0.061859130859375	-1.01654052734375E-06	-6.28823144666057E-08	-60852.59765625	4.64418808405753E-05
2	651	130.771768669833	0.051727294921875	0.0517578125	-1.27899169921875E-06	-6.61978134530727E-08	-40467.66796875	4.63262949779164E-05
2	652	130.872476669579	0.041656494140625	0.041748046875	-1.53106689453125E-06	-6.39190460560712E-08	-27267.29296875	4.61847957922146E-05
2	653	130.973184669324	0.031585693359375	0.0316864013671875	-1.74774169921875E-06	-5.53796439817233E-08	-18129.912109375	4.60196934000123E-05
2	654	131.07389266907	0.021514892578125	0.0216339111328125	-1.905517578125E-06	-4.12237959324102E-08	-11353.2998046875	4.58357390016317E-05
2	655	131.174600668816	0.011444091796875	0.011553955078125	-1.99737548828125E-06	-2.30775860643462E-08	-5784.56884765625	4.56392117484938E-05
2	656	131.275308668562	0.001373291015625	0.001483154296875	-2.02545166015625E-06	-3.00405700315309E-09	-732.258605957031	4.54366454505362E-05
2	657	131.376016668307	-0.008697509765625	-0.00860595703125	-2.003173828125E-06	1.7239226934862E-08	4296.1611328125	4.52337881142739E-05
2	658	131.476724668053	-0.018768310546875	-0.0186737060546875	-1.9476318359375E-06	3.6369502964817E-08	9587.904296875	4.50348488811869E-05
2	659	131.577432667799	-0.028839111328125	-0.0287261962890625	-1.87255859375E-06	5.37914814913165E-08	15340.61328125	4.48424871137831E-05
2	660	131.678140667545	-0.038909912109375	-0.0387939453125	-1.79168701171875E-06	6.95066049161142E-08	21652.189453125	4.46579797426239E-05
2	661	131.77884866729	-0.048980712890625	-0.048822021484375	-1.71112060546875E-06	8.35403710652827E-08	28532.193359375	4.44815996161196E-05
2	662	131.879556667036	-0.059051513671875	-0.058990478515625	-1.63482666015625E-06	9.64392015134763E-08	36083.62890625	4.43131175416056E-05
2	663	131.980264666782	-0.069122314453125	-0.06903076171875	-1.5643310546875E-06	1.07986963371332E-07	44127.9765625	4.41520278400276E-05
2	664	132.080972666528	-0.079193115234375	-0.07916259765625	-1.50115966796875E-06	1.18835700391173E-07	52734.296875	4.39976683992427E-05
2	665	132.181680666273	-0.089263916015625	-0.08917236328125	-1.44439697265625E-06	1.28800294874054E-07	61736.7421875	4.38493480032776E-05
2	666	132.282388666019	-0.099334716796875	-0.099273681640625	-1.395263671875E-06	1.38512959324544E-07	71150.484375	4.37063572462648E-05
2	667	132.383096665765	-0.109405517578125	-0.10931396484375	-1.351318359375E-06	1.47717969412042E-07	80894.3125	4.35680558439344E-05
2	668	132.483804665511	-0.119476318359375	-0.11932373046875	-1.31317138671875E-06	1.56692493646915E-07	90866.84375	4.34338871855289E-05
2	669	132.584512665256	-0.129547119140625	-0.12945556640625	-1.27960205078125E-06	1.65651599104422E-07	101168.6171875	4.33033310400788E-05
2	670	132.685220665002	-0.139617919921875	-0.139556884765625	-1.2493896484375E-06	1.74360920368599E-07	111700.0546875	4.31759872299153E-05
2	671	132.785928664748	-0.149688720703125	-0.149566650390625	-1.22314453125E-06	1.82941633397604E-07	122280.4375	4.30514846812002E-05
2	672	132.886636664493	-0.159759521484375	-0.159637451171875	-1.20025634765625E-06	1.91605849408916E-07	133002.796875	4.2929455958074E-05
2	673	132.987344664239	-0.169830322265625	-0.169677734375	-1.180419921875E-06	2.00290969587513E-07	143743.546875	4.28095809184015E-05
2	674	133.088052663985	-0.179901123046875	-0.17974853515625	-1.16302490234375E-06	2.09052018362854E-07	154552.609375	4.26915794378147E-05
2	675	133.188760663731	-0.189971923828125	-0.1898193359375	-1.14776611328125E-06	2.17868191043635E-07	165381.5625	4.25752223236486E-05
2	676	133.289468663476	-0.200042724609375	-0.19989013671875	-1.13555908203125E-06	2.2698705492985E-07	176027.953125	4.24602476414293E-05
2	677	133.390176663222	-0.189971923828125	-0.189788818359375	-9.967041015625E-07	1.89163287700467E-07	190416.40625	4.23528799728956E-05
