Potential - OCP -0.0129425946403952 V
Time (s)	WE(1).Potential (V)
6.56330698342924	-0.010302734375
6.66330698317677	-0.010321044921875
6.76330698292429	-0.0103424072265625
6.86330698267182	-0.0103607177734375
6.96330698241934	-0.0103790283203125
7.06330698216686	-0.0103973388671875
7.16330698191439	-0.0104156494140625
7.26330698166191	-0.0104339599609375
7.36330698140944	-0.01044921875
7.46330698115696	-0.010467529296875
7.56330698090449	-0.01048583984375
7.66330698065201	-0.0105010986328125
7.76330698039953	-0.0105133056640625
7.86330698014706	-0.0105316162109375
7.96330697989458	-0.0105499267578125
8.06330697964211	-0.010565185546875
8.16330697938963	-0.0105804443359375
8.26330697913716	-0.010595703125
8.36330697888468	-0.010614013671875
8.4633069786322	-0.0106292724609375
8.56330697837973	-0.0106475830078125
8.66330697812725	-0.010662841796875
8.76330697787478	-0.01068115234375
8.8633069776223	-0.010693359375
8.96330697736983	-0.010711669921875
9.06330697711735	-0.01072998046875
9.16330697686487	-0.0107452392578125
9.2633069766124	-0.010760498046875
9.36330697635992	-0.01077880859375
9.46330697610745	-0.0107940673828125
9.56330697585497	-0.010809326171875
9.6633069756025	-0.01082763671875
9.76330697535002	-0.010845947265625
9.86330697509754	-0.0108612060546875
9.96330697484507	-0.01087646484375
10.0633069745926	-0.0108917236328125
10.1633069743401	-0.0109100341796875
10.2633069740876	-0.01092529296875
10.3633069738352	-0.010943603515625
10.4633069735827	-0.0109588623046875
10.5633069733302	-0.010980224609375
10.6633069730777	-0.010992431640625
10.7633069728253	-0.0110076904296875
10.8633069725728	-0.01102294921875
10.9633069723203	-0.011041259765625
11.0633069720678	-0.0110565185546875
11.1633069718154	-0.01107177734375
11.2633069715629	-0.011090087890625
11.3633069713104	-0.0111053466796875
11.4633069710579	-0.01112060546875
11.5633069708055	-0.0111358642578125
11.663306970553	-0.011151123046875
11.7633069703005	-0.0111663818359375
11.863306970048	-0.011181640625
11.9633069697956	-0.0111968994140625
12.0633069695431	-0.0112091064453125
12.1633069692906	-0.011224365234375
12.2633069690381	-0.0112396240234375
12.3633069687857	-0.0112518310546875
12.4633069685332	-0.0112640380859375
12.5633069682807	-0.0112762451171875
12.6633069680282	-0.0112884521484375
12.7633069677757	-0.0113037109375
12.8633069675233	-0.01131591796875
12.9633069672708	-0.011328125
13.0633069670183	-0.01134033203125
13.1633069667658	-0.0113525390625
13.2633069665134	-0.01136474609375
13.3633069662609	-0.011376953125
13.4633069660084	-0.01138916015625
13.5633069657559	-0.0114044189453125
13.6633069655035	-0.01141357421875
13.763306965251	-0.0114288330078125
13.8633069649985	-0.0114410400390625
13.963306964746	-0.0114532470703125
14.0633069644936	-0.0114654541015625
14.1633069642411	-0.0114776611328125
14.2633069639886	-0.0114898681640625
14.3633069637361	-0.0115020751953125
14.4633069634837	-0.0115142822265625
14.5633069632312	-0.0115264892578125
14.6633069629787	-0.0115386962890625
14.7633069627262	-0.011553955078125
14.8633069624738	-0.011566162109375
14.9633069622213	-0.011578369140625
15.0633069619688	-0.011590576171875
15.1633069617163	-0.0116058349609375
15.2633069614639	-0.0116180419921875
15.3633069612114	-0.0116302490234375
15.4633069609589	-0.0116424560546875
15.5633069607064	-0.0116546630859375
15.663306960454	-0.0116668701171875
15.7633069602015	-0.011676025390625
15.863306959949	-0.011688232421875
15.9633069596965	-0.011700439453125
16.063306959444	-0.0117095947265625
16.1633069591916	-0.0117218017578125
16.2633069589391	-0.0117340087890625
16.3633069586866	-0.0117462158203125
16.4633069584341	-0.0117584228515625
16.5633069581817	-0.0117645263671875
16.6633069579292	-0.01177978515625
16.7633069576767	-0.011785888671875
16.8633069574242	-0.0117950439453125
16.9633069571718	-0.0118011474609375
17.0633069569193	-0.0118072509765625
17.1633069566668	-0.01181640625
17.2633069564143	-0.0118255615234375
17.3633069561619	-0.0118316650390625
17.4633069559094	-0.0118408203125
17.5633069556569	-0.011846923828125
17.6633069554044	-0.0118560791015625
17.763306955152	-0.011859130859375
17.8633069548995	-0.0118682861328125
17.963306954647	-0.0118743896484375
18.0633069543945	-0.01187744140625
18.1633069541421	-0.0118865966796875
18.2633069538896	-0.0118927001953125
18.3633069536371	-0.0118988037109375
18.4633069533846	-0.0119049072265625
18.5633069531322	-0.0119110107421875
18.6633069528797	-0.0119140625
18.7633069526272	-0.011920166015625
18.8633069523747	-0.01192626953125
18.9633069521223	-0.011932373046875
19.0633069518698	-0.0119384765625
19.1633069516173	-0.011944580078125
19.2633069513648	-0.0119476318359375
19.3633069511123	-0.0119537353515625
19.4633069508599	-0.0119598388671875
19.5633069506074	-0.011962890625
19.6633069503549	-0.0119659423828125
19.7633069501024	-0.01197509765625
19.86330694985	-0.0119781494140625
19.9633069495975	-0.0119842529296875
20.063306949345	-0.0119873046875
20.1633069490925	-0.011993408203125
20.2633069488401	-0.01199951171875
20.3633069485876	-0.0120025634765625
20.4633069483351	-0.0120086669921875
20.5633069480826	-0.01201171875
20.6633069478302	-0.012017822265625
20.7633069475777	-0.0120208740234375
20.8633069473252	-0.01202392578125
20.9633069470727	-0.012030029296875
21.0633069468203	-0.0120361328125
21.1633069465678	-0.0120391845703125
21.2633069463153	-0.0120452880859375
21.3633069460628	-0.01204833984375
21.4633069458104	-0.012054443359375
21.5633069455579	-0.012060546875
21.6633069453054	-0.0120635986328125
21.7633069450529	-0.0120697021484375
21.8633069448005	-0.0120758056640625
21.963306944548	-0.0120819091796875
22.0633069442955	-0.0120849609375
22.163306944043	-0.012091064453125
22.2633069437906	-0.01209716796875
22.3633069435381	-0.012103271484375
22.4633069432856	-0.0121124267578125
22.5633069430331	-0.0121185302734375
22.6633069427807	-0.012127685546875
22.7633069425282	-0.0121337890625
22.8633069422757	-0.0121429443359375
22.9633069420232	-0.0121490478515625
23.0633069417707	-0.012158203125
23.1633069415183	-0.0121673583984375
23.2633069412658	-0.0121734619140625
23.3633069410133	-0.0121826171875
23.4633069407608	-0.0121917724609375
23.5633069405084	-0.0121978759765625
23.6633069402559	-0.0122100830078125
23.7633069400034	-0.0122222900390625
23.8633069397509	-0.0122283935546875
23.9633069394985	-0.012237548828125
24.063306939246	-0.0122467041015625
24.1633069389935	-0.0122528076171875
24.263306938741	-0.012261962890625
24.3633069384886	-0.0122711181640625
24.4633069382361	-0.0122802734375
24.5633069379836	-0.0122894287109375
24.6633069377311	-0.012298583984375
24.7633069374787	-0.0123046875
24.8633069372262	-0.01231689453125
24.9633069369737	-0.0123260498046875
25.0633069367212	-0.012335205078125
25.1633069364688	-0.0123443603515625
25.2633069362163	-0.012353515625
25.3633069359638	-0.0123626708984375
25.4633069357113	-0.012371826171875
25.5633069354589	-0.0123779296875
25.6633069352064	-0.01239013671875
25.7633069349539	-0.0123992919921875
25.8633069347014	-0.0124053955078125
25.963306934449	-0.01241455078125
26.0633069341965	-0.0124237060546875
26.163306933944	-0.012432861328125
26.2633069336915	-0.01243896484375
26.363306933439	-0.012445068359375
26.4633069331866	-0.012457275390625
26.5633069329341	-0.01246337890625
26.6633069326816	-0.0124725341796875
26.7633069324291	-0.012481689453125
26.8633069321767	-0.01248779296875
26.9633069319242	-0.0124969482421875
27.0633069316717	-0.0125030517578125
27.1633069314192	-0.01251220703125
27.2633069311668	-0.012518310546875
27.3633069309143	-0.0125244140625
27.4633069306618	-0.012530517578125
27.5633069304093	-0.01253662109375
27.6633069301569	-0.012542724609375
27.7633069299044	-0.012548828125
27.8633069296519	-0.012554931640625
27.9633069293994	-0.01256103515625
28.063306929147	-0.012567138671875
28.1633069288945	-0.0125701904296875
28.263306928642	-0.0125762939453125
28.3633069283895	-0.012579345703125
28.4633069281371	-0.01258544921875
28.5633069278846	-0.012591552734375
28.6633069276321	-0.0125946044921875
28.7633069273796	-0.01259765625
28.8633069271272	-0.012603759765625
28.9633069268747	-0.01260986328125
29.0633069266222	-0.0126129150390625
29.1633069263697	-0.0126190185546875
29.2633069261173	-0.0126220703125
29.3633069258648	-0.012628173828125
29.4633069256123	-0.01263427734375
29.5633069253598	-0.012640380859375
29.6633069251073	-0.012646484375
29.7633069248549	-0.0126495361328125
29.8633069246024	-0.0126556396484375
29.9633069243499	-0.0126617431640625
30.0633069240974	-0.0126678466796875
30.163306923845	-0.0126739501953125
30.2633069235925	-0.0126800537109375
30.36330692334	-0.0126861572265625
30.4633069230875	-0.0126922607421875
30.5633069228351	-0.0126983642578125
30.6633069225826	-0.01270751953125
30.7633069223301	-0.012713623046875
30.8633069220776	-0.0127227783203125
30.9633069218252	-0.01273193359375
31.0633069215727	-0.012738037109375
31.1633069213202	-0.0127471923828125
31.2633069210677	-0.01275634765625
31.3633069208153	-0.0127655029296875
31.4633069205628	-0.012774658203125
31.5633069203103	-0.01278076171875
31.6633069200578	-0.0127899169921875
31.7633069198054	-0.012799072265625
31.8633069195529	-0.012811279296875
31.9633069193004	-0.0128173828125
32.0633069190479	-0.012823486328125
32.1633069187955	-0.0128326416015625
32.263306918543	-0.012835693359375
32.3633069182905	-0.012847900390625
32.463306918038	-0.01285400390625
32.5633069177856	-0.0128631591796875
32.6633069175331	-0.012872314453125
32.7633069172806	-0.0128814697265625
32.8633069170281	-0.0128875732421875
32.9633069167757	-0.0128936767578125
33.0633069165232	-0.01290283203125
33.1633069162707	-0.012908935546875
33.2633069160182	-0.0129150390625
33.3633069157657	-0.012921142578125
33.4633069155133	-0.01292724609375
33.5633069152608	-0.012933349609375
33.6633069150083	-0.012939453125
33.7633069147558	-0.0129486083984375
33.8633069145034	-0.0129547119140625
33.9633069142509	-0.012957763671875
34.0633069139984	-0.0129638671875
34.1633069137459	-0.0129669189453125
34.2633069134935	-0.0129730224609375
34.363306913241	-0.012982177734375
34.4633069129885	-0.0129852294921875
34.563306912736	-0.0129913330078125
34.6633069124836	-0.012994384765625
34.7633069122311	-0.01300048828125
34.8633069119786	-0.0130035400390625
34.9633069117261	-0.0130096435546875
35.0633069114737	-0.0130157470703125
35.1633069112212	-0.013018798828125
35.2633069109687	-0.01302490234375
35.3633069107162	-0.013031005859375
35.4633069104638	-0.0130340576171875
35.5633069102113	-0.013037109375
35.6633069099588	-0.013043212890625
35.7633069097063	-0.0130462646484375
35.8633069094539	-0.0130523681640625
35.9633069092014	-0.0130523681640625
36.0633069089489	-0.013055419921875
36.1633069086964	-0.0130615234375
36.263306908444	-0.0130645751953125
36.3633069081915	-0.0130706787109375
36.463306907939	-0.01307373046875
