Potential - Start -0.2 V, Upper Vertex 1.5 V, Lower Vertex -0.2 V, Stop -0.19 V; Scan - # end cross 5, Rate 0.1 Vps, Step 0.01 V 
Scan	Index	Time (s)	Potential applied (V)	WE(1).Potential (V)	WE(1).Current (A)	WE(1).Power (W)	WE(1).Resistance (Ω)	WE(1).Charge (C)
1	1	41.6991228947198	-0.189971923828125	-0.1898193359375	-2.2552490234375E-07	4.28089883541816E-08	841677.9375	0
1	2	41.7998308944656	-0.179901123046875	-0.1796875	-1.9256591796875E-07	3.46016868491006E-08	933122.0625	-2.10525445965004E-08
1	3	41.9005388942113	-0.169830322265625	-0.169708251953125	-1.6632080078125E-07	2.82260135264778E-08	1020366.9375	-3.91239254327047E-08
1	4	42.001246893957	-0.159759521484375	-0.15966796875	-1.44348144531251E-07	2.30477734675105E-08	1106131.125	-5.47673479900368E-08
1	5	42.1019548937028	-0.149688720703125	-0.149627685546875	-1.239013671875E-07	1.85390742757363E-08	1207635.5	-6.82747867131184E-08
1	6	42.2026628934485	-0.139617919921875	-0.139495849609375	-1.055908203125E-07	1.47294807462117E-08	1321098.375	-7.98306345473065E-08
1	7	42.3033708931943	-0.129547119140625	-0.129425048828125	-8.72802734374997E-08	1.12962528220351E-08	1482867.25	-8.9542460557368E-08
1	8	42.40407889294	-0.119476318359375	-0.119415283203125	-7.01904296875E-08	8.38180991280524E-09	1701304.25	-9.74717409008008E-08
1	9	42.5047868926857	-0.109405517578125	-0.109283447265625	-5.12695312500006E-08	5.60291102402743E-09	2131547.75	-1.03587737498856E-07
1	10	42.6054948924315	-0.099334716796875	-0.099273681640625	-3.08227539062497E-08	3.05988834270465E-09	3220792	-1.07721412234696E-07
1	11	42.7062028921772	-0.089263916015625	-0.089111328125	-8.54492187500056E-09	7.61449348019028E-10	10428571	-1.09703734096911E-07
1	12	42.8069108919229	-0.079193115234375	-0.079132080078125	1.89208984374994E-08	-1.49725010167856E-09	-4182258	-1.09181264917879E-07
1	13	42.9076188916687	-0.069122314453125	-0.069000244140625	5.27954101562506E-08	-3.64289598486778E-09	-1306936.5	-1.05570059361071E-07
1	14	43.0083268914144	-0.059051513671875	-0.05902099609375	9.613037109375E-08	-5.67371039039699E-09	-613968.25	-9.80710481712777E-08
1	15	43.1090348911601	-0.048980712890625	-0.0488189697265625	1.5411376953125E-07	-7.52367501632989E-09	-316772.28125	-8.54702548735986E-08
1	16	43.2097428909059	-0.038909912109375	-0.0387542724609375	2.31323242187501E-07	-8.96476404221858E-09	-167532.984375	-6.60619647874228E-08
1	17	43.3104508906516	-0.028839111328125	-0.0286773681640625	3.34777832031249E-07	-9.60054702403568E-09	-85660.890625	-3.75565072374684E-08
1	18	43.4111588903974	-0.018768310546875	-0.0186553955078125	4.70581054687499E-07	-8.7788754044027E-09	-39643.3203125	2.99653346580442E-09
1	19	43.5118668901431	-0.008697509765625	-0.008563232421875	6.4544677734375E-07	-5.52711121315497E-09	-13267.1396484375	5.91929989468554E-08
1	20	43.6125748898888	0.001373291015625	0.00148620605468749	8.5906982421875E-07	1.27675481298439E-09	1730.01782226563	1.3495143491582E-07
1	21	43.7132828896346	0.011444091796875	0.01151123046875	1.10626220703125E-06	1.27344392808482E-08	10405.517578125	2.33913752367698E-07
1	22	43.8139908893803	0.021514892578125	0.0216217041015625	1.3714599609375E-06	2.96533002597243E-08	15765.4658203125	3.58676970790839E-07
1	23	43.914698889126	0.031585693359375	0.031671142578125	1.63177490234375E-06	5.1680174806279E-08	19409.015625	5.0990183808608E-07
1	24	44.0154068888718	0.041656494140625	0.041766357421875	1.86187744140625E-06	7.7763836259237E-08	22432.388671875	6.85821191837022E-07
1	25	44.1161148886175	0.051727294921875	0.051849365234375	2.03704833984375E-06	1.05619662349454E-07	25453.18359375	8.82147730862926E-07
1	26	44.2168228883633	0.061798095703125	0.0618896484375	2.14813232421875E-06	1.32947150177642E-07	28810.91015625	1.09288828298304E-06
1	27	44.317530888109	0.071868896484375	0.071929931640625	2.1923828125E-06	1.57697940039725E-07	32809.0234375	1.31145054638182E-06
1	28	44.4182388878547	0.081939697265625	0.08197021484375	2.18414306640625E-06	1.79034685743318E-07	37529.69140625	1.5318262285291E-06
1	29	44.5189468876005	0.092010498046875	0.092071533203125	2.13714599609375E-06	1.96770301386096E-07	43081.5390625	1.74942033481784E-06
1	30	44.6196548873462	0.102081298828125	0.102081298828125	2.06878662109375E-06	2.11184428167144E-07	49343.55859375	1.96120595319371E-06
1	31	44.7203628870919	0.112152099609375	0.1121826171875	1.98944091796875E-06	2.23180677494383E-07	56389.01953125	2.16555395127216E-06
1	32	44.8210708868377	0.122222900390625	0.1221923828125	1.9091796875E-06	2.3328720999416E-07	64002.55859375	2.36186497204471E-06
1	33	44.9217788865834	0.132293701171875	0.132293701171875	1.83074951171875E-06	2.42196620092727E-07	72262.046875	2.55018539974117E-06
1	34	45.0224868863291	0.142364501953125	0.14239501953125	1.75811767578125E-06	2.50347198971212E-07	80992.8828125	2.73089926849934E-06
1	35	45.1231948860749	0.152435302734375	0.15240478515625	1.69219970703125E-06	2.57899330335931E-07	90063.1171875	2.90463640340022E-06
1	36	45.2239028858206	0.162506103515625	0.16259765625	1.63238525390625E-06	2.6542201680968E-07	99607.40625	3.07204254568205E-06
1	37	45.3246108855664	0.172576904296875	0.172637939453125	1.57958984375E-06	2.7269712177258E-07	109292.890625	3.23377844324568E-06
1	38	45.4253188853121	0.182647705078125	0.18267822265625	1.53167724609375E-06	2.79804055480781E-07	119266.7890625	3.3904432257259E-06
1	39	45.5260268850578	0.192718505859375	0.19281005859375	1.4886474609375E-06	2.87026182377303E-07	129520.296875	3.5425287023827E-06
1	40	45.6267348848036	0.202789306640625	0.202789306640625	1.45050048828125E-06	2.94145991119876E-07	139806.4375	3.69052645510237E-06
1	41	45.7274428845493	0.212860107421875	0.212921142578125	1.4166259765625E-06	3.01629626164868E-07	150301.59375	3.83489759769873E-06
1	42	45.828150884295	0.222930908203125	0.222930908203125	1.385498046875E-06	3.08870312437648E-07	160903.09375	3.97599569623708E-06
1	43	45.9288588840408	0.233001708984375	0.233001708984375	1.357421875E-06	3.16281614232139E-07	171650.1875	4.11411292589037E-06
1	44	46.0295668837865	0.243072509765625	0.2430419921875	1.33270263671875E-06	3.23902696663936E-07	182367.765625	4.24957124778302E-06
1	45	46.1302748835323	0.253143310546875	0.25311279296875	1.30950927734375E-06	3.3145354905173E-07	193288.28125	4.38261713497923E-06
1	46	46.230982883278	0.263214111328125	0.26318359375	1.28875732421875E-06	3.3917976338671E-07	204215.015625	4.51345022156602E-06
1	47	46.3316908830237	0.273284912109375	0.273284912109375	1.26922607421875E-06	3.46860304034635E-07	215316.1875	4.64225513496785E-06
1	48	46.4323988827695	0.283355712890625	0.283355712890625	1.25213623046875E-06	3.54799936985728E-07	226297.84375	4.7692155931145E-06
1	49	46.5331068825152	0.293426513671875	0.293426513671875	1.2359619140625E-06	3.62663996611445E-07	237407.40625	4.89450167151517E-06
1	50	46.6338148822609	0.303497314453125	0.30352783203125	1.22161865234375E-06	3.70795248727518E-07	248463.65625	5.01825070386985E-06
1	51	46.7345228820067	0.313568115234375	0.3135986328125	1.20819091796875E-06	3.78886994667482E-07	259560.515625	5.14060093337321E-06
1	52	46.8352308817524	0.323638916015625	0.3236083984375	1.1962890625E-06	3.87129205137171E-07	270510.1875	5.26167650605203E-06
1	53	46.9359388814981	0.333709716796875	0.333709716796875	1.18499755859375E-06	3.95445169942832E-07	281612.1875	5.38158383278642E-06
1	54	47.0366468812439	0.343780517578125	0.34381103515625	1.17462158203125E-06	4.03847820962255E-07	292699.4375	5.50039976587868E-06
1	55	47.1373548809896	0.353851318359375	0.35382080078125	1.16546630859375E-06	4.12366233604189E-07	303587.34375	5.61823253519833E-06
1	56	47.2380628807354	0.363922119140625	0.363922119140625	1.1572265625E-06	4.21140327944158E-07	314477.875	5.73518946112017E-06
1	57	47.3387708804811	0.373992919921875	0.373992919921875	1.1492919921875E-06	4.29827053949339E-07	325411.59375	5.85133193453657E-06
1	58	47.4394788802268	0.384063720703125	0.38409423828125	1.142578125E-06	4.38857654216918E-07	336164.53125	5.96673680774984E-06
1	59	47.5401868799726	0.394134521484375	0.3941650390625	1.13616943359375E-06	4.47838260697608E-07	346924.53125	6.08148093306227E-06
1	60	47.6408948797183	0.404205322265625	0.404205322265625	1.1309814453125E-06	4.57148729537948E-07	357393.40625	6.19564116277616E-06
1	61	47.741602879464	0.414276123046875	0.414215087890625	1.12640380859375E-06	4.66573425228489E-07	367732.34375	6.30930935585639E-06
1	62	47.8423108792098	0.424346923828125	0.424285888671875	1.12274169921875E-06	4.76363425150339E-07	377901.625	6.42256281935261E-06
1	63	47.9430188789555	0.434417724609375	0.434417724609375	1.11907958984375E-06	4.86147996525688E-07	388192	6.53544748274726E-06
1	64	48.0437268787012	0.444488525390625	0.44451904296875	1.11602783203125E-06	4.96095594826329E-07	398304.65625	6.6479942688602E-06
1	65	48.144434878447	0.454559326171875	0.454498291015625	1.11297607421875E-06	5.05845719089848E-07	408363.03125	6.7602331910166E-06
1	66	48.2451428781927	0.464630126953125	0.464599609375	1.11083984375E-06	5.16095724378829E-07	418241.78125	6.87221154294093E-06
1	67	48.3458508779385	0.474700927734375	0.47467041015625	1.1090087890625E-06	5.26413657553348E-07	428013.21875	6.98398980603088E-06
1	68	48.4465588776842	0.484771728515625	0.484710693359375	1.1077880859375E-06	5.36956747509976E-07	437548.21875	7.09561436451622E-06
1	69	48.5472668774299	0.494842529296875	0.49481201171875	1.107177734375E-06	5.47844820175669E-07	446912.90625	7.20714660928934E-06
1	70	48.6479748771757	0.504913330078125	0.504852294921875	1.1065673828125E-06	5.58653027837863E-07	456232.78125	7.31861746317009E-06
1	71	48.7486828769214	0.514984130859375	0.51495361328125	1.107177734375E-06	5.7014517551579E-07	465104.75	7.43008831705083E-06
1	72	48.8493908766671	0.525054931640625	0.525054931640625	1.10809326171875E-06	5.81809786126541E-07	473836.4375	7.54163602323388E-06
1	73	48.9500988764129	0.535125732421875	0.53515625	1.10870361328125E-06	5.93329673392873E-07	482686.5	7.65326058171922E-06
1	74	49.0508068761586	0.545196533203125	0.545135498046875	1.1102294921875E-06	6.0522552303155E-07	491011.53125	7.76499291532673E-06
1	75	49.1515148759044	0.555267333984375	0.555267333984375	1.112060546875E-06	6.1749091173624E-07	499313.9375	7.87689441494877E-06
1	76	49.2522228756501	0.565338134765625	0.56536865234375	1.1138916015625E-06	6.2975936998555E-07	507561.65625	7.98897963250056E-06
1	77	49.3529308753958	0.575408935546875	0.57537841796875	1.1163330078125E-06	6.42313921161985E-07	515418.25	8.10128040029667E-06
1	78	49.4536388751416	0.585479736328125	0.585479736328125	1.1187744140625E-06	6.55019789519429E-07	523322.40625	8.21382673166227E-06
1	79	49.5543468748873	0.595550537109375	0.59552001953125	1.1212158203125E-06	6.67706444801297E-07	531137.75	8.32661953609204E-06
1	80	49.655054874633	0.605621337890625	0.60552978515625	1.124267578125E-06	6.80777475281502E-07	538599.375	8.43968882691115E-06
1	81	49.7557628743788	0.615692138671875	0.615753173828125	1.126708984375E-06	6.93774609317188E-07	546505.9375	8.5530346041196E-06
1	82	49.8564708741245	0.625762939453125	0.625732421875	1.13006591796875E-06	7.07118886111857E-07	553713.1875	8.66667141963262E-06
1	83	49.9571788738702	0.635833740234375	0.6357421875	1.1334228515625E-06	7.2056474209603E-07	560904.6875	8.7806474766694E-06
1	84	50.057886873616	0.645904541015625	0.645904541015625	1.1358642578125E-06	7.33659817342414E-07	568645.9375	8.89491548150545E-06
1	85	50.1585948733617	0.655975341796875	0.65594482421875	1.1383056640625E-06	7.46665648421185E-07	576246.6875	9.00942904991098E-06
1	86	50.2593028731075	0.666046142578125	0.665985107421875	1.141357421875E-06	7.60127022658708E-07	583502.6875	9.12421910470584E-06
1	87	50.3600108728532	0.676116943359375	0.67608642578125	1.14349365234375E-06	7.73100509832148E-07	591246.375	9.23927018448012E-06
1	88	50.4607188725989	0.686187744140625	0.68609619140625	1.1456298828125E-06	7.86012321896123E-07	598881.1875	9.35453681449872E-06
1	89	50.5614268723447	0.696258544921875	0.6961669921875	1.14776611328125E-06	7.990368544597E-07	606540.8125	9.47001808526693E-06
1	90	50.6621348720904	0.706329345703125	0.70623779296875	1.14959716796875E-06	8.11888924090454E-07	614335.0625	9.58570035436423E-06
1	91	50.7628428718361	0.716400146484375	0.716339111328125	1.15081787109375E-06	8.24375831598445E-07	622460.875	9.70153541857144E-06
1	92	50.8635508715819	0.726470947265625	0.726348876953125	1.15264892578125E-06	8.37225229588512E-07	630156.25	9.81752418738324E-06
1	93	50.9642588713276	0.736541748046875	0.736419677734375	1.1541748046875E-06	8.49957018544956E-07	638048.625	9.93368121271487E-06
1	94	51.0649668710734	0.746612548828125	0.74652099609375	1.156005859375E-06	8.62982631133491E-07	645776.125	1.00500083135557E-05
1	95	51.1656748708191	0.756683349609375	0.75714111328125	1.1578369140625E-06	8.76645913194807E-07	653927.25	1.01665200418211E-05
1	96	51.2663828705648	0.766754150390625	0.7672119140625	1.1602783203125E-06	8.90179364887445E-07	661230.9375	1.0283246410836E-05
1	97	51.3670908703106	0.776824951171875	0.77728271484375	1.16302490234375E-06	9.03999136880884E-07	668328.5625	1.04002338048303E-05
1	98	51.4677988700563	0.786895751953125	0.78704833984375	1.1663818359375E-06	9.17998875138437E-07	674777.625	1.05175286080339E-05
1	99	51.568506869802	0.796966552734375	0.79681396484375	1.1700439453125E-06	9.32307330003823E-07	681012	1.06351772046764E-05
1	100	51.6692148695478	0.807037353515625	0.80718994140625	1.17431640625E-06	9.47896353409305E-07	687370.0625	1.07532250694931E-05
1	101	51.7699228692935	0.817108154296875	0.8172607421875	1.1785888671875E-06	9.63214347393659E-07	693423.125	1.08717031253036E-05
1	102	51.8706308690392	0.827178955078125	0.8270263671875	1.182861328125E-06	9.78257503447821E-07	699174.4375	1.09906113721081E-05
1	103	51.971338868785	0.837249755859375	0.83770751953125	1.1871337890625E-06	9.94470838122652E-07	705655.5625	1.11099507194012E-05
1	104	52.0720468685307	0.847320556640625	0.84747314453125	1.1920166015625E-06	1.01020202691871E-06	710957.5	1.12297502710135E-05
1	105	52.1727548682765	0.857391357421875	0.8575439453125	1.1956787109375E-06	1.02534704637947E-06	717202.6875	1.13499800136196E-05
1	106	52.2734628680222	0.867462158203125	0.86761474609375	1.19964599609375E-06	1.04083062524296E-06	723225.625	1.14705944724847E-05
1	107	52.3741708677679	0.877532958984375	0.877685546875	1.20391845703125E-06	1.05666174476937E-06	729024.125	1.15916236609337E-05
1	108	52.4748788675137	0.887603759765625	0.88775634765625	1.20819091796875E-06	1.07257903891878E-06	734781.5625	1.17130830403767E-05
1	109	52.5755868672594	0.897674560546875	0.8978271484375	1.21246337890625E-06	1.08858250769117E-06	740498.4375	1.18349726108136E-05
1	110	52.6762948670051	0.907745361328125	0.90789794921875	1.2164306640625E-06	1.10439486888936E-06	746362.3125	1.19572769108345E-05
1	111	52.7770028667509	0.917816162109375	0.91796875	1.21978759765625E-06	1.11972690319817E-06	752564.4375	1.20799504657043E-05
1	112	52.8777108664966	0.927886962890625	0.92803955078125	1.22344970703125E-06	1.13540966140135E-06	758543.3125	1.22029769045184E-05
1	113	52.9784188662424	0.937957763671875	0.9381103515625	1.22711181640625E-06	1.15116620236222E-06	764486.5	1.23263725981815E-05
1	114	53.0791268659881	0.948028564453125	0.948486328125	1.23016357421875E-06	1.16679325401492E-06	771024.5625	1.24501057143789E-05
1	115	53.1798348657338	0.958099365234375	0.958251953125	1.23382568359375E-06	1.18231582746375E-06	776651.0625	1.25741780721E-05
1	116	53.2805428654796	0.968170166015625	0.96832275390625	1.23748779296875E-06	1.19828746392159E-06	782490.8125	1.26986178656807E-05
1	117	53.3812508652253	0.978240966796875	0.97869873046875	1.241455078125E-06	1.21501045668992E-06	788348.125	1.28234432850149E-05
1	118	53.481958864971	0.988311767578125	0.98846435546875	1.2445068359375E-06	1.2301507013035E-06	794261.875	1.29486206787988E-05
1	119	53.5826668647168	0.998382568359375	0.99853515625	1.24847412109375E-06	1.24664529721485E-06	799804.5	1.30741527755163E-05
1	120	53.6833748644625	1.00845336914063	1.00799560546875	1.25213623046875E-06	1.26214774809341E-06	805020.75	1.32000686789979E-05
1	121	53.7840828642082	1.01852416992188	1.01898193359375	1.256103515625E-06	1.27994678678078E-06	811224.5	1.33263683892437E-05
1	122	53.884790863954	1.02859497070313	1.0284423828125	1.26007080078125E-06	1.2959102377863E-06	816178.25	1.34530673676636E-05
1	123	53.9854988636997	1.03866577148438	1.038818359375	1.26373291015625E-06	1.31278886783548E-06	822023.6875	1.35801510623423E-05
1	124	54.0862068634455	1.04873657226563	1.04827880859375	1.2677001953125E-06	1.32890329496149E-06	826913.8125	1.37076194732799E-05
1	125	54.1869148631912	1.05880737304688	1.05865478515625	1.27166748046875E-06	1.34625679493183E-06	832493.4375	1.38354862428969E-05
1	126	54.2876228629369	1.06887817382813	1.0687255859375	1.27593994140625E-06	1.36362962166459E-06	837598.6875	1.39637686515925E-05
1	127	54.3883308626827	1.07894897460938	1.07940673828125	1.28082275390625E-06	1.38252869419375E-06	842744.8125	1.4092512174102E-05
1	128	54.4890388624284	1.08901977539063	1.08917236328125	1.28509521484375E-06	1.39969017709518E-06	847542.125	1.42217159009306E-05
1	129	54.5897468621741	1.09909057617188	1.0986328125	1.2890625E-06	1.41620625981886E-06	852272.75	1.43513352668379E-05
1	130	54.6904548619199	1.10916137695313	1.1090087890625	1.29425048828125E-06	1.43533509344707E-06	856873.4375	1.44814157465589E-05
1	131	54.7911628616656	1.11923217773438	1.11846923828125	1.298828125E-06	1.45269927998015E-06	861137.1875	1.4611987353419E-05
1	132	54.8918708614113	1.12930297851563	1.12945556640625	1.3043212890625E-06	1.47317291521176E-06	865933.5625	1.47430664583226E-05
1	133	54.9925788611571	1.13937377929688	1.138916015625	1.309814453125E-06	1.49176855757105E-06	869524.75	1.48746985360049E-05
1	134	55.0932868609028	1.14944458007813	1.1492919921875	1.3165283203125E-06	1.51307540363632E-06	872971.75	1.50069454321056E-05
1	135	55.1939948606486	1.15951538085938	1.15936279296875	1.32232666015625E-06	1.53305632011325E-06	876759.75	1.51398226080346E-05
1	136	55.2947028603943	1.16958618164063	1.16943359375	1.329345703125E-06	1.55458144490694E-06	879706.1875	1.52733446157072E-05
1	137	55.39541086014	1.17965698242188	1.17950439453125	1.33697509765625E-06	1.57696797487006E-06	882218.6875	1.54076042235829E-05
1	138	55.4961188598858	1.18972778320313	1.1895751953125	1.34490966796875E-06	1.59987109782378E-06	884502	1.55426478158915E-05
1	139	55.5968268596315	1.19979858398438	1.1993408203125	1.35345458984375E-06	1.62325329711166E-06	886133.0625	1.56785208673682E-05
1	140	55.6975348593772	1.20986938476563	1.20941162109375	1.3623046875E-06	1.64758705523127E-06	887768.875	1.58152706717374E-05
1	141	55.798242859123	1.21994018554688	1.21978759765625	1.3720703125E-06	1.67363430136902E-06	889012.4375	1.59529572556494E-05
1	142	55.8989508588687	1.23001098632813	1.23046875	1.38153076171875E-06	1.69993040799454E-06	890656.0625	1.60916115419241E-05
1	143	55.9996588586145	1.24008178710938	1.24053955078125	1.3922119140625E-06	1.72709383150504E-06	891056.5625	1.62312808242859E-05
1	144	56.1003668583602	1.25015258789063	1.25030517578125	1.40289306640625E-06	1.75404443325533E-06	891233.4375	1.63720269483747E-05
1	145	56.2010748581059	1.26022338867188	1.2603759765625	1.4141845703125E-06	1.78240429704601E-06	891238.6875	1.65138771990314E-05
1	146	56.3017828578517	1.27029418945313	1.2701416015625	1.4263916015625E-06	1.8117192439604E-06	890457.875	1.66569116117898E-05
1	147	56.4024908575974	1.28036499023438	1.28021240234375	1.43890380859375E-06	1.84210239240201E-06	889713.75	1.68011902133003E-05
1	148	56.5031988573431	1.29043579101563	1.29058837890625	1.45263671875E-06	1.87475598067977E-06	888445.4375	1.69467912201071E-05
1	149	56.6039068570889	1.30050659179688	1.3006591796875	1.466064453125E-06	1.90685011602909E-06	887177.375	1.70937601069454E-05
1	150	56.7046148568346	1.31057739257813	1.31103515625	1.4801025390625E-06	1.94046629076183E-06	885773.25	1.72421114257304E-05
1	151	56.8053228565803	1.32064819335938	1.32110595703125	1.4947509765625E-06	1.97472422769351E-06	883830.1875	1.73919070221018E-05
1	152	56.9060308563261	1.33071899414063	1.33026123046875	1.50970458984375E-06	2.00830140784092E-06	881140.0625	1.75431923707947E-05
1	153	57.0067388560718	1.34078979492188	1.3409423828125	1.524658203125E-06	2.04447883334069E-06	879503.625	1.76959856617032E-05
1	154	57.1074468558176	1.35086059570313	1.351318359375	1.54052734375E-06	2.08174265026173E-06	877179.125	1.78503287315834E-05
1	155	57.2081548555633	1.36093139648438	1.36077880859375	1.5570068359375E-06	2.11874180422456E-06	873971	1.80063034349587E-05
1	156	57.308862855309	1.37100219726563	1.370849609375	1.57501220703125E-06	2.15910495171556E-06	870373.9375	1.81640116352355E-05
1	157	57.4095708550548	1.38107299804688	1.3812255859375	1.59454345703125E-06	2.20242418436101E-06	866220.125	1.8323611584492E-05
1	158	57.5102788548005	1.39114379882813	1.3909912109375	1.6162109375E-06	2.24813516069844E-06	860649.5625	1.8485287000658E-05
1	159	57.6109868545462	1.40121459960938	1.4007568359375	1.64215087890625E-06	2.30025398195721E-06	853001.3125	1.86493580258684E-05
1	160	57.711694854292	1.41128540039063	1.41082763671875	1.6717529296875E-06	2.35855509345129E-06	843921.125	1.88162266567815E-05
1	161	57.8124028540377	1.42135620117188	1.4215087890625	1.70745849609375E-06	2.42716714637936E-06	832529.0625	1.89863840205362E-05
1	162	57.9131108537835	1.43142700195313	1.4312744140625	1.749267578125E-06	2.50368179877114E-06	818213.5625	1.91604431165615E-05
1	163	58.0138188535292	1.44149780273438	1.441650390625	1.79931640625E-06	2.59398507296282E-06	801221.1875	1.933912790264E-05
1	164	58.1145268532749	1.45156860351563	1.4520263671875	1.86004638671875E-06	2.70083637587959E-06	780639.875	1.95233915292192E-05
1	165	58.2152348530207	1.46163940429688	1.46148681640625	1.93084716796875E-06	2.8219074010849E-06	756914.875	1.97142780962167E-05
1	166	58.3159428527664	1.47171020507813	1.4715576171875	2.01507568359375E-06	2.96529970000847E-06	730274.1875	1.99129717657343E-05
1	167	58.4166508525121	1.48178100585938	1.48193359375	2.11029052734375E-06	3.12731049234571E-06	702241.5	2.01207003556192E-05
1	168	58.5173588522579	1.49185180664063	1.49200439453125	2.21405029296875E-06	3.30337275045167E-06	673880.125	2.03384479391389E-05
1	169	58.6180668520036	1.50192260742188	1.50177001953125	2.3236083984375E-06	3.48952539752645E-06	646309.4375	2.05669384740759E-05
1	170	58.7187748517493	1.49185180664063	1.49139404296875	2.00592041015625E-06	2.99161774819368E-06	743496.125	2.07849461730802E-05
1	171	58.8194828514951	1.48178100585938	1.48193359375	1.77337646484375E-06	2.62802609540813E-06	835656.5625	2.09752488444792E-05
1	172	58.9201908512408	1.47171020507813	1.47186279296875	1.590576171875E-06	2.3411098482029E-06	925364.5625	2.11446385947056E-05
1	173	59.0208988509866	1.46163940429688	1.4617919921875	1.4422607421875E-06	2.1082851162646E-06	1013542.1875	2.12973536690697E-05
1	174	59.1216068507323	1.45156860351563	1.45172119140625	1.31988525390625E-06	1.91610524780117E-06	1099884.5	2.1436439055833E-05
1	175	59.222314850478	1.44149780273438	1.44134521484375	1.21826171875E-06	1.75593561380083E-06	1183116.25	2.1564244889305E-05
1	176	59.3230228502238	1.43142700195313	1.43096923828125	1.1334228515625E-06	1.621893261472E-06	1262520.125	2.16826610994758E-05
1	177	59.4237308499695	1.42135620117188	1.42120361328125	1.06292724609375E-06	1.51063602515933E-06	1337065.75	2.17932556552114E-05
1	178	59.5244388497152	1.41128540039063	1.41143798828125	1.00433349609375E-06	1.4175544720274E-06	1405347.875	2.18973509618081E-05
1	179	59.625146849461	1.40121459960938	1.4013671875	9.5489501953125E-07	1.33815842673357E-06	1467561.625	2.19960056710988E-05
1	180	59.7258548492067	1.39114379882813	1.3909912109375	9.14306640625E-07	1.27179248465836E-06	1521361.875	2.20901274587959E-05
1	181	59.8265628489524	1.38107299804688	1.38153076171875	8.795166015625E-07	1.21507923722675E-06	1570784.25	2.21804530156078E-05
1	182	59.9272708486982	1.37100219726563	1.370849609375	8.49304199218751E-07	1.16426826934912E-06	1614085.625	2.22675062104827E-05
1	183	60.0279788484439	1.36093139648438	1.36077880859375	8.23974609375E-07	1.12124712359218E-06	1651481.5	2.23517636186443E-05
1	184	60.1286868481897	1.35086059570313	1.35040283203125	8.02001953125001E-07	1.08302560875018E-06	1683790	2.24336381506873E-05
1	185	60.2293948479354	1.34078979492188	1.3409423828125	7.8277587890625E-07	1.04965738501051E-06	1713060.375	2.25134372158209E-05
1	186	60.3301028476811	1.33071899414063	1.3311767578125	7.647705078125E-07	1.01804471341893E-06	1740622.5	2.25913627218688E-05
1	187	60.4308108474269	1.32064819335938	1.32049560546875	7.489013671875E-07	9.88920987765596E-07	1763243.75	2.26675820158562E-05
1	188	60.5315188471726	1.31057739257813	1.31072998046875	7.3455810546875E-07	9.62807348514616E-07	1784378.875	2.27422806347022E-05
1	189	60.6322268469183	1.30050659179688	1.3006591796875	7.21435546875E-07	9.38341713663249E-07	1802876.5	2.28155950026121E-05
1	190	60.7329348466641	1.29043579101563	1.28997802734375	7.0831298828125E-07	9.13708220195986E-07	1821197.75	2.2887588784215E-05
1	191	60.8336428464098	1.28036499023438	1.280517578125	6.96716308593751E-07	8.92157459020382E-07	1837932.5	2.2958338377066E-05
1	192	60.9343508461556	1.27029418945313	1.27044677734375	6.854248046875E-07	8.7079570221249E-07	1853517.5	2.3027934730635E-05
1	193	61.0350588459013	1.26022338867188	1.26007080078125	6.744384765625E-07	8.49840205319197E-07	1868325.875	2.30964087677421E-05
1	194	61.135766845647	1.25015258789063	1.25030517578125	6.640625E-07	8.30280782793125E-07	1882812.5	2.31638077821117E-05
1	195	61.2364748453928	1.24008178710938	1.23992919921875	6.54296875E-07	8.11281779533601E-07	1895056	2.32301918003941E-05
1	196	61.3371828451385	1.23001098632813	1.22955322265625	6.44531249999999E-07	7.92485423062317E-07	1907670.625	2.32955935643986E-05
1	197	61.4378908448842	1.21994018554688	1.2200927734375	6.3507080078125E-07	7.74845261730661E-07	1921191.875	2.3360025807051E-05
1	198	61.53859884463	1.20986938476563	1.21002197265625	6.2530517578125E-07	7.5663302823159E-07	1935090.25	2.34234921663301E-05
1	199	61.6393068443757	1.19979858398438	1.1993408203125	6.1614990234375E-07	7.3897365382436E-07	1946508.25	2.34860035561724E-05
1	200	61.7400148441214	1.18972778320313	1.1895751953125	6.06689453125001E-07	7.21702690498205E-07	1960764.75	2.35475781664718E-05
1	201	61.8407228438672	1.17965698242188	1.17919921875	5.9844970703125E-07	7.05691377334006E-07	1970423.375	2.36082614719635E-05
1	202	61.9414308436129	1.16958618164063	1.16973876953125	5.889892578125E-07	6.88963552875066E-07	1986010.5	2.36680534726474E-05
1	203	62.0421388433587	1.15951538085938	1.15966796875	5.8013916015625E-07	6.72768805998203E-07	1998947.875	2.37269250646932E-05
1	204	62.1428468431044	1.14944458007813	1.14990234375	5.706787109375E-07	6.5622475631244E-07	2014973.25	2.3784872610122E-05
1	205	62.2435548428501	1.13937377929688	1.1395263671875	5.6182861328125E-07	6.4021850221252E-07	2028245.625	2.38418997469125E-05
1	206	62.3442628425959	1.12930297851563	1.12884521484375	5.53283691406251E-07	6.24571612206637E-07	2040264.875	2.38980501308106E-05
1	207	62.4449708423416	1.11923217773438	1.1187744140625	5.4443359375E-07	6.09098378845374E-07	2054932.75	2.39533237618161E-05
1	208	62.5456788420873	1.10916137695313	1.10931396484375	5.36193847656249E-07	5.94807318066159E-07	2068867.375	2.40077388298232E-05
1	209	62.6463868418331	1.09909057617188	1.0992431640625	5.27343750000001E-07	5.79679010570544E-07	2084490.875	2.4061291696853E-05
1	210	62.7470948415788	1.08901977539063	1.0888671875	5.18798828125E-07	5.64902961741609E-07	2098823.75	2.41139696299797E-05
1	211	62.8478028413246	1.07894897460938	1.07879638671875	5.10253906249999E-07	5.50460015347198E-07	2114234.5	2.41657853621291E-05
1	212	62.9485108410703	1.06887817382813	1.0687255859375	5.01403808593751E-07	5.35863080131094E-07	2131466.75	2.42167261603754E-05
1	213	63.049218840816	1.05880737304688	1.058349609375	4.9285888671875E-07	5.21616982496198E-07	2147368.5	2.42667920247186E-05
1	214	63.1499268405618	1.04873657226563	1.048583984375	4.84313964843749E-07	5.07843822106224E-07	2165091.5	2.43159956880845E-05
1	215	63.2506348403075	1.03866577148438	1.038818359375	4.75463867187501E-07	4.93920595090458E-07	2184852.5	2.43643244175473E-05
1	216	63.3513428400532	1.02859497070313	1.02874755859375	4.6722412109375E-07	4.80655671708519E-07	2201829	2.44117927650223E-05
1	217	63.452050839799	1.01852416992188	1.01837158203125	4.58984375E-07	4.6741664050387E-07	2218750	2.44584316533292E-05
1	218	63.5527588395447	1.00845336914063	1.00860595703125	4.50439453125E-07	4.54315909337311E-07	2239160	2.45042247115634E-05
1	219	63.6534668392904	0.998382568359375	0.9979248046875	4.4281005859375E-07	4.41891103264425E-07	2253618.25	2.45492028625449E-05
1	220	63.7541748390362	0.988311767578125	0.98846435546875	4.345703125E-07	4.29557246661716E-07	2274578.75	2.45933824771782E-05
1	221	63.8548828387819	0.978240966796875	0.97869873046875	4.2694091796875E-07	4.17846536038269E-07	2292351.75	2.46367635554634E-05
1	222	63.9555908385277	0.968170166015625	0.9686279296875	4.1961669921875E-07	4.06452443257876E-07	2308363.75	2.46793915721355E-05
1	223	64.0562988382734	0.958099365234375	0.95855712890625	4.11376953125001E-07	3.94328282027345E-07	2330118.75	2.47212356043747E-05
1	224	64.1570068380191	0.948028564453125	0.9478759765625	4.046630859375E-07	3.83570409212552E-07	2342383.25	2.47623247560114E-05
1	225	64.2577148377649	0.937957763671875	0.938720703125	3.96728515625E-07	3.72417247263002E-07	2366154	2.4802679035929E-05
1	226	64.3584228375106	0.927886962890625	0.9283447265625	3.88488769531251E-07	3.60651483788388E-07	2389630.75	2.48422184085939E-05
1	227	64.4591308372563	0.917816162109375	0.91796875	3.80859375000001E-07	3.49617010897418E-07	2410256.5	2.48809574259212E-05
1	228	64.5598388370021	0.907745361328125	0.9075927734375	3.7353515625E-07	3.39017816486376E-07	2429738.5	2.49189452006249E-05
1	229	64.6605468367478	0.897674560546875	0.8978271484375	3.6590576171875E-07	3.28520115999709E-07	2453711.5	2.49561780947261E-05
1	230	64.7612548364935	0.887603759765625	0.887451171875	3.5858154296875E-07	3.182236127941E-07	2474893.75	2.49926597462036E-05
1	231	64.8619628362393	0.877532958984375	0.87799072265625	3.509521484375E-07	3.0813274065622E-07	2501739.25	2.50283865170786E-05
1	232	64.962670835985	0.867462158203125	0.867919921875	3.436279296875E-07	2.98241531027088E-07	2525754.75	2.506336204533E-05
1	233	65.0633788357308	0.857391357421875	0.85784912109375	3.3599853515625E-07	2.88236037704337E-07	2553133.5	2.50975826929789E-05
1	234	65.1640868354765	0.847320556640625	0.84747314453125	3.28674316406249E-07	2.78542643172841E-07	2578458.75	2.51310520980041E-05
1	235	65.2647948352222	0.837249755859375	0.83740234375	3.216552734375E-07	2.69354870852112E-07	2603415.5	2.51637993642362E-05
1	236	65.365502834968	0.827178955078125	0.82763671875	3.143310546875E-07	2.60151921338547E-07	2633009.75	2.5195824491675E-05
1	237	65.4662108347137	0.817108154296875	0.8172607421875	3.0792236328125E-07	2.51652863880736E-07	2654113	2.52271565841511E-05
1	238	65.5669188344594	0.807037353515625	0.806884765625	3.0181884765625E-07	2.43533008870145E-07	2673407.75	2.52578593062935E-05
1	239	65.6676268342052	0.796966552734375	0.797119140625	2.9571533203125E-07	2.35720349905932E-07	2695562.5	2.52879472100176E-05
1	240	65.7683348339509	0.786895751953125	0.78704833984375	2.9022216796875E-07	2.28418855385826E-07	2711882.5	2.53174512181431E-05
1	241	65.8690428336967	0.776824951171875	0.7769775390625	2.850341796875E-07	2.21465143113164E-07	2725910.25	2.53464186243946E-05
1	242	65.9697508334424	0.766754150390625	0.76690673828125	2.8045654296875E-07	2.15084000387833E-07	2734494	2.53748930845177E-05
1	243	66.0704588331881	0.756683349609375	0.75714111328125	2.7587890625E-07	2.08879257002081E-07	2744469	2.54029073403217E-05
1	244	66.1711668329339	0.746612548828125	0.74652099609375	2.716064453125E-07	2.02759906642314E-07	2748539.5	2.54304759437218E-05
1	245	66.2718748326796	0.736541748046875	0.73638916015625	2.67333984375E-07	1.96861833501316E-07	2754566.25	2.54576134466333E-05
1	246	66.3725828324253	0.726470947265625	0.7264404296875	2.63061523437499E-07	1.91098521895583E-07	2761485	2.54843198490562E-05
1	247	66.4732908321711	0.716400146484375	0.716339111328125	2.593994140625E-07	1.8581793881367E-07	2761529.5	2.55106278927997E-05
1	248	66.5739988319168	0.706329345703125	0.706268310546875	2.55126953125E-07	1.80188067133713E-07	2768301.75	2.55365375778638E-05
1	249	66.6747068316625	0.696258544921875	0.696197509765625	2.50854492187499E-07	1.74644270600766E-07	2775304	2.55620143434498E-05
1	250	66.7754148314083	0.686187744140625	0.68609619140625	2.459716796875E-07	1.68760223573372E-07	2789330	2.55870327237062E-05
1	251	66.876122831154	0.676116943359375	0.67608642578125	2.423095703125E-07	1.63822207355224E-07	2790176.25	2.56116200034739E-05
1	252	66.9768308308998	0.666046142578125	0.666046142578125	2.37426757812501E-07	1.58137169137262E-07	2805270	2.5635776182753E-05
1	253	67.0775388306455	0.655975341796875	0.6558837890625	2.3345947265625E-07	1.53122272195105E-07	2809412	2.56594867096283E-05
1	254	67.1782468303912	0.645904541015625	0.64581298828125	2.29797363281251E-07	1.48406115840771E-07	2810358.75	2.56828134297393E-05
1	255	67.278954830137	0.635833740234375	0.63580322265625	2.2552490234375E-07	1.43389456752629E-07	2819215.25	2.5705741791171E-05
1	256	67.3796628298827	0.625762939453125	0.625701904296875	2.22167968750001E-07	1.39010921884619E-07	2816346.25	2.57282845268492E-05
1	257	67.4803708296284	0.615692138671875	0.615631103515625	2.18811035156249E-07	1.34706866106171E-07	2813528.75	2.57504889304982E-05
1	258	67.5810788293742	0.605621337890625	0.6055908203125	2.154541015625E-07	1.30477019411046E-07	2810765	2.57723568211077E-05
1	259	67.6817868291199	0.595550537109375	0.595550537109375	2.117919921875E-07	1.26132832178882E-07	2811959.75	2.57938700087834E-05
1	260	67.7824948288657	0.585479736328125	0.58544921875	2.08435058593751E-07	1.22028140481234E-07	2808784.75	2.58150303125149E-05
1	261	67.8832028286114	0.575408935546875	0.57537841796875	2.056884765625E-07	1.18348701505511E-07	2797329.5	2.58358832070371E-05
1	262	67.9839108283571	0.565338134765625	0.5653076171875	2.02026367187499E-07	1.14207040269321E-07	2798187.5	2.58564123214455E-05
1	263	68.0846188281029	0.555267333984375	0.55517578125	1.995849609375E-07	1.10804734276826E-07	2781651.5	2.58766358456342E-05
1	264	68.1853268278486	0.545196533203125	0.545135498046875	1.9683837890625E-07	1.0730358468436E-07	2769457.5	2.58965974353487E-05
1	265	68.2860348275943	0.535125732421875	0.535064697265625	1.94091796875E-07	1.03851668598054E-07	2756761	2.59162825386738E-05
1	266	68.3867428273401	0.525054931640625	0.5250244140625	1.91345214843749E-07	1.00460908925015E-07	2743859.75	2.59356893366203E-05
1	267	68.4874508270858	0.514984130859375	0.514923095703125	1.8798828125E-07	9.67995035239255E-08	2739123.5	2.59547905443469E-05
1	268	68.5881588268315	0.504913330078125	0.504913330078125	1.8585205078125E-07	9.38391764293556E-08	2716748.75	2.59736152656842E-05
1	269	68.6888668265773	0.494842529296875	0.49481201171875	1.8341064453125E-07	9.07537867078645E-08	2697837	2.59922089753672E-05
1	270	68.789574826323	0.484771728515625	0.484710693359375	1.80664062499999E-07	8.75698020763593E-08	2682939.25	2.60105425695656E-05
1	271	68.8902828260688	0.474700927734375	0.474700927734375	1.7822265625E-07	8.46024548195601E-08	2663527.5	2.60286124103004E-05
1	272	68.9909908258145	0.464630126953125	0.464599609375	1.7547607421875E-07	8.15261174125226E-08	2647652.25	2.60464239545399E-05
1	273	69.0916988255602	0.454559326171875	0.454559326171875	1.727294921875E-07	7.85157965310646E-08	2631625.5	2.60639571934007E-05
1	274	69.192406825306	0.444488525390625	0.444488525390625	1.70288085937501E-07	7.56910978338965E-08	2610215.25	2.60812284977874E-05
1	275	69.2931148250517	0.434417724609375	0.434417724609375	1.678466796875E-07	7.29155757994704E-08	2588181.75	2.6098256057594E-05
1	276	69.3938228247974	0.424346923828125	0.42431640625	1.64794921875E-07	6.99251856417504E-08	2574815	2.61150053120218E-05
1	277	69.4945308245432	0.414276123046875	0.41424560546875	1.62353515624999E-07	6.72542270763188E-08	2551503.75	2.61314780800603E-05
1	278	69.5952388242889	0.404205322265625	0.4041748046875	1.59912109375E-07	6.46324451736291E-08	2527481	2.61477052845294E-05
1	279	69.6959468240346	0.394134521484375	0.39410400390625	1.57470703125E-07	6.2059832828254E-08	2502713.25	2.61636869254289E-05
1	280	69.7966548237804	0.384063720703125	0.384033203125	1.55029296875001E-07	5.95363971456209E-08	2477165.25	2.6179423002759E-05
1	281	69.8973628235261	0.373992919921875	0.3740234375	1.52587890625E-07	5.70714462355681E-08	2451200	2.61949135165196E-05
1	282	69.9980708232719	0.363922119140625	0.3638916015625	1.50146484374999E-07	5.46370415577258E-08	2423577.25	2.62101566477213E-05
1	283	70.0987788230176	0.353851318359375	0.3538818359375	1.47705078125E-07	5.22701455452079E-08	2395867.75	2.62251542153535E-05
1	284	70.1994868227633	0.343780517578125	0.34381103515625	1.45874023437501E-07	5.01531012275791E-08	2356903.75	2.62399371422362E-05
1	285	70.3001948225091	0.333709716796875	0.333740234375	1.4312744140625E-07	4.7767382937991E-08	2331769.75	2.62544908764539E-05
1	286	70.4009028222548	0.323638916015625	0.323638916015625	1.40991210937499E-07	4.56302409190812E-08	2295454.75	2.62687972281128E-05
1	287	70.5016108220005	0.313568115234375	0.3135986328125	1.38244628906251E-07	4.335332803862E-08	2268432.75	2.62828580162022E-05
1	288	70.6023188217463	0.303497314453125	0.303466796875	1.3580322265625E-07	4.12117664438938E-08	2234606.75	2.62966568698175E-05
1	289	70.703026821492	0.293426513671875	0.293426513671875	1.3275146484375E-07	3.89527983202242E-08	2210344.75	2.63101792370435E-05
1	290	70.8037348212378	0.283355712890625	0.28338623046875	1.2939453125E-07	3.66686272457173E-08	2190094.5	2.6323379643145E-05
1	291	70.9044428209835	0.273284912109375	0.27325439453125	1.2664794921875E-07	3.46071082901744E-08	2157590.5	2.63362726400374E-05
1	292	71.0051508207292	0.263214111328125	0.263214111328125	1.22985839843751E-07	3.2371609393067E-08	2140198.5	2.63488418568159E-05
1	293	71.105858820475	0.253143310546875	0.25311279296875	1.190185546875E-07	3.01251183998374E-08	2126666.75	2.63610290858196E-05
1	294	71.2065668202207	0.243072509765625	0.243133544921875	1.15356445312501E-07	2.80470207059125E-08	2107672	2.63728306890698E-05
1	295	71.3072748199664	0.233001708984375	0.2330322265625	1.10778808593751E-07	2.58150318899197E-08	2103581.25	2.6384217562736E-05
1	296	71.4079828197122	0.222930908203125	0.222900390625	1.05895996093749E-07	2.360425810366E-08	2104899.25	2.63951278611785E-05
1	297	71.5086908194579	0.212860107421875	0.212890625	1.007080078125E-07	2.14397903874897E-08	2113939.5	2.64055306615774E-05
1	298	71.6093988192036	0.202789306640625	0.202880859375	9.52148437499995E-08	1.9317269561725E-08	2130769.25	2.64153968601022E-05
1	299	71.7101068189494	0.192718505859375	0.192657470703125	8.88061523437497E-08	1.71091691925085E-08	2169415.75	2.64246627921239E-05
1	300	71.8108148186951	0.182647705078125	0.18267822265625	8.087158203125E-08	1.47734766642316E-08	2258868	2.64332065853523E-05
1	301	71.9115228184409	0.172576904296875	0.172576904296875	7.14111328125003E-08	1.23239116689433E-08	2416666.75	2.64408736256883E-05
1	302	72.0122308181866	0.162506103515625	0.162567138671875	6.01196289062494E-08	9.77347536235129E-09	2704061	2.64474965661066E-05
1	303	72.1129388179323	0.152435302734375	0.152435302734375	4.425048828125E-08	6.74533628952645E-09	3444827.75	2.64527534454828E-05
1	304	72.2136468176781	0.142364501953125	0.14239501953125	2.34985351562494E-08	3.34607430652056E-09	6059740.5	2.64561640506145E-05
1	305	72.3143548174238	0.132293701171875	0.13238525390625	-3.96728515625056E-09	-5.25210042123803E-10	-33369230	2.64571481238818E-05
1	306	72.4150628171695	0.122222900390625	0.12225341796875	-4.21142578125006E-08	-5.14861175915371E-09	-2902898.75	2.64548270934029E-05
1	307	72.5157708169153	0.112152099609375	0.1121826171875	-9.42993164062503E-08	-1.05787441029292E-08	-1189644	2.64479585894151E-05
1	308	72.616478816661	0.102081298828125	0.10211181640625	-1.6510009765625E-07	-1.68586709037299E-08	-618484.3125	2.64348964265082E-05
1	309	72.7171868164068	0.092010498046875	0.092010498046875	-2.6214599609375E-07	-2.41201831840954E-08	-350989.53125	2.64133832388325E-05
1	310	72.8178948161525	0.081939697265625	0.08203125	-3.91540527343751E-07	-3.21185567031534E-08	-209508.96875	2.63804668065859E-05
1	311	72.9186028158982	0.071868896484375	0.07196044921875	-5.59387207031251E-07	-4.02537558841232E-08	-128641.5703125	2.6332583729527E-05
1	312	73.019310815644	0.061798095703125	0.061798095703125	-7.66906738281251E-07	-4.73933745581689E-08	-80580.9765625	2.62657995335758E-05
1	313	73.1200188153897	0.051727294921875	0.05181884765625	-1.0113525390625E-06	-5.24071239738078E-08	-51237.17578125	2.61762579611968E-05
1	314	73.2207268151354	0.041656494140625	0.041748046875	-1.27899169921875E-06	-5.33954072068354E-08	-32641.375	2.60609303950332E-05
1	315	73.3214348148812	0.031585693359375	0.03167724609375	-1.54937744140625E-06	-4.90800111663248E-08	-20445.14453125	2.59185089817038E-05
1	316	73.4221428146269	0.021514892578125	0.0216033935546875	-1.7919921875E-06	-3.8713114491884E-08	-12055.5185546875	2.5750257918844E-05
1	317	73.5228508143726	0.011444091796875	0.0115447998046875	-1.98516845703125E-06	-2.29183712008307E-08	-5815.5263671875	2.55600625678198E-05
1	318	73.6235588141184	0.001373291015625	0.0014801025390625	-2.1124267578125E-06	-3.12660808354792E-09	-700.66455078125	2.53537327807862E-05
1	319	73.7242668138641	-0.008697509765625	-0.008575439453125	-2.17071533203125E-06	1.86148376712936E-08	3950.51318359375	2.5138060664176E-05
1	320	73.8249748136099	-0.018768310546875	-0.0186553955078125	-2.17071533203125E-06	4.04955535771023E-08	8594.123046875	2.49194508796791E-05
1	321	73.9256828133556	-0.028839111328125	-0.028704833984375	-2.12738037109375E-06	6.10661032851567E-08	13493.0419921875	2.47030257014558E-05
1	322	74.0263908131013	-0.038909912109375	-0.0387420654296875	-2.05841064453125E-06	7.97470818270085E-08	18821.349609375	2.44922539422987E-05
1	323	74.1270988128471	-0.048980712890625	-0.0488037109375	-1.97784423828125E-06	9.65261364171965E-08	24675.203125	2.42890127992723E-05
1	324	74.2278068125928	-0.059051513671875	-0.059051513671875	-1.8939208984375E-06	1.11838893701588E-07	31179.50390625	2.40940535150003E-05
1	325	74.3285148123385	-0.069122314453125	-0.06903076171875	-1.81243896484375E-06	1.25114041793495E-07	38087.22265625	2.39074233832071E-05
1	326	74.4292228120843	-0.079193115234375	-0.07916259765625	-1.737060546875E-06	1.37510227204984E-07	45572.734375	2.3728691303404E-05
1	327	74.52993081183	-0.089263916015625	-0.08917236328125	-1.668701171875E-06	1.48802016042282E-07	53438.1875	2.35571988014271E-05
1	328	74.6306388115757	-0.099334716796875	-0.0992431640625	-1.607666015625E-06	1.59549855993646E-07	61731.2109375	2.33922201005043E-05
1	329	74.7313468113215	-0.109405517578125	-0.109283447265625	-1.553955078125E-06	1.69821561257777E-07	70326	2.32330203289166E-05
1	330	74.8320548110672	-0.119476318359375	-0.119384765625	-1.50665283203125E-06	1.79871392447239E-07	79238.40625	2.30789064517012E-05
1	331	74.932762810813	-0.129547119140625	-0.12945556640625	-1.4654541015625E-06	1.89711187204011E-07	88338.1953125	2.29292490985245E-05
1	332	75.0334708105587	-0.139617919921875	-0.13946533203125	-1.42852783203125E-06	1.99230100861314E-07	97628.71875	2.27835244004382E-05
1	333	75.1341788103044	-0.149688720703125	-0.1495361328125	-1.39678955078125E-06	2.08870517326432E-07	107057.0234375	2.26412594201975E-05
1	334	75.2348868100502	-0.159759521484375	-0.15960693359375	-1.36871337890625E-06	2.18456136735767E-07	116610.9296875	2.25020048674196E-05
1	335	75.3355948097959	-0.169830322265625	-0.16961669921875	-1.3446044921875E-06	2.28067378316155E-07	126146.1640625	2.23653787543299E-05
1	336	75.4363028095416	-0.179901123046875	-0.17974853515625	-1.3238525390625E-06	2.37960549043237E-07	135776.859375	2.22310100070899E-05
1	337	75.5370108092874	-0.189971923828125	-0.189788818359375	-1.30584716796875E-06	2.47835174604916E-07	145337.703125	2.20985948544694E-05
1	338	75.6377188090331	-0.200042724609375	-0.20001220703125	-1.29150390625E-06	2.5831653260866E-07	154867.6875	2.19678076973651E-05
1	339	75.7384268087789	-0.189971923828125	-0.189849853515625	-1.146240234375E-06	2.17613518316284E-07	165628.34375	2.18450568354456E-05
2	340	75.8391348085246	-0.179901123046875	-0.179718017578125	-1.0467529296875E-06	1.88120353072918E-07	171690.96875	2.17346314457245E-05
2	341	75.9398428082703	-0.169830322265625	-0.169647216796875	-9.6710205078125E-07	1.6406616509812E-07	175418.125	2.16332264244556E-05
2	342	76.0405508080161	-0.159759521484375	-0.159698486328125	-9.002685546875E-07	1.43771529792502E-07	177389.828125	2.15391955862287E-05
2	343	76.1412588077618	-0.149688720703125	-0.14959716796875	-8.41064453125E-07	1.2582086128532E-07	177866.484375	2.14515130210202E-05
2	344	76.2419668075075	-0.139617919921875	-0.1395263671875	-7.8765869140625E-07	1.09899154665527E-07	177140.640625	2.13695002457825E-05
2	345	76.3426748072533	-0.129547119140625	-0.12945556640625	-7.3883056640625E-07	9.56457242295983E-08	175216.859375	2.12926352105569E-05
2	346	76.443382806999	-0.119476318359375	-0.119354248046875	-6.93359374999999E-07	8.2755384767097E-08	172139.09375	2.12205195566639E-05
2	347	76.5440908067447	-0.109405517578125	-0.109344482421875	-6.4849853515625E-07	7.09097349727017E-08	168611.765625	2.11529513762798E-05
2	348	76.6447988064905	-0.099334716796875	-0.099212646484375	-6.04858398437499E-07	6.0009597291355E-08	164026.25	2.10898397199344E-05
2	349	76.7455068062362	-0.089263916015625	-0.0892333984375	-5.596923828125E-07	4.99432495359997E-08	159432.9375	2.10311991395429E-05
2	350	76.846214805982	-0.079193115234375	-0.07916259765625	-5.12084960937501E-07	4.05379765311409E-08	154588.796875	2.09772315429291E-05
2	351	76.9469228057277	-0.069122314453125	-0.06903076171875	-4.5806884765625E-07	3.16208392803219E-08	150699.546875	2.09283807635074E-05
2	352	77.0476308054734	-0.059051513671875	-0.0589599609375	-3.94592285156251E-07	2.32651444775911E-08	149419.96875	2.08854453376262E-05
2	353	77.1483388052192	-0.048980712890625	-0.048809814453125	-3.1707763671875E-07	1.54765000814905E-08	153936.484375	2.08496094273869E-05
2	354	77.2490468049649	-0.038909912109375	-0.0388031005859375	-2.1942138671875E-07	8.51423020975517E-09	176842.84375	2.08225956157548E-05
2	355	77.3497548047106	-0.028839111328125	-0.028729248046875	-9.58251953125003E-08	2.75298583929384E-09	299808.9375	2.08067212952301E-05
2	356	77.4504628044564	-0.018768310546875	-0.0186370849609375	6.22558593750003E-08	-1.16026777075007E-09	-299362.75	2.08050314540742E-05
2	357	77.5511708042021	-0.008697509765625	-0.008587646484375	2.58789062500001E-07	-2.2223887174988E-09	-33183.96484375	2.08211968129035E-05
2	358	77.6518788039479	0.001373291015625	0.00145263671875	4.9407958984375E-07	7.17718107168253E-10	2940.08642578125	2.08591063710628E-05
2	359	77.7525868036936	0.011444091796875	0.0115509033203125	7.6263427734375E-07	8.80911432687981E-09	15146.05859375	2.09223871934228E-05
2	360	77.8532948034393	0.021514892578125	0.021630859375	1.046142578125E-06	2.26289618154851E-08	20676.779296875	2.10134676308371E-05
2	361	77.9540028031851	0.031585693359375	0.0316741943359375	1.32171630859375E-06	4.18642969179928E-08	23964.443359375	2.11326987482607E-05
2	362	78.0547108029308	0.041656494140625	0.041754150390625	1.5631103515625E-06	6.52663416644828E-08	26712.220703125	2.12779596040491E-05
2	363	78.1554188026765	0.051727294921875	0.05181884765625	1.74591064453125E-06	9.04710759641603E-08	29680.126953125	2.14445826713927E-05
2	364	78.2561268024223	0.061798095703125	0.06182861328125	1.8603515625E-06	1.15022956492794E-07	33234.91015625	2.16261723835487E-05
2	365	78.356834802168	0.071868896484375	0.07196044921875	1.90826416015625E-06	1.37319531745561E-07	37709.90234375	2.18159366340842E-05
2	366	78.4575428019137	0.081939697265625	0.08197021484375	1.90277099609375E-06	1.55970539594819E-07	43079.390625	2.20078381971689E-05
2	367	78.5582508016595	0.092010498046875	0.092132568359375	1.859130859375E-06	1.71286501426948E-07	49556.796875	2.21972659346648E-05
2	368	78.6589588014052	0.102081298828125	0.1021728515625	1.79412841796875E-06	1.83311215096182E-07	56948.4609375	2.23812221520348E-05
2	369	78.759666801151	0.112152099609375	0.1121826171875	1.719970703125E-06	1.92950807331727E-07	65223.5625	2.25581698032329E-05
2	370	78.8603748008967	0.122222900390625	0.122314453125	1.644287109375E-06	2.01120073484162E-07	74387.53125	2.27275741053745E-05
2	371	78.9610828006424	0.132293701171875	0.13226318359375	1.57135009765625E-06	2.07831760690169E-07	84171.6875	2.288949508511E-05
2	372	79.0617908003882	0.142364501953125	0.142425537109375	1.50390625E-06	2.14194656678046E-07	94703.734375	2.30443456530338E-05
2	373	79.1624988001339	0.152435302734375	0.15240478515625	1.4422607421875E-06	2.19807432699781E-07	105670.765625	2.31926969718188E-05
2	374	79.2632067998796	0.162506103515625	0.16253662109375	1.387939453125E-06	2.25590980562629E-07	117106.421875	2.33352093346184E-05
2	375	79.3639147996254	0.172576904296875	0.172607421875	1.3397216796875E-06	2.31245891768594E-07	128838.2734375	2.34725575865014E-05
2	376	79.4646227993711	0.182647705078125	0.182647705078125	1.2969970703125E-06	2.36893541227801E-07	140823.53125	2.36053274420556E-05
2	377	79.5653307991169	0.192718505859375	0.19281005859375	1.25885009765625E-06	2.42718954268639E-07	153163.640625	2.37340245803352E-05
2	378	79.6660387988626	0.202789306640625	0.202789306640625	1.2255859375E-06	2.48535712898956E-07	165463.140625	2.38591255765641E-05
2	379	79.7667467986083	0.212860107421875	0.21295166015625	1.19659423828125E-06	2.5481671173111E-07	177964.8125	2.39810924540507E-05
2	380	79.8674547983541	0.222930908203125	0.22296142578125	1.1700439453125E-06	2.60874656987653E-07	190558.171875	2.41002617258346E-05
2	381	79.9681627980998	0.233001708984375	0.233001708984375	1.1468505859375E-06	2.67218126737134E-07	203166.59375	2.42169262492098E-05
2	382	80.0688707978455	0.243072509765625	0.243133544921875	1.1260986328125E-06	2.73792352345481E-07	215907.859375	2.43313788814703E-05
2	383	80.1695787975913	0.253143310546875	0.25311279296875	1.107177734375E-06	2.80240840311308E-07	228610.8125	2.44438324443763E-05
2	384	80.270286797337	0.263214111328125	0.263275146484375	1.090087890625E-06	2.86993042664108E-07	241517.375	2.45544742938364E-05
2	385	80.3709947970827	0.273284912109375	0.273193359375	1.07452392578125E-06	2.93552801622354E-07	254245.96875	2.46634699578863E-05
2	386	80.4717027968285	0.283355712890625	0.28338623046875	1.0601806640625E-06	3.00440603950847E-07	267299.9375	2.47709613176994E-05
2	387	80.5724107965742	0.293426513671875	0.293426513671875	1.04766845703125E-06	3.0741369982934E-07	280075.75	2.48771011683857E-05
2	388	80.67311879632	0.303497314453125	0.30352783203125	1.036376953125E-06	3.14569234660667E-07	292873.96875	2.49820404860657E-05
2	389	80.7738267960657	0.313568115234375	0.313568115234375	1.02569580078125E-06	3.21625464039244E-07	305712.59375	2.50858738581883E-05
2	390	80.8745347958114	0.323638916015625	0.323638916015625	1.0162353515625E-06	3.2889329304453E-07	318468.5	2.51886940532131E-05
2	391	80.9752427955572	0.333709716796875	0.333770751953125	1.0076904296875E-06	3.3633759244367E-07	331223.5	2.52906065725256E-05
2	392	81.0759507953029	0.343780517578125	0.343780517578125	9.99755859375E-07	3.43696569871099E-07	343864.5	2.539168963267E-05
2	393	81.1766587950486	0.353851318359375	0.3538818359375	9.930419921875E-07	3.51419544131204E-07	356361.40625	2.54920341831166E-05
2	394	81.2773667947944	0.363922119140625	0.3638916015625	9.8724365234375E-07	3.59249668235861E-07	368593.5	2.55917493632296E-05
2	395	81.3780747945401	0.373992919921875	0.3740234375	9.81750488281249E-07	3.67197657169527E-07	380976.09375	2.56908970186487E-05
2	396	81.4787827942858	0.384063720703125	0.384033203125	9.771728515625E-07	3.75266807850494E-07	393004.375	2.57895353570348E-05
2	397	81.5794907940316	0.394134521484375	0.394134521484375	9.72900390625001E-07	3.83453624408503E-07	405112.9375	2.58877298620064E-05
2	398	81.6801987937773	0.404205322265625	0.4041748046875	9.6954345703125E-07	3.91865029314431E-07	416871.28125	2.59855405602138E-05
2	399	81.7809067935231	0.414276123046875	0.414215087890625	9.66491699218749E-07	4.00335437689137E-07	428575.9375	2.60830274783075E-05
2	400	81.8816147932688	0.424346923828125	0.42431640625	9.6405029296875E-07	4.09062351991452E-07	440139.28125	2.61802379100118E-05
2	401	81.9823227930145	0.434417724609375	0.43438720703125	9.619140625E-07	4.17843125433137E-07	451586.3125	2.62772173300618E-05
2	402	82.0830307927603	0.444488525390625	0.44451904296875	9.600830078125E-07	4.26775159212411E-07	463000.65625	2.63739984802669E-05
2	403	82.183738792506	0.454559326171875	0.454559326171875	9.58251953125E-07	4.35582336422158E-07	474363.0625	2.64705940935528E-05
2	404	82.2844467922517	0.464630126953125	0.464630126953125	9.5703125E-07	4.44665545273892E-07	485491.0625	2.65670350927394E-05
2	405	82.3851547919975	0.474700927734375	0.4747314453125	9.56115722656251E-07	4.53898195473812E-07	496520.90625	2.66633705905406E-05
2	406	82.4858627917432	0.484771728515625	0.484771728515625	9.5550537109375E-07	4.63201985212436E-07	507345.90625	2.67596278717974E-05
2	407	82.586570791489	0.494842529296875	0.49481201171875	9.5550537109375E-07	4.72795534278703E-07	517853.71875	2.68558560492238E-05
2	408	82.6872787912347	0.504913330078125	0.5048828125	9.5550537109375E-07	4.82418215597136E-07	528393.5	2.69520824076608E-05
2	409	82.7879867909804	0.514984130859375	0.51495361328125	9.56115722656251E-07	4.92355241021869E-07	538589.1875	2.70483396889176E-05
2	410	82.8886947907262	0.525054931640625	0.5250244140625	9.5703125E-07	5.02464786222845E-07	548596.9375	2.71446751867188E-05
2	411	82.9894027904719	0.535125732421875	0.535125732421875	9.58251953125E-07	5.12785277351213E-07	558439.5	2.72411161859054E-05
2	412	83.0901107902176	0.545196533203125	0.545166015625	9.5977783203125E-07	5.23238270488946E-07	568012.75	2.73376972472761E-05
2	413	83.1908187899634	0.555267333984375	0.55523681640625	9.613037109375E-07	5.33751233433577E-07	577587.3125	2.74344311037567E-05
2	414	83.2915267897091	0.565338134765625	0.5653076171875	9.63134765625E-07	5.44467411600635E-07	586945.5	2.75313341262517E-05
2	415	83.3922347894548	0.575408935546875	0.575439453125	9.65270996093751E-07	5.55454960249335E-07	596142.9375	2.76284372375812E-05
2	416	83.4929427892006	0.585479736328125	0.58544921875	9.68322753906251E-07	5.66903793242091E-07	604601.3125	2.77258022833848E-05
2	417	83.5936507889463	0.595550537109375	0.595550537109375	9.7076416015625E-07	5.78139122353605E-07	613486.3125	2.78234419965884E-05
2	418	83.6943587886921	0.605621337890625	0.605621337890625	9.74121093749999E-07	5.89948513152194E-07	621710.5	2.79213745670859E-05
2	419	83.7950667884378	0.615692138671875	0.6156005859375	9.7686767578125E-07	6.01360341079271E-07	630178.0625	2.80196145467926E-05
2	420	83.8957747881835	0.625762939453125	0.62567138671875	9.80529785156251E-07	6.13489419265534E-07	638095.25	2.81181783066131E-05
2	421	83.9964827879293	0.635833740234375	0.635772705078125	9.8388671875E-07	6.25528286946064E-07	646184.875	2.82170949503779E-05
2	422	84.097190787675	0.645904541015625	0.645843505859375	9.87854003906249E-07	6.37999050923099E-07	653784.4375	2.83163790300023E-05
2	423	84.1978987874207	0.655975341796875	0.655914306640625	9.9151611328125E-07	6.50349591069244E-07	661526.625	2.84160487353802E-05
2	424	84.2986067871665	0.666046142578125	0.666015625	9.9517822265625E-07	6.62804211515322E-07	669242.5625	2.85160858766176E-05
2	425	84.3993147869122	0.676116943359375	0.67608642578125	9.9945068359375E-07	6.75715000397759E-07	676458	2.86165231955238E-05
2	426	84.500022786658	0.686187744140625	0.686126708984375	1.00311279296875E-06	6.88262446146837E-07	683997.625	2.87173606920987E-05
2	427	84.6007307864037	0.696258544921875	0.69622802734375	1.00677490234375E-06	7.0094483817229E-07	691542.9375	2.88185674435226E-05
2	428	84.7014387861494	0.706329345703125	0.70623779296875	1.01043701171875E-06	7.13608812930033E-07	698942.9375	2.8920141630806E-05
2	429	84.8021467858952	0.716400146484375	0.71630859375	1.0137939453125E-06	7.26189341548888E-07	706562.3125	2.90220705210231E-05
2	430	84.9028547856409	0.726470947265625	0.72637939453125	1.0174560546875E-06	7.39059089482907E-07	713917.25	2.91243522951845E-05
2	431	85.0035627853866	0.736541748046875	0.73651123046875	1.02081298828125E-06	7.51840218526922E-07	721494.75	2.92269869532902E-05
2	432	85.1042707851324	0.746612548828125	0.746551513671875	1.0247802734375E-06	7.65051197504363E-07	728499.125	2.93299908662448E-05
2	433	85.2049787848781	0.756683349609375	0.7568359375	1.0284423828125E-06	7.78362164055579E-07	735905.0625	2.94333785859635E-05
2	434	85.3056867846238	0.766754150390625	0.7666015625	1.0321044921875E-06	7.91212926287699E-07	742755.75	2.95371355605312E-05
2	435	85.4063947843696	0.776824951171875	0.77667236328125	1.03607177734375E-06	8.0468834084968E-07	749631.8125	2.9641276341863E-05
2	436	85.5071027841153	0.786895751953125	0.787353515625	1.0400390625E-06	8.18878390873579E-07	757042.3125	2.97458154818742E-05
2	437	85.6078107838611	0.796966552734375	0.79681396484375	1.04461669921875E-06	8.32365117275913E-07	762781.25	2.98507875413634E-05
2	438	85.7085187836068	0.807037353515625	0.80718994140625	1.0491943359375E-06	8.46899126827338E-07	769342.625	2.99562198051717E-05
2	439	85.8092267833525	0.817108154296875	0.81756591796875	1.05377197265625E-06	8.61528008044843E-07	775847.125	3.00621122732991E-05
2	440	85.9099347830983	0.827178955078125	0.82672119140625	1.05865478515625E-06	8.75212322171137E-07	780916.6875	3.01684813166503E-05
2	441	86.010642782844	0.837249755859375	0.83709716796875	1.0626220703125E-06	8.89517878022161E-07	787765.6875	3.02752960124053E-05
2	442	86.1113507825897	0.847320556640625	0.8477783203125	1.06689453125E-06	9.04489979802747E-07	794622.5	3.03825254377443E-05
2	443	86.2120587823355	0.857391357421875	0.858154296875	1.07086181640625E-06	9.18964644824882E-07	801367.9375	3.04901695926674E-05
2	444	86.3127667820812	0.867462158203125	0.86761474609375	1.07513427734375E-06	9.32802322495263E-07	806982.6875	3.05982284771744E-05
2	445	86.4134747818269	0.877532958984375	0.87738037109375	1.0791015625E-06	9.46782449773309E-07	813065.6875	3.07067020912655E-05
2	446	86.5141827815727	0.887603759765625	0.88775634765625	1.08367919921875E-06	9.62043031904614E-07	819205.875	3.08156086248346E-05
2	447	86.6148907813184	0.897674560546875	0.89752197265625	1.0882568359375E-06	9.76734440882865E-07	824733.625	3.09249735437334E-05
2	448	86.7155987810642	0.907745361328125	0.90789794921875	1.09222412109375E-06	9.91628098745423E-07	831237.75	3.10347713821102E-05
2	449	86.8163067808099	0.917816162109375	0.91766357421875	1.09619140625E-06	1.00593490515166E-06	837138.125	3.1144965760177E-05
2	450	86.9170147805556	0.927886962890625	0.92864990234375	1.10076904296875E-06	1.02222907116811E-06	843637.375	3.1255589419743E-05
2	451	87.0177227803014	0.937957763671875	0.93841552734375	1.10504150390625E-06	1.03698812381481E-06	849212.9375	3.13666641886812E-05
2	452	87.1184307800471	0.948028564453125	0.94757080078125	1.1090087890625E-06	1.05086428447976E-06	854430.4375	3.14781500492245E-05
2	453	87.2191387797928	0.958099365234375	0.95855712890625	1.11358642578125E-06	1.06743618744076E-06	860783.75	3.15900651912671E-05
2	454	87.3198467795386	0.968170166015625	0.968017578125	1.11785888671875E-06	1.08210713278822E-06	865956.875	3.17024278047029E-05
2	455	87.4205547792843	0.978240966796875	0.9783935546875	1.1224365234375E-06	1.09818461169198E-06	871669.375	3.18152342515532E-05
2	456	87.5212627790301	0.988311767578125	0.98876953125	1.126708984375E-06	1.11405552161159E-06	877573.125	3.19284881697968E-05
2	457	87.6219707787758	0.998382568359375	0.99822998046875	1.13128662109375E-06	1.12928421458491E-06	882384.6875	3.20421895594336E-05
2	458	87.7226787785215	1.00845336914063	1.00799560546875	1.13525390625E-06	1.14433100861788E-06	887903.25	3.21563165925909E-05
2	459	87.8233867782673	1.01852416992188	1.01806640625	1.13922119140625E-06	1.15980276405026E-06	893651.25	3.22708474413957E-05
2	460	87.924094778013	1.02859497070313	1.0284423828125	1.1431884765625E-06	1.17570345992135E-06	899626.3125	3.23857748298906E-05
2	461	88.0248027777587	1.03866577148438	1.03790283203125	1.1474609375E-06	1.19095295758598E-06	904521.3125	3.25011169479694E-05
2	462	88.1255107775045	1.04873657226563	1.048583984375	1.15142822265625E-06	1.2073691095793E-06	910681.25	3.26168774336111E-05
2	463	88.2262187772502	1.05880737304688	1.0589599609375	1.1553955078125E-06	1.2235175290698E-06	916534.625	3.27330344589427E-05
2	464	88.3269267769959	1.06887817382813	1.0687255859375	1.15966796875E-06	1.23936683849024E-06	921579	3.28496062138584E-05
2	465	88.4276347767417	1.07894897460938	1.0784912109375	1.163330078125E-06	1.25464123357233E-06	927072.4375	3.29665781464428E-05
2	466	88.5283427764874	1.08901977539063	1.0888671875	1.1669921875E-06	1.27069949940051E-06	933054.375	3.30839211528655E-05
2	467	88.6290507762332	1.09909057617188	1.09954833984375	1.170654296875E-06	1.28719102576724E-06	939259.625	3.32016315951478E-05
2	468	88.7297587759789	1.10916137695313	1.10870361328125	1.17401123046875E-06	1.3016305047131E-06	944372.25	3.33196949213743E-05
2	469	88.8304667757246	1.11923217773438	1.11968994140625	1.1785888671875E-06	1.31965407490497E-06	950025.9375	3.34381547872908E-05
2	470	88.9311747754704	1.12930297851563	1.12884521484375	1.182861328125E-06	1.33526737045031E-06	954334.375	3.35570657625794E-05
2	471	89.0318827752161	1.13937377929688	1.13922119140625	1.18743896484375E-06	1.35275558932335E-06	959393.5	3.36764169333037E-05
2	472	89.1325907749618	1.14944458007813	1.1492919921875	1.1920166015625E-06	1.36997516619886E-06	964157.6875	3.37962337653153E-05
2	473	89.2332987747076	1.15951538085938	1.15936279296875	1.19781494140625E-06	1.38870200316887E-06	967898.125	3.39165708282962E-05
2	474	89.3340067744533	1.16958618164063	1.1700439453125	1.20330810546875E-06	1.40792337788298E-06	972356.0625	3.40374790539499E-05
2	475	89.4347147741991	1.17965698242188	1.17950439453125	1.20880126953125E-06	1.42578630857315E-06	975763.75	3.41589366144035E-05
2	476	89.5354227739448	1.18972778320313	1.1895751953125	1.2152099609375E-06	1.44558362080716E-06	978905.0625	3.42809944413602E-05
2	477	89.6361307736905	1.19979858398438	1.19964599609375	1.22222900390625E-06	1.4662421108369E-06	981523.125	3.44037289323751E-05
2	478	89.7368387734363	1.20986938476563	1.209716796875	1.2298583984375E-06	1.48778042330378E-06	983622.8125	3.45272019330878E-05
2	479	89.837546773182	1.21994018554688	1.2200927734375	1.2384033203125E-06	1.51096696754394E-06	985214.375	3.46514898410533E-05
2	480	89.9382547729277	1.23001098632813	1.23016357421875	1.24755859375E-06	1.53470102759456E-06	986056.8125	3.47766690538265E-05
2	481	90.0389627726735	1.24008178710938	1.23992919921875	1.25701904296875E-06	1.55861459916196E-06	986404.5	3.49027832271531E-05
2	482	90.1396707724192	1.25015258789063	1.25	1.268310546875E-06	1.58538807681907E-06	985563.0625	3.50299451383762E-05
2	483	90.2403787721649	1.26022338867188	1.2603759765625	1.2799072265625E-06	1.61316427238489E-06	984740.125	3.51582566509023E-05
2	484	90.3410867719107	1.27029418945313	1.27044677734375	1.2921142578125E-06	1.64156233495305E-06	983231	3.52877686964348E-05
2	485	90.4417947716564	1.28036499023438	1.28021240234375	1.30584716796875E-06	1.67176176546491E-06	980369.25	3.5418586776359E-05
2	486	90.5425027714022	1.29043579101563	1.28997802734375	1.32049560546875E-06	1.70341024841036E-06	976889.3125	3.55508345819544E-05
2	487	90.6432107711479	1.30050659179688	1.300048828125	1.33575439453125E-06	1.73654598256689E-06	973269.375	3.56845848727971E-05
2	488	90.7439187708936	1.31057739257813	1.3104248046875	1.35223388671875E-06	1.77200081452611E-06	969081.5	3.5819935874315E-05
2	489	90.8446267706394	1.32064819335938	1.32049560546875	1.37115478515625E-06	1.81060386239551E-06	963053.625	3.59570694854483E-05
2	490	90.9453347703851	1.33071899414063	1.33087158203125	1.38946533203125E-06	1.84919986168097E-06	957830	3.60960766556673E-05
2	491	91.0460427701308	1.34078979492188	1.34063720703125	1.4093017578125E-06	1.8893623519034E-06	951277.625	3.62370083166752E-05
2	492	91.1467507698766	1.35086059570313	1.3507080078125	1.429443359375E-06	1.93076039067819E-06	944918.9375	3.63799481419846E-05
2	493	91.2474587696223	1.36093139648438	1.36077880859375	1.44989013671875E-06	1.97297958948184E-06	938539.3125	3.65249361493625E-05
2	494	91.348166769368	1.37100219726563	1.370849609375	1.4715576171875E-06	2.01728403226298E-06	931563.6875	3.6672041460406E-05
2	495	91.4488747691138	1.38107299804688	1.38153076171875	1.49322509765625E-06	2.06293634619215E-06	925199.25	3.68213295587339E-05
2	496	91.5495827688595	1.39114379882813	1.39068603515625	1.5179443359375E-06	2.11098381441843E-06	916164.0625	3.69729568774346E-05
2	497	91.6502907686053	1.40121459960938	1.4013671875	1.54449462890625E-06	2.16440412259544E-06	907330.625	3.71271598851308E-05
2	498	91.750998768351	1.41128540039063	1.4111328125	1.57562255859375E-06	2.22341259359382E-06	895603.375	3.72842732758727E-05
2	499	91.8517067680967	1.42135620117188	1.42120361328125	1.612548828125E-06	2.29176021093735E-06	881339.9375	3.7444810004672E-05
2	500	91.9524147678425	1.43142700195313	1.4312744140625	1.65557861328125E-06	2.36958726418379E-06	864516.1875	3.7609370338032E-05
2	501	92.0531227675882	1.44149780273438	1.4410400390625	1.70684814453125E-06	2.45963656198001E-06	844269.625	3.77786855096929E-05
2	502	92.1538307673339	1.45156860351563	1.451416015625	1.76727294921875E-06	2.56504813478386E-06	821274.375	3.79536213586107E-05
2	503	92.2545387670797	1.46163940429688	1.46148681640625	1.8377685546875E-06	2.6858745059144E-06	795250.75	3.8135149225127E-05
2	504	92.3552467668254	1.47171020507813	1.47186279296875	1.91986083984375E-06	2.82577161669906E-06	766650.8125	3.83243605028838E-05
2	505	92.4559547665712	1.48178100585938	1.48193359375	2.01385498046875E-06	2.98439931611938E-06	735869.0625	3.85224375349935E-05
2	506	92.5566627663169	1.49185180664063	1.49200439453125	2.11822509765625E-06	3.16040109282767E-06	704365.375	3.87305044569075E-05
2	507	92.6573707660626	1.50192260742188	1.50177001953125	2.22869873046875E-06	3.34699279846973E-06	673832.6875	3.89493907277938E-05
2	508	92.7580787658084	1.49185180664063	1.49169921875	1.92535400390625E-06	2.87204898086202E-06	774766.25	3.91585635952652E-05
2	509	92.8587867655541	1.48178100585938	1.48223876953125	1.7047119140625E-06	2.52679001278011E-06	869495.1875	3.93413502024487E-05
2	510	92.9594947652998	1.47171020507813	1.47125244140625	1.531982421875E-06	2.25393296204857E-06	960358.5625	3.95043316530064E-05
2	511	93.0602027650456	1.46163940429688	1.4617919921875	1.39251708984375E-06	2.03557033273682E-06	1049748	3.96515933971386E-05
2	512	93.1609107647913	1.45156860351563	1.45111083984375	1.27838134765625E-06	1.85507303740451E-06	1135115.75	3.97860821976792E-05
2	513	93.261618764537	1.44149780273438	1.44134521484375	1.18377685546875E-06	1.70623104622791E-06	1217581.875	3.99100608774461E-05
2	514	93.3623267642828	1.43142700195313	1.431884765625	1.1065673828125E-06	1.58447687681473E-06	1293988	4.00253884436097E-05
2	515	93.4630347640285	1.42135620117188	1.42181396484375	1.04248046875E-06	1.48221329254739E-06	1363875.875	4.01336037612054E-05
2	516	93.5637427637743	1.41128540039063	1.41143798828125	9.89990234375E-07	1.39730980208697E-06	1425709	4.02359473810066E-05
2	517	93.66445076352	1.40121459960938	1.4007568359375	9.46655273437499E-07	1.3260338391774E-06	1479690.625	4.03334634029306E-05
2	518	93.7651587632657	1.39114379882813	1.39129638671875	9.1064453125E-07	1.2669764828388E-06	1527815	4.04269849241246E-05
2	519	93.8658667630115	1.38107299804688	1.3812255859375	8.8043212890625E-07	1.21607536129886E-06	1568804.25	4.05171740567312E-05
2	520	93.9665747627572	1.37100219726563	1.370849609375	8.5418701171875E-07	1.1709619229805E-06	1604859	4.06045182899106E-05
2	521	94.0672827625029	1.36093139648438	1.36077880859375	8.32214355468749E-07	1.13245960164932E-06	1635130.25	4.06894359912258E-05
2	522	94.1679907622487	1.35086059570313	1.35101318359375	8.123779296875E-07	1.09753318611183E-06	1663035.375	4.07722473028116E-05
2	523	94.2686987619944	1.34078979492188	1.34063720703125	7.94677734375E-07	1.06537447663868E-06	1687020	4.08531705033965E-05
2	524	94.3694067617402	1.33071899414063	1.33056640625	7.794189453125E-07	1.03706861409592E-06	1707126.125	4.09324311476666E-05
2	525	94.4701147614859	1.32064819335938	1.32049560546875	7.647705078125E-07	1.00987608675496E-06	1726656	4.10101893066894E-05
2	526	94.5708227612316	1.31057739257813	1.31072998046875	7.5225830078125E-07	9.86007535175304E-07	1742393.5	4.10865759477019E-05
2	527	94.6715307609774	1.30050659179688	1.30035400390625	7.3974609375E-07	9.61931846177322E-07	1757838.25	4.11617038480472E-05
2	528	94.7722387607231	1.29043579101563	1.28997802734375	7.2784423828125E-07	9.38903042424499E-07	1772327.125	4.12356021115556E-05
2	529	94.8729467604688	1.28036499023438	1.28021240234375	7.171630859375E-07	9.18121031645569E-07	1785106.5	4.13083653256763E-05
2	530	94.9736547602146	1.27029418945313	1.26983642578125	7.06787109375E-07	8.97503980468173E-07	1796632.125	4.13800662499852E-05
2	531	95.0743627599603	1.26022338867188	1.2603759765625	6.96411132812499E-07	8.77739864790783E-07	1809816	4.14507230743766E-05
2	532	95.175070759706	1.25015258789063	1.25	6.86035156250001E-07	8.57543909660308E-07	1822064.125	4.15203357988503E-05
2	533	95.2757787594518	1.24008178710938	1.240234375	6.7626953125E-07	8.387327170567E-07	1833935.125	4.15889335272368E-05
2	534	95.3764867591975	1.23001098632813	1.23016357421875	6.6650390625E-07	8.19908791527268E-07	1845696.125	4.16565453633666E-05
2	535	95.4771947589433	1.21994018554688	1.22039794921875	6.573486328125E-07	8.02226907126169E-07	1856546	4.17232076870278E-05
2	536	95.577902758689	1.20986938476563	1.2103271484375	6.48193359375E-07	7.84525980179751E-07	1867231.625	4.17889459640719E-05
2	537	95.6786107584347	1.19979858398438	1.199951171875	6.38732910156251E-07	7.66448295053124E-07	1878643.125	4.18537492805626E-05
2	538	95.7793187581805	1.18972778320313	1.1895751953125	6.29577636718751E-07	7.48929949168087E-07	1889481.375	4.19176139985211E-05
2	539	95.8800267579262	1.17965698242188	1.17950439453125	6.207275390625E-07	7.32150851945335E-07	1900196.75	4.19805728597566E-05
2	540	95.9807347576719	1.16958618164063	1.16943359375	6.10961914062499E-07	7.14479369889887E-07	1914086	4.20425931224599E-05
2	541	96.0814427574177	1.15951538085938	1.1590576171875	6.01806640625E-07	6.97528548698756E-07	1925963.5	4.21036602347158E-05
2	542	96.1821507571634	1.14944458007813	1.1492919921875	5.92041015625E-07	6.80427945098927E-07	1941237.25	4.21637741965242E-05
2	543	96.2828587569091	1.13937377929688	1.13983154296875	5.8258056640625E-07	6.64043682263582E-07	1956521.875	4.22229204559699E-05
2	544	96.3835667566549	1.12930297851563	1.12945556640625	5.7342529296875E-07	6.47658339403279E-07	1969664.75	4.22811317548621E-05
2	545	96.4842747564006	1.11923217773438	1.11968994140625	5.63659667968749E-07	6.31124009942141E-07	1986464.625	4.2338389903307E-05
2	546	96.5849827561464	1.10916137695313	1.1090087890625	5.535888671875E-07	6.13934901139146E-07	2003307.625	4.23946476075798E-05
2	547	96.6856907558921	1.09909057617188	1.0986328125	5.44128417968751E-07	5.97797338741657E-07	2019069	4.2449919419596E-05
2	548	96.7863987556378	1.08901977539063	1.0888671875	5.33447265625001E-07	5.80853168230533E-07	2041190	4.25041798735037E-05
2	549	96.8871067553836	1.07894897460938	1.0791015625	5.23681640625E-07	5.65105665373267E-07	2060606	4.25574107794091E-05
2	550	96.9878147551293	1.06887817382813	1.06842041015625	5.13610839843751E-07	5.48752268514363E-07	2080214	4.26096448791213E-05
2	551	97.088522754875	1.05880737304688	1.0589599609375	5.04150390624999E-07	5.33875038399856E-07	2100484.25	4.26608930865768E-05
2	552	97.1892307546208	1.04873657226563	1.04888916015625	4.9407958984375E-07	5.18234742230561E-07	2122915.5	4.27111554017756E-05
2	553	97.2899387543665	1.03866577148438	1.03851318359375	4.8370361328125E-07	5.02332568430575E-07	2147003.25	4.27603918069508E-05
2	554	97.3906467541123	1.02859497070313	1.029052734375	4.7332763671875E-07	4.87079091726628E-07	2174081.25	4.28085804742295E-05
2	555	97.491354753858	1.01852416992188	1.01806640625	4.638671875E-07	4.72247592142594E-07	2194737	4.28557723353151E-05
2	556	97.5920627536037	1.00845336914063	1.00830078125	4.54101562500001E-07	4.57870953596284E-07	2220430.25	4.2901996494038E-05
2	557	97.6927707533495	0.998382568359375	0.99822998046875	4.45556640625E-07	4.4476797711468E-07	2240411	4.29473002441227E-05
2	558	97.7934787530952	0.988311767578125	0.98876953125	4.3670654296875E-07	4.31802106959367E-07	2264151	4.29917236033361E-05
2	559	97.8941867528409	0.978240966796875	0.97900390625	4.27856445312499E-07	4.18873128182895E-07	2288159.75	4.30352592957206E-05
2	560	97.9948947525867	0.968170166015625	0.96832275390625	4.19921875E-07	4.0661990396984E-07	2305959.5	4.3077947339043E-05
2	561	98.0956027523324	0.958099365234375	0.95855712890625	4.1168212890625E-07	3.94620826682512E-07	2328391.5	4.31198204751126E-05
2	562	98.1963107520781	0.948028564453125	0.94818115234375	4.04052734375E-07	3.83115178692606E-07	2346676.75	4.31608968938235E-05
2	563	98.2970187518239	0.937957763671875	0.93841552734375	3.9642333984375E-07	3.72009822058317E-07	2367205.5	4.32012056990061E-05
2	564	98.3977267515696	0.927886962890625	0.92803955078125	3.89404296875E-07	3.61382575420066E-07	2383229	4.3240772356512E-05
2	565	98.4984347513154	0.917816162109375	0.91827392578125	3.82385253906251E-07	3.51134417542198E-07	2401436.5	4.32796368841082E-05
2	566	98.5991427510611	0.907745361328125	0.90789794921875	3.753662109375E-07	3.40794201747485E-07	2418699.25	4.3317792005837E-05
2	567	98.6998507508068	0.897674560546875	0.89691162109375	3.68347167968749E-07	3.30374831492009E-07	2434962.75	4.33552413596772E-05
2	568	98.8005587505526	0.887603759765625	0.88775634765625	3.61022949218751E-07	3.20500390671441E-07	2459002.75	4.33919667557348E-05
2	569	98.9012667502983	0.877532958984375	0.8782958984375	3.54919433593751E-07	3.11724278390102E-07	2474634.75	4.3428019125713E-05
2	570	99.001974750044	0.867462158203125	0.8673095703125	3.47900390625E-07	3.01737316021899E-07	2492982.5	4.34634093835484E-05
2	571	99.1026827497898	0.857391357421875	0.8575439453125	3.40576171875E-07	2.92059013418111E-07	2517921.25	4.34980756836012E-05
2	572	99.2033907495355	0.847320556640625	0.84747314453125	3.3416748046875E-07	2.83197977068994E-07	2536073	4.35320507676806E-05
2	573	99.3040987492813	0.837249755859375	0.83740234375	3.2684326171875E-07	2.73699328090515E-07	2562091.5	4.35653382737655E-05
2	574	99.404806749027	0.827178955078125	0.8270263671875	3.2012939453125E-07	2.64755442458409E-07	2583413	4.35979127360042E-05
2	575	99.5055147487727	0.817108154296875	0.8172607421875	3.131103515625E-07	2.55892786071854E-07	2610136.5	4.36297996202484E-05
2	576	99.6062227485185	0.807037353515625	0.80718994140625	3.05786132812499E-07	2.46827482897061E-07	2639720.5	4.36609661846887E-05
2	577	99.7069307482642	0.796966552734375	0.797119140625	2.98461914062501E-07	2.37909702605066E-07	2670756.75	4.36913906014524E-05
2	578	99.8076387480099	0.786895751953125	0.78704833984375	2.911376953125E-07	2.29139445195869E-07	2703354.25	4.37210801464971E-05
2	579	99.9083467477557	0.776824951171875	0.77667236328125	2.84423828124999E-07	2.20904126990717E-07	2730686.75	4.37500602856744E-05
2	580	100.009054747501	0.766754150390625	0.7666015625	2.78320312499999E-07	2.13360777934213E-07	2754386	4.37783965026028E-05
2	581	100.109762747247	0.756683349609375	0.7568359375	2.7130126953125E-07	2.05330550784311E-07	2789651.25	4.38060742453672E-05
2	582	100.210470746993	0.746612548828125	0.746551513671875	2.6519775390625E-07	1.97983780481081E-07	2815075	4.38330898759887E-05
2	583	100.311178746739	0.736541748046875	0.736480712890625	2.5909423828125E-07	1.90817914358377E-07	2842520.75	4.38594870502129E-05
2	584	100.411886746484	0.726470947265625	0.726348876953125	2.53906249999999E-07	1.84424521876281E-07	2860697	4.38853203377221E-05
2	585	100.51259474623	0.716400146484375	0.716278076171875	2.484130859375E-07	1.7793283291212E-07	2883415.5	4.39106152043678E-05
2	586	100.613302745976	0.706329345703125	0.70623779296875	2.4383544921875E-07	1.72205801618475E-07	2896370.5	4.39354007539805E-05
2	587	100.714010745722	0.696258544921875	0.6961669921875	2.3773193359375E-07	1.65501120363842E-07	2928369.75	4.39596478827298E-05
2	588	100.814718745467	0.686187744140625	0.68609619140625	2.33154296875E-07	1.59966276669365E-07	2942670.25	4.39833602285944E-05
2	589	100.915426745213	0.676116943359375	0.676116943359375	2.288818359375E-07	1.54750878778032E-07	2954000	4.40066251030657E-05
2	590	101.016134744959	0.666046142578125	0.66595458984375	2.2430419921875E-07	1.49376404579016E-07	2968979.75	4.40294461441226E-05
2	591	101.116842744705	0.655975341796875	0.655975341796875	2.197265625E-07	1.44135199775519E-07	2985416.75	4.4051805161871E-05
2	592	101.21755074445	0.645904541015625	0.645904541015625	2.15759277343749E-07	1.3935989784386E-07	2993635.25	4.40737312601414E-05
2	593	101.318258744196	0.635833740234375	0.635772705078125	2.1209716796875E-07	1.34845592469901E-07	2997554	4.4095275370637E-05
2	594	101.418966743942	0.625762939453125	0.625762939453125	2.08740234375E-07	1.30621899074868E-07	2997807	4.41164665971883E-05
2	595	101.519674743687	0.615692138671875	0.61566162109375	2.05383300781251E-07	1.26446622061849E-07	2997622.5	4.41373194917105E-05
2	596	101.620382743433	0.605621337890625	0.605560302734375	2.0263671875E-07	1.22708755156964E-07	2988403.75	4.4157866796013E-05
2	597	101.721090743179	0.595550537109375	0.595489501953125	1.9989013671875E-07	1.19032478096415E-07	2979084	4.41781339759473E-05
2	598	101.821798742925	0.585479736328125	0.585479736328125	1.97448730468749E-07	1.15602226458122E-07	2965224.25	4.41981428593863E-05
2	599	101.92250674267	0.575408935546875	0.575408935546875	1.9561767578125E-07	1.12560158527231E-07	2941497.75	4.42179334640969E-05
2	600	102.023214742416	0.565338134765625	0.5653076171875	1.93176269531251E-07	1.09204009390851E-07	2926382.5	4.42375130660366E-05
2	601	102.123922742162	0.555267333984375	0.555206298828125	1.91650390625001E-07	1.06405501298923E-07	2896974.5	4.42568889411632E-05
2	602	102.224630741908	0.545196533203125	0.545196533203125	1.8951416015625E-07	1.0332245636846E-07	2876811.75	4.42760829173494E-05
2	603	102.325338741653	0.535125732421875	0.535125732421875	1.8798828125E-07	1.00597361551991E-07	2846591	4.42950913566165E-05
2	604	102.426046741399	0.525054931640625	0.5250244140625	1.8585205078125E-07	9.75768585931291E-08	2824959	4.43139142589644E-05
2	605	102.526754741145	0.514984130859375	0.514984130859375	1.84020996093751E-07	9.47678913121308E-08	2798507.5	4.43325407104567E-05
2	606	102.627462740891	0.504913330078125	0.504913330078125	1.8280029296875E-07	9.22983076634409E-08	2762103.5	4.43510107288603E-05
2	607	102.728170740636	0.494842529296875	0.49481201171875	1.80969238281251E-07	8.95457503702346E-08	2734232.75	4.4369327952154E-05
2	608	102.828878740382	0.484771728515625	0.484710693359375	1.79443359375001E-07	8.69781189294372E-08	2701190.5	4.43874778284226E-05
2	609	102.929586740128	0.474700927734375	0.47467041015625	1.77917480468751E-07	8.44521608200921E-08	2667924.75	4.44054712716024E-05
2	610	103.030294739874	0.464630126953125	0.464691162109375	1.76391601562501E-07	8.19676131413871E-08	2634429.25	4.44233119196724E-05
2	611	103.131002739619	0.454559326171875	0.454559326171875	1.74560546874999E-07	7.93481191863066E-08	2604021	4.44409852207173E-05
2	612	103.231710739365	0.444488525390625	0.444488525390625	1.73034667968749E-07	7.69119239407701E-08	2568783.25	4.44584875367582E-05
2	613	103.332418739111	0.434417724609375	0.434417724609375	1.71508789062499E-07	7.45064596685552E-08	2532918.25	4.44758370576892E-05
2	614	103.433126738856	0.424346923828125	0.424346923828125	1.69677734375E-07	7.20022228506423E-08	2500899.25	4.44930155936163E-05
2	615	103.533834738602	0.414276123046875	0.414276123046875	1.6754150390625E-07	6.94084434371689E-08	2472677.75	4.45099976786878E-05
2	616	103.634542738348	0.404205322265625	0.4041748046875	1.65405273437499E-07	6.68526425329219E-08	2443542.5	4.45267614850309E-05
2	617	103.735250738094	0.394134521484375	0.394134521484375	1.6357421875E-07	6.44702424779098E-08	2409515	4.45433288405184E-05
2	618	103.835958737839	0.384063720703125	0.384063720703125	1.617431640625E-07	6.21196818428871E-08	2374528.25	4.45597070211079E-05
2	619	103.936666737585	0.373992919921875	0.373992919921875	1.605224609375E-07	6.00342673351406E-08	2329848	4.45759360445663E-05
2	620	104.037374737331	0.363922119140625	0.363983154296875	1.5838623046875E-07	5.76499203930325E-08	2298073.25	4.45919940830208E-05
2	621	104.138082737077	0.353851318359375	0.353912353515625	1.56555175781251E-07	5.54068115832251E-08	2260623.75	4.46078520326409E-05
2	622	104.238790736822	0.343780517578125	0.343780517578125	1.544189453125E-07	5.30862251935105E-08	2226284.75	4.46235098934267E-05
2	623	104.339498736568	0.333709716796875	0.333740234375	1.52587890625E-07	5.09247186641915E-08	2187200	4.46389713033568E-05
2	624	104.440206736314	0.323638916015625	0.32366943359375	1.513671875E-07	4.89929306013437E-08	2138306.5	4.46542762801982E-05
2	625	104.54091473606	0.313568115234375	0.3135986328125	1.4923095703125E-07	4.6798625419342E-08	2101431.5	4.46694102720357E-05
2	626	104.641622735805	0.303497314453125	0.303497314453125	1.47094726562499E-07	4.46428529699006E-08	2063278	4.46843332611024E-05
2	627	104.742330735551	0.293426513671875	0.29339599609375	1.446533203125E-07	4.24407033960961E-08	2028270.125	4.46990234195255E-05
2	628	104.843038735297	0.283355712890625	0.283355712890625	1.422119140625E-07	4.02965589785254E-08	1992489.25	4.47134698333684E-05
2	629	104.943746735043	0.273284912109375	0.273345947265625	1.3885498046875E-07	3.79554450091746E-08	1968571.5	4.4727621570928E-05
2	630	105.044454734788	0.263214111328125	0.26318359375	1.36718750000001E-07	3.5982132828849E-08	1925000	4.47414968220983E-05
2	631	105.145162734534	0.253143310546875	0.253143310546875	1.33361816406249E-07	3.37596510746607E-08	1898169.5	4.4755099224858E-05
2	632	105.24587073428	0.243072509765625	0.24310302734375	1.300048828125E-07	3.1604578509814E-08	1869953.125	4.47683596576098E-05
2	633	105.346578734025	0.233001708984375	0.2330322265625	1.25732421874999E-07	2.92997039963439E-08	1853398.25	4.47812381025869E-05
2	634	105.447286733771	0.222930908203125	0.222930908203125	1.2237548828125E-07	2.7281277681368E-08	1821695.875	4.47937309218105E-05
2	635	105.547994733517	0.212860107421875	0.212890625	1.1749267578125E-07	2.50130884893451E-08	1811948	4.480580901145E-05
2	636	105.648702733263	0.202789306640625	0.20281982421875	1.11999511718749E-07	2.27157208598783E-08	1810899.125	4.48173632321414E-05
2	637	105.749410733008	0.192718505859375	0.1927490234375	1.0528564453125E-07	2.02937044946339E-08	1830724.625	4.48283062723931E-05
2	638	105.850118732754	0.182647705078125	0.18267822265625	9.82666015624995E-08	1.79511676634547E-08	1859006.25	4.48385544586927E-05
2	639	105.9508267325	0.172576904296875	0.172576904296875	8.85009765625E-08	1.52732244629306E-08	1950000	4.4847958633909E-05
2	640	106.051534732246	0.162506103515625	0.16253662109375	7.69042968749994E-08	1.24997638906166E-08	2113492.25	4.48562896053772E-05
2	641	106.152242731991	0.152435302734375	0.1524658203125	6.103515625E-08	9.30577481739192E-09	2498000.25	4.486323450692E-05
2	642	106.252950731737	0.142364501953125	0.142364501953125	4.05883789062506E-08	5.77834446957581E-09	3507518.75	4.48683495051228E-05
2	643	106.353658731483	0.132293701171875	0.132354736328125	1.25122070312497E-08	1.65604974178279E-09	10578049	4.4871023419546E-05
2	644	106.454366731229	0.122222900390625	0.12225341796875	-2.65502929687494E-08	-3.24586402200566E-09	-4604598	4.48703176516574E-05
2	645	106.555074730974	0.112152099609375	0.1121826171875	-7.87353515625006E-08	-8.83273720830857E-09	-1424806.25	4.48650171165355E-05
2	646	106.65578273072	0.102081298828125	0.10211181640625	-1.5106201171875E-07	-1.5425216659537E-08	-675959.625	4.48534447059501E-05
2	647	106.756490730466	0.092010498046875	0.092071533203125	-2.49633789062501E-07	-2.29841656818053E-08	-368826.40625	4.4833268475486E-05
2	648	106.857198730212	0.081939697265625	0.082000732421875	-3.8177490234375E-07	-3.13058201584226E-08	-214788.171875	4.48014761786908E-05
2	649	106.957906729957	0.071868896484375	0.07196044921875	-5.51452636718749E-07	-3.96827779525211E-08	-130492.53125	4.47544844064396E-05
2	650	107.058614729703	0.061798095703125	0.061859130859375	-7.6416015625E-07	-4.72702801346259E-08	-80950.484375	4.46882368123624E-05
2	651	107.159322729449	0.051727294921875	0.051727294921875	-1.01348876953125E-06	-5.24250296507489E-08	-51038.84765625	4.4598724343814E-05
2	652	107.260030729194	0.041656494140625	0.041754150390625	-1.28631591796875E-06	-5.37090230068316E-08	-32460.26171875	4.44829202024266E-05
2	653	107.36073872894	0.031585693359375	0.0316375732421875	-1.56097412109375E-06	-4.93854273031502E-08	-20267.83984375	4.43395474576391E-05
2	654	107.461446728686	0.021514892578125	0.0216278076171875	-1.80938720703125E-06	-3.91330772231413E-08	-11953.1123046875	4.41698357462883E-05
2	655	107.562154728432	0.011444091796875	0.011553955078125	-2.00653076171875E-06	-2.31833645614188E-08	-5758.17529296875	4.39776886196341E-05
2	656	107.662862728177	0.001373291015625	0.00147094726562499	-2.13531494140625E-06	-3.14093551168071E-09	-688.86669921875	4.37691305705812E-05
2	657	107.763570727923	-0.008697509765625	-0.0085723876953125	-2.19512939453125E-06	1.88174986703871E-08	3905.185546875	4.35510773968417E-05
2	658	107.864278727669	-0.018768310546875	-0.0186370849609375	-2.19390869140625E-06	4.08880609370499E-08	8494.923828125	4.33300701843109E-05
2	659	107.964986727415	-0.028839111328125	-0.0287322998046875	-2.149658203125E-06	6.17646236378278E-08	13365.9853515625	4.31113548984285E-05
2	660	108.06569472716	-0.038909912109375	-0.038775634765625	-2.07916259765625E-06	8.06208504400274E-08	18649.638671875	4.28984167228919E-05
2	661	108.166402726906	-0.048980712890625	-0.0488494873046875	-1.9964599609375E-06	9.75260476820949E-08	24468.05078125	4.26931910624262E-05
2	662	108.267110726652	-0.059051513671875	-0.058929443359375	-1.9110107421875E-06	1.12614799263611E-07	30836.79296875	4.24964346166234E-05
2	663	108.367818726398	-0.069122314453125	-0.069091796875	-1.8267822265625E-06	1.26215667251017E-07	37821.5859375	4.23082237830386E-05
2	664	108.468526726143	-0.079193115234375	-0.07916259765625	-1.7498779296875E-06	1.3852488223165E-07	45238.92578125	4.21281256421935E-05
2	665	108.569234725889	-0.089263916015625	-0.089263916015625	-1.68060302734375E-06	1.50017200439834E-07	53114.21875	4.19553871324752E-05
2	666	108.669942725635	-0.099334716796875	-0.0992431640625	-1.61865234375E-06	1.60640169610815E-07	61312.21875	4.17892551922705E-05
2	667	108.770650725381	-0.109405517578125	-0.109344482421875	-1.56402587890625E-06	1.71017603634027E-07	69912.1953125	4.16289949498605E-05
2	668	108.871358725126	-0.119476318359375	-0.119384765625	-1.51641845703125E-06	1.81037250968075E-07	78728.1171875	4.14738824474625E-05
2	669	108.972066724872	-0.129547119140625	-0.129425048828125	-1.47430419921875E-06	1.90811888955977E-07	87787.203125	4.1323288314743E-05
2	670	109.072774724618	-0.139617919921875	-0.139556884765625	-1.43707275390625E-06	2.00553387230684E-07	97111.921875	4.11766886827536E-05
2	671	109.173482724363	-0.149688720703125	-0.14959716796875	-1.40533447265625E-06	2.10234048836355E-07	106449.515625	4.10335596825462E-05
2	672	109.274190724109	-0.159759521484375	-0.15966796875	-1.3775634765625E-06	2.19952752900099E-07	115906.078125	4.08934320148546E-05
2	673	109.374898723855	-0.169830322265625	-0.169647216796875	-1.35345458984375E-06	2.29609796065233E-07	125343.859375	4.07559127779678E-05
2	674	109.475606723601	-0.179901123046875	-0.17974853515625	-1.3330078125E-06	2.39606180230112E-07	134844.328125	4.06206381740049E-05
2	675	109.576314723346	-0.189971923828125	-0.18988037109375	-1.31622314453125E-06	2.49924937634205E-07	144261.53125	4.04872407671064E-05
2	676	109.677022723092	-0.200042724609375	-0.199920654296875	-1.30157470703125E-06	2.6021166377177E-07	153599.0625	4.03554222430103E-05
2	677	109.777730722838	-0.189971923828125	-0.1898193359375	-1.1517333984375E-06	2.18621266867558E-07	164811.875	4.02318873966578E-05
