Potential - Start -0.2 V, Upper Vertex 1.5 V, Lower Vertex -0.2 V, Stop -0.19 V; Scan - # end cross 5, Rate 0.1 Vps, Step 0.01 V 
Scan	Index	Time (s)	Potential applied (V)	WE(1).Potential (V)	WE(1).Current (A)	WE(1).Power (W)	WE(1).Resistance (Ω)	WE(1).Charge (C)
1	1	63.9141948386322	-0.189971923828125	-0.189727783203125	-1.94702148437501E-07	3.69404062894318E-08	974451.4375	0
1	2	64.0149028383779	-0.179901123046875	-0.179656982421875	-1.74865722656251E-07	3.14158477010551E-08	1027399.6875	-1.86092190546105E-08
1	3	64.1156108381236	-0.169830322265625	-0.169708251953125	-1.59912109375E-07	2.71384035244182E-08	1061259.625	-3.5466623415914E-08
1	4	64.2163188378694	-0.159759521484375	-0.1595458984375	-1.47705078125E-07	2.35657395819544E-08	1080165.25	-5.09563768957833E-08
1	5	64.3170268376151	-0.149688720703125	-0.1495361328125	-1.36413574218749E-07	2.0398758238116E-08	1096196.875	-6.5262888426787E-08
1	6	64.4177348373609	-0.139617919921875	-0.13946533203125	-1.26953125E-07	1.77055596850551E-08	1098557.75	-7.85244580470135E-08
1	7	64.5184428371066	-0.129547119140625	-0.12939453125	-1.171875E-07	1.51634207412599E-08	1104166.75	-9.08179131897668E-08
1	8	64.6191508368523	-0.119476318359375	-0.119354248046875	-1.080322265625E-07	1.28941053390008E-08	1104802.25	-1.02158629999849E-07
1	9	64.7198588365981	-0.109405517578125	-0.109283447265625	-9.88769531250003E-08	1.08056141812085E-08	1105246.875	-1.12577332345154E-07
1	10	64.8205668363438	-0.099334716796875	-0.099151611328125	-8.91113281249995E-08	8.83553141761695E-09	1112671.25	-1.2204328925236E-07
1	11	64.9212748360895	-0.089263916015625	-0.089111328125	-7.84301757812495E-08	6.98901736484459E-09	1136186.75	-1.30479676840878E-07
1	12	65.0219828358353	-0.079193115234375	-0.079010009765625	-6.50024414062506E-08	5.1358433061921E-09	1215493	-1.37702087954494E-07
1	13	65.122690835581	-0.069122314453125	-0.06903076171875	-4.94384765624994E-08	3.41277561766162E-09	1396296.25	-1.43464646384928E-07
1	14	65.2233988353267	-0.059051513671875	-0.058929443359375	-2.899169921875E-08	1.70846459202068E-09	2032631.625	-1.47413913964556E-07
1	15	65.3241068350725	-0.048980712890625	-0.04879150390625	-1.52587890625E-09	7.44499253912956E-11	31976002	-1.48950590528329E-07
1	16	65.4248148348182	-0.038909912109375	-0.0387237548828125	3.662109375E-08	-1.41810618803362E-09	-1057416.75	-1.47183413901075E-07
1	17	65.525522834564	-0.028839111328125	-0.0286651611328125	8.81958007812503E-08	-2.52814680301583E-09	-325017.3125	-1.40898379186183E-07
1	18	65.6262308343097	-0.018768310546875	-0.0185943603515625	1.5869140625E-07	-2.95076518774806E-09	-117173.078125	-1.28466624005341E-07
1	19	65.7269388340554	-0.008697509765625	-0.00855407714843751	2.54211425781251E-07	-2.17454387829719E-09	-33649.4609375	-1.07675312222E-07
1	20	65.8276468338012	0.001373291015625	0.0015289306640625	3.80859375000001E-07	5.82307535523796E-10	4014.4228515625	-7.56969598114665E-08
1	21	65.9283548335469	0.011444091796875	0.01158447265625	5.43823242187499E-07	6.29990504208422E-09	21301.91015625	-2.9135494017396E-08
1	22	66.0290628332926	0.021514892578125	0.02166748046875	7.44018554687501E-07	1.61210085281027E-08	29122.23046875	3.57124889660554E-08
1	23	66.1297708330384	0.031585693359375	0.0317169189453125	9.7564697265625E-07	3.0944516282716E-08	32508.60546875	1.2230452739459E-07
1	24	66.2304788327841	0.041656494140625	0.041796875	1.22802734375E-06	5.13276994240641E-08	34035.78515625	2.33268337979098E-07
1	25	66.3311868325299	0.051727294921875	0.05181884765625	1.483154296875E-06	7.68553434227215E-08	34938.2734375	3.69787159115731E-07
1	26	66.4318948322756	0.061798095703125	0.061859130859375	1.719970703125E-06	1.06395887655708E-07	35965.22265625	5.31077319010365E-07
1	27	66.5326028320213	0.071868896484375	0.07196044921875	1.9158935546875E-06	1.37868568117483E-07	37559.73046875	7.14157636139134E-07
1	28	66.6333108317671	0.081939697265625	0.08203125	2.0562744140625E-06	1.6867875274329E-07	39893.14453125	9.14172176180728E-07
1	29	66.7340188315128	0.092010498046875	0.092041015625	2.130126953125E-06	1.96059033896745E-07	43209.171875	1.12497423288005E-06
1	30	66.8347268312585	0.102081298828125	0.102142333984375	2.1435546875E-06	2.18947675989511E-07	47650.9140625	1.34017113850859E-06
1	31	66.9354348310043	0.112152099609375	0.112213134765625	2.109375E-06	2.36699577271793E-07	53197.33984375	1.55432314841164E-06
1	32	67.03614283075	0.122222900390625	0.122222900390625	2.04315185546875E-06	2.49719960265793E-07	59820.76171875	1.76341950464121E-06
1	33	67.1368508304957	0.132293701171875	0.13238525390625	1.9598388671875E-06	2.59453742046389E-07	67549.0546875	1.96498604054796E-06
1	34	67.2375588302415	0.142364501953125	0.1424560546875	1.87225341796875E-06	2.66713840346711E-07	76088.0234375	2.15794739233388E-06
1	35	67.3382668299872	0.152435302734375	0.152496337890625	1.785888671875E-06	2.72341480922478E-07	85389.6171875	2.34214940064703E-06
1	36	67.438974829733	0.162506103515625	0.162567138671875	1.70379638671875E-06	2.76981296565282E-07	95414.65625	2.5178690066241E-06
1	37	67.5396828294787	0.172576904296875	0.172637939453125	1.62841796875E-06	2.81126716572544E-07	106015.7421875	2.68565918304375E-06
1	38	67.6403908292244	0.182647705078125	0.18267822265625	1.56097412109375E-06	2.85155977053364E-07	117028.3515625	2.84625798485649E-06
1	39	67.7410988289702	0.192718505859375	0.192779541015625	1.49993896484375E-06	2.89157526367489E-07	128524.9296875	3.00038709610817E-06
1	40	67.8418068287159	0.202789306640625	0.202911376953125	1.44561767578125E-06	2.93332249157174E-07	140363.109375	3.14870771944697E-06
1	41	67.9425148284616	0.212860107421875	0.212921142578125	1.39617919921875E-06	2.97276073979447E-07	152502.734375	3.29180352309777E-06
1	42	68.0432228282074	0.222930908203125	0.222991943359375	1.3519287109375E-06	3.01469185615133E-07	164943.578125	3.43018177773047E-06
1	43	68.1439308279531	0.233001708984375	0.233001708984375	1.312255859375E-06	3.05757851037924E-07	177558.15625	3.56433406523138E-06
1	44	68.2446388276989	0.243072509765625	0.243133544921875	1.27655029296875E-06	3.10372200829079E-07	190461.390625	3.69469080396811E-06
1	45	68.3453468274446	0.253143310546875	0.253173828125	1.243896484375E-06	3.14922033339826E-07	203532.875	3.82160533263232E-06
1	46	68.4460548271903	0.263214111328125	0.26324462890625	1.21429443359375E-06	3.19656493275033E-07	216788.140625	3.94538528780686E-06
1	47	68.5467628269361	0.273284912109375	0.2733154296875	1.18743896484375E-06	3.24545368357576E-07	230172.203125	4.06632216254366E-06
1	48	68.6474708266818	0.283355712890625	0.283355712890625	1.1627197265625E-06	3.29463290427157E-07	243700.78125	4.18466197515954E-06
1	49	68.7481788264275	0.293426513671875	0.29345703125	1.13922119140625E-06	3.34312460381625E-07	257594.4375	4.30057389166905E-06
1	50	68.8488868261733	0.303497314453125	0.303558349609375	1.11907958984375E-06	3.39705934493395E-07	271257.15625	4.41428846897907E-06
1	51	68.949594825919	0.313568115234375	0.313629150390625	1.09954833984375E-06	3.44850406008845E-07	285234.53125	4.52600488642929E-06
1	52	69.0503028256647	0.323638916015625	0.32366943359375	1.08154296875E-06	3.50062379084193E-07	299266.375	4.63583182863658E-06
1	53	69.1510108254105	0.333709716796875	0.333770751953125	1.06536865234375E-06	3.55588895217807E-07	313291.3125	4.74393755212077E-06
1	54	69.2517188251562	0.343780517578125	0.34381103515625	1.05010986328125E-06	3.61039354856985E-07	327404.8125	4.85046030007652E-06
1	55	69.352426824902	0.353851318359375	0.353851318359375	1.036376953125E-06	3.66723355682552E-07	341431.09375	4.95552330903593E-06
1	56	69.4531348246477	0.363922119140625	0.363983154296875	1.024169921875E-06	3.7278059039636E-07	355393.3125	5.05927982885623E-06
1	57	69.5538428243934	0.373992919921875	0.3740234375	1.011962890625E-06	3.78497816200252E-07	369601.96875	5.1618071665871E-06
1	58	69.6545508241392	0.384063720703125	0.384063720703125	1.00189208984375E-06	3.84790411089853E-07	383338.40625	5.26321309735067E-06
1	59	69.7552588238849	0.394134521484375	0.39422607421875	9.92431640625E-07	3.91242423347649E-07	397232.46875	5.36363495484693E-06
1	60	69.8559668236306	0.404205322265625	0.40423583984375	9.83581542968751E-07	3.97598910240049E-07	410983.53125	5.46313549421029E-06
1	61	69.9566748233764	0.414276123046875	0.414306640625	9.7625732421875E-07	4.04469886916559E-07	424382.625	5.56182112632087E-06
1	62	70.0573828231221	0.424346923828125	0.424346923828125	9.6954345703125E-07	4.11422774959647E-07	437677.0625	5.65980008104816E-06
1	63	70.1580908228678	0.434417724609375	0.4344482421875	9.63439941406249E-07	4.18564781057285E-07	450934.4375	5.7571332945372E-06
1	64	70.2587988226136	0.444488525390625	0.444549560546875	9.5855712890625E-07	4.26126121055859E-07	463769.53125	5.85391353524756E-06
1	65	70.3595068223593	0.454559326171875	0.45458984375	9.5489501953125E-07	4.34085563938424E-07	476062.65625	5.95026358496398E-06
1	66	70.4602148221051	0.464630126953125	0.464630126953125	9.5062255859375E-07	4.41687859620288E-07	488764.0625	6.04621391175897E-06
1	67	70.5609228218508	0.474700927734375	0.47467041015625	9.47265625E-07	4.49638946520281E-07	501095.375	6.14178043178981E-06
1	68	70.6616308215965	0.484771728515625	0.4847412109375	9.4451904296875E-07	4.57847278312329E-07	513214.875	6.2370390878641E-06
1	69	70.7623388213423	0.494842529296875	0.49481201171875	9.4268798828125E-07	4.66453315084436E-07	524894.8125	6.33206764177885E-06
1	70	70.863046821088	0.504913330078125	0.504852294921875	9.417724609375E-07	4.75455976811645E-07	536066.125	6.42695749775157E-06
1	71	70.9637548208337	0.514984130859375	0.514984130859375	9.40856933593751E-07	4.84526367472427E-07	547356.5	6.52175549475942E-06
1	72	71.0644628205795	0.525054931640625	0.525054931640625	9.41162109375E-07	4.94161781716684E-07	557879.375	6.6165225689474E-06
1	73	71.1651708203252	0.535125732421875	0.53515625	9.4268798828125E-07	5.04485342389671E-07	567691.8125	6.71138195684762E-06
1	74	71.265878820071	0.545196533203125	0.545196533203125	9.43603515624999E-07	5.14449368438363E-07	577781.375	6.80636458127992E-06
1	75	71.3665868198167	0.555267333984375	0.5552978515625	9.478759765625E-07	5.26353460372775E-07	585833.875	6.90160823069164E-06
1	76	71.4672948195624	0.565338134765625	0.565338134765625	9.527587890625E-07	5.38630843038845E-07	593369.6875	6.9973125391698E-06
1	77	71.5680028193082	0.575408935546875	0.575408935546875	9.5855712890625E-07	5.51562266082328E-07	600286.5625	7.09355481376406E-06
1	78	71.6687108190539	0.585479736328125	0.585479736328125	9.66491699218749E-07	5.65861284940183E-07	605778.3125	7.19048875907902E-06
1	79	71.7694188187996	0.595550537109375	0.5955810546875	9.783935546875E-07	5.82712686991727E-07	608733.625	7.28842178432387E-06
1	80	71.8701268185454	0.605621337890625	0.605682373046875	9.93957519531249E-07	6.02022566909E-07	609364.4375	7.38773724151542E-06
1	81	71.9708348182911	0.615692138671875	0.615692138671875	1.01409912109375E-06	6.24372830770881E-07	607132.125	7.48885122447973E-06
1	82	72.0715428180368	0.625762939453125	0.625732421875	1.04248046875E-06	6.52313815407979E-07	600234.1875	7.592408110213E-06
1	83	72.1722508177826	0.635833740234375	0.635833740234375	1.080322265625E-06	6.86905309521535E-07	588559.3125	7.69930011301767E-06
1	84	72.2729588175283	0.645904541015625	0.64593505859375	1.1334228515625E-06	7.32117541701882E-07	569897.6875	7.81077051215107E-06
1	85	72.3736668172741	0.655975341796875	0.65594482421875	1.2042236328125E-06	7.89904277098685E-07	544703.5	7.92848095443333E-06
1	86	72.4743748170198	0.666046142578125	0.665985107421875	1.29974365234375E-06	8.65609933953237E-07	512397.28125	8.05456511443481E-06
1	87	72.5750828167655	0.676116943359375	0.676025390625	1.4190673828125E-06	9.59325575422554E-07	476387.125	8.19146862340858E-06
1	88	72.6757908165113	0.686187744140625	0.686126708984375	1.563720703125E-06	1.07291043605073E-06	438778.3125	8.34166348795407E-06
1	89	72.776498816257	0.696258544921875	0.696197509765625	1.7266845703125E-06	1.20211348075827E-06	403199	8.50734886626014E-06
1	90	72.8772068160027	0.706329345703125	0.706298828125	1.89788818359375E-06	1.3404761602942E-06	372149.875	8.68986080604373E-06
1	91	72.9779148157485	0.716400146484375	0.71630859375	2.06207275390625E-06	1.47708044551109E-06	347373.09375	8.88926024344983E-06
1	92	73.0786228154942	0.726470947265625	0.726409912109375	2.2052001953125E-06	1.60187926212529E-06	329407.6875	9.10413473320659E-06
1	93	73.17933081524	0.736541748046875	0.736541748046875	2.313232421875E-06	1.70379223618511E-06	318403.6875	9.33165574679151E-06
1	94	73.2800388149857	0.746612548828125	0.746490478515625	2.38189697265625E-06	1.77806327883445E-06	313401.6875	9.56807434704388E-06
1	95	73.3807468147314	0.756683349609375	0.7568359375	2.40875244140625E-06	1.82303040219267E-06	314202.46875	9.80930235527921E-06
1	96	73.4814548144772	0.766754150390625	0.76690673828125	2.4041748046875E-06	1.84377779532952E-06	318989.625	1.00516526799765E-05
1	97	73.5821628142229	0.776824951171875	0.77728271484375	2.376708984375E-06	1.84737473318819E-06	327041.625	1.02923895610729E-05
1	98	73.6828708139686	0.786895751953125	0.7867431640625	2.3382568359375E-06	1.83960753474821E-06	336465.6875	1.05298067865078E-05
1	99	73.7835788137144	0.796966552734375	0.79681396484375	2.29766845703125E-06	1.83081419891096E-06	346792.4375	1.07632440631278E-05
1	100	73.8842868134601	0.807037353515625	0.80718994140625	2.26104736328125E-06	1.82509461410518E-06	356998.25	1.09927932498977E-05
1	101	73.9849948132058	0.817108154296875	0.8172607421875	2.23419189453125E-06	1.82591736574977E-06	365797.03125	1.12191464722855E-05
1	102	74.0857028129516	0.827178955078125	0.82733154296875	2.22015380859375E-06	1.83680310783529E-06	372646.0625	1.14434405986685E-05
1	103	74.1864108126973	0.837249755859375	0.83770751953125	2.22137451171875E-06	1.86086208486813E-06	377112.25	1.1667089893308E-05
1	104	74.2871188124431	0.847320556640625	0.84808349609375	2.23876953125E-06	1.89866341315792E-06	378816.8125	1.18916759674903E-05
1	105	74.3878268121888	0.857391357421875	0.8575439453125	2.27264404296875E-06	1.94889207705273E-06	377333.15625	1.21188431876362E-05
1	106	74.4885348119345	0.867462158203125	0.86761474609375	2.3193359375E-06	2.01228999685554E-06	374078.96875	1.23500676636468E-05
1	107	74.5892428116803	0.877532958984375	0.877685546875	2.37213134765625E-06	2.0819854853471E-06	369998.71875	1.25863025459694E-05
1	108	74.689950811426	0.887603759765625	0.887451171875	2.42340087890625E-06	2.15065006159421E-06	366200.71875	1.28277761177742E-05
1	109	74.7906588111717	0.897674560546875	0.89813232421875	2.46490478515625E-06	2.21381060327985E-06	364367.96875	1.3073921763862E-05
1	110	74.8913668109175	0.907745361328125	0.90728759765625	2.49176025390625E-06	2.26074303100177E-06	364115.15625	1.33235098473961E-05
1	111	74.9920748106632	0.917816162109375	0.91766357421875	2.50030517578125E-06	2.29443890020775E-06	367020.65625	1.35748805405456E-05
1	112	75.0927828104089	0.927886962890625	0.92803955078125	2.49298095703125E-06	2.31358490054845E-06	372261	1.38263121698401E-05
1	113	75.1934908101547	0.937957763671875	0.9381103515625	2.4755859375E-06	2.32237266573065E-06	378944.78125	1.40764996103826E-05
1	114	75.2941988099004	0.948028564453125	0.948486328125	2.451171875E-06	2.32490310736466E-06	386952.1875	1.43245815706905E-05
1	115	75.3949068096462	0.958099365234375	0.958251953125	2.42462158203125E-06	2.32339834838058E-06	395217.125	1.457009693695E-05
1	116	75.4956148093919	0.968170166015625	0.9686279296875	2.40081787109375E-06	2.325499053768E-06	403457.5	1.48130775414756E-05
1	117	75.5963228091376	0.978240966796875	0.9783935546875	2.3809814453125E-06	2.32953675549652E-06	410920.28125	1.50538598973071E-05
1	118	75.6970308088834	0.988311767578125	0.9881591796875	2.366943359375E-06	2.33891682910325E-06	417483.25	1.52929369505728E-05
1	119	75.7977388086291	0.998382568359375	0.99822998046875	2.36175537109375E-06	2.35757511291013E-06	422664.4375	1.55310463014757E-05
1	120	75.8984468083748	1.00845336914063	1.00860595703125	2.36297607421875E-06	2.38331153923355E-06	426837.15625	1.57689555635443E-05
1	121	75.9991548081206	1.01852416992188	1.01837158203125	2.371826171875E-06	2.4154003313015E-06	429361.8125	1.60073723236565E-05
1	122	76.0998628078663	1.02859497070313	1.0284423828125	2.3858642578125E-06	2.45372393692378E-06	431056.53125	1.62469405040611E-05
1	123	76.2005708076121	1.03866577148438	1.03851318359375	2.4029541015625E-06	2.49549952968664E-06	432181.875	1.64880766533315E-05
1	124	76.3012788073578	1.04873657226563	1.048583984375	2.4188232421875E-06	2.53633925240138E-06	433509.96875	1.6730871720938E-05
1	125	76.4019868071035	1.05880737304688	1.0589599609375	2.43194580078125E-06	2.57533315561886E-06	435437.34375	1.69751274370356E-05
1	126	76.5026948068493	1.06887817382813	1.06903076171875	2.4365234375E-06	2.6047184746858E-06	438752.53125	1.72202744579408E-05
1	127	76.603402806595	1.07894897460938	1.0791015625	2.4334716796875E-06	2.62596290667716E-06	443441.21875	1.74654978764011E-05
1	128	76.7041108063407	1.08901977539063	1.0888671875	2.42279052734375E-06	2.63809693024086E-06	449426.90625	1.77100300788879E-05
1	129	76.8048188060865	1.09909057617188	1.09893798828125	2.40631103515625E-06	2.64438654085097E-06	456689.90625	1.79531944013434E-05
1	130	76.9055268058322	1.10916137695313	1.10870361328125	2.38677978515625E-06	2.64623122347984E-06	464518.625	1.81945470103528E-05
1	131	77.0062348055779	1.11923217773438	1.119384765625	2.36541748046875E-06	2.64781238001888E-06	473229.25	1.84338387043681E-05
1	132	77.1069428053237	1.12930297851563	1.129150390625	2.3443603515625E-06	2.64713548858708E-06	481645.40625	1.86709949048236E-05
1	133	77.2076508050694	1.13937377929688	1.1395263671875	2.32452392578125E-06	2.64885625256284E-06	490219.25	1.89060920092743E-05
1	134	77.3083588048152	1.14944458007813	1.14959716796875	2.30560302734375E-06	2.65051471615152E-06	498610.21875	1.9139237338095E-05
1	135	77.4090668045609	1.15951538085938	1.15936279296875	2.288818359375E-06	2.65357061834948E-06	506533.375	1.9370585505385E-05
1	136	77.5097748043066	1.16958618164063	1.16973876953125	2.27386474609375E-06	2.659827714524E-06	514427.59375	1.96003347809892E-05
1	137	77.6104828040524	1.17965698242188	1.17950439453125	2.2613525390625E-06	2.66727511188947E-06	521592.46875	1.98286998056574E-05
1	138	77.7111908037981	1.18972778320313	1.18988037109375	2.25067138671875E-06	2.67802965936426E-06	528678	2.00558988581179E-05
1	139	77.8118988035438	1.19979858398438	1.199951171875	2.242431640625E-06	2.69080828729784E-06	535111.625	2.02821447601309E-05
1	140	77.9126068032896	1.20986938476563	1.209716796875	2.23602294921875E-06	2.70495456788922E-06	541012.6875	2.05076521524461E-05
1	141	78.0133148030353	1.21994018554688	1.22039794921875	2.2320556640625E-06	2.72399597633921E-06	546759.6875	2.07326374948025E-05
1	142	78.1140228027811	1.23001098632813	1.22955322265625	2.230224609375E-06	2.74217973128543E-06	551313.6875	2.09573317988543E-05
1	143	78.2147308025268	1.24008178710938	1.2396240234375	2.230224609375E-06	2.76463993031939E-06	555829.25	2.11819333344465E-05
1	144	78.3154388022725	1.25015258789063	1.25	2.23388671875E-06	2.79235814559797E-06	559562.875	2.14067185879685E-05
1	145	78.4161468020183	1.26022338867188	1.2603759765625	2.2406005859375E-06	2.8239990115253E-06	562517.0625	2.16320277104387E-05
1	146	78.516854801764	1.27029418945313	1.27044677734375	2.249755859375E-06	2.85819510281726E-06	564704.25	2.18581353692571E-05
1	147	78.6175628015097	1.28036499023438	1.2799072265625	2.261962890625E-06	2.89510262518888E-06	565839.1875	2.20853180508129E-05
1	148	78.7182708012555	1.29043579101563	1.290283203125	2.27691650390625E-06	2.93786683869257E-06	566680.125	2.23138686124003E-05
1	149	78.8189788010012	1.30050659179688	1.30035400390625	2.29400634765625E-06	2.98302006740414E-06	566848.5	2.25440326175885E-05
1	150	78.9196868007469	1.31057739257813	1.31072998046875	2.31414794921875E-06	3.03322303807363E-06	566398.5625	2.27760720008519E-05
1	151	79.0203948004927	1.32064819335938	1.32080078125	2.333984375E-06	3.08272842630686E-06	565899.5625	2.30101231863955E-05
1	152	79.1211028002384	1.33071899414063	1.33087158203125	2.35595703125E-06	3.13547616315191E-06	564896.375	2.32462807616685E-05
1	153	79.2218107999842	1.34078979492188	1.34063720703125	2.37945556640625E-06	3.18998650072899E-06	563421.8125	2.34847284446005E-05
1	154	79.3225187997299	1.35086059570313	1.35101318359375	2.40631103515625E-06	3.25095788866747E-06	561445.75	2.37257099797716E-05
1	155	79.4232267994756	1.36093139648438	1.36077880859375	2.43743896484375E-06	3.31681530951755E-06	558282.1875	2.39696128119249E-05
1	156	79.5239347992214	1.37100219726563	1.3714599609375	2.4737548828125E-06	3.39265579896164E-06	554404.125	2.42169116972946E-05
1	157	79.6246427989671	1.38107299804688	1.38092041015625	2.5152587890625E-06	3.47337208950194E-06	549017.25	2.44681286858395E-05
1	158	79.7253507987128	1.39114379882813	1.39129638671875	2.56439208984375E-06	3.56782925337029E-06	542544.375	2.47239095187979E-05
1	159	79.8260587984586	1.40121459960938	1.4013671875	2.6214599609375E-06	3.67362804354343E-06	534575.0625	2.49850363616133E-05
1	160	79.9267667982043	1.41128540039063	1.4111328125	2.6898193359375E-06	3.79569223696308E-06	524619.9375	2.52524805546273E-05
1	161	80.02747479795	1.42135620117188	1.4215087890625	2.7703857421875E-06	3.93812752008671E-06	513108.625	2.5527424440952E-05
1	162	80.1281827976958	1.43142700195313	1.4312744140625	2.8662109375E-06	4.10233451475506E-06	499361.15625	2.58112486335449E-05
1	163	80.2288907974415	1.44149780273438	1.441650390625	2.98126220703125E-06	4.29793772127596E-06	483570.46875	2.61056939052651E-05
1	164	80.3295987971873	1.45156860351563	1.451416015625	3.121337890625E-06	4.53035954706138E-06	464998.0625	2.64129830611637E-05
1	165	80.430306796933	1.46163940429688	1.4617919921875	3.287353515625E-06	4.80542666991823E-06	444671.375	2.67356863332679E-05
1	166	80.5310147966787	1.47171020507813	1.47186279296875	3.4814453125E-06	5.1242095651105E-06	422773.5	2.70765231107362E-05
1	167	80.6317227964245	1.48178100585938	1.48193359375	3.7030029296875E-06	5.48760453966679E-06	400197.78125	2.74382891802816E-05
1	168	80.7324307961702	1.49185180664063	1.49200439453125	3.95050048828125E-06	5.89416367802187E-06	377674.8125	2.78236730082426E-05
1	169	80.8331387959159	1.50192260742188	1.5020751953125	4.22088623046875E-06	6.34008847555378E-06	355867.25	2.82351356872823E-05
1	170	80.9338467956617	1.49185180664063	1.49169921875	3.70697021484375E-06	5.52968458578107E-06	402403.90625	2.86343347397633E-05
1	171	81.0345547954074	1.48178100585938	1.4813232421875	3.31695556640625E-06	4.91348328068852E-06	446591.25	2.89880172203993E-05
1	172	81.1352627951532	1.47171020507813	1.47216796875	3.00628662109375E-06	4.42575856141048E-06	489696.5	2.93064167635748E-05
1	173	81.2359707948989	1.46163940429688	1.4617919921875	2.755126953125E-06	4.02742216465413E-06	530571.5625	2.95965273835463E-05
1	174	81.3366787946446	1.45156860351563	1.4520263671875	2.54913330078125E-06	3.70140878658276E-06	569615.6875	2.9863618692616E-05
1	175	81.4373867943904	1.44149780273438	1.4410400390625	2.3779296875E-06	3.42669181918609E-06	606006.1875	3.01117161143338E-05
1	176	81.5380947941361	1.43142700195313	1.43157958984375	2.236328125E-06	3.2014816042647E-06	640147.375	3.03440629068064E-05
1	177	81.6388027938818	1.42135620117188	1.42120361328125	2.11761474609375E-06	3.0095616239123E-06	671134.1875	3.05633002426475E-05
1	178	81.7395107936276	1.41128540039063	1.4111328125	2.017822265625E-06	2.84741508949082E-06	699334.5625	3.07715381495655E-05
1	179	81.8402187933733	1.40121459960938	1.40106201171875	1.93267822265625E-06	2.70780174105312E-06	724932.9375	3.09704591927584E-05
1	180	81.940926793119	1.39114379882813	1.39129638671875	1.8609619140625E-06	2.58914951700717E-06	747622.1875	3.116148582194E-05
1	181	82.0416347928648	1.38107299804688	1.38092041015625	1.7974853515625E-06	2.48218407250533E-06	768251.3125	3.13457021547947E-05
1	182	82.1423427926105	1.37100219726563	1.370849609375	1.741943359375E-06	2.38794223150762E-06	786965.6875	3.15239267365541E-05
1	183	82.2430507923563	1.36093139648438	1.361083984375	1.69189453125E-06	2.30281034419022E-06	804473.3125	3.16968325932976E-05
1	184	82.343758792102	1.35086059570313	1.35009765625	1.64703369140625E-06	2.2236563381739E-06	819714.6875	3.18649617838673E-05
1	185	82.4444667918477	1.34078979492188	1.34124755859375	1.6046142578125E-06	2.15218483390345E-06	835869.1875	3.20286962960381E-05
1	186	82.5451747915935	1.33071899414063	1.33056640625	1.56463623046875E-06	2.08185224437329E-06	850399.875	3.218827987439E-05
1	187	82.6458827913392	1.32064819335938	1.32049560546875	1.5264892578125E-06	2.01572220248636E-06	865054	3.23439307976514E-05
1	188	82.7465907910849	1.31057739257813	1.31103515625	1.490478515625E-06	1.95406960301625E-06	879606.9375	3.24958455166779E-05
1	189	82.8472987908307	1.30050659179688	1.30035400390625	1.45751953125E-06	1.89529134786426E-06	892169.1875	3.26442896039225E-05
1	190	82.9480067905764	1.29043579101563	1.290283203125	1.42791748046875E-06	1.84241798706353E-06	903611.875	3.27895832015201E-05
1	191	83.0487147903222	1.28036499023438	1.28021240234375	1.40228271484375E-06	1.79521964582818E-06	912948.875	3.29320973833092E-05
1	192	83.1494227900679	1.27029418945313	1.27044677734375	1.3818359375E-06	1.75554896486574E-06	919390.5	3.30722868966404E-05
1	193	83.2501307898136	1.26022338867188	1.259765625	1.3641357421875E-06	1.71849137586833E-06	923489.9375	3.32105591951404E-05
1	194	83.3508387895594	1.25015258789063	1.25030517578125	1.35040283203125E-06	1.68841563663591E-06	925875.6875	3.33472453348804E-05
1	195	83.4515467893051	1.24008178710938	1.23992919921875	1.33880615234375E-06	1.66002473633853E-06	926145.4375	3.3482658182038E-05
1	196	83.5522547890508	1.23001098632813	1.23046875	1.3287353515625E-06	1.63496724780998E-06	926045.0625	3.36169796355534E-05
1	197	83.6529627887966	1.21994018554688	1.21978759765625	1.319580078125E-06	1.6096073522931E-06	924375.5625	3.37503333867062E-05
1	198	83.7536707885423	1.20986938476563	1.21002197265625	1.31072998046875E-06	1.58601210387133E-06	923166.4375	3.3882781281136E-05
1	199	83.854378788288	1.19979858398438	1.19964599609375	1.30218505859375E-06	1.56216106006468E-06	921256.125	3.40143487846944E-05
1	200	83.9550867880338	1.18972778320313	1.1895751953125	1.2933349609375E-06	1.53851908635261E-06	919773.5	3.4145046811318E-05
1	201	84.0557947877795	1.17965698242188	1.17919921875	1.28387451171875E-06	1.51394374370284E-06	918469.25	3.42748171533458E-05
1	202	84.1565027875253	1.16958618164063	1.1700439453125	1.2744140625E-06	1.4911204289092E-06	918103.5	3.44036379829049E-05
1	203	84.257210787271	1.15951538085938	1.15966796875	1.263427734375E-06	1.46515674259717E-06	917874.375	3.45314292644616E-05
1	204	84.3579187870167	1.14944458007813	1.14959716796875	1.2518310546875E-06	1.43910142469394E-06	918332.5625	3.46580818586517E-05
1	205	84.4586267867625	1.13937377929688	1.13922119140625	1.2384033203125E-06	1.41081534366094E-06	919911.25	3.47834757121745E-05
1	206	84.5593347865082	1.12930297851563	1.12945556640625	1.2237548828125E-06	1.382176833431E-06	922942.625	3.49074543919414E-05
1	207	84.6600427862539	1.11923217773438	1.1187744140625	1.20513916015625E-06	1.34827882902755E-06	928336.3125	3.5029759601457E-05
1	208	84.7607507859997	1.10916137695313	1.1090087890625	1.18408203125E-06	1.31315732687654E-06	936598	3.51500675606076E-05
1	209	84.8614587857454	1.09909057617188	1.0992431640625	1.15692138671875E-06	1.27173791497626E-06	950145.0625	3.5267945349915E-05
1	210	84.9621667854911	1.08901977539063	1.08917236328125	1.12457275390625E-06	1.22485346309986E-06	968521.0625	3.53828290826641E-05
1	211	85.0628747852369	1.07894897460938	1.07879638671875	1.08551025390625E-06	1.17104457331152E-06	993815	3.5494114854373E-05
1	212	85.1635827849826	1.06887817382813	1.06903076171875	1.04034423828125E-06	1.11215990727942E-06	1027574.125	3.56011587427929E-05
1	213	85.2642907847284	1.05880737304688	1.0589599609375	9.9090576171875E-07	1.04932951217052E-06	1068678.75	3.57034405169543E-05
1	214	85.3649987844741	1.04873657226563	1.04888916015625	9.39331054687501E-07	9.85254132501723E-07	1116634.25	3.58006363967434E-05
1	215	85.4657067842198	1.03866577148438	1.038818359375	8.90502929687501E-07	9.2507076487891E-07	1166552.5	3.58927754859906E-05
1	216	85.5664147839656	1.02859497070313	1.0284423828125	8.47778320312501E-07	8.71891131737357E-07	1213103	3.59803052560892E-05
1	217	85.6671227837113	1.01852416992188	1.0186767578125	8.13903808593749E-07	8.29104862987151E-07	1251593.625	3.60639787686523E-05
1	218	85.767830783457	1.00845336914063	1.00860595703125	7.8857421875E-07	7.95360620031715E-07	1279024.75	3.61446691385936E-05
1	219	85.8685387832028	0.998382568359375	0.99853515625	7.70263671875E-07	7.69135283462674E-07	1296355.125	3.62231621693354E-05
1	220	85.9692467829485	0.988311767578125	0.98846435546875	7.568359375E-07	7.48105321690673E-07	1306048.5	3.63000581273809E-05
1	221	86.0699547826943	0.978240966796875	0.9783935546875	7.45849609375E-07	7.29734438209562E-07	1311784	3.63757244485896E-05
1	222	86.17066278244	0.968170166015625	0.96832275390625	7.34863281250001E-07	7.11584789314657E-07	1317691.125	3.6450284824241E-05
1	223	86.2713707821857	0.958099365234375	0.9576416015625	7.2021484375E-07	6.89707690071373E-07	1329661.125	3.65235537174158E-05
1	224	86.3720787819315	0.948028564453125	0.948486328125	6.9854736328125E-07	6.62562626985164E-07	1357798.125	3.65949927072506E-05
1	225	86.4727867816772	0.937957763671875	0.93780517578125	6.6680908203125E-07	6.25337008841598E-07	1406407.375	3.66637432307471E-05
1	226	86.5734947814229	0.927886962890625	0.927734375	6.21948242187501E-07	5.77002765567158E-07	1491658.5	3.6728637496708E-05
1	227	86.6742027811687	0.917816162109375	0.91827392578125	5.62744140625E-07	5.16753232204792E-07	1631778.875	3.67882930731867E-05
1	228	86.7749107809144	0.907745361328125	0.90789794921875	4.8828125E-07	4.43309517095258E-07	1859375.125	3.68412147508934E-05
1	229	86.8756187806601	0.897674560546875	0.8978271484375	4.0130615234375E-07	3.60303545221541E-07	2237262.25	3.68860091839451E-05
1	230	86.9763267804059	0.887603759765625	0.88775634765625	3.0670166015625E-07	2.72276338364463E-07	2894527.5	3.69216613762546E-05
1	231	87.0770347801516	0.877532958984375	0.8770751953125	2.13623046875E-07	1.87363468739932E-07	4105714.5	3.69478620996233E-05
1	232	87.1777427798974	0.867462158203125	0.8673095703125	1.3153076171875E-07	1.14077884916242E-07	6593968	3.69652407243848E-05
1	233	87.2784507796431	0.857391357421875	0.85723876953125	6.80541992187506E-08	5.83386992047963E-08	12596413	3.69752924598288E-05
1	234	87.3791587793888	0.847320556640625	0.84747314453125	2.83813476562506E-08	2.4052429381527E-08	29860216	3.69801455235574E-05
1	235	87.4798667791346	0.837249755859375	0.83740234375	8.85009765625028E-09	7.41109262847317E-09	94620688	3.69820227206219E-05
1	236	87.5805747788803	0.827178955078125	0.82733154296875	7.93457031249972E-09	6.56452048275469E-09	104269232	3.69828667317051E-05
1	237	87.681282778626	0.817108154296875	0.8172607421875	1.8310546875E-08	1.49644900915291E-08	44633336	3.69841873180121E-05
1	238	87.7819907783718	0.807037353515625	0.806884765625	3.17382812500003E-08	2.56091361450217E-08	25423076	3.69867084373254E-05
1	239	87.8826987781175	0.796966552734375	0.797119140625	3.96728515625E-08	3.1623990537355E-08	20092308	3.69903027603868E-05
1	240	87.9834067778633	0.786895751953125	0.78704833984375	3.69262695312497E-08	2.90627593102499E-08	21314050	3.69941626559012E-05
1	241	88.084114777609	0.776824951171875	0.7763671875	1.52587890625E-08	1.18464225096204E-08	50880004	3.69967892765999E-05
1	242	88.1848227773547	0.766754150390625	0.76690673828125	-3.08227539062497E-08	-2.36381776375083E-08	-24881188	3.69960071111564E-05
1	243	88.2855307771005	0.756683349609375	0.75653076171875	-1.03759765625E-07	-7.84974503176272E-08	-7291177	3.69892295566387E-05
1	244	88.3862387768462	0.746612548828125	0.74652099609375	-2.0721435546875E-07	-1.54689871578739E-07	-3602651	3.6973571695853E-05
1	245	88.4869467765919	0.736541748046875	0.7364501953125	-3.4027099609375E-07	-2.50592620432144E-07	-2164305	3.69460030924529E-05
1	246	88.5876547763377	0.726470947265625	0.726409912109375	-4.94995117187499E-07	-3.59569355623535E-07	-1467509.25	3.69039444194641E-05
1	247	88.6883627760834	0.716400146484375	0.716339111328125	-6.61621093750001E-07	-4.73945050316615E-07	-1082703	3.68457040167414E-05
1	248	88.7890707758291	0.706329345703125	0.706329345703125	-8.2244873046875E-07	-5.809196750306E-07	-858812.625	3.67709726560861E-05
1	249	88.8897787755749	0.696258544921875	0.696197509765625	-9.6160888671875E-07	-6.6946967081094E-07	-723992.375	3.66811400454026E-05
1	250	88.9904867753206	0.686187744140625	0.686065673828125	-1.0626220703125E-06	-7.29028499790729E-07	-645634.75	3.65792111551855E-05
1	251	89.0911947750664	0.676116943359375	0.676116943359375	-1.11907958984375E-06	-7.56628651288338E-07	-604172.375	3.64693551091477E-05
1	252	89.1919027748121	0.666046142578125	0.666046142578125	-1.131591796875E-06	-7.53692290800245E-07	-588592.25	3.63560247933492E-05
1	253	89.2926107745578	0.655975341796875	0.65594482421875	-1.1083984375E-06	-7.27048245607875E-07	-591795.125	3.62432292604353E-05
1	254	89.3933187743036	0.645904541015625	0.645904541015625	-1.0595703125E-06	-6.84381291193858E-07	-609591	3.61340644303709E-05
1	255	89.4940267740493	0.635833740234375	0.635833740234375	-9.9639892578125E-07	-6.33544004813302E-07	-638131.75	3.60305384674575E-05
1	256	89.594734773795	0.625762939453125	0.625732421875	-9.2681884765625E-07	-5.79940603984141E-07	-675139.9375	3.59336954716127E-05
1	257	89.6954427735408	0.615692138671875	0.61566162109375	-8.5784912109375E-07	-5.28144767031336E-07	-717680.5625	3.58438337570988E-05
1	258	89.7961507732865	0.605621337890625	0.6055908203125	-7.904052734375E-07	-4.7866217300907E-07	-766177.625	3.57608369085938E-05
1	259	89.8968587730322	0.595550537109375	0.595489501953125	-7.275390625E-07	-4.33241865493983E-07	-818498.375	3.56844029738568E-05
1	260	89.997566772778	0.585479736328125	0.58544921875	-6.70776367187501E-07	-3.92705487683997E-07	-872793.5	3.56139898940455E-05
1	261	90.0982747725237	0.575408935546875	0.575408935546875	-6.18591308593749E-07	-3.55942944452181E-07	-930192.4375	3.55490665242542E-05
1	262	90.1989827722695	0.565338134765625	0.56536865234375	-5.7098388671875E-07	-3.22816390507796E-07	-990165.6875	3.54891672031954E-05
1	263	90.2996907720152	0.555267333984375	0.5552978515625	-5.28564453124999E-07	-2.93510709070688E-07	-1050577.375	3.54338008037303E-05
1	264	90.4003987717609	0.545196533203125	0.545135498046875	-4.89501953125E-07	-2.66844864427185E-07	-1113653.375	3.53825344063807E-05
1	265	90.5011067715067	0.535125732421875	0.53509521484375	-4.5318603515625E-07	-2.42497691260724E-07	-1180740.75	3.53350660589058E-05
1	266	90.6018147712524	0.525054931640625	0.52508544921875	-4.2083740234375E-07	-2.20975579168226E-07	-1247715.75	3.52910574292764E-05
1	267	90.7025227709981	0.514984130859375	0.515045166015625	-3.91235351562499E-07	-2.0150388024831E-07	-1316458.625	3.52501665474847E-05
1	268	90.8032307707439	0.504913330078125	0.504913330078125	-3.63769531249999E-07	-1.83672071329966E-07	-1388003.375	3.52121496689506E-05
1	269	90.9039387704896	0.494842529296875	0.494842529296875	-3.38134765625001E-07	-1.67323463529101E-07	-1463447.75	3.51768030668609E-05
1	270	91.0046467702354	0.484771728515625	0.4847412109375	-3.14941406249999E-07	-1.52665066366353E-07	-1539147.375	3.51439193764236E-05
1	271	91.1053547699811	0.474700927734375	0.474700927734375	-2.9266357421875E-07	-1.38927674697698E-07	-1622002.125	3.51133239746559E-05
1	272	91.2060627697268	0.464630126953125	0.464630126953125	-2.7130126953125E-07	-1.26054743532222E-07	-1712598.375	3.50849259120878E-05
1	273	91.3067707694726	0.454559326171875	0.454620361328125	-2.52685546875001E-07	-1.14875987833329E-07	-1799154.625	3.50585396517999E-05
1	274	91.4074787692183	0.444488525390625	0.444549560546875	-2.349853515625E-07	-1.04462635874825E-07	-1891818.25	3.50339869328309E-05
1	275	91.508186768964	0.434417724609375	0.4344482421875	-2.1820068359375E-07	-9.47969027720319E-08	-1991049	3.5011165891774E-05
1	276	91.6088947687098	0.424346923828125	0.42437744140625	-2.02026367187499E-07	-8.57354294225843E-08	-2100604.25	3.49900037690531E-05
1	277	91.7096027684555	0.414276123046875	0.414306640625	-1.861572265625E-07	-7.71261738918838E-08	-2225573.75	3.49704569089226E-05
1	278	91.8103107682012	0.404205322265625	0.40423583984375	-1.71813964843751E-07	-6.94533639489237E-08	-2352753	3.49524343619123E-05
1	279	91.911018767947	0.394134521484375	0.3941650390625	-1.57775878906249E-07	-6.21897342512057E-08	-2498259.25	3.49358379025944E-05
1	280	92.0117267676927	0.384063720703125	0.3841552734375	-1.446533203125E-07	-5.55693340231755E-08	-2655696.25	3.49206093233079E-05
1	281	92.1124347674385	0.373992919921875	0.374114990234375	-1.32141113281251E-07	-4.94359717606585E-08	-2831178	3.49066722264979E-05
1	282	92.2131427671842	0.363922119140625	0.36395263671875	-1.19934082031251E-07	-4.36503277967404E-08	-3034605.5	3.489397931844E-05
1	283	92.3138507669299	0.353851318359375	0.353851318359375	-1.080322265625E-07	-3.82273448451542E-08	-3275423.75	3.48824978573248E-05
1	284	92.4145587666757	0.343780517578125	0.343780517578125	-9.73510742187503E-08	-3.34674012947289E-08	-3531348.25	3.4872158721555E-05
1	285	92.5152667664214	0.333709716796875	0.333770751953125	-8.72802734374997E-08	-2.91316020195609E-08	-3824126	3.48628600477241E-05
1	286	92.6159747661671	0.323638916015625	0.32373046875	-7.72094726562506E-08	-2.49950584674252E-08	-4192885.5	3.48545763699804E-05
1	287	92.7166827659129	0.313568115234375	0.313629150390625	-6.80541992187506E-08	-2.13437800766769E-08	-4608520	3.48472640325781E-05
1	288	92.8173907656586	0.303497314453125	0.303466796875	-5.950927734375E-08	-1.80590884468756E-08	-5099487.5	3.48408393620048E-05
1	289	92.9180987654044	0.293426513671875	0.29345703125	-5.09643554687494E-08	-1.49558481155054E-08	-5758084	3.48352768924087E-05
1	290	93.0188067651501	0.283355712890625	0.28338623046875	-4.2724609375E-08	-1.21075656167591E-08	-6632857.5	3.48305584338959E-05
1	291	93.1195147648958	0.273284912109375	0.2733154296875	-3.54003906249997E-08	-9.67547286734316E-09	-7720690	3.48266257788055E-05
1	292	93.2202227646416	0.263214111328125	0.26324462890625	-2.92968749999997E-08	-7.71224506479484E-09	-8985417	3.48233661497943E-05
1	293	93.3209307643873	0.253143310546875	0.25323486328125	-2.25830078125003E-08	-5.71880498512201E-09	-11213514	3.48207540810108E-05
1	294	93.421638764133	0.243072509765625	0.243133544921875	-1.77001953125006E-08	-4.30351132507667E-09	-13736207	3.48187277268153E-05
1	295	93.5223467638788	0.233001708984375	0.2330322265625	-1.31225585937506E-08	-3.0579789811469E-09	-17758140	3.48171743098646E-05
1	296	93.6230547636245	0.222930908203125	0.2230224609375	-9.1552734375E-09	-2.04183159269178E-09	-24360002	3.48160538123921E-05
1	297	93.7237627633702	0.212860107421875	0.212860107421875	-7.01904296875056E-09	-1.49407419769432E-09	-30326088	3.48152389051393E-05
1	298	93.824470763116	0.202789306640625	0.202880859375	-6.71386718749945E-09	-1.36211508738882E-09	-30218184	3.48145476891659E-05
1	299	93.9251787628617	0.192718505859375	0.19281005859375	-7.62939453125E-09	-1.47102385827935E-09	-25272002	3.48138237313833E-05
1	300	94.0258867626075	0.182647705078125	0.182708740234375	-1.25122070312497E-08	-2.28608953989351E-09	-14602440	3.48128087352961E-05
1	301	94.1265947623532	0.172576904296875	0.172637939453125	-2.10571289062503E-08	-3.63525920477059E-09	-8198551	3.48111207131296E-05
1	302	94.2273027620989	0.162506103515625	0.162506103515625	-3.44848632812506E-08	-5.60400081894841E-09	-4712389.5	3.4808323107427E-05
1	303	94.3280107618447	0.152435302734375	0.152557373046875	-5.58471679687506E-08	-8.51989678807286E-09	-2731694	3.48037756339181E-05
1	304	94.4287187615904	0.142364501953125	0.142425537109375	-8.88061523437497E-08	-1.26482637696768E-08	-1603780	3.47964924003463E-05
1	305	94.5294267613361	0.132293701171875	0.132415771484375	-1.36413574218749E-07	-1.80633090707261E-08	-970693.5	3.47851491824258E-05
1	306	94.6301347610819	0.122222900390625	0.12225341796875	-2.044677734375E-07	-2.49968827858993E-08	-597910.4375	3.4767985198414E-05
1	307	94.7308427608276	0.112152099609375	0.11224365234375	-2.9876708984375E-07	-3.35347074553738E-08	-375689.5	3.47426466760226E-05
1	308	94.8315507605734	0.102081298828125	0.102203369140625	-4.25109863281251E-07	-4.34476596922195E-08	-240416.375	3.47061941283755E-05
1	309	94.9322587603191	0.092010498046875	0.09210205078125	-5.889892578125E-07	-5.42471170206227E-08	-156373.0625	3.46551314578392E-05
1	310	95.0329667600648	0.081939697265625	0.08209228515625	-7.9071044921875E-07	-6.49112266160046E-08	-103820.921875	3.45856569765601E-05
1	311	95.1336747598106	0.071868896484375	0.07196044921875	-1.025390625E-06	-7.37875680556499E-08	-70178.5703125	3.44942091032863E-05
1	312	95.2343827595563	0.061798095703125	0.061920166015625	-1.27960205078125E-06	-7.92331675825153E-08	-48390.17578125	3.43781430274248E-05
1	313	95.335090759302	0.051727294921875	0.051849365234375	-1.5362548828125E-06	-7.96538444092221E-08	-33750.49609375	3.42363564413972E-05
1	314	95.4357987590478	0.041656494140625	0.0418121337890625	-1.77215576171875E-06	-7.40976133783988E-08	-23593.9375	3.40697624778841E-05
1	315	95.5365067587935	0.031585693359375	0.0317230224609375	-1.96624755859375E-06	-6.23753138029315E-08	-16133.7890625	3.38815189024899E-05
1	316	95.6372147585392	0.021514892578125	0.0216552734375	-2.09930419921875E-06	-4.54610038502778E-08	-10315.453125	3.36768025590573E-05
1	317	95.737922758285	0.011444091796875	0.0115875244140625	-2.16644287109375E-06	-2.51037093335071E-08	-5348.64111328125	3.34620053763501E-05
1	318	95.8386307580307	0.001373291015625	0.00150451660156251	-2.17193603515625E-06	-3.26771343317489E-09	-692.707641601563	3.32435520249419E-05
1	319	95.9393387577765	-0.008697509765625	-0.00853881835937501	-2.12890625E-06	1.81783423869319E-08	4010.89453125	3.30269867845345E-05
1	320	96.0400467575222	-0.018768310546875	-0.0186065673828125	-2.05413818359375E-06	3.82204596860447E-08	9058.08984375	3.28163514495827E-05
1	321	96.1407547572679	-0.028839111328125	-0.028668212890625	-1.96533203125E-06	5.6342553733657E-08	14586.9580078125	3.2613956136629E-05
1	322	96.2414627570137	-0.038909912109375	-0.038726806640625	-1.87225341796875E-06	7.25063955542282E-08	20684.59765625	3.24207176163327E-05
1	323	96.3421707567594	-0.048980712890625	-0.0488006591796875	-1.7816162109375E-06	8.69440412998301E-08	27391.228515625	3.22367304761428E-05
1	324	96.4428787565051	-0.059051513671875	-0.0589599609375	-1.69647216796875E-06	1.0002393224795E-07	34754.453125	3.20615981763694E-05
1	325	96.5435867562509	-0.069122314453125	-0.06903076171875	-1.6192626953125E-06	1.11778938105545E-07	42630.984375	3.18946367769968E-05
1	326	96.6442947559966	-0.079193115234375	-0.0791015625	-1.54998779296875E-06	1.22606451213869E-07	51033.671875	3.17350531986449E-05
1	327	96.7450027557423	-0.089263916015625	-0.089111328125	-1.4886474609375E-06	1.32655344486921E-07	59860.6015625	3.15820434479974E-05
1	328	96.8457107554881	-0.099334716796875	-0.09918212890625	-1.43402099609375E-06	1.42229254151971E-07	69163.6484375	3.14348762913141E-05
1	329	96.9464187552338	-0.109405517578125	-0.10931396484375	-1.3861083984375E-06	1.51520993085796E-07	78863.9375	3.12928714265581E-05
1	330	97.0471267549796	-0.119476318359375	-0.11932373046875	-1.3433837890625E-06	1.60297560114486E-07	88823.265625	3.11554285872262E-05
1	331	97.1478347547253	-0.129547119140625	-0.129425048828125	-1.30584716796875E-06	1.69009325645675E-07	99111.9453125	3.10220311803278E-05
1	332	97.248542754471	-0.139617919921875	-0.1395263671875	-1.27227783203125E-06	1.77516298549563E-07	109666.5859375	3.08922135445755E-05
1	333	97.3492507542168	-0.149688720703125	-0.149566650390625	-1.24237060546875E-06	1.85817199849225E-07	120388.1171875	3.07655900542159E-05
1	334	97.4499587539625	-0.159759521484375	-0.159576416015625	-1.2164306640625E-06	1.94113638940507E-07	131184.140625	3.06417787214741E-05
1	335	97.5506667537082	-0.169830322265625	-0.16961669921875	-1.19384765625E-06	2.02496494239313E-07	142075.671875	3.05204121104907E-05
1	336	97.651374753454	-0.179901123046875	-0.179718017578125	-1.173095703125E-06	2.10826442526013E-07	153199.796875	3.04012264678022E-05
1	337	97.7520827531997	-0.189971923828125	-0.18975830078125	-1.15570068359375E-06	2.1930378579782E-07	164193.296875	3.02839616779238E-05
1	338	97.8527907529455	-0.200042724609375	-0.199859619140625	-1.14044189453125E-06	2.27928282470202E-07	175247.53125	3.01683430734556E-05
1	339	97.9534987526912	-0.189971923828125	-0.189788818359375	-1.02569580078125E-06	1.94665574326791E-07	185034.234375	3.00592691928614E-05
2	340	98.0542067524369	-0.179901123046875	-0.179656982421875	-9.47265625E-07	1.70182886449766E-07	189658.5	2.99599232675973E-05
2	341	98.1549147521827	-0.169830322265625	-0.169677734375	-8.84094238281249E-07	1.50011103983161E-07	191922.6875	2.98677059618058E-05
2	342	98.2556227519284	-0.159759521484375	-0.15960693359375	-8.31298828125E-07	1.326810519231E-07	191997.078125	2.9781329430989E-05
2	343	98.3563307516741	-0.149688720703125	-0.1495361328125	-7.84912109374999E-07	1.17372721319953E-07	190513.21875	2.96999460260849E-05
2	344	98.4570387514199	-0.139617919921875	-0.139495849609375	-7.4310302734375E-07	1.03659779426835E-07	187720.75	2.96230045933044E-05
2	345	98.5577467511656	-0.129547119140625	-0.12939453125	-7.0526123046875E-07	9.12569433353383E-08	183470.375	2.95500740321586E-05
2	346	98.6584547509113	-0.119476318359375	-0.11932373046875	-6.70471191406249E-07	8.00031259018397E-08	177969.953125	2.9480799639714E-05
2	347	98.7591627506571	-0.109405517578125	-0.109283447265625	-6.37207031250001E-07	6.96361794894074E-08	171503.84375	2.9414954042295E-05
2	348	98.8598707504028	-0.099334716796875	-0.099212646484375	-6.05163574218751E-07	6.00398806227531E-08	163943.515625	2.93523953587282E-05
2	349	98.9605787501486	-0.089263916015625	-0.089111328125	-5.7342529296875E-07	5.1098687947615E-08	155401.8125	2.92930490104482E-05
2	350	99.0612867498943	-0.079193115234375	-0.0791015625	-5.419921875E-07	4.28724256096302E-08	145945.953125	2.92368822556455E-05
2	351	99.16199474964	-0.069122314453125	-0.069061279296875	-5.07202148437499E-07	3.50280267014114E-08	136161.265625	2.91840515274089E-05
2	352	99.2627027493858	-0.059051513671875	-0.0589599609375	-4.69055175781249E-07	2.76554725786582E-08	125699.421875	2.91348933387781E-05
2	353	99.3634107491315	-0.048980712890625	-0.048785400390625	-4.241943359375E-07	2.0694489677453E-08	115007.1953125	2.90899151877966E-05
2	354	99.4641187488772	-0.038909912109375	-0.038726806640625	-3.692626953125E-07	1.43003653363394E-08	104876.03125	2.90499610855477E-05
2	355	99.564826748623	-0.028839111328125	-0.0286712646484375	-3.0029296875E-07	8.60977866778967E-09	95477.6484375	2.9016246116953E-05
2	356	99.6655347483687	-0.018768310546875	-0.018597412109375	-2.11486816406251E-07	3.93310761737098E-09	87936.515625	2.89904764940729E-05
2	357	99.7662427481145	-0.008697509765625	-0.0085479736328125	-9.67407226562494E-08	8.26937129883021E-10	88359.625	2.89749550574925E-05
2	358	99.8669507478602	0.001373291015625	0.0015289306640625	5.09643554687494E-08	7.79209613499532E-11	30000	2.89726503979182E-05
2	359	99.9676587476059	0.011444091796875	0.011578369140625	2.349853515625E-07	2.72074718310478E-09	49272.7265625	2.89870495180367E-05
2	360	100.068366747352	0.021514892578125	0.0216705322265625	4.5501708984375E-07	9.86046178041988E-09	47625.75390625	2.90217940346338E-05
2	361	100.169074747097	0.031585693359375	0.031744384765625	7.0770263671875E-07	2.24655831715381E-08	44855.5390625	2.90803400275763E-05
2	362	100.269782746843	0.041656494140625	0.0417999267578125	9.7686767578125E-07	4.08329974277422E-08	42789.75	2.91651649604319E-05
2	363	100.370490746589	0.051727294921875	0.05181884765625	1.2451171875E-06	6.45205346927469E-08	41617.6484375	2.9277050998644E-05
2	364	100.471198746335	0.061798095703125	0.0618896484375	1.48895263671875E-06	9.2150756358933E-08	41565.89453125	2.94147230306407E-05
2	365	100.57190674608	0.071868896484375	0.07196044921875	1.688232421875E-06	1.21485953741285E-07	42624.73046875	2.95747067866614E-05
2	366	100.672614745826	0.081939697265625	0.082000732421875	1.82861328125E-06	1.49947624095148E-07	44843.125	2.97517945000436E-05
2	367	100.773322745572	0.092010498046875	0.09210205078125	1.90185546875E-06	1.75164785787274E-07	48427.47265625	2.9939637897769E-05
2	368	100.874030745318	0.102081298828125	0.102142333984375	1.9158935546875E-06	1.95693843352274E-07	53313.15625	3.01318777928827E-05
2	369	100.974738745063	0.112152099609375	0.112152099609375	1.88232421875E-06	2.11106609526723E-07	59581.7109375	3.03231317957398E-05
2	370	101.075446744809	0.122222900390625	0.122314453125	1.81884765625E-06	2.22471356892129E-07	67248.3203125	3.05095018120483E-05
2	371	101.176154744555	0.132293701171875	0.13238525390625	1.74041748046875E-06	2.30405603929285E-07	76065.2265625	3.06887232000008E-05
2	372	101.276862744301	0.142364501953125	0.142425537109375	1.6571044921875E-06	2.36013988796913E-07	85948.4375	3.08598027913831E-05
2	373	101.377570744046	0.152435302734375	0.152496337890625	1.575927734375E-06	2.40323203115622E-07	96766.0703125	3.10225987050217E-05
2	374	101.478278743792	0.162506103515625	0.16259765625	1.49932861328125E-06	2.43787326326128E-07	108446.9765625	3.11774492729455E-05
2	375	101.578986743538	0.172576904296875	0.172698974609375	1.42974853515625E-06	2.46916101787065E-07	120789.7578125	3.13249402097426E-05
2	376	101.679694743283	0.182647705078125	0.1827392578125	1.36688232421875E-06	2.49783056460728E-07	133690.5625	3.14657627313863E-05
2	377	101.780402743029	0.192718505859375	0.19281005859375	1.31134033203125E-06	2.52839583936293E-07	147032.828125	3.16006226057652E-05
2	378	101.881110742775	0.202789306640625	0.202850341796875	1.26220703125E-06	2.56039129453711E-07	160710.84375	3.17302110488527E-05
2	379	101.981818742521	0.212860107421875	0.212921142578125	1.2176513671875E-06	2.59263714497138E-07	174862.171875	3.18550810334273E-05
2	380	102.082526742266	0.222930908203125	0.222991943359375	1.177978515625E-06	2.62679691331869E-07	189300.53125	3.19757127726916E-05
2	381	102.183234742012	0.233001708984375	0.23309326171875	1.1431884765625E-06	2.66469527332447E-07	203897.5	3.20925901178271E-05
2	382	102.283942741758	0.243072509765625	0.2431640625	1.1114501953125E-06	2.70264735036108E-07	218780.890625	3.220612052246E-05
2	383	102.384650741504	0.253143310546875	0.253204345703125	1.082763671875E-06	2.74160470326024E-07	233850.0625	3.23166095768102E-05
2	384	102.485358741249	0.263214111328125	0.263214111328125	1.05712890625E-06	2.78251235386051E-07	248989.609375	3.24243592331186E-05
2	385	102.586066740995	0.273284912109375	0.27325439453125	1.033935546875E-06	2.82527423678403E-07	264285.71875	3.25296532537322E-05
2	386	102.686774740741	0.283355712890625	0.28338623046875	1.01287841796875E-06	2.870358173368E-07	279783.0625	3.2632720831316E-05
2	387	102.787482740487	0.293426513671875	0.293487548828125	9.93957519531249E-07	2.91714172817592E-07	295271.71875	3.27337729686406E-05
2	388	102.888190740232	0.303497314453125	0.30352783203125	9.7625732421875E-07	2.96321275072842E-07	310909.65625	3.28329806507099E-05
2	389	102.988898739978	0.313568115234375	0.313629150390625	9.600830078125E-07	3.01109992051352E-07	326668.8125	3.29304821207188E-05
2	390	103.089606739724	0.323638916015625	0.323699951171875	9.45434570312501E-07	3.06037094333078E-07	342382.1875	3.30264338117559E-05
2	391	103.190314739469	0.333709716796875	0.333740234375	9.3109130859375E-07	3.10742620968085E-07	358439.875	3.31209230353124E-05
2	392	103.291022739215	0.343780517578125	0.343841552734375	9.185791015625E-07	3.15845653631186E-07	374318.9375	3.32140625687316E-05
2	393	103.391730738961	0.353851318359375	0.353912353515625	9.07287597656251E-07	3.21100287692389E-07	390077.375	3.33060015691444E-05
2	394	103.492438738707	0.363922119140625	0.36395263671875	8.96606445312501E-07	3.26322265209456E-07	405922.40625	3.33968346239999E-05
2	395	103.593146738452	0.373992919921875	0.3740234375	8.868408203125E-07	3.31699226308046E-07	421748.125	3.3486638130853E-05
2	396	103.693854738198	0.384063720703125	0.384063720703125	8.77990722656249E-07	3.37204369316169E-07	437434.84375	3.35755066771526E-05
2	397	103.794562737944	0.394134521484375	0.3941650390625	8.7005615234375E-07	3.42945696729657E-07	453034.03125	3.36635275743902E-05
2	398	103.89527073769	0.404205322265625	0.404266357421875	8.624267578125E-07	3.48650132764305E-07	468754.4375	3.37507626682054E-05
2	399	103.995978737435	0.414276123046875	0.414306640625	8.5601806640625E-07	3.54653963086093E-07	483992.875	3.38372956321109E-05
2	400	104.096686737181	0.424346923828125	0.42437744140625	8.502197265625E-07	3.6081405596633E-07	499138.5625	3.39232101396192E-05
2	401	104.197394736927	0.434417724609375	0.43450927734375	8.44726562500001E-07	3.67041508297916E-07	514378.65625	3.40085571224336E-05
2	402	104.298102736673	0.444488525390625	0.444488525390625	8.40148925781251E-07	3.73436563450014E-07	529059.1875	3.40933984261937E-05
2	403	104.398810736418	0.454559326171875	0.454620361328125	8.3587646484375E-07	3.80006440536818E-07	543884.625	3.41777922585607E-05
2	404	104.499518736164	0.464630126953125	0.464630126953125	8.319091796875E-07	3.86530075502378E-07	558510.625	3.42617713613436E-05
2	405	104.60022673591	0.474700927734375	0.474700927734375	8.282470703125E-07	3.93169642620705E-07	573139.3125	3.43453684763517E-05
2	406	104.700934735656	0.484771728515625	0.48480224609375	8.251953125E-07	4.00056535454496E-07	587500	3.4428623621352E-05
2	407	104.801642735401	0.494842529296875	0.49481201171875	8.221435546875E-07	4.06806492492251E-07	601856	3.45115731761325E-05
2	408	104.902350735147	0.504913330078125	0.504913330078125	8.197021484375E-07	4.13878524341271E-07	615971.75	3.45942498825025E-05
2	409	105.003058734893	0.514984130859375	0.514984130859375	8.1817626953125E-07	4.21347778001291E-07	629429.3125	3.46767228620593E-05
2	410	105.103766734638	0.525054931640625	0.5250244140625	8.1695556640625E-07	4.28921595130305E-07	642659.6875	3.47590575984214E-05
2	411	105.204474734384	0.535125732421875	0.535125732421875	8.16650390625E-07	4.37010612586164E-07	655269.0625	3.48413159372285E-05
2	412	105.30518273413	0.545196533203125	0.545166015625	8.17260742187501E-07	4.45542781335462E-07	667065	3.49235888279509E-05
2	413	105.405890733876	0.555267333984375	0.5552978515625	8.18786621093751E-07	4.54670441740745E-07	678196.0625	3.50059708580375E-05
2	414	105.506598733621	0.565338134765625	0.565399169921875	8.21533203124999E-07	4.64494206653399E-07	688224.375	3.50885675288737E-05
2	415	105.607306733367	0.575408935546875	0.575439453125	8.26416015625001E-07	4.75552383250033E-07	696307.25	3.51715498254634E-05
2	416	105.708014733113	0.585479736328125	0.58551025390625	8.3282470703125E-07	4.87627403344959E-07	703041.4375	3.52550996467471E-05
2	417	105.808722732859	0.595550537109375	0.595550537109375	8.4259033203125E-07	5.01805118346965E-07	706809.125	3.53394607373048E-05
2	418	105.909430732604	0.605621337890625	0.605621337890625	8.5662841796875E-07	5.18792433013004E-07	706982.5625	3.54250259988476E-05
2	419	106.01013873235	0.615692138671875	0.615692138671875	8.76770019531251E-07	5.39820405265345E-07	702227.625	3.55123083863873E-05
2	420	106.110846732096	0.625762939453125	0.625762939453125	9.0484619140625E-07	5.66219171105331E-07	691568.3125	3.56020209437702E-05
2	421	106.211554731842	0.635833740234375	0.63580322265625	9.4482421875E-07	6.00722273702559E-07	672932.8125	3.56951568392105E-05
2	422	106.312262731587	0.645904541015625	0.64593505859375	9.9945068359375E-07	6.45580200853146E-07	646290.0625	3.57930584868882E-05
2	423	106.412970731333	0.655975341796875	0.65594482421875	1.0748291015625E-06	7.05028583070089E-07	610278.25	3.58975084964186E-05
2	424	106.513678731079	0.666046142578125	0.666015625	1.17523193359375E-06	7.82722793246649E-07	566709.9375	3.60108097083867E-05
2	425	106.614386730825	0.676116943359375	0.676116943359375	1.30157470703125E-06	8.80016671089834E-07	519460.75	3.61355232598726E-05
2	426	106.71509473057	0.686187744140625	0.6861572265625	1.4532470703125E-06	9.97155893855961E-07	472154.5625	3.62742430297658E-05
2	427	106.815802730316	0.696258544921875	0.6961669921875	1.62139892578125E-06	1.12876432467601E-06	429361.96875	3.64290608558804E-05
2	428	106.916510730062	0.706329345703125	0.706329345703125	1.796875E-06	1.26918553178257E-06	393087.65625	3.66011845471803E-05
2	429	107.017218729807	0.716400146484375	0.716400146484375	1.96380615234375E-06	1.40687109251303E-06	364801.84375	3.67905522580259E-05
2	430	107.117926729553	0.726470947265625	0.7264404296875	2.10662841796875E-06	1.5303401141864E-06	344835.5625	3.69955123460386E-05
2	431	107.218634729299	0.736541748046875	0.73651123046875	2.21282958984375E-06	1.62977380568918E-06	332836.875	3.72130161849782E-05
2	432	107.319342729045	0.746612548828125	0.74652099609375	2.27752685546875E-06	1.70022155998595E-06	327777.03125	3.74391238437966E-05
2	433	107.42005072879	0.756683349609375	0.7568359375	2.30133056640625E-06	1.74172964761965E-06	328868.84375	3.76696880266536E-05
2	434	107.520758728536	0.766754150390625	0.7659912109375	2.293701171875E-06	1.756954816301E-06	333954.25	3.79010634787846E-05
2	435	107.621466728282	0.776824951171875	0.77728271484375	2.26593017578125E-06	1.76126832229784E-06	343030.3125	3.8130659959279E-05
2	436	107.722174728028	0.786895751953125	0.7867431640625	2.2283935546875E-06	1.75317325101787E-06	353053.96875	3.83569677069318E-05
2	437	107.822882727773	0.796966552734375	0.797119140625	2.19024658203125E-06	1.7458874026488E-06	363940.375	3.85794628527947E-05
2	438	107.923590727519	0.807037353515625	0.8074951171875	2.15728759765625E-06	1.74199919911189E-06	374310.375	3.87983782275114E-05
2	439	108.024298727265	0.817108154296875	0.8172607421875	2.13287353515625E-06	1.74311378486891E-06	383173.5625	3.90144050470553E-05
2	440	108.125006727011	0.827178955078125	0.82763671875	2.1221923828125E-06	1.75640434463276E-06	389991.375	3.92286674468778E-05
2	441	108.225714726756	0.837249755859375	0.83740234375	2.12646484375E-06	1.78070661149832E-06	393800.25	3.94426024286076E-05
2	442	108.326422726502	0.847320556640625	0.84747314453125	2.14599609375E-06	1.81867392257118E-06	394909	3.96577379433438E-05
2	443	108.427130726248	0.857391357421875	0.85784912109375	2.1795654296875E-06	1.86973829841008E-06	393587.25	3.98755473725032E-05
2	444	108.527838725994	0.867462158203125	0.86761474609375	2.22442626953125E-06	1.92994502867805E-06	390039.78125	4.00973076466471E-05
2	445	108.628546725739	0.877532958984375	0.877685546875	2.27325439453125E-06	1.99520241039863E-06	386092.125	4.0323782741325E-05
2	446	108.729254725485	0.887603759765625	0.88836669921875	2.3199462890625E-06	2.06096297006297E-06	382925.5625	4.05550672439858E-05
2	447	108.829962725231	0.897674560546875	0.8978271484375	2.35565185546875E-06	2.11496808333322E-06	381137.46875	4.07905026804656E-05
2	448	108.930670724976	0.907745361328125	0.90728759765625	2.376708984375E-06	2.15635850508988E-06	381741.15625	4.10287975682877E-05
2	449	109.031378724722	0.917816162109375	0.91766357421875	2.38067626953125E-06	2.18465993384598E-06	385463.40625	4.12683511967771E-05
2	450	109.132086724468	0.927886962890625	0.9283447265625	2.3712158203125E-06	2.20130550587783E-06	391505.8125	4.15076283388771E-05
2	451	109.232794724214	0.937957763671875	0.9381103515625	2.35198974609375E-06	2.20642596104881E-06	398858.1875	4.17454612033907E-05
2	452	109.333502723959	0.948028564453125	0.9478759765625	2.32818603515625E-06	2.2068315956858E-06	407130.71875	4.19811258325353E-05
2	453	109.434210723705	0.958099365234375	0.958251953125	2.303466796875E-06	2.20730157707294E-06	416004.25	4.22143457399216E-05
2	454	109.534918723451	0.968170166015625	0.96832275390625	2.2808837890625E-06	2.20863171307428E-06	424538.40625	4.24451864091679E-05
2	455	109.635626723197	0.978240966796875	0.97808837890625	2.2650146484375E-06	2.21538448386127E-06	431824.28125	4.2674091673689E-05
2	456	109.736334722942	0.988311767578125	0.9881591796875	2.25555419921875E-06	2.22884659706324E-06	438100.40625	4.29017200076487E-05
2	457	109.837042722688	0.998382568359375	0.99853515625	2.25311279296875E-06	2.24981226892851E-06	443180.28125	4.31287517130841E-05
2	458	109.937750722434	1.00845336914063	1.0076904296875	2.25830078125E-06	2.27566806643154E-06	446216.21875	4.33559180237353E-05
2	459	110.03845872218	1.01852416992188	1.01837158203125	2.2698974609375E-06	2.31159901886713E-06	448642.125	4.35839319834486E-05
2	460	110.139166721925	1.02859497070313	1.029052734375	2.2869873046875E-06	2.35343031818047E-06	449960	4.38133865827695E-05
2	461	110.239874721671	1.03866577148438	1.038818359375	2.305908203125E-06	2.39541964219825E-06	450502.9375	4.40446601714939E-05
2	462	110.340582721417	1.04873657226563	1.04888916015625	2.32330322265625E-06	2.43688737100456E-06	451464.625	4.42777563876007E-05
2	463	110.441290721163	1.05880737304688	1.058349609375	2.3358154296875E-06	2.47210937232012E-06	453096.40625	4.45123623649124E-05
2	464	110.541998720908	1.06887817382813	1.0687255859375	2.34039306640625E-06	2.5012377591338E-06	456643.65625	4.47478305432014E-05
2	465	110.642706720654	1.07894897460938	1.0784912109375	2.33673095703125E-06	2.52014365287323E-06	461538.46875	4.49833423772361E-05
2	466	110.7434147204	1.08901977539063	1.0888671875	2.325439453125E-06	2.5320946406282E-06	468241.46875	4.52181011496577E-05
2	467	110.844122720145	1.09909057617188	1.09893798828125	2.3089599609375E-06	2.5374038159498E-06	475945.03125	4.54514593002386E-05
2	468	110.944830719891	1.10916137695313	1.1090087890625	2.2894287109375E-06	2.53899656854628E-06	484404.15625	4.56830093753524E-05
2	469	111.045538719637	1.11923217773438	1.119384765625	2.26806640625E-06	2.53883877121552E-06	493541.46875	4.59124967164826E-05
2	470	111.146246719383	1.12930297851563	1.129150390625	2.24700927734375E-06	2.5372112304467E-06	502512.59375	4.6139848564053E-05
2	471	111.246954719128	1.13937377929688	1.13983154296875	2.2271728515625E-06	2.53860184784571E-06	511784.03125	4.63651413156185E-05
2	472	111.347662718874	1.14944458007813	1.14959716796875	2.20855712890625E-06	2.53895109381119E-06	520519.5625	4.65884986624587E-05
2	473	111.44837071862	1.15951538085938	1.15936279296875	2.1917724609375E-06	2.5410593025299E-06	528961.3125	4.68100733996835E-05
2	474	111.549078718366	1.16958618164063	1.16973876953125	2.176513671875E-06	2.54595238402544E-06	537436.9375	4.70300328743178E-05
2	475	111.649786718111	1.17965698242188	1.17950439453125	2.16339111328125E-06	2.55172903962375E-06	545210.9375	4.7248562623281E-05
2	476	111.750494717857	1.18972778320313	1.18896484375	2.15240478515625E-06	2.55913346336456E-06	552389.0625	4.74658809253015E-05
2	477	111.851202717603	1.19979858398438	1.199951171875	2.14324951171875E-06	2.57179476648162E-06	559874.6875	4.76821842312347E-05
2	478	111.951910717349	1.20986938476563	1.21002197265625	2.1368408203125E-06	2.5856243155431E-06	566266.8125	4.78977053717244E-05
2	479	112.052618717094	1.21994018554688	1.219482421875	2.13226318359375E-06	2.60025717579992E-06	571919.3125	4.81126699014567E-05
2	480	112.15332671684	1.23001098632813	1.2298583984375	2.12982177734375E-06	2.61937907453103E-06	577446.625	4.83272851852234E-05
2	481	112.254034716586	1.24008178710938	1.23992919921875	2.1307373046875E-06	2.64196341959178E-06	581924.9375	4.85418204334565E-05
2	482	112.354742716332	1.25015258789063	1.2506103515625	2.13348388671875E-06	2.66815686700284E-06	586182.25	4.87565412186086E-05
2	483	112.455450716077	1.26022338867188	1.2603759765625	2.13897705078125E-06	2.6959151000483E-06	589242.4375	4.89716767333448E-05
2	484	112.556158715823	1.27029418945313	1.2701416015625	2.14752197265625E-06	2.72765691988752E-06	591445.25	4.91875180159695E-05
2	485	112.656866715569	1.28036499023438	1.28082275390625	2.1588134765625E-06	2.7650573883875E-06	593299.4375	4.94043597427662E-05
2	486	112.757574715314	1.29043579101563	1.29058837890625	2.17254638671875E-06	2.80386302620173E-06	594044.125	4.96224602102302E-05
2	487	112.85828271506	1.30050659179688	1.3006591796875	2.18780517578125E-06	2.84558882412966E-06	594504.125	4.98420231451746E-05
2	488	112.958990714806	1.31057739257813	1.31072998046875	2.2039794921875E-06	2.88882188215211E-06	594710.625	5.00631649629213E-05
2	489	113.059698714552	1.32064819335938	1.32080078125	2.22076416015625E-06	2.9331870337046E-06	594750.5625	5.02859693369828E-05
2	490	113.160406714297	1.33071899414063	1.33087158203125	2.23907470703125E-06	2.97992073683417E-06	594384.6875	5.05105417687446E-05
2	491	113.261114714043	1.34078979492188	1.34063720703125	2.259521484375E-06	3.02919829664461E-06	593327.9375	5.0737064157147E-05
2	492	113.361822713789	1.35086059570313	1.35162353515625	2.2833251953125E-06	3.08619587485737E-06	591954.0625	5.09658129885793E-05
2	493	113.462530713535	1.36093139648438	1.36077880859375	2.310791015625E-06	3.14447538585227E-06	588880.125	5.11971447849646E-05
2	494	113.56323871328	1.37100219726563	1.37115478515625	2.34375E-06	3.21364382216416E-06	585026.0625	5.14315215696115E-05
2	495	113.663946713026	1.38107299804688	1.38153076171875	2.3828125E-06	3.29192880599294E-06	579790	5.16695217811503E-05
2	496	113.764654712772	1.39114379882813	1.3916015625	2.43011474609375E-06	3.38175118486106E-06	572648.5625	5.19118730153423E-05
2	497	113.865362712518	1.40121459960938	1.4013671875	2.48626708984375E-06	3.48417302120652E-06	563643.0625	5.21594301972073E-05
2	498	113.966070712263	1.41128540039063	1.41082763671875	2.5531005859375E-06	3.60198487214802E-06	552593.8125	5.24131828569807E-05
2	499	114.066778712009	1.42135620117188	1.4215087890625	2.63275146484375E-06	3.74247929357807E-06	539932.8125	5.26743133377749E-05
2	500	114.167486711755	1.43142700195313	1.4312744140625	2.7276611328125E-06	3.90403147321194E-06	524725.9375	5.29442295373883E-05
2	501	114.268194711501	1.44149780273438	1.441650390625	2.84027099609375E-06	4.09467793360818E-06	507574.9375	5.32245976501144E-05
2	502	114.368902711246	1.45156860351563	1.451416015625	2.97698974609375E-06	4.32085062129772E-06	487544.875	5.35175204277039E-05
2	503	114.469610710992	1.46163940429688	1.4617919921875	3.1396484375E-06	4.58951308246469E-06	465590.96875	5.38255189894699E-05
2	504	114.570318710738	1.47171020507813	1.47216796875	3.331298828125E-06	4.90423144583474E-06	441920.125	5.4151354561327E-05
2	505	114.671026710483	1.48178100585938	1.48193359375	3.551025390625E-06	5.26238363818265E-06	417325.5625	5.44979084224906E-05
2	506	114.771734710229	1.49185180664063	1.49200439453125	3.79974365234375E-06	5.66923426958965E-06	392659.21875	5.48680473002605E-05
2	507	114.872442709975	1.50192260742188	1.50238037109375	4.0716552734375E-06	6.1171745073807E-06	368985.1875	5.52644050912932E-05
2	508	114.973150709721	1.49185180664063	1.49169921875	3.5711669921875E-06	5.32710691913962E-06	417706.375	5.56492523173802E-05
2	509	115.073858709466	1.48178100585938	1.48162841796875	3.19000244140625E-06	4.72639840154443E-06	464459.96875	5.59897016501054E-05
2	510	115.174566709212	1.47171020507813	1.47186279296875	2.88909912109375E-06	4.25235748480191E-06	509453.90625	5.62958121008705E-05
2	511	115.275274708958	1.46163940429688	1.46209716796875	2.6446533203125E-06	3.8667399167025E-06	552850.25	5.65744558116421E-05
2	512	115.375982708704	1.45156860351563	1.4520263671875	2.445068359375E-06	3.5503035178408E-06	593859.25	5.68307441426441E-05
2	513	115.476690708449	1.44149780273438	1.441650390625	2.27996826171875E-06	3.28691703543882E-06	632311.625	5.70686679566279E-05
2	514	115.577398708195	1.43142700195313	1.43157958984375	2.1435546875E-06	3.0686690024595E-06	667853.0625	5.72914104850497E-05
2	515	115.678106707941	1.42135620117188	1.42120361328125	2.0294189453125E-06	2.88421756522439E-06	700300.75	5.75015365029685E-05
2	516	115.778814707687	1.41128540039063	1.41204833984375	1.9342041015625E-06	2.73118939730921E-06	730041.0625	5.77011232962832E-05
2	517	115.879522707432	1.40121459960938	1.40045166015625	1.8524169921875E-06	2.59422040471691E-06	756013.1875	5.78917934035417E-05
2	518	115.980230707178	1.39114379882813	1.3909912109375	1.7828369140625E-06	2.4799103357509E-06	780212.25	5.80748419451993E-05
2	519	116.080938706924	1.38107299804688	1.38092041015625	1.7236328125E-06	2.38019970311143E-06	801168.5625	5.82514076086227E-05
2	520	116.18164670667	1.37100219726563	1.37115478515625	1.67144775390625E-06	2.29181364375108E-06	820339.625	5.84223635087255E-05
2	521	116.282354706415	1.36093139648438	1.36077880859375	1.62384033203125E-06	2.20968740904937E-06	838000.4375	5.85882953600958E-05
2	522	116.383062706161	1.35086059570313	1.35040283203125	1.58050537109375E-06	2.1343189473555E-06	854412.0625	5.87496469961479E-05
2	523	116.483770705907	1.34078979492188	1.34063720703125	1.54052734375E-06	2.06528807211726E-06	870245.6875	5.89068040426355E-05
2	524	116.584478705652	1.33071899414063	1.33087158203125	1.50299072265625E-06	2.00028762264992E-06	885482.25	5.9060057537863E-05
2	525	116.685186705398	1.32064819335938	1.3214111328125	1.4666748046875E-06	1.93808045878541E-06	900957.125	5.92095893807709E-05
2	526	116.785894705144	1.31057739257813	1.31072998046875	1.4324951171875E-06	1.87761429515376E-06	914997.875	5.93555741943419E-05
2	527	116.88660270489	1.30050659179688	1.3006591796875	1.4007568359375E-06	1.82190717623598E-06	928540.3125	5.94982411712408E-05
2	528	116.987310704635	1.29043579101563	1.29119873046875	1.37237548828125E-06	1.77200945472578E-06	940849.5	5.96378777117934E-05
2	529	117.088018704381	1.28036499023438	1.28021240234375	1.34735107421875E-06	1.72489546912402E-06	950169.875	5.97748294239864E-05
2	530	117.188726704127	1.27029418945313	1.27044677734375	1.3262939453125E-06	1.68498593211552E-06	957892.3125	5.99094564677216E-05
2	531	117.289434703873	1.26022338867188	1.2603759765625	1.30828857421875E-06	1.64893549481349E-06	963377.625	6.0042119002901E-05
2	532	117.390142703618	1.25015258789063	1.25	1.29302978515625E-06	1.61628713613027E-06	966721.75	6.01731044298504E-05
2	533	117.490850703364	1.24008178710938	1.240234375	1.28021240234375E-06	1.58776333591959E-06	968772.375	6.03026783210225E-05
2	534	117.59155870311	1.23001098632813	1.2298583984375	1.26800537109375E-06	1.55946702307119E-06	969915.8125	6.04309898335487E-05
2	535	117.692266702856	1.21994018554688	1.219482421875	1.25732421875E-06	1.53328483065707E-06	969902.875	6.05581517447717E-05
2	536	117.792974702601	1.20986938476563	1.2103271484375	1.2469482421875E-06	1.50921516706148E-06	970631.5	6.06842513661832E-05
2	537	117.893682702347	1.19979858398438	1.199951171875	1.23687744140625E-06	1.48419258039212E-06	970145.5625	6.08093214395922E-05
2	538	117.994390702093	1.18972778320313	1.18988037109375	1.22650146484375E-06	1.45938997775374E-06	970141.8125	6.09333619649988E-05
2	539	118.095098701839	1.17965698242188	1.17950439453125	1.2164306640625E-06	1.43478530389984E-06	969643.75	6.1056372942403E-05
2	540	118.195806701584	1.16958618164063	1.16973876953125	1.20574951171875E-06	1.41041198276071E-06	970134.125	6.11783398198895E-05
2	541	118.29651470133	1.15951538085938	1.15997314453125	1.1944580078125E-06	1.38553912165662E-06	971129.375	6.12992007518187E-05
2	542	118.397222701076	1.14944458007813	1.14898681640625	1.18133544921875E-06	1.35733876049926E-06	972616.9375	6.14188320469111E-05
2	543	118.497930700821	1.13937377929688	1.13922119140625	1.16729736328125E-06	1.32980983380548E-06	975947.75	6.15370954619721E-05
2	544	118.598638700567	1.12930297851563	1.12945556640625	1.15203857421875E-06	1.3011763257964E-06	980397.375	6.16538818576373E-05
2	545	118.699346700313	1.11923217773438	1.11907958984375	1.13311767578125E-06	1.26804877709219E-06	987611.125	6.17689511273056E-05
2	546	118.800054700059	1.10916137695313	1.1090087890625	1.1114501953125E-06	1.23260804230085E-06	997803.4375	6.18819758528844E-05
2	547	118.900762699804	1.09909057617188	1.0992431640625	1.08489990234375E-06	1.19256878861052E-06	1013220.875	6.19925704086199E-05
2	548	119.00147069955	1.08901977539063	1.0888671875	1.0528564453125E-06	1.14642080006888E-06	1034202.9375	6.21002109255642E-05
2	549	119.102178699296	1.07894897460938	1.0784912109375	1.014404296875E-06	1.09402606085496E-06	1063177	6.22043080511503E-05
2	550	119.202886699042	1.06887817382813	1.06903076171875	9.70458984375E-07	1.03745048818382E-06	1101572.375	6.23042506049387E-05
2	551	119.303594698787	1.05880737304688	1.0589599609375	9.21630859375E-07	9.75970124272862E-07	1149006.625	6.23995292698964E-05
2	552	119.404302698533	1.04873657226563	1.04888916015625	8.7005615234375E-07	9.12592440727167E-07	1205542	6.24897438683547E-05
2	553	119.505010698279	1.03866577148438	1.038818359375	8.2122802734375E-07	8.53106712384033E-07	1264957.25	6.25749089522287E-05
2	554	119.605718698025	1.02859497070313	1.0284423828125	7.7789306640625E-07	8.00018142399495E-07	1322087.125	6.26554319751449E-05
2	555	119.70642669777	1.01852416992188	1.01898193359375	7.427978515625E-07	7.56897577502968E-07	1371816	6.27320041530766E-05
2	556	119.807134697516	1.00845336914063	1.00860595703125	7.16552734375001E-07	7.2271933504453E-07	1407580.875	6.28054913249798E-05
2	557	119.907842697262	0.998382568359375	0.99822998046875	6.9793701171875E-07	6.96701590641169E-07	1430258.125	6.28767156740651E-05
2	558	120.008550697008	0.988311767578125	0.9881591796875	6.84204101562499E-07	6.76102558827552E-07	1444246.25	6.29463102086447E-05
2	559	120.109258696753	0.978240966796875	0.97808837890625	6.7413330078125E-07	6.59361944599368E-07	1450882.75	6.3014704210218E-05
2	560	120.209966696499	0.968170166015625	0.96832275390625	6.63146972656251E-07	6.42140321360785E-07	1460193.25	6.30820431979373E-05
2	561	120.310674696245	0.958099365234375	0.95794677734375	6.5032958984375E-07	6.22981133346912E-07	1473017.375	6.31481816526502E-05
2	562	120.41138269599	0.948028564453125	0.9478759765625	6.304931640625E-07	5.97629309595504E-07	1503388.25	6.32126757409424E-05
2	563	120.512090695736	0.937957763671875	0.93780517578125	6.0150146484375E-07	5.64091124033439E-07	1559107.125	6.32747105555609E-05
2	564	120.612798695482	0.927886962890625	0.92803955078125	5.60302734375E-07	5.19983075264463E-07	1656318.125	6.33332165307365E-05
2	565	120.713506695228	0.917816162109375	0.91796875	5.0537109375E-07	4.63914858528369E-07	1816425.125	6.33868767181411E-05
2	566	120.814214694973	0.907745361328125	0.90789794921875	4.351806640625E-07	3.95099618799577E-07	2086255.375	6.34342359262519E-05
2	567	120.914922694719	0.897674560546875	0.8978271484375	3.51867675781251E-07	3.15916338422539E-07	2551604.5	6.34738680673763E-05
2	568	121.015630694465	0.887603759765625	0.88775634765625	2.6123046875E-07	2.3190901288217E-07	3398364.5	6.35047399555333E-05
2	569	121.116338694211	0.877532958984375	0.87738037109375	1.70288085937501E-07	1.49407412664004E-07	5152330	6.35264659649692E-05
2	570	121.217046693956	0.867462158203125	0.86761474609375	8.94165039062506E-08	7.75790738316573E-08	9703072	6.35395481367595E-05
2	571	121.317754693702	0.857391357421875	0.8575439453125	2.47192382812497E-08	2.1197832822395E-08	34691360	6.35452961432748E-05
2	572	121.418462693448	0.847320556640625	0.8477783203125	-1.8310546875E-08	-1.55232839915698E-08	-46300004	6.35456162854098E-05
2	573	121.519170693194	0.837249755859375	0.83770751953125	-3.96728515625E-08	-3.32342473541303E-08	-21115384	6.35426986264065E-05
2	574	121.619878692939	0.827178955078125	0.82733154296875	-4.48608398437494E-08	-3.71147876876421E-08	-18442176	6.35384421912022E-05
2	575	121.720586692685	0.817108154296875	0.8172607421875	-3.90625000000006E-08	-3.19242481339188E-08	-20921876	6.35342148598284E-05
2	576	121.821294692431	0.807037353515625	0.80718994140625	-2.80761718749994E-08	-2.26628031896325E-08	-28750002	6.35308315395378E-05
2	577	121.922002692177	0.796966552734375	0.79681396484375	-2.10571289062503E-08	-1.67786140536919E-08	-37840584	6.35283577139489E-05
2	578	122.022710691922	0.786895751953125	0.7867431640625	-2.44140625E-08	-1.92075955141036E-08	-32225000	6.35260657873005E-05
2	579	122.123418691668	0.776824951171875	0.77667236328125	-4.48608398437494E-08	-3.48421735907323E-08	-17312924	6.35225806036033E-05
2	580	122.224126691414	0.766754150390625	0.76690673828125	-8.75854492187494E-08	-6.71698714427293E-08	-8756098	6.35159085504711E-05
2	581	122.324834691159	0.756683349609375	0.7568359375	-1.58081054687501E-07	-1.19641413220961E-07	-4787645	6.3503539422527E-05
2	582	122.425542690905	0.746612548828125	0.74652099609375	-2.581787109375E-07	-1.92735825521595E-07	-2891489.25	6.34825773886405E-05
2	583	122.526250690651	0.736541748046875	0.736419677734375	-3.88183593749999E-07	-2.85866036620064E-07	-1897091.25	6.34500320302323E-05
2	584	122.626958690397	0.726470947265625	0.726409912109375	-5.401611328125E-07	-3.92378382230163E-07	-1344802.25	6.34032912785187E-05
2	585	122.727666690142	0.716400146484375	0.71636962890625	-7.0556640625E-07	-5.05446337228932E-07	-1015311.4375	6.33405579719692E-05
2	586	122.828374689888	0.706329345703125	0.706298828125	-8.66088867187501E-07	-6.11717553056224E-07	-815503.875	6.32614246569574E-05
2	587	122.929082689634	0.696258544921875	0.696197509765625	-1.00738525390625E-06	-7.0133904728209E-07	-691093.625	6.31670845905319E-05
2	588	123.02979068938	0.686187744140625	0.686187744140625	-1.112060546875E-06	-7.63082312005281E-07	-617041.6875	6.3060360844247E-05
2	589	123.130498689125	0.676116943359375	0.676116943359375	-1.173095703125E-06	-7.93149865785381E-07	-576352.75	6.29452915745787E-05
2	590	123.231206688871	0.666046142578125	0.666015625	-1.1895751953125E-06	-7.9227567084672E-07	-559876.875	6.28263223916292E-05
2	591	123.331914688617	0.655975341796875	0.655975341796875	-1.16912841796875E-06	-7.66919413308642E-07	-561080.6875	6.27075569354929E-05
2	592	123.432622688363	0.645904541015625	0.645904541015625	-1.123046875E-06	-7.25381084976107E-07	-575135.875	6.25921384198591E-05
2	593	123.533330688108	0.635833740234375	0.63580322265625	-1.05987548828125E-06	-6.73872250445129E-07	-599884.875	6.2482213252224E-05
2	594	123.634038687854	0.625762939453125	0.625762939453125	-9.906005859375E-07	-6.19881120655918E-07	-631700.5625	6.23789674136788E-05
2	595	123.7347466876	0.615692138671875	0.615692138671875	-9.2041015625E-07	-5.6668926617931E-07	-668932.375	6.22827428742312E-05
2	596	123.835454687346	0.605621337890625	0.605621337890625	-8.526611328125E-07	-5.16389775384596E-07	-710272	6.21934595983475E-05
2	597	123.936162687091	0.595550537109375	0.59552001953125	-7.8857421875E-07	-4.69611734388309E-07	-755185.75	6.2110811995808E-05
2	598	124.036870686837	0.585479736328125	0.585479736328125	-7.3089599609375E-07	-4.27924788937162E-07	-801043.875	6.20343053014949E-05
2	599	124.137578686583	0.575408935546875	0.575439453125	-6.7718505859375E-07	-3.89678973533591E-07	-849752.1875	6.19634010945447E-05
2	600	124.238286686328	0.565338134765625	0.565338134765625	-6.2896728515625E-07	-3.55579174993181E-07	-898835.5625	6.18976337136701E-05
2	601	124.338994686074	0.555267333984375	0.5552978515625	-5.85021972656249E-07	-3.24861446188152E-07	-949191.5	6.18365011177957E-05
2	602	124.43970268582	0.545196533203125	0.545166015625	-5.4473876953125E-07	-2.96973070135209E-07	-1000784.3125	6.1779617681168E-05
2	603	124.540410685566	0.535125732421875	0.53509521484375	-5.084228515625E-07	-2.72054620609197E-07	-1052461	6.17265832261182E-05
2	604	124.641118685311	0.525054931640625	0.525054931640625	-4.7576904296875E-07	-2.49804884333571E-07	-1103592	6.1677026678808E-05
2	605	124.741826685057	0.514984130859375	0.514984130859375	-4.4525146484375E-07	-2.29297441478593E-07	-1156614.125	6.16306497249752E-05
2	606	124.842534684803	0.504913330078125	0.5048828125	-4.17175292968749E-07	-2.10624619967348E-07	-1210241.5	6.15872195339762E-05
2	607	124.943242684549	0.494842529296875	0.494842529296875	-3.91235351562499E-07	-1.93599888120843E-07	-1264820.625	6.15465178270824E-05
2	608	125.043950684294	0.484771728515625	0.4847412109375	-3.6773681640625E-07	-1.78257195670994E-07	-1318174.25	6.15082972217351E-05
2	609	125.14465868404	0.474700927734375	0.474700927734375	-3.45458984374999E-07	-1.63989696488898E-07	-1374116.625	6.14723830949515E-05
2	610	125.245366683786	0.464630126953125	0.46466064453125	-3.24401855468751E-07	-1.50736767068338E-07	-1432361.375	6.14386517554522E-05
2	611	125.346074683532	0.454559326171875	0.45452880859375	-3.05786132812499E-07	-1.38988610842716E-07	-1486427.125	6.14069213042967E-05
2	612	125.446782683277	0.444488525390625	0.444549560546875	-2.880859375E-07	-1.28068478488785E-07	-1543114.375	6.13770171185024E-05
2	613	125.547490683023	0.434417724609375	0.4344482421875	-2.716064453125E-07	-1.17998936843833E-07	-1599550.625	6.13488373346627E-05
2	614	125.648198682769	0.424346923828125	0.424346923828125	-2.55737304687501E-07	-1.08521334141187E-07	-1659308	6.13222800893709E-05
2	615	125.748906682515	0.414276123046875	0.414276123046875	-2.40173339843749E-07	-9.94980808854962E-08	-1724904.75	6.1297309002839E-05
2	616	125.84961468226	0.404205322265625	0.404205322265625	-2.2613525390625E-07	-9.14050701794622E-08	-1787449.5	6.12738294876181E-05
2	617	125.950322682006	0.394134521484375	0.39422607421875	-2.1209716796875E-07	-8.36142319826649E-08	-1858705.125	6.12517615081742E-05
2	618	126.051030681752	0.384063720703125	0.384063720703125	-1.98974609374999E-07	-7.64189280744176E-08	-1930214.75	6.12310614087619E-05
2	619	126.151738681497	0.373992919921875	0.373992919921875	-1.87072753906251E-07	-6.99638817991399E-08	-1999184.5	6.12116273259744E-05
2	620	126.252446681243	0.363922119140625	0.363983154296875	-1.74560546874999E-07	-6.35370938084634E-08	-2085140	6.11934156040661E-05
2	621	126.353154680989	0.353851318359375	0.353912353515625	-1.629638671875E-07	-5.76749208391902E-08	-2171723	6.11764189670794E-05
2	622	126.453862680735	0.343780517578125	0.34381103515625	-1.51672363281249E-07	-5.21466283487371E-08	-2266801	6.11605792073533E-05
2	623	126.55457068048	0.333709716796875	0.33367919921875	-1.41296386718751E-07	-4.71476653274294E-08	-2361555.25	6.11458235653117E-05
2	624	126.655278680226	0.323638916015625	0.323699951171875	-1.312255859375E-07	-4.24777120144881E-08	-2466744.25	6.11321011092514E-05
2	625	126.755986679972	0.313568115234375	0.31365966796875	-1.2176513671875E-07	-3.81928124681963E-08	-2575939.75	6.11193609074689E-05
2	626	126.856694679718	0.303497314453125	0.303497314453125	-1.13525390624999E-07	-3.44546506880761E-08	-2673387.25	6.11075156484731E-05
2	627	126.957402679463	0.293426513671875	0.293426513671875	-1.04675292968751E-07	-3.07145029410094E-08	-2803207.25	6.10965289524756E-05
2	628	127.058110679209	0.283355712890625	0.283447265625	-9.765625E-08	-2.76803966414718E-08	-2902500	6.10863426118158E-05
2	629	127.158818678955	0.273284912109375	0.273284912109375	-9.03320312499997E-08	-2.46863809394426E-08	-3025338	6.10768765909597E-05
2	630	127.259526678701	0.263214111328125	0.263214111328125	-8.42285156249997E-08	-2.21701323965817E-08	-3125000.25	6.10680872341618E-05
2	631	127.360234678446	0.253143310546875	0.25323486328125	-7.84301757812495E-08	-1.98612557511524E-08	-3228793.75	6.10598945058882E-05
2	632	127.460942678192	0.243072509765625	0.2431640625	-7.32421875E-08	-1.78098673586646E-08	-3320000.25	6.10522547503933E-05
2	633	127.561650677938	0.233001708984375	0.23297119140625	-6.92749023437495E-08	-1.6139056313591E-08	-3362995.5	6.10450806561857E-05
2	634	127.662358677684	0.222930908203125	0.222991943359375	-6.65283203125006E-08	-1.48352778950311E-08	-3351835	6.10382412560284E-05
2	635	127.763066677429	0.212860107421875	0.212921142578125	-6.561279296875E-08	-1.39703502100019E-08	-3245116.5	6.10315873927902E-05
2	636	127.863774677175	0.202789306640625	0.202911376953125	-6.59179687499997E-08	-1.33755051479056E-08	-3078240.75	6.10249662713613E-05
2	637	127.964482676921	0.192718505859375	0.19281005859375	-6.866455078125E-08	-1.32392150575811E-08	-2808000	6.10181887168437E-05
2	638	128.065190676666	0.182647705078125	0.182708740234375	-7.476806640625E-08	-1.36607791745291E-08	-2443673.5	6.10109673289116E-05
2	639	128.165898676412	0.172576904296875	0.17266845703125	-8.48388671875006E-08	-1.46489957941753E-08	-2035251.875	6.1002927395748E-05
2	640	128.266606676158	0.162506103515625	0.162567138671875	-1.007080078125E-07	-1.63718123502576E-08	-1614242.375	6.09935850661714E-05
2	641	128.367314675904	0.152435302734375	0.152496337890625	-1.22985839843751E-07	-1.87548891972256E-08	-1239950.375	6.09823218837846E-05
2	642	128.468022675649	0.142364501953125	0.1424560546875	-1.5533447265625E-07	-2.21283347201506E-08	-917092.375	6.09683083894197E-05
2	643	128.568730675395	0.132293701171875	0.13238525390625	-2.02331542968751E-07	-2.6785711426669E-08	-654298.6875	6.09502967563458E-05
2	644	128.669438675141	0.122222900390625	0.122283935546875	-2.6824951171875E-07	-3.28026033002971E-08	-455858.96875	6.09266026003752E-05
2	645	128.770146674887	0.112152099609375	0.112213134765625	-3.5980224609375E-07	-4.03745374910613E-08	-311874.46875	6.08949776506051E-05
2	646	128.870854674632	0.102081298828125	0.102142333984375	-4.82788085937499E-07	-4.93131011580772E-08	-211567.625	6.0852547903778E-05
2	647	128.971562674378	0.092010498046875	0.092071533203125	-6.4208984375E-07	-5.91181965603482E-08	-143393.53125	6.07959082117304E-05
2	648	129.072270674124	0.081939697265625	0.08203125	-8.38623046875001E-07	-6.87932910636846E-08	-97816.6015625	6.07213478360791E-05
2	649	129.17297867387	0.071868896484375	0.071990966796875	-1.0693359375E-06	-7.69825234669952E-08	-67323.0625	6.06252724537626E-05
2	650	129.273686673615	0.061798095703125	0.061920166015625	-1.32049560546875E-06	-8.17653074136615E-08	-46891.61328125	6.05049353907816E-05
2	651	129.374394673361	0.051727294921875	0.0517578125	-1.5765380859375E-06	-8.15981593405013E-08	-32830.04296875	6.03590597165748E-05
2	652	129.475102673107	0.041656494140625	0.041802978515625	-1.8133544921875E-06	-7.58036193815315E-08	-23052.845703125	6.01883657509461E-05
2	653	129.575810672853	0.031585693359375	0.0317169189453125	-2.0098876953125E-06	-6.37474428799578E-08	-15780.4453125	5.99958475504536E-05
2	654	129.676518672598	0.021514892578125	0.02164306640625	-2.1466064453125E-06	-4.64591458637642E-08	-10082.45703125	5.97865546296816E-05
2	655	129.777226672344	0.011444091796875	0.0115814208984375	-2.21710205078125E-06	-2.56771919282528E-08	-5223.67529296875	5.95668243477121E-05
2	656	129.87793467209	0.001373291015625	0.00151977539062501	-2.22564697265625E-06	-3.38248340447933E-09	-682.846557617188	5.93431141169276E-05
2	657	129.978642671835	-0.008697509765625	-0.00855102539062499	-2.18536376953125E-06	1.86871016438772E-08	3912.86181640625	5.91210009588394E-05
2	658	130.079350671581	-0.018768310546875	-0.018609619140625	-2.11273193359375E-06	3.93171362134126E-08	8808.3203125	5.89045739616267E-05
2	659	130.180058671327	-0.028839111328125	-0.0286590576171875	-2.02423095703125E-06	5.80125494309414E-08	14157.9970703125	5.86962632951327E-05
2	660	130.280766671073	-0.038909912109375	-0.03873291015625	-1.93084716796875E-06	7.47873230011464E-08	20060.060546875	5.8497109421296E-05
2	661	130.381474670818	-0.048980712890625	-0.048779296875	-1.83990478515625E-06	8.97492569151837E-08	26511.861328125	5.83072360313963E-05
2	662	130.482182670564	-0.059051513671875	-0.058929443359375	-1.75537109375E-06	1.03443035470718E-07	33570.93359375	5.8126199292019E-05
2	663	130.58289067031	-0.069122314453125	-0.069000244140625	-1.6778564453125E-06	1.1577250091932E-07	41124.046875	5.7953322539106E-05
2	664	130.683598670056	-0.079193115234375	-0.079071044921875	-1.60888671875E-06	1.27216353007498E-07	49146.43359375	5.7787819969235E-05
2	665	130.784306669801	-0.089263916015625	-0.089141845703125	-1.5472412109375E-06	1.37923933607453E-07	57613.4140625	5.7628898503026E-05
2	666	130.885014669547	-0.099334716796875	-0.0992431640625	-1.4935302734375E-06	1.48222667917253E-07	66448.7109375	5.74757832509931E-05
2	667	130.985722669293	-0.109405517578125	-0.109283447265625	-1.44622802734375E-06	1.58048777620934E-07	75564.46875	5.73277538933326E-05
2	668	131.086430669039	-0.119476318359375	-0.11932373046875	-1.40380859375E-06	1.67507678838774E-07	85000	5.71842429053504E-05
2	669	131.187138668784	-0.129547119140625	-0.129425048828125	-1.36688232421875E-06	1.76908812932197E-07	94686.3125	5.70447264180984E-05
2	670	131.28784666853	-0.139617919921875	-0.13946533203125	-1.334228515625E-06	1.86078622732566E-07	104528.8203125	5.69087169424165E-05
2	671	131.388554668276	-0.149688720703125	-0.149566650390625	-1.30645751953125E-06	1.95402478198048E-07	114482.59375	5.67757488170173E-05
2	672	131.489262668022	-0.159759521484375	-0.15960693359375	-1.2811279296875E-06	2.04476890530714E-07	124583.140625	5.66454509680625E-05
2	673	131.589970667767	-0.169830322265625	-0.169647216796875	-1.25946044921875E-06	2.13663952308707E-07	134698.328125	5.65175214433111E-05
2	674	131.690678667513	-0.179901123046875	-0.179656982421875	-1.240234375E-06	2.22816765926837E-07	144857.28125	5.63916546525434E-05
2	675	131.791386667259	-0.189971923828125	-0.189788818359375	-1.224365234375E-06	2.3237082302785E-07	155009.984375	5.6267552281497E-05
2	676	131.892094667004	-0.200042724609375	-0.1998291015625	-1.21063232421875E-06	2.419195652692E-07	165061.765625	5.61449378437828E-05
2	677	131.99280266675	-0.189971923828125	-0.189788818359375	-1.09039306640625E-06	2.06944420710897E-07	174055.40625	5.60290718567558E-05
