Potential - Start -0.2 V, Upper Vertex 1.5 V, Lower Vertex -0.2 V, Stop -0.19 V; Scan - # end cross 5, Rate 0.1 Vps, Step 0.01 V 
Scan	Index	Time (s)	Potential applied (V)	WE(1).Potential (V)	WE(1).Current (A)	WE(1).Power (W)	WE(1).Resistance (Ω)	WE(1).Charge (C)
1	1	53.1793328657351	-0.189971923828125	-0.1898193359375	-2.20947265625E-07	4.19400620899069E-08	859116.0625	0
1	2	53.2800408654808	-0.179901123046875	-0.179779052734375	-1.87072753906251E-07	3.36317604876513E-08	961011.5	-2.05454391277726E-08
1	3	53.3807488652266	-0.169830322265625	-0.16973876953125	-1.6021728515625E-07	2.71950852948066E-08	1059428.625	-3.80328799565177E-08
1	4	53.4814568649723	-0.159759521484375	-0.159576416015625	-1.36718750000001E-07	2.18170885801783E-08	1167187.5	-5.29847987706944E-08
1	5	53.582164864718	-0.149688720703125	-0.149627685546875	-1.1566162109375E-07	1.73061813768527E-08	1293667.5	-6.56931575804265E-08
1	6	53.6828728644638	-0.139617919921875	-0.139495849609375	-9.67407226562494E-08	1.34949287300401E-08	1441955.875	-7.63884671073356E-08
1	7	53.7835808642095	-0.129547119140625	-0.129425048828125	-7.90405273437503E-08	1.02298240989285E-08	1637451.75	-8.5239754810118E-08
1	8	53.8842888639552	-0.119476318359375	-0.119384765625	-6.01196289062494E-08	7.17736714506145E-09	1985786.875	-9.22470277942011E-08
1	9	53.984996863701	-0.109405517578125	-0.109283447265625	-4.05883789062506E-08	4.43563807905889E-09	2692481.25	-9.73180789287653E-08
1	10	54.0857048634467	-0.099334716796875	-0.099212646484375	-1.95312500000003E-08	1.93774685186554E-09	5079687.5	-1.00345339149044E-07
1	11	54.1864128631925	-0.089263916015625	-0.089202880859375	2.74658203125028E-09	-2.45003045629133E-10	-32477778	-1.01190515522376E-07
1	12	54.2871208629382	-0.079193115234375	-0.079132080078125	3.0517578125E-08	-2.4149193755818E-09	-2593000.25	-9.95155318150864E-08
1	13	54.3878288626839	-0.069122314453125	-0.069061279296875	6.46972656249994E-08	-4.46807568721397E-09	-1067452.875	-9.47210878621263E-08
1	14	54.4885368624297	-0.059051513671875	-0.05902099609375	1.08642578125E-07	-6.41219299879481E-09	-543258.4375	-8.59927311580577E-08
1	15	54.5892448621754	-0.048980712890625	-0.04881591796875	1.67236328125001E-07	-8.16379408519197E-09	-291897.8125	-7.21011232940327E-08
1	16	54.6899528619211	-0.038909912109375	-0.0387603759765625	2.44750976562499E-07	-9.48663902988756E-09	-158366.59375	-5.13559150761012E-08
1	17	54.7906608616669	-0.028839111328125	-0.0286834716796875	3.47290039062501E-07	-9.96148408205499E-09	-82592.265625	-2.15442845785674E-08
1	18	54.8913688614126	-0.018768310546875	-0.018646240234375	4.79736328125E-07	-8.94527918404719E-09	-38867.68359375	2.00998027111154E-08
1	19	54.9920768611584	-0.008697509765625	-0.00855712890625	6.439208984375E-07	-5.51011369864796E-09	-13289.099609375	7.66804362228868E-08
1	20	55.0927848609041	0.001373291015625	0.00147705078125	8.3831787109375E-07	1.23823806763568E-09	1761.92211914063	1.51317095742343E-07
1	21	55.1934928606498	0.011444091796875	0.0115081787109375	1.0528564453125E-06	1.2116459835454E-08	10930.435546875	2.46545283744126E-07
1	22	55.2942008603956	0.021514892578125	0.021588134765625	1.27288818359375E-06	2.74792828491854E-08	16959.962890625	3.63655829005438E-07
1	23	55.3949088601413	0.031585693359375	0.0316680908203125	1.4764404296875E-06	4.67560461459016E-08	21448.9453125	5.02095531373925E-07
1	24	55.495616859887	0.041656494140625	0.0417449951171875	1.64520263671875E-06	6.86789718429281E-08	25373.771484375	6.59282704873476E-07
1	25	55.5963248596328	0.051727294921875	0.051788330078125	1.76300048828125E-06	9.13028515014958E-08	29375.109375	8.30899409720587E-07
1	26	55.6970328593785	0.061798095703125	0.061920166015625	1.8255615234375E-06	1.1303907143656E-07	33918.421875	1.01159787391225E-06
1	27	55.7977408591242	0.071868896484375	0.0718994140625	1.83837890625E-06	1.32178357148405E-07	39110.2265625	1.19609183002467E-06
1	28	55.89844885887	0.081939697265625	0.082000732421875	1.81396484375E-06	1.48746437389491E-07	45205.25	1.38000200422539E-06
1	29	55.9991568586157	0.092010498046875	0.092071533203125	1.76544189453125E-06	1.62546939463937E-07	52152.1171875	1.56023941144667E-06
1	30	56.0998648583615	0.102081298828125	0.10211181640625	1.7041015625E-06	1.74008889075594E-07	59921.20703125	1.73494481714442E-06
1	31	56.2005728581072	0.112152099609375	0.112213134765625	1.639404296875E-06	1.83962683308891E-07	68447.5078125	1.90330365512636E-06
1	32	56.3012808578529	0.122222900390625	0.122222900390625	1.57470703125E-06	1.92465250847818E-07	77616.28125	2.06514710043848E-06
1	33	56.4019888575987	0.132293701171875	0.132354736328125	1.5142822265625E-06	2.00422419993629E-07	87404.2734375	2.22069002120406E-06
1	34	56.5026968573444	0.142364501953125	0.142425537109375	1.45782470703125E-06	2.07631458692958E-07	97697.3046875	2.37034760175447E-06
1	35	56.6034048570901	0.152435302734375	0.1524658203125	1.40716552734375E-06	2.14544641607972E-07	108349.6015625	2.51461119660235E-06
1	36	56.7041128568359	0.162506103515625	0.162567138671875	1.361083984375E-06	2.21267526967495E-07	119439.46875	2.65400353782752E-06
1	37	56.8048208565816	0.172576904296875	0.172607421875	1.31988525390625E-06	2.27821985276933E-07	130774.5703125	2.78900120065373E-06
1	38	56.9055288563274	0.182647705078125	0.182708740234375	1.28387451171875E-06	2.3457508291358E-07	142310.4375	2.92011077362986E-06
1	39	57.0062368560731	0.192718505859375	0.19268798828125	1.2518310546875E-06	2.41212802620794E-07	153924.921875	3.04779382531706E-06
1	40	57.1069448558188	0.202789306640625	0.202789306640625	1.22314453125E-06	2.48040635142388E-07	165793.421875	3.17241870106955E-06
1	41	57.2076528555646	0.212860107421875	0.212890625	1.197509765625E-06	2.54938584021147E-07	177777.78125	3.29430827150645E-06
1	42	57.3083608553103	0.222930908203125	0.222930908203125	1.1749267578125E-06	2.61927482370083E-07	189740.265625	3.41376994583698E-06
1	43	57.409068855056	0.233001708984375	0.2330322265625	1.15325927734375E-06	2.68746589426883E-07	202064.03125	3.53100358552183E-06
1	44	57.5097768548018	0.243072509765625	0.24310302734375	1.1346435546875E-06	2.75835276397629E-07	214254.984375	3.64620859727438E-06
1	45	57.6104848545475	0.253143310546875	0.253143310546875	1.11724853515625E-06	2.82824004216309E-07	226577.4375	3.75960030396527E-06
1	46	57.7111928542932	0.263214111328125	0.263214111328125	1.10198974609375E-06	2.90059233520878E-07	238853.515625	3.87134787160903E-06
1	47	57.811900854039	0.273284912109375	0.27325439453125	1.08917236328125E-06	2.97621113531932E-07	250882.609375	3.98168140236521E-06
1	48	57.9126088537847	0.283355712890625	0.2833251953125	1.07696533203125E-06	3.05131408140369E-07	263077.375	4.09075528295944E-06
1	49	58.0133168535305	0.293426513671875	0.2933349609375	1.06597900390625E-06	3.1268888278646E-07	275178.9375	4.19866091760923E-06
1	50	58.1140248532762	0.303497314453125	0.30352783203125	1.0552978515625E-06	3.20312267376721E-07	287622.90625	4.3054760681116E-06
1	51	58.2147328530219	0.313568115234375	0.31353759765625	1.04583740234375E-06	3.27909333464049E-07	299795.75	4.41127622252679E-06
1	52	58.3154408527677	0.323638916015625	0.323638916015625	1.0369873046875E-06	3.35609456669772E-07	312095.34375	4.51615505880909E-06
1	53	58.4161488525134	0.333709716796875	0.333740234375	1.02935791015625E-06	3.43538147262734E-07	324221.75	4.62020352642867E-06
1	54	58.5168568522591	0.343780517578125	0.34381103515625	1.02264404296875E-06	3.51596298742152E-07	336198.15625	4.72353031000239E-06
1	55	58.6175648520049	0.353851318359375	0.353851318359375	1.016845703125E-06	3.59812190708908E-07	347989.21875	4.82622681374778E-06
1	56	58.7182728517506	0.363922119140625	0.3638916015625	1.01165771484375E-06	3.68133726169617E-07	359698.34375	4.92836988996714E-06
1	57	58.8189808514963	0.373992919921875	0.3740234375	1.00677490234375E-06	3.7655738083231E-07	371506.53125	5.03000592289027E-06
1	58	58.9196888512421	0.384063720703125	0.384124755859375	1.00189208984375E-06	3.84851546186837E-07	383399.34375	5.13115037392708E-06
1	59	59.0203968509878	0.394134521484375	0.394134521484375	9.979248046875E-07	3.93316582858461E-07	394954.15625	5.23184917256003E-06
1	60	59.1211048507336	0.404205322265625	0.4041748046875	9.9456787109375E-07	4.01979264097463E-07	406382.34375	5.33217917109141E-06
1	61	59.2218128504793	0.414276123046875	0.41424560546875	9.9212646484375E-07	4.1098400060946E-07	417533.09375	5.43221722182352E-06
1	62	59.322520850225	0.424346923828125	0.424407958984375	9.89990234375E-07	4.20159722125391E-07	428699.15625	5.53202471564873E-06
1	63	59.4232288499708	0.434417724609375	0.4344482421875	9.89379882812499E-07	4.29834329906953E-07	439111.6875	5.63169396627927E-06
1	64	59.5239368497165	0.444488525390625	0.44451904296875	9.88159179687501E-07	4.39255558148943E-07	449845.59375	5.73127090319758E-06
1	65	59.6246448494622	0.454559326171875	0.45458984375	9.87548828125E-07	4.48929654339736E-07	460321.40625	5.83075598115101E-06
1	66	59.725352849208	0.464630126953125	0.464569091796875	9.8724365234375E-07	4.58642887224414E-07	470571.875	5.93019467487466E-06
1	67	59.8260608489537	0.474700927734375	0.47467041015625	9.87854003906249E-07	4.68905028583322E-07	480506.6875	6.02964837526088E-06
1	68	59.9267688486995	0.484771728515625	0.48480224609375	9.89685058593751E-07	4.79801542496716E-07	489855.0625	6.12922576692654E-06
1	69	60.0274768484452	0.494842529296875	0.49481201171875	9.918212890625E-07	4.90765046379238E-07	498892.3125	6.22900233793189E-06
1	70	60.1281848481909	0.504913330078125	0.50494384765625	9.9517822265625E-07	5.02509124089556E-07	507390.375	6.32905585007393E-06
1	71	60.2288928479367	0.514984130859375	0.514984130859375	9.9945068359375E-07	5.14701241627336E-07	515267.1875	6.42949316898012E-06
1	72	60.3296008476824	0.525054931640625	0.525054931640625	1.0052490234375E-06	5.27810982475785E-07	522313.28125	6.53043798592989E-06
1	73	60.4303088474281	0.535125732421875	0.535064697265625	1.011962890625E-06	5.41465567494015E-07	528739.5	6.63201262796065E-06
1	74	60.5310168471739	0.545196533203125	0.545166015625	1.0205078125E-06	5.56346151370235E-07	534210.5625	6.7343557930144E-06
1	75	60.6317248469196	0.555267333984375	0.5552978515625	1.031494140625E-06	5.72786461816577E-07	538343.25	6.83768212184077E-06
1	76	60.7324328466653	0.565338134765625	0.5653076171875	1.0455322265625E-06	5.91047296438774E-07	540688.875	6.94226855557645E-06
1	77	60.8331408464111	0.575408935546875	0.575439453125	1.0650634765625E-06	6.12879489381157E-07	540286.5625	7.04854573996272E-06
1	78	60.9338488461568	0.585479736328125	0.585479736328125	1.09100341796875E-06	6.38760354831902E-07	536643.375	7.15711212251335E-06
1	79	61.0345568459026	0.595550537109375	0.59552001953125	1.126708984375E-06	6.70977726713318E-07	528548.1875	7.26878306522849E-06
1	80	61.1352648456483	0.605621337890625	0.6055908203125	1.17584228515625E-06	7.12079270215327E-07	515027.25	7.3847254498105E-06
1	81	61.235972845394	0.615692138671875	0.61566162109375	1.24420166015625E-06	7.66007190122764E-07	494824.65625	7.5065845521749E-06
1	82	61.3366808451398	0.625762939453125	0.6256103515625	1.336669921875E-06	8.36234562484606E-07	468036.53125	7.63654134061653E-06
1	83	61.4373888448855	0.635833740234375	0.6357421875	1.45965576171875E-06	9.27964777019952E-07	435542.53125	7.77734749135561E-06
1	84	61.5380968446312	0.645904541015625	0.645904541015625	1.617431640625E-06	1.04470643691457E-06	399339.625	7.93229173723375E-06
1	85	61.638804844377	0.655975341796875	0.655914306640625	1.80816650390625E-06	1.18600223686371E-06	362751.0625	8.1047837738879E-06
1	86	61.7395128441227	0.666046142578125	0.665985107421875	2.02545166015625E-06	1.34892059122649E-06	328808.21875	8.2978222053498E-06
1	87	61.8402208438685	0.676116943359375	0.676055908203125	2.2552490234375E-06	1.52467441694171E-06	299769.96875	8.51337244966999E-06
1	88	61.9409288436142	0.686187744140625	0.686126708984375	2.47894287109375E-06	1.70086889283994E-06	276781.96875	8.75175828696229E-06
1	89	62.0416368433599	0.696258544921875	0.696197509765625	2.674560546875E-06	1.86202225904708E-06	260303.53125	9.01125713426154E-06
1	90	62.1423448431057	0.706329345703125	0.70623779296875	2.82806396484375E-06	1.99728560801304E-06	249724.828125	9.28833651414607E-06
1	91	62.2430528428514	0.716400146484375	0.71630859375	2.92694091796875E-06	2.09659287975228E-06	244729.4375	9.57812426349847E-06
1	92	62.3437608425971	0.726470947265625	0.72637939453125	2.97515869140625E-06	2.16109401662834E-06	244148.125	9.8753180282074E-06
1	93	62.4444688423429	0.736541748046875	0.736419677734375	2.98248291015625E-06	2.19635899156856E-06	246914.984375	1.0175309398619E-05
1	94	62.5451768420886	0.746612548828125	0.74652099609375	2.96478271484375E-06	2.21327240979008E-06	251796.203125	1.04747778095771E-05
1	95	62.6458848418343	0.756683349609375	0.7568359375	2.9376220703125E-06	2.22329776988772E-06	257635.578125	1.07719879451906E-05
1	96	62.7465928415801	0.766754150390625	0.76629638671875	2.91351318359375E-06	2.23261463361268E-06	263014.5625	1.10666160253459E-05
1	97	62.8473008413258	0.776824951171875	0.77667236328125	2.9071044921875E-06	2.25786766350211E-06	267163.5625	1.13597070594551E-05
1	98	62.9480088410716	0.786895751953125	0.7867431640625	2.92816162109375E-06	2.30371119869233E-06	268681.59375	1.16535366032622E-05
1	99	63.0487168408173	0.796966552734375	0.797119140625	2.98614501953125E-06	2.38031316257548E-06	266939.21875	1.19513451863895E-05
1	100	63.149424840563	0.807037353515625	0.806884765625	3.0889892578125E-06	2.49245840677759E-06	261213.203125	1.22572528198361E-05
1	101	63.2501328403088	0.817108154296875	0.81787109375	3.23822021484375E-06	2.64844675257336E-06	252568.09375	1.2575852451846E-05
1	102	63.3508408400545	0.827178955078125	0.82733154296875	3.43292236328125E-06	2.84016482510197E-06	240999.203125	1.29117715914617E-05
1	103	63.4515488398002	0.837249755859375	0.83770751953125	3.65966796875E-06	3.06573133457277E-06	228902.59375	1.32689119709539E-05
1	104	63.552256839546	0.847320556640625	0.8477783203125	3.90045166015625E-06	3.30671832671214E-06	217353.875	1.36495937113068E-05
1	105	63.6529648392917	0.857391357421875	0.85693359375	4.1314697265625E-06	3.54039525518601E-06	207416.15625	1.40540332722594E-05
1	106	63.7536728390374	0.867462158203125	0.867919921875	4.3280029296875E-06	3.75636000171653E-06	200535.890625	1.44800014822977E-05
1	107	63.8543808387832	0.877532958984375	0.87799072265625	4.46746826171875E-06	3.92239553548279E-06	196529.828125	1.4922889022273E-05
1	108	63.9550888385289	0.887603759765625	0.887451171875	4.541015625E-06	4.02992964154691E-06	195430.109375	1.53765013237717E-05
1	109	64.0557968382747	0.897674560546875	0.89752197265625	4.54925537109375E-06	4.08305641030893E-06	197289.875	1.58342336362693E-05
1	110	64.1565048380204	0.907745361328125	0.90789794921875	4.505615234375E-06	4.09063841289026E-06	201503.671875	1.62901815201622E-05
1	111	64.2572128377661	0.917816162109375	0.91796875	4.425048828125E-06	4.06205663239234E-06	207448.28125	1.6739877537475E-05
1	112	64.3579208375119	0.927886962890625	0.92803955078125	4.32464599609375E-06	4.01344232159317E-06	214593.1875	1.71804585988866E-05
1	113	64.4586288372576	0.937957763671875	0.93841552734375	4.21722412109375E-06	3.95750885218149E-06	222519.71875	1.76105768332491E-05
1	114	64.5593368370033	0.948028564453125	0.94757080078125	4.1107177734375E-06	3.89519618693157E-06	230512.25	1.80299211933743E-05
1	115	64.6600448367491	0.958099365234375	0.9576416015625	4.01031494140625E-06	3.84044460588484E-06	238794.609375	1.84388482011855E-05
1	116	64.7607528364948	0.968170166015625	0.96832275390625	3.91754150390625E-06	3.79344464818132E-06	247176.125	1.88380472536664E-05
1	117	64.8614608362406	0.978240966796875	0.97808837890625	3.8330078125E-06	3.74902015209955E-06	255175.171875	1.92283187061548E-05
1	118	64.9621688359863	0.988311767578125	0.98876953125	3.75640869140625E-06	3.71422243006236E-06	263222.03125	1.9610475646914E-05
1	119	65.062876835732	0.998382568359375	0.99884033203125	3.68682861328125E-06	3.68255291505193E-06	270921.28125	1.99852729565464E-05
1	120	65.1635848354778	1.00845336914063	1.00860595703125	3.62396240234375E-06	3.65515006706119E-06	278315.78125	2.0353400032036E-05
1	121	65.2642928352235	1.01852416992188	1.0186767578125	3.56781005859375E-06	3.63444496542797E-06	285518.78125	2.07155353564303E-05
1	122	65.3650008349692	1.02859497070313	1.0284423828125	3.51715087890625E-06	3.61718707608816E-06	292407.8125	2.10722919291584E-05
1	123	65.465708834715	1.03866577148438	1.038818359375	3.470458984375E-06	3.60517651643022E-06	299331.6875	2.14241445064545E-05
1	124	65.5664168344607	1.04873657226563	1.04888916015625	3.42987060546875E-06	3.59755404133466E-06	305810.125	2.1771604224341E-05
1	125	65.6671248342064	1.05880737304688	1.058349609375	3.39141845703125E-06	3.58930628863163E-06	312066.9375	2.21150839934126E-05
1	126	65.7678328339522	1.06887817382813	1.0693359375	3.355712890625E-06	3.58838428837771E-06	318661.34375	2.24548293772386E-05
1	127	65.8685408336979	1.07894897460938	1.0784912109375	3.32275390625E-06	3.58356078322686E-06	324577.53125	2.27911168622086E-05
1	128	65.9692488334437	1.08901977539063	1.0888671875	3.2928466796875E-06	3.58547254108998E-06	330676.5625	2.3124237486627E-05
1	129	66.0699568331894	1.09909057617188	1.0992431640625	3.265380859375E-06	3.58944771505776E-06	336635.5	2.34544713748619E-05
1	130	66.1706648329351	1.10916137695313	1.109619140625	3.24005126953125E-06	3.59522277904034E-06	342469.625	2.37820459005889E-05
1	131	66.2713728326809	1.11923217773438	1.11968994140625	3.2171630859375E-06	3.60222520612297E-06	348036.4375	2.41071920754621E-05
1	132	66.3720808324266	1.12930297851563	1.12945556640625	3.19610595703125E-06	3.60985950464965E-06	353384.90625	2.44301263592206E-05
1	133	66.4727888321723	1.13937377929688	1.13922119140625	3.17779541015625E-06	3.62021182809258E-06	358494.1875	2.47510779445292E-05
1	134	66.5734968319181	1.14944458007813	1.14898681640625	3.160400390625E-06	3.63125832336664E-06	363557.34375	2.50702305493178E-05
1	135	66.6742048316638	1.15951538085938	1.15966796875	3.1439208984375E-06	3.64590437129664E-06	368860.4375	2.53876787610352E-05
1	136	66.7749128314096	1.16958618164063	1.16973876953125	3.12957763671875E-06	3.66078825209115E-06	373768.90625	2.5703573555802E-05
1	137	66.8756208311553	1.17965698242188	1.17950439453125	3.11676025390625E-06	3.67623215424828E-06	378439.25	2.60181022895267E-05
1	138	66.976328830901	1.18972778320313	1.18927001953125	3.10638427734375E-06	3.69432950719784E-06	382847.0625	2.63314632320544E-05
1	139	67.0770368306468	1.19979858398438	1.19964599609375	3.09722900390625E-06	3.71557825928903E-06	387328.8125	2.66438401013147E-05
1	140	67.1777448303925	1.20986938476563	1.209716796875	3.08990478515625E-06	3.73790976482269E-06	391506.15625	2.69553856924176E-05
1	141	67.2784528301382	1.21994018554688	1.219482421875	3.0828857421875E-06	3.7595250432787E-06	395565.21875	2.72662109637167E-05
1	142	67.379160829884	1.23001098632813	1.2298583984375	3.077392578125E-06	3.78475692741631E-06	399643.03125	2.75764050456928E-05
1	143	67.4798688296297	1.24008178710938	1.240234375	3.07220458984375E-06	3.81025347451214E-06	403695.25	2.78860625257948E-05
1	144	67.5805768293754	1.25015258789063	1.25030517578125	3.06854248046875E-06	3.83661426894832E-06	407459	2.8195274353493E-05
1	145	67.6812848291212	1.26022338867188	1.26068115234375	3.06671142578125E-06	3.86614510716754E-06	411085.6875	2.85042078758124E-05
1	146	67.7819928288669	1.27029418945313	1.27044677734375	3.0657958984375E-06	3.89493061447865E-06	414393.78125	2.88130049739266E-05
1	147	67.8827008286127	1.28036499023438	1.28021240234375	3.06610107421875E-06	3.92526044379338E-06	417537.5625	2.91217693302315E-05
1	148	67.9834088283584	1.29043579101563	1.29058837890625	3.0670166015625E-06	3.958256002079E-06	420796.03125	2.94305973511655E-05
1	149	68.0841168281041	1.30050659179688	1.300048828125	3.06854248046875E-06	3.98925476474687E-06	423669.84375	2.97395472443895E-05
1	150	68.1848248278499	1.31057739257813	1.31103515625	3.0712890625E-06	4.02656769438181E-06	426868.0625	3.00487117783632E-05
1	151	68.2855328275956	1.32064819335938	1.32110595703125	3.074951171875E-06	4.06233630201314E-06	429634.78125	3.03582000924507E-05
1	152	68.3862408273413	1.33071899414063	1.33056640625	3.08013916015625E-06	4.0983295548358E-06	431982.5625	3.06681322399527E-05
1	153	68.4869488270871	1.34078979492188	1.34063720703125	3.08746337890625E-06	4.13916814068216E-06	434219.65625	3.09786955767777E-05
1	154	68.5876568268328	1.35086059570313	1.3507080078125	3.09600830078125E-06	4.18180297856452E-06	436274.03125	3.12900592689402E-05
1	155	68.6883648265785	1.36093139648438	1.36077880859375	3.10638427734375E-06	4.22710172642837E-06	438058.75	3.16023761115503E-05
1	156	68.7890728263243	1.37100219726563	1.370849609375	3.1182861328125E-06	4.27470104114036E-06	439616.375	3.19158098136541E-05
1	157	68.88978082607	1.38107299804688	1.38092041015625	3.1329345703125E-06	4.32633351010736E-06	440775.375	3.22305859299377E-05
1	158	68.9904888258158	1.39114379882813	1.3909912109375	3.150634765625E-06	4.38250526713091E-06	441495.5625	3.2546988222748E-05
1	159	69.0911968255615	1.40121459960938	1.4007568359375	3.17291259765625E-06	4.44447914560442E-06	441473.5	3.28654023178387E-05
1	160	69.1919048253072	1.41128540039063	1.41082763671875	3.20037841796875E-06	4.51518235422554E-06	440831.5	3.31863266183063E-05
1	161	69.292612825053	1.42135620117188	1.42120361328125	3.233642578125E-06	4.59566444988013E-06	439505.5	3.35103031829931E-05
1	162	69.3933208247987	1.43142700195313	1.4312744140625	3.2745361328125E-06	4.68675989395706E-06	437092.28125	3.38380159519147E-05
1	163	69.4940288245444	1.44149780273438	1.441650390625	3.32183837890625E-06	4.78892934552277E-06	433991.75	3.41701706929598E-05
1	164	69.5947368242902	1.45156860351563	1.45172119140625	3.3782958984375E-06	4.90434376843041E-06	429719.96875	3.45075495715719E-05
1	165	69.6954448240359	1.46163940429688	1.461181640625	3.443603515625E-06	5.03172987009748E-06	424317.625	3.48510584444739E-05
1	166	69.7961528237817	1.47171020507813	1.47125244140625	3.52142333984375E-06	5.18090246259817E-06	417800.53125	3.52017741533928E-05
1	167	69.8968608235274	1.48178100585938	1.48193359375	3.61358642578125E-06	5.35509525434463E-06	410100.5	3.55610500264447E-05
1	168	69.9975688232731	1.49185180664063	1.49169921875	3.72222900390625E-06	5.55244605493499E-06	400754.28125	3.59304394805804E-05
1	169	70.0982768230189	1.50192260742188	1.50146484375	3.84765625E-06	5.77712035010336E-06	390228.4375	3.63116123480722E-05
1	170	70.1989848227646	1.49185180664063	1.49169921875	3.52386474609375E-06	5.25654604643933E-06	423313.40625	3.66827989637386E-05
1	171	70.2996928225103	1.48178100585938	1.48162841796875	3.2843017578125E-06	4.86611497763079E-06	451124.3125	3.70256166206673E-05
1	172	70.4004008222561	1.47171020507813	1.47186279296875	3.09295654296875E-06	4.55240751762176E-06	475875.71875	3.73467373719905E-05
1	173	70.5011088220018	1.46163940429688	1.4617919921875	2.9351806640625E-06	4.2906235648843E-06	498024.53125	3.76502794097178E-05
1	174	70.6018168217475	1.45156860351563	1.451416015625	2.803955078125E-06	4.06970548283425E-06	517631.6875	3.79392658942379E-05
1	175	70.7025248214933	1.44149780273438	1.44134521484375	2.69256591796875E-06	3.88091712011374E-06	535305.4375	3.82160396839026E-05
1	176	70.803232821239	1.43142700195313	1.4312744140625	2.59796142578125E-06	3.71839564650145E-06	550922.125	3.84824379580095E-05
1	177	70.9039408209848	1.42135620117188	1.4208984375	2.5177001953125E-06	3.57739600076457E-06	564363.6875	3.87400323234033E-05
1	178	71.0046488207305	1.41128540039063	1.4111328125	2.447509765625E-06	3.45376133736863E-06	576558.5625	3.89900487789419E-05
1	179	71.1053568204762	1.40121459960938	1.40106201171875	2.3858642578125E-06	3.34274386659672E-06	587234.5625	3.92334295611363E-05
1	180	71.206064820222	1.39114379882813	1.39129638671875	2.33154296875E-06	3.24386724059877E-06	596727.75	3.94709713873453E-05
1	181	71.3067728199677	1.38107299804688	1.38092041015625	2.28271484375E-06	3.15224747282628E-06	604946.5	3.97033181798179E-05
1	182	71.4074808197134	1.37100219726563	1.37054443359375	2.239990234375E-06	3.07000618704478E-06	611852.875	3.9931052015163E-05
1	183	71.5081888194592	1.36093139648438	1.36077880859375	2.200927734375E-06	2.99497560263262E-06	618275.125	4.01546712964773E-05
1	184	71.6088968192049	1.35086059570313	1.35101318359375	2.16644287109375E-06	2.9268926482473E-06	623609	4.0374587115366E-05
1	185	71.7096048189507	1.34078979492188	1.3409423828125	2.13592529296875E-06	2.86415274786123E-06	627803.9375	4.05912287533283E-05
1	186	71.8103128186964	1.33071899414063	1.33026123046875	2.10784912109375E-06	2.80398990071262E-06	631098.9375	4.08049163524993E-05
1	187	71.9110208184421	1.32064819335938	1.32049560546875	2.081298828125E-06	2.74834587798978E-06	634457.5	4.10158572776709E-05
1	188	72.0117288181879	1.31057739257813	1.31072998046875	2.056884765625E-06	2.6960206014337E-06	637240.375	4.12242334277835E-05
1	189	72.1124368179336	1.30050659179688	1.3006591796875	2.03338623046875E-06	2.64474238065304E-06	639651.8125	4.14301939599682E-05
1	190	72.2131448176793	1.29043579101563	1.29058837890625	2.01171875E-06	2.59630064647354E-06	641535.25	4.16338807553984E-05
1	191	72.3138528174251	1.28036499023438	1.280517578125	1.9915771484375E-06	2.55024951911764E-06	642966.5625	4.18354647990782E-05
1	192	72.4145608171708	1.27029418945313	1.270751953125	1.97357177734375E-06	2.5079200440814E-06	643884.375	4.2035124351969E-05
1	193	72.5152688169165	1.26022338867188	1.26007080078125	1.95465087890625E-06	2.46299828177143E-06	644652.625	4.22329248976894E-05
1	194	72.6159768166623	1.25015258789063	1.25	1.93756103515625E-06	2.42195119426469E-06	645141	4.24289137299638E-05
1	195	72.716684816408	1.24008178710938	1.23992919921875	1.9207763671875E-06	2.38162670029851E-06	645535.4375	4.26231963501777E-05
1	196	72.8173928161538	1.23001098632813	1.2298583984375	1.90338134765625E-06	2.3408895231114E-06	646144	4.28157582064159E-05
1	197	72.9181008158995	1.21994018554688	1.2200927734375	1.8865966796875E-06	2.30182286031777E-06	646716.3125	4.30065992986783E-05
1	198	73.0188088156452	1.20986938476563	1.21002197265625	1.8701171875E-06	2.26288284466136E-06	647030.0625	4.31957632827107E-05
1	199	73.119516815391	1.19979858398438	1.199951171875	1.85516357421875E-06	2.22610560740577E-06	646816.9375	4.33833483839408E-05
1	200	73.2202248151367	1.18972778320313	1.18988037109375	1.8402099609375E-06	2.18962964027014E-06	646600.3125	4.35694237239659E-05
1	201	73.3209328148824	1.17965698242188	1.1798095703125	1.8267822265625E-06	2.15525506064296E-06	645840.3125	4.37540729762986E-05
1	202	73.4216408146282	1.16958618164063	1.16973876953125	1.812744140625E-06	2.12043710234866E-06	645286.1875	4.39373361587059E-05
1	203	73.5223488143739	1.15951538085938	1.1590576171875	1.7987060546875E-06	2.08480378205422E-06	644384.125	4.4119187805336E-05
1	204	73.6230568141196	1.14944458007813	1.14959716796875	1.78436279296875E-06	2.05129845198826E-06	644262	4.42996097262949E-05
1	205	73.7237648138654	1.13937377929688	1.13922119140625	1.771240234375E-06	2.01783427655755E-06	643177.125	4.44786492153071E-05
1	206	73.8244728136111	1.12930297851563	1.129150390625	1.759033203125E-06	1.98621296476631E-06	641915.375	4.4656411773758E-05
1	207	73.9251808133569	1.11923217773438	1.11907958984375	1.7474365234375E-06	1.95552047443925E-06	640412.1875	4.48329774371814E-05
1	208	74.0258888131026	1.10916137695313	1.10870361328125	1.73614501953125E-06	1.92487027561583E-06	638600.8125	4.50083898613229E-05
1	209	74.1265968128483	1.09909057617188	1.0992431640625	1.72454833984375E-06	1.89569789199595E-06	637409.3125	4.51826490461826E-05
1	210	74.2273048125941	1.08901977539063	1.08917236328125	1.71356201171875E-06	1.86636430044018E-06	635618.9375	4.53557695436757E-05
1	211	74.3280128123398	1.07894897460938	1.07879638671875	1.70135498046875E-06	1.8354155599809E-06	634080.75	4.55277258879505E-05
1	212	74.4287208120855	1.06887817382813	1.0687255859375	1.68914794921875E-06	1.8052355699183E-06	632701	4.56984525953885E-05
1	213	74.5294288118313	1.05880737304688	1.0589599609375	1.67724609375E-06	1.77613640062191E-06	631368.3125	4.5867964217905E-05
1	214	74.630136811577	1.04873657226563	1.04888916015625	1.6650390625E-06	1.74644139860902E-06	629948.6875	4.60362607554998E-05
1	215	74.7308448113228	1.03866577148438	1.0382080078125	1.65313720703125E-06	1.71630017575808E-06	628022.9375	4.62033422081731E-05
1	216	74.8315528110685	1.02859497070313	1.0284423828125	1.64031982421875E-06	1.68697431490727E-06	626976.75	4.63691831100732E-05
1	217	74.9322608108142	1.01852416992188	1.0186767578125	1.62689208984375E-06	1.65727715284447E-06	626148.9375	4.65336997876875E-05
1	218	75.03296881056	1.00845336914063	1.00860595703125	1.6119384765625E-06	1.62581068252621E-06	625710	4.66967867396306E-05
1	219	75.1336768103057	0.998382568359375	0.99853515625	1.59515380859375E-06	1.59281717060367E-06	625980.5	4.68582766188774E-05
1	220	75.2343848100514	0.988311767578125	0.9881591796875	1.57623291015625E-06	1.55756902131543E-06	626911.9375	4.70179693365935E-05
1	221	75.3350928097972	0.978240966796875	0.97869873046875	1.553955078125E-06	1.52085385707323E-06	629811.5	4.71755884063896E-05
1	222	75.4358008095429	0.968170166015625	0.96832275390625	1.52801513671875E-06	1.4796117966398E-06	633712.8125	4.73307773063425E-05
1	223	75.5365088092886	0.958099365234375	0.95794677734375	1.49627685546875E-06	1.43335353186558E-06	640220.3125	4.74830630992074E-05
1	224	75.6372168090344	0.948028564453125	0.948486328125	1.45477294921875E-06	1.37983226977667E-06	651982.375	4.76316599815618E-05
1	225	75.7379248087801	0.937957763671875	0.93780517578125	1.39984130859375E-06	1.31277840864641E-06	669936.8125	4.77754001622088E-05
1	226	75.8386328085259	0.927886962890625	0.927734375	1.32598876953125E-06	1.23016525321873E-06	699654.8125	4.79126574646216E-05
1	227	75.9393408082716	0.917816162109375	0.91796875	1.22772216796875E-06	1.12701059151732E-06	747700.75	4.80412454635371E-05
1	228	76.0400488080173	0.907745361328125	0.90789794921875	1.09710693359375E-06	9.96061089608702E-07	827538.3125	4.81583119835705E-05
1	229	76.1407568077631	0.897674560546875	0.897216796875	9.2803955078125E-07	8.32652631288511E-07	966787.25	4.82602845295332E-05
1	230	76.2414648075088	0.887603759765625	0.8880615234375	7.17773437499999E-07	6.37426978755684E-07	1237244.875	4.83431576867588E-05
1	231	76.3421728072545	0.877532958984375	0.87738037109375	4.656982421875E-07	4.08594502232518E-07	1884010.5	4.84027514175978E-05
1	232	76.4428808070003	0.867462158203125	0.8673095703125	1.8035888671875E-07	1.56426978037416E-07	4808799	4.84352822240908E-05
1	233	76.543588806746	0.857391357421875	0.8575439453125	-1.2359619140625E-07	-1.05989165888332E-07	-6938271.5	4.84381416754331E-05
1	234	76.6442968064918	0.847320556640625	0.84747314453125	-4.19921875E-07	-3.55872487034503E-07	-2018168.625	4.84107731608674E-05
1	235	76.7450048062375	0.837249755859375	0.83709716796875	-6.8511962890625E-07	-5.73511726997822E-07	-1221826.25	4.83551302750129E-05
1	236	76.8457128059832	0.827178955078125	0.8270263671875	-8.95080566406251E-07	-7.40255188702577E-07	-923968.6875	4.82755604025442E-05
1	237	76.946420805729	0.817108154296875	0.8172607421875	-1.038818359375E-06	-8.48985450829787E-07	-786721.5	4.8178178985836E-05
1	238	77.0471288054747	0.807037353515625	0.8074951171875	-1.11236572265625E-06	-8.98229870927025E-07	-725925.9375	4.80698581668548E-05
1	239	77.1478368052204	0.796966552734375	0.79742431640625	-1.12701416015625E-06	-8.98708435670414E-07	-707554.875	4.7957099013729E-05
1	240	77.2485448049662	0.786895751953125	0.78704833984375	-1.10076904296875E-06	-8.66358448092797E-07	-714998.625	4.78449182992335E-05
1	241	77.3492528047119	0.776824951171875	0.7769775390625	-1.05194091796875E-06	-8.173344667739E-07	-738613.3125	4.77365210826974E-05
1	242	77.4499608044576	0.766754150390625	0.7666015625	-9.99755859375E-07	-7.66414359532064E-07	-766788.8125	4.76332097605336E-05
1	243	77.5506688042034	0.756683349609375	0.7568359375	-9.564208984375E-07	-7.23853702311317E-07	-791321	4.75347078463528E-05
1	244	77.6513768039491	0.746612548828125	0.746490478515625	-9.34753417968751E-07	-6.97784514613886E-07	-798596.125	4.74394801130984E-05
1	245	77.7520848036949	0.736541748046875	0.736419677734375	-9.4268798828125E-07	-6.94213952101563E-07	-781191.375	4.73449435958173E-05
1	246	77.8527928034406	0.726470947265625	0.72637939453125	-9.86328124999999E-07	-7.16448425919225E-07	-736448	4.7247809561668E-05
1	247	77.9535008031863	0.716400146484375	0.71630859375	-1.07177734375E-06	-7.67723292938172E-07	-668337.125	4.71441780973691E-05
1	248	78.0542088029321	0.706329345703125	0.706298828125	-1.197509765625E-06	-8.45799718263152E-07	-589806.3125	4.70299091830384E-05
1	249	78.1549168026778	0.696258544921875	0.6962890625	-1.3568115234375E-06	-9.44733017149701E-07	-513180.40625	4.69012884423137E-05
1	250	78.2556248024235	0.686187744140625	0.6861572265625	-1.5338134765625E-06	-1.05243725556647E-06	-447353.75	4.67557365482207E-05
1	251	78.3563328021693	0.676116943359375	0.676025390625	-1.7071533203125E-06	-1.15407897283148E-06	-395995.71875	4.65925404569134E-05
1	252	78.457040801915	0.666046142578125	0.66595458984375	-1.85302734375E-06	-1.23403196994332E-06	-359387.375	4.64132681372575E-05
1	253	78.5577488016608	0.655975341796875	0.655914306640625	-1.95343017578125E-06	-1.28128283449769E-06	-335775.65625	4.62216012238059E-05
1	254	78.6584568014065	0.645904541015625	0.645843505859375	-1.998291015625E-06	-1.29058332731802E-06	-323197.90625	4.60226146969944E-05
1	255	78.7591648011522	0.635833740234375	0.63580322265625	-1.99127197265625E-06	-1.26605721106898E-06	-319295	4.58217255072668E-05
1	256	78.859872800898	0.625762939453125	0.625762939453125	-1.94183349609375E-06	-1.21512744044594E-06	-322253.65625	4.56236775789876E-05
1	257	78.9605808006437	0.615692138671875	0.615631103515625	-1.864013671875E-06	-1.1475447081466E-06	-330271.78125	4.54320361313876E-05
1	258	79.0612888003894	0.605621337890625	0.605560302734375	-1.7718505859375E-06	-1.07296239093557E-06	-341767.15625	4.52489548479207E-05
1	259	79.1619968001352	0.595550537109375	0.595489501953125	-1.673583984375E-06	-9.96601670522068E-07	-355816.9375	4.50754632765893E-05
1	260	79.2627047998809	0.585479736328125	0.585479736328125	-1.57623291015625E-06	-9.22852393614448E-07	-371442.40625	4.49118233518675E-05
1	261	79.3634127996266	0.575408935546875	0.575408935546875	-1.483154296875E-06	-8.5342020383905E-07	-387962.96875	4.47577731392812E-05
1	262	79.4641207993724	0.565338134765625	0.56536865234375	-1.39739990234375E-06	-7.90046044585324E-07	-404586.15625	4.46127232862636E-05
1	263	79.5648287991181	0.555267333984375	0.55523681640625	-1.31866455078125E-06	-7.32171088202449E-07	-421059.9375	4.44759607489686E-05
1	264	79.6655367988639	0.545196533203125	0.545166015625	-1.24755859375E-06	-6.80126504448708E-07	-436986.3125	4.43467397417407E-05
1	265	79.7662447986096	0.535125732421875	0.53509521484375	-1.18255615234375E-06	-6.32780142950651E-07	-452490.3125	4.42243726865854E-05
1	266	79.8669527983553	0.525054931640625	0.525054931640625	-1.124267578125E-06	-5.90302249747765E-07	-467019.5625	4.41082156612538E-05
1	267	79.9676607981011	0.514984130859375	0.51495361328125	-1.0711669921875E-06	-5.51601260667667E-07	-480740.78125	4.39976683992427E-05
1	268	80.0683687978468	0.504913330078125	0.504852294921875	-1.02264404296875E-06	-5.16284160312352E-07	-493673.53125	4.38922361354344E-05
1	269	80.1690767975925	0.494842529296875	0.4947509765625	-9.7808837890625E-07	-4.83910184811975E-07	-505834.65625	4.37914895883296E-05
1	270	80.2697847973383	0.484771728515625	0.48480224609375	-9.37499999999999E-07	-4.54502099955789E-07	-517122.40625	4.36950322182383E-05
1	271	80.370492797084	0.474700927734375	0.47467041015625	-9.002685546875E-07	-4.27330860475195E-07	-527254.25	4.36024929513223E-05
1	272	80.4712007968297	0.464630126953125	0.464630126953125	-8.65783691406249E-07	-4.02269165533653E-07	-536658.5	4.35135661973618E-05
1	273	80.5719087965755	0.454559326171875	0.454620361328125	-8.34045410156251E-07	-3.7917402551102E-07	-545078.6875	4.34279718319885E-05
1	274	80.6726167963212	0.444488525390625	0.44451904296875	-8.0413818359375E-07	-3.57454723598494E-07	-552789.375	4.33454843005165E-05
1	275	80.773324796067	0.434417724609375	0.434417724609375	-7.7667236328125E-07	-3.37400223315854E-07	-559332.0625	4.32658853242174E-05
1	276	80.8740327958127	0.424346923828125	0.424346923828125	-7.50122070312501E-07	-3.18312004310428E-07	-565703.8125	4.31890039180871E-05
1	277	80.9747407955584	0.414276123046875	0.414215087890625	-7.25402832031249E-07	-3.00472777325922E-07	-571013.9375	4.31147054769099E-05
1	278	81.0754487953042	0.404205322265625	0.404144287109375	-7.0220947265625E-07	-2.83793923472331E-07	-575532.4375	4.30428190156817E-05
1	279	81.1761567950499	0.394134521484375	0.394134521484375	-6.8084716796875E-07	-2.68345360154854E-07	-578888.375	4.29731771873776E-05
1	280	81.2768647947956	0.384063720703125	0.384063720703125	-6.6070556640625E-07	-2.53753029255677E-07	-581293.3125	4.29056235589087E-05
1	281	81.3775727945414	0.373992919921875	0.373992919921875	-6.41784667968751E-07	-2.4002292775549E-07	-582738.9375	4.28400380769745E-05
1	282	81.4782807942871	0.363922119140625	0.3638916015625	-6.23474121093751E-07	-2.26876977649226E-07	-583651.5625	4.27763261541259E-05
1	283	81.5789887940329	0.353851318359375	0.353851318359375	-6.06689453125001E-07	-2.14677854160072E-07	-583249.5625	4.27143822889775E-05
1	284	81.6796967937786	0.343780517578125	0.343780517578125	-5.8929443359375E-07	-2.02587941089405E-07	-583376.5	4.26541628257837E-05
1	285	81.7804047935243	0.333709716796875	0.333740234375	-5.7403564453125E-07	-1.91578791941538E-07	-581392.875	4.25955840910319E-05
1	286	81.8811127932701	0.323638916015625	0.323638916015625	-5.59387207031251E-07	-1.8103946786141E-07	-578559.75	4.25385114795063E-05
1	287	81.9818207930158	0.313568115234375	0.3135986328125	-5.45349121093749E-07	-1.71020730022065E-07	-575042	4.2482883145567E-05
1	288	82.0825287927615	0.303497314453125	0.303375244140625	-5.33447265625001E-07	-1.61834691425611E-07	-568707.125	4.24285608460195E-05
1	289	82.1832367925073	0.293426513671875	0.29339599609375	-5.218505859375E-07	-1.53108857148254E-07	-562222.25	4.23754208895843E-05
1	290	82.283944792253	0.283355712890625	0.283355712890625	-5.10253906249999E-07	-1.44583353289818E-07	-555323	4.2323452362325E-05
1	291	82.3846527919987	0.273284912109375	0.273284912109375	-5.0079345703125E-07	-1.368592847939E-07	-545703.875	4.22725424868986E-05
1	292	82.4853607917445	0.263214111328125	0.26324462890625	-4.901123046875E-07	-1.29019440464617E-07	-537110.8125	4.22226439695805E-05
1	293	82.5860687914902	0.253143310546875	0.253143310546875	-4.8065185546875E-07	-1.21673807029765E-07	-526666.6875	4.21737640863284E-05
1	294	82.686776791236	0.243072509765625	0.24310302734375	-4.718017578125E-07	-1.14696433684003E-07	-515265.21875	4.21258046117146E-05
1	295	82.7874847909817	0.233001708984375	0.233062744140625	-4.6417236328125E-07	-1.08181282598707E-07	-502103.875	4.20786745962687E-05
1	296	82.8881927907274	0.222930908203125	0.222991943359375	-4.57763671875E-07	-1.0207760681169E-07	-487133.34375	4.20322503487114E-05
1	297	82.9889007904732	0.212860107421875	0.212890625	-4.50439453125E-07	-9.58943360274134E-08	-472628.75	4.19865173171274E-05
1	298	83.0896087902189	0.202789306640625	0.20281982421875	-4.443359375E-07	-9.01201389069684E-08	-456456.03125	4.19414645875804E-05
1	299	83.1903167899646	0.192718505859375	0.1927490234375	-4.376220703125E-07	-8.435122111905E-08	-440446.3125	4.18970521423034E-05
1	300	83.2910247897104	0.182647705078125	0.18267822265625	-4.3212890625E-07	-7.89405376622199E-08	-422740.125	4.18532581534237E-05
1	301	83.3917327894561	0.172576904296875	0.172607421875	-4.2877197265625E-07	-7.40092218620703E-08	-402562.28125	4.18099079979584E-05
1	302	83.4924407892019	0.162506103515625	0.1624755859375	-4.2694091796875E-07	-6.9367473543025E-08	-380557.53125	4.17668197769672E-05
1	303	83.5931487889476	0.152435302734375	0.152496337890625	-4.2724609375E-07	-6.51534648454799E-08	-356928.59375	4.17238079535309E-05
1	304	83.6938567886933	0.142364501953125	0.142425537109375	-4.31213378906251E-07	-6.1415796892561E-08	-330290.15625	4.16805814893451E-05
1	305	83.7945647884391	0.132293701171875	0.13226318359375	-4.3914794921875E-07	-5.80831027718887E-08	-301181.40625	4.1636754758656E-05
1	306	83.8952727881848	0.122222900390625	0.122222900390625	-4.54101562500001E-07	-5.55016086423166E-08	-269153.21875	4.15917747886851E-05
1	307	83.9959807879305	0.112152099609375	0.112213134765625	-4.7637939453125E-07	-5.34560236076231E-08	-235554.140625	4.15449212596286E-05
1	308	84.0966887876763	0.102081298828125	0.102142333984375	-5.12084960937501E-07	-5.23055554424445E-08	-199463.640625	4.14951500715688E-05
1	309	84.197396787422	0.092010498046875	0.092071533203125	-5.645751953125E-07	-5.19813028176941E-08	-163081.078125	4.14409369113855E-05
1	310	84.2981047871677	0.081939697265625	0.08203125	-6.39953613281249E-07	-5.2496194058449E-08	-128183.1171875	4.13802808907349E-05
1	311	84.3988127869135	0.071868896484375	0.07196044921875	-7.44018554687501E-07	-5.3539910283007E-08	-96718.6171875	4.1310595406685E-05
1	312	84.4995207866592	0.061798095703125	0.06182861328125	-8.7921142578125E-07	-5.43604237179807E-08	-70322.8046875	4.12288572988473E-05
1	313	84.600228786405	0.051727294921875	0.0517578125	-1.04736328125E-06	-5.42092344346656E-08	-49417.25	4.11318469559774E-05
1	314	84.7009367861507	0.041656494140625	0.0417449951171875	-1.24267578125E-06	-5.18754923461984E-08	-33592.83203125	4.1016533941729E-05
1	315	84.8016447858964	0.031585693359375	0.031707763671875	-1.45294189453125E-06	-4.60695375181785E-08	-21823.146484375	4.08808009524364E-05
1	316	84.9023527856422	0.021514892578125	0.0216156005859375	-1.65802001953125E-06	-3.58390970234268E-08	-13036.99609375	4.0724149585003E-05
1	317	85.0030607853879	0.011444091796875	0.011529541015625	-1.83929443359375E-06	-2.12062207793906E-08	-6268.45849609375	4.05480459448881E-05
1	318	85.1037687851336	0.001373291015625	0.00145874023437501	-1.97662353515625E-06	-2.88338020126844E-09	-737.995971679688	4.0355898818234E-05
1	319	85.2044767848794	-0.008697509765625	-0.008575439453125	-2.0587158203125E-06	1.7654393502653E-08	4165.43115234375	4.01527031499427E-05
1	320	85.3051847846251	-0.018768310546875	-0.0186279296875	-2.088623046875E-06	3.89067231765239E-08	8918.76171875	3.99438686145004E-05
1	321	85.4058927843708	-0.028839111328125	-0.0287139892578125	-2.0745849609375E-06	5.9569611465804E-08	13840.8359375	3.97342337237205E-05
1	322	85.5066007841166	-0.038909912109375	-0.0387420654296875	-2.02972412109375E-06	7.86357006177241E-08	19087.35546875	3.95275674236473E-05
1	323	85.6073087838623	-0.048980712890625	-0.0488739013671875	-1.9671630859375E-06	9.61429407198011E-08	24844.865234375	3.93263071600813E-05
1	324	85.7080167836081	-0.059051513671875	-0.05902099609375	-1.89788818359375E-06	1.12015250408604E-07	31098.248046875	3.91316862078384E-05
1	325	85.8087247833538	-0.069122314453125	-0.06903076171875	-1.82769775390625E-06	1.2616736455584E-07	37769.24609375	3.89440865546931E-05
1	326	85.9094327830995	-0.079193115234375	-0.0791015625	-1.76239013671875E-06	1.39407802635105E-07	44883.1171875	3.87633117497899E-05
1	327	86.0101407828453	-0.089263916015625	-0.08917236328125	-1.7022705078125E-06	1.5179547574462E-07	52384.37109375	3.85888524760958E-05
1	328	86.110848782591	-0.099334716796875	-0.099212646484375	-1.6485595703125E-06	1.63557956511795E-07	60181.4140625	3.84201266570017E-05
1	329	86.2115567823367	-0.109405517578125	-0.109283447265625	-1.600341796875E-06	1.74890871562638E-07	68287.5703125	3.82565303880256E-05
1	330	86.3122647820825	-0.119476318359375	-0.119384765625	-1.55792236328125E-06	1.85992192314188E-07	76630.7578125	3.80974997824524E-05
1	331	86.4129727818282	-0.129547119140625	-0.12945556640625	-1.5216064453125E-06	1.9698040887306E-07	85078.2265625	3.79424309358001E-05
1	332	86.513680781574	-0.139617919921875	-0.139556884765625	-1.49078369140625E-06	2.08049129923893E-07	93613.1015625	3.77907454094384E-05
1	333	86.6143887813197	-0.149688720703125	-0.149566650390625	-1.46484375E-06	2.19091774056324E-07	102104.1640625	3.76419193344191E-05
1	334	86.7150967810654	-0.159759521484375	-0.15960693359375	-1.44317626953125E-06	2.30340930329476E-07	110594.2109375	3.74954870494548E-05
1	335	86.8158047808112	-0.169830322265625	-0.16973876953125	-1.42578125E-06	2.4201034420912E-07	119049.6640625	3.7351026549004E-05
1	336	86.9165127805569	-0.179901123046875	-0.179718017578125	-1.4111328125E-06	2.53605975331084E-07	127357.2734375	3.72081740351859E-05
1	337	87.0172207803026	-0.189971923828125	-0.189849853515625	-1.39923095703125E-06	2.65643791408365E-07	135681.578125	3.70666639355477E-05
1	338	87.1179287800484	-0.200042724609375	-0.1998291015625	-1.390380859375E-06	2.77838552165122E-07	143722.5625	3.69261942978483E-05
1	339	87.2186367797941	-0.189971923828125	-0.18975830078125	-1.2347412109375E-06	2.34302376611595E-07	153682.65625	3.67940083378926E-05
2	340	87.3193447795398	-0.179901123046875	-0.17974853515625	-1.1279296875E-06	2.02743706267938E-07	159361.484375	3.66750391549431E-05
2	341	87.4200527792856	-0.169830322265625	-0.169647216796875	-1.0430908203125E-06	1.76957456687887E-07	162638.96875	3.656571789179E-05
2	342	87.5207607790313	-0.159759521484375	-0.159637451171875	-9.70458984375E-07	1.54921593775725E-07	164496.859375	3.64643274224363E-05
2	343	87.6214687787771	-0.149688720703125	-0.1495361328125	-9.07287597656251E-07	1.35672280521248E-07	164816.6875	3.636977635324E-05
2	344	87.7221767785228	-0.139617919921875	-0.139495849609375	-8.4869384765625E-07	1.18389266390295E-07	164365.34375	3.62813552783336E-05
2	345	87.8228847782685	-0.129547119140625	-0.129486083984375	-7.95593261718749E-07	1.03018251706999E-07	162754.125	3.6198558518663E-05
2	346	87.9235927780143	-0.119476318359375	-0.119354248046875	-7.4493408203125E-07	8.89110509660895E-08	160221.21875	3.61209895345382E-05
2	347	88.02430077776	-0.109405517578125	-0.109344482421875	-6.96411132812499E-07	7.61487157774354E-08	157011.390625	3.60484118573368E-05
2	348	88.1250087775057	-0.099334716796875	-0.0992431640625	-6.49414062500001E-07	6.44499067448123E-08	152819.546875	3.59806435881183E-05
2	349	88.2257167772515	-0.089263916015625	-0.08917236328125	-6.0089111328125E-07	5.35828803549521E-08	148400.203125	3.59176847268827E-05
2	350	88.3264247769972	-0.079193115234375	-0.079193115234375	-5.499267578125E-07	4.35504148299515E-08	144006.65625	3.58597353624646E-05
2	351	88.427132776743	-0.069122314453125	-0.069061279296875	-4.925537109375E-07	3.40163879286592E-08	140210.671875	3.5807242966257E-05
2	352	88.5278407764887	-0.059051513671875	-0.05902099609375	-4.2572021484375E-07	2.51264307138399E-08	138638	3.57610042556189E-05
2	353	88.6285487762344	-0.048980712890625	-0.048834228515625	-3.44238281250001E-07	1.68106097930831E-08	141861.703125	3.57222343154717E-05
2	354	88.7292567759802	-0.038909912109375	-0.0387847900390625	-2.44750976562499E-07	9.4926146942953E-09	158466.34375	3.56925775122363E-05
2	355	88.8299647757259	-0.028839111328125	-0.0287017822265625	-1.202392578125E-07	3.45108075450185E-09	238705.59375	3.56741984433029E-05
2	356	88.9306727754716	-0.018768310546875	-0.0186614990234375	3.38745117187497E-08	-6.32149166346352E-10	-550900.9375	3.56698474206496E-05
2	357	89.0313807752174	-0.008697509765625	-0.0085906982421875	2.19116210937501E-07	-1.88236115583607E-09	-39206.12890625	3.5682587622432E-05
2	358	89.1320887749631	0.001373291015625	0.00145568847656249	4.32434082031249E-07	6.29489294023955E-10	3366.26684570313	3.57153949153144E-05
2	359	89.2327967747088	0.011444091796875	0.0115509033203125	6.640625E-07	7.67052199535101E-09	17394.30078125	3.57706085196696E-05
2	360	89.3335047744546	0.021514892578125	0.0216033935546875	8.9691162109375E-07	1.93763352029919E-08	24086.42578125	3.58492106897756E-05
2	361	89.4342127742003	0.031585693359375	0.0316558837890625	1.10870361328125E-06	3.50969955320579E-08	28552.162109375	3.59502009814605E-05
2	362	89.5349207739461	0.041656494140625	0.04178466796875	1.2799072265625E-06	5.34804946994427E-08	32646.63671875	3.60704761988018E-05
2	363	89.6356287736918	0.051727294921875	0.05181884765625	1.39862060546875E-06	7.24749114056067E-08	37049.96875	3.62053506250959E-05
2	364	89.7363367734375	0.061798095703125	0.06182861328125	1.46026611328125E-06	9.02862282714523E-08	42340.6484375	3.63493090844713E-05
2	365	89.8370447731833	0.071868896484375	0.07196044921875	1.4739990234375E-06	1.06069627747729E-07	48819.87890625	3.64970619557425E-05
2	366	89.937752772929	0.081939697265625	0.082000732421875	1.45294189453125E-06	1.19142299581654E-07	56437.72265625	3.66444437531754E-05
2	367	90.0384607726747	0.092010498046875	0.092071533203125	1.41021728515625E-06	1.29840856288865E-07	65288.90234375	3.67886132153217E-05
2	368	90.1391687724205	0.102081298828125	0.102142333984375	1.35650634765625E-06	1.38556728757067E-07	75298.0859375	3.69279296137393E-05
2	369	90.2398767721662	0.112152099609375	0.11224365234375	1.29913330078125E-06	1.4581945606551E-07	86398.875	3.70616508007515E-05
2	370	90.3405847719119	0.122222900390625	0.122314453125	1.24237060546875E-06	1.51959881122821E-07	98452.46875	3.71896276192274E-05
2	371	90.4412927716577	0.132293701171875	0.132354736328125	1.190185546875E-06	1.57526699240407E-07	111205.125	3.73121147276834E-05
2	372	90.5420007714034	0.142364501953125	0.142425537109375	1.14166259765625E-06	1.62601907049975E-07	124752.7421875	3.74295341316611E-05
2	373	90.6427087711492	0.152435302734375	0.152496337890625	1.0986328125E-06	1.67537479001112E-07	138805.5625	3.75423405785114E-05
2	374	90.7434167708949	0.162506103515625	0.162567138671875	1.060791015625E-06	1.72449745150516E-07	153250.875	3.76510761270765E-05
2	375	90.8441247706406	0.172576904296875	0.17254638671875	1.02874755859375E-06	1.77506663590066E-07	167724.71875	3.77562937501352E-05
2	376	90.9448327703864	0.182647705078125	0.182647705078125	1.00006103515625E-06	1.82658851599626E-07	182636.5625	3.78584518330172E-05
2	377	91.0455407701321	0.192718505859375	0.192779541015625	9.74121093749999E-07	1.87790618610961E-07	197901	3.7957859603921E-05
2	378	91.1462487698778	0.202789306640625	0.202880859375	9.51538085937501E-07	1.93048862229261E-07	213213.59375	3.80548262910452E-05
2	379	91.2469567696236	0.212860107421875	0.212860107421875	9.307861328125E-07	1.98127224848577E-07	228688.53125	3.81496065529063E-05
2	380	91.3476647693693	0.222930908203125	0.222991943359375	9.1278076171875E-07	2.03542754206865E-07	244299.5625	3.82424404961057E-05
2	381	91.4483727691151	0.233001708984375	0.23309326171875	8.9691162109375E-07	2.09064054956798E-07	259884.3125	3.83335645892657E-05
2	382	91.5490807688608	0.243072509765625	0.243133544921875	8.8348388671875E-07	2.14804572351568E-07	275198.625	3.84232153010089E-05
2	383	91.6497887686065	0.253143310546875	0.253143310546875	8.7188720703125E-07	2.20712408349755E-07	290339.53125	3.8511603634106E-05
2	384	91.7504967683523	0.263214111328125	0.26318359375	8.6090087890625E-07	2.26574982775674E-07	305707.21875	3.85988569178153E-05
2	385	91.851204768098	0.273284912109375	0.27325439453125	8.514404296875E-07	2.32659829180193E-07	320931.90625	3.86850806535222E-05
2	386	91.9519127678437	0.283355712890625	0.283355712890625	8.43200683593751E-07	2.38925736084639E-07	336047.78125	3.87704130844213E-05
2	387	92.0526207675895	0.293426513671875	0.29339599609375	8.3526611328125E-07	2.45063716874938E-07	351260.53125	3.88549306080677E-05
2	388	92.1533287673352	0.303497314453125	0.303436279296875	8.28857421875E-07	2.51505412052211E-07	366089.84375	3.89387241739314E-05
2	389	92.2540367670809	0.313568115234375	0.313507080078125	8.23974609375E-07	2.58321875890033E-07	380481.5	3.90219502151012E-05
2	390	92.3547447668267	0.323638916015625	0.323638916015625	8.20312500000001E-07	2.65485056161197E-07	394531.25	3.91047469747718E-05
2	391	92.4554527665724	0.333709716796875	0.333740234375	8.1756591796875E-07	2.72854634886244E-07	408212.03125	3.91872235923074E-05
2	392	92.5561607663182	0.343780517578125	0.343841552734375	8.13903808593749E-07	2.79853935580832E-07	422459.6875	3.92693727917504E-05
2	393	92.6568687660639	0.353851318359375	0.35382080078125	8.12683105468751E-07	2.87544168031673E-07	435373.65625	3.93512782466132E-05
2	394	92.7575767658096	0.363922119140625	0.363922119140625	8.10546875E-07	2.94975933456953E-07	448983.4375	3.94330127164721E-05
2	395	92.8582847655554	0.373992919921875	0.37396240234375	8.087158203125E-07	3.02429299381402E-07	462415.09375	3.95145507354755E-05
2	396	92.9589927653011	0.384063720703125	0.38409423828125	8.08105468750001E-07	3.1038862857713E-07	475302.125	3.95959650631994E-05
2	397	93.0597007650468	0.394134521484375	0.3941650390625	8.08105468750001E-07	3.18526900855431E-07	487764.375	3.9677346649114E-05
2	398	93.1604087647926	0.404205322265625	0.404205322265625	8.087158203125E-07	3.26887231949513E-07	499811.3125	3.97587609768379E-05
2	399	93.2611167645383	0.414276123046875	0.414276123046875	8.09326171875E-07	3.35284482844145E-07	511877.84375	3.98402335122228E-05
2	400	93.3618247642841	0.424346923828125	0.424346923828125	8.099365234375E-07	3.43694068760669E-07	523926.15625	3.99217715312261E-05
2	401	93.4625327640298	0.434417724609375	0.43438720703125	8.10546875E-07	3.52091177546754E-07	535918.6875	4.00033677578904E-05
2	402	93.5632407637755	0.444488525390625	0.444488525390625	8.1146240234375E-07	3.60685703526542E-07	547762.3125	4.00850440200884E-05
2	403	93.6639487635213	0.454559326171875	0.454559326171875	8.1207275390625E-07	3.69135250366526E-07	559752	4.01667966798414E-05
2	404	93.764656763267	0.464630126953125	0.46466064453125	8.135986328125E-07	3.78047246840651E-07	571117.8125	4.02486548409797E-05
2	405	93.8653647630127	0.474700927734375	0.47467041015625	8.160400390625E-07	3.87350041819445E-07	581675.375	4.03307130909525E-05
2	406	93.9660727627585	0.484771728515625	0.484771728515625	8.18786621093751E-07	3.96924576762103E-07	592061.125	4.04130332753994E-05
2	407	94.0667807625042	0.494842529296875	0.49481201171875	8.2275390625E-07	4.07108501576658E-07	601409.5	4.04956917918753E-05
2	408	94.1674887622499	0.504913330078125	0.5048828125	8.270263671875E-07	4.17551376585834E-07	610479.75	4.05787650379352E-05
2	409	94.2681967619957	0.514984130859375	0.5150146484375	8.3160400390625E-07	4.28288245757358E-07	619302.75	4.06622821174096E-05
2	410	94.3689047617414	0.525054931640625	0.52508544921875	8.3740234375E-07	4.39707747545981E-07	627040.875	4.07463230658323E-05
2	411	94.4696127614872	0.535125732421875	0.53509521484375	8.4503173828125E-07	4.52172429277198E-07	633225	4.0831040678313E-05
2	412	94.5703207612329	0.545196533203125	0.545166015625	8.544921875E-07	4.65840088281766E-07	638000	4.0916620491771E-05
2	413	94.6710287609786	0.555267333984375	0.55523681640625	8.67309570312499E-07	4.81562210552511E-07	640183	4.10033171647228E-05
2	414	94.7717367607244	0.565338134765625	0.5653076171875	8.8348388671875E-07	4.99440147905261E-07	639861.8125	4.10914799431339E-05
2	415	94.8724447604701	0.575408935546875	0.575347900390625	9.0484619140625E-07	5.20601361131412E-07	635851.625	4.1181527194567E-05
2	416	94.9731527602158	0.585479736328125	0.58544921875	9.3353271484375E-07	5.46536000456399E-07	627133.0625	4.12740992032923E-05
2	417	95.0738607599616	0.595550537109375	0.595550537109375	9.7320556640625E-07	5.79593063321227E-07	611947.375	4.13701091019902E-05
2	418	95.1745687597073	0.605621337890625	0.605560302734375	1.02783203125E-06	6.22414290774032E-07	589162.6875	4.14708702010103E-05
2	419	95.275276759453	0.615692138671875	0.61566162109375	1.10382080078125E-06	6.79580068663199E-07	557755.0625	4.15782087657135E-05
2	420	95.3759847591988	0.625762939453125	0.625732421875	1.2066650390625E-06	7.55049427425547E-07	518563.46875	4.16945476899855E-05
2	421	95.4766927589445	0.635833740234375	0.635772705078125	1.34124755859375E-06	8.52728589961771E-07	474015.9375	4.18228482885752E-05
2	422	95.5774007586903	0.645904541015625	0.64581298828125	1.51092529296875E-06	9.7577515134617E-07	427428.8125	4.19664647779427E-05
2	423	95.678108758436	0.655975341796875	0.655853271484375	1.7120361328125E-06	1.12284453734901E-06	383083.78125	4.21287550125271E-05
2	424	95.7788167581817	0.666046142578125	0.6658935546875	1.93939208984375E-06	1.29142858895648E-06	343351.71875	4.23126184614375E-05
2	425	95.8795247579275	0.676116943359375	0.676025390625	2.17498779296875E-06	1.47034688779968E-06	310818.03125	4.25197940785438E-05
2	426	95.9802327576732	0.686187744140625	0.6861572265625	2.401123046875E-06	1.64754794695909E-06	285765.125	4.27502200182062E-05
2	427	96.0809407574189	0.696258544921875	0.6961669921875	2.596435546875E-06	1.8075526213579E-06	268124.125	4.30018662882503E-05
2	428	96.1816487571647	0.706329345703125	0.706268310546875	2.745361328125E-06	1.93896175915143E-06	257258.78125	4.32708475273103E-05
2	429	96.2823567569104	0.716400146484375	0.716400146484375	2.83966064453125E-06	2.03433319256874E-06	252283.734375	4.35520742030349E-05
2	430	96.3830647566562	0.726470947265625	0.7264404296875	2.8826904296875E-06	2.09410268325882E-06	252000.859375	4.38402203144506E-05
2	431	96.4837727564019	0.736541748046875	0.736480712890625	2.8857421875E-06	2.12529334930878E-06	255213.625	4.41306838183664E-05
2	432	96.5844807561476	0.746612548828125	0.746490478515625	2.86590576171875E-06	2.13937141779752E-06	260472.796875	4.44202996732201E-05
2	433	96.6851887558934	0.756683349609375	0.7568359375	2.83905029296875E-06	2.14869533010642E-06	266580.6875	4.47075690317433E-05
2	434	96.7858967556391	0.766754150390625	0.76690673828125	2.81951904296875E-06	2.16230819205521E-06	271999.125	4.49924991698936E-05
2	435	96.8866047553848	0.776824951171875	0.77728271484375	2.818603515625E-06	2.19085177377565E-06	275768.75	4.52764033980202E-05
2	436	96.9873127551306	0.786895751953125	0.787353515625	2.84698486328125E-06	2.24158361561422E-06	276556.96875	4.55616864201147E-05
2	437	97.0880207548763	0.796966552734375	0.797119140625	2.91351318359375E-06	2.32241700359737E-06	273593.8125	4.58517497463617E-05
2	438	97.188728754622	0.807037353515625	0.80657958984375	3.023681640625E-06	2.43883982875559E-06	266754.15625	4.61507115687709E-05
2	439	97.2894367543678	0.817108154296875	0.816650390625	3.179931640625E-06	2.59689227277704E-06	256813.828125	4.64630902570207E-05
2	440	97.3901447541135	0.827178955078125	0.8270263671875	3.37890625E-06	2.79444429907016E-06	244761.578125	4.67933532490861E-05
2	441	97.4908527538593	0.837249755859375	0.83740234375	3.60809326171875E-06	3.02142575492326E-06	232090	4.71451749035623E-05
2	442	97.591560753605	0.847320556640625	0.8477783203125	3.8482666015625E-06	3.26247709381278E-06	220301.34375	4.75206325063482E-05
2	443	97.6922687533507	0.857391357421875	0.85723876953125	4.07379150390625E-06	3.49221181750181E-06	210427.75	4.79195405205246E-05
2	444	97.7929767530965	0.867462158203125	0.86761474609375	4.26361083984375E-06	3.6991714296164E-06	203492.953125	4.8339363274863E-05
2	445	97.8936847528422	0.877532958984375	0.877685546875	4.39300537109375E-06	3.85567727789748E-06	199791.59375	4.87752586195711E-05
2	446	97.9943927525879	0.887603759765625	0.8880615234375	4.45465087890625E-06	3.95600409319741E-06	199356.03125	4.92207727802452E-05
2	447	98.0951007523337	0.897674560546875	0.89752197265625	4.45220947265625E-06	3.99595592170954E-06	201590.25	4.96692700835411E-05
2	448	98.1958087520794	0.907745361328125	0.90789794921875	4.4000244140625E-06	3.99477312384988E-06	206339.296875	5.011501343688E-05
2	449	98.2965167518252	0.917816162109375	0.91766357421875	4.31365966796875E-06	3.9584883779753E-06	212734.34375	5.05537827848457E-05
2	450	98.3972247515709	0.927886962890625	0.9283447265625	4.2108154296875E-06	3.9090882637538E-06	220466.734375	5.09830242663156E-05
2	451	98.4979327513166	0.937957763671875	0.9381103515625	4.1033935546875E-06	3.84943587050657E-06	228618.171875	5.14016792294569E-05
2	452	98.5986407510624	0.948028564453125	0.9478759765625	3.99749755859375E-06	3.78913182430551E-06	237117.34375	5.18095912411809E-05
2	453	98.6993487508081	0.958099365234375	0.95794677734375	3.8983154296875E-06	3.73437865164306E-06	245733.53125	5.22071750310715E-05
2	454	98.8000567505538	0.968170166015625	0.968017578125	3.8055419921875E-06	3.68383143722895E-06	254370.5	5.25950963492505E-05
2	455	98.9007647502996	0.978240966796875	0.9783935546875	3.72161865234375E-06	3.64120774065668E-06	262894.625	5.29741191712674E-05
2	456	99.0014727500453	0.988311767578125	0.98846435546875	3.646240234375E-06	3.6041785733687E-06	271091.40625	5.33451202500146E-05
2	457	99.102180749791	0.998382568359375	0.9991455078125	3.57818603515625E-06	3.57512840309937E-06	279232.40625	5.37088999408297E-05
2	458	99.2028887495368	1.00845336914063	1.00830078125	3.5174560546875E-06	3.54665371560259E-06	286656.25	5.40661931154318E-05
2	459	99.3035967492825	1.01852416992188	1.01806640625	3.46343994140625E-06	3.52601182385115E-06	293946.59375	5.44177091796882E-05
2	460	99.4043047490283	1.02859497070313	1.0284423828125	3.414306640625E-06	3.51141761711915E-06	301215.59375	5.47640302102081E-05
2	461	99.505012748774	1.03866577148438	1.03851318359375	3.370361328125E-06	3.50016466654779E-06	308131.125	5.51056655240245E-05
2	462	99.6057207485197	1.04873657226563	1.04888916015625	3.328857421875E-06	3.49160222867795E-06	315089.84375	5.54429971089121E-05
2	463	99.7064287482655	1.05880737304688	1.05865478515625	3.291015625E-06	3.48404932992707E-06	321680.28125	5.57763341930695E-05
2	464	99.8071367480112	1.06887817382813	1.0687255859375	3.2562255859375E-06	3.48001140082488E-06	328209.9375	5.61060151085258E-05
2	465	99.9078447477569	1.07894897460938	1.0784912109375	3.22418212890625E-06	3.4772519938997E-06	334500.71875	5.64323308935855E-05
2	466	100.008552747503	1.08901977539063	1.08917236328125	3.19549560546875E-06	3.4804454571713E-06	340846.15625	5.67555871384684E-05
2	467	100.109260747248	1.09909057617188	1.0992431640625	3.1695556640625E-06	3.48411231243517E-06	346813.03125	5.70760930713732E-05
2	468	100.209968746994	1.10916137695313	1.10931396484375	3.14483642578125E-06	3.48861090060382E-06	352741.375	5.73940451431554E-05
2	469	100.31067674674	1.11923217773438	1.11968994140625	3.12164306640625E-06	3.49527226717328E-06	358686.09375	5.77095888729673E-05
2	470	100.411384746486	1.12930297851563	1.12945556640625	3.09967041015625E-06	3.50093978340738E-06	364379.25	5.8022855228046E-05
2	471	100.512092746231	1.13937377929688	1.13983154296875	3.0792236328125E-06	3.50979598806589E-06	370168.5	5.83339897275437E-05
2	472	100.612800745977	1.14944458007813	1.14959716796875	3.060302734375E-06	3.51811513610301E-06	375648.21875	5.86431378906127E-05
2	473	100.713508745723	1.15951538085938	1.15966796875	3.0438232421875E-06	3.52982419826731E-06	380990.59375	5.89505070820451E-05
2	474	100.814216745469	1.16958618164063	1.16973876953125	3.028564453125E-06	3.54262920154724E-06	386235.40625	5.92562755628023E-05
2	475	100.914924745214	1.17965698242188	1.1798095703125	3.01513671875E-06	3.55728707290837E-06	391295.5625	5.95605997659732E-05
2	476	101.01563274496	1.18972778320313	1.1895751953125	3.0029296875E-06	3.57221051672241E-06	396138.21875	5.98636324866675E-05
2	477	101.116340744706	1.19979858398438	1.20025634765625	2.991943359375E-06	3.59109890268883E-06	401162.78125	6.01654974161647E-05
2	478	101.217048744452	1.20986938476563	1.21002197265625	2.982177734375E-06	3.60850049219152E-06	405751.125	6.04663182457443E-05
2	479	101.317756744197	1.21994018554688	1.2200927734375	2.97454833984375E-06	3.62922492058715E-06	410177.5	6.07662659604102E-05
2	480	101.418464743943	1.23001098632813	1.2298583984375	2.96722412109375E-06	3.64926540896704E-06	414481.15625	6.10654533375055E-05
2	481	101.519172743689	1.24008178710938	1.23992919921875	2.96295166015625E-06	3.67385018762434E-06	418477.71875	6.13640659139492E-05
2	482	101.619880743434	1.25015258789063	1.25030517578125	2.960205078125E-06	3.70115958503447E-06	422371.15625	6.16623219684698E-05
2	483	101.72058874318	1.26022338867188	1.259765625	2.95867919921875E-06	3.72724207409192E-06	425786.5	6.1960359744262E-05
2	484	101.821296742926	1.27029418945313	1.2701416015625	2.9583740234375E-06	3.75755371351261E-06	429337.75	6.22583029326051E-05
2	485	101.922004742672	1.28036499023438	1.280517578125	2.958984375E-06	3.78903155251464E-06	432755.78125	6.25562679488212E-05
2	486	102.022712742417	1.29043579101563	1.29058837890625	2.96173095703125E-06	3.82237521989737E-06	435754.78125	6.28544003120624E-05
2	487	102.123420742163	1.30050659179688	1.3006591796875	2.96539306640625E-06	3.85696557714255E-06	438612.75	6.31528528174385E-05
2	488	102.224128741909	1.31057739257813	1.31072998046875	2.97119140625E-06	3.89442948289798E-06	441146.25	6.34517855360173E-05
2	489	102.324836741655	1.32064819335938	1.3201904296875	2.9791259765625E-06	3.93301343137864E-06	443146.90625	6.37514094705693E-05
2	490	102.4255447414	1.33071899414063	1.33087158203125	2.98828125E-06	3.97701842302922E-06	445363.5625	6.40518919681199E-05
2	491	102.526252741146	1.34078979492188	1.3409423828125	2.99957275390625E-06	4.0222539610113E-06	447044.46875	6.4353400375694E-05
2	492	102.626960740892	1.35086059570313	1.35101318359375	3.01116943359375E-06	4.06812932851608E-06	448667.28125	6.46560656605288E-05
2	493	102.727668740638	1.36093139648438	1.361083984375	3.023681640625E-06	4.11548444390064E-06	450141.3125	6.49599460302852E-05
2	494	102.828376740383	1.37100219726563	1.37115478515625	3.03863525390625E-06	4.16643933931482E-06	451240.34375	6.52652088319883E-05
2	495	102.929084740129	1.38107299804688	1.3812255859375	3.055419921875E-06	4.22022412749357E-06	452057.53125	6.55720723443665E-05
2	496	103.029792739875	1.39114379882813	1.3909912109375	3.07586669921875E-06	4.27850318374112E-06	452227.4375	6.58808057778515E-05
2	497	103.130500739621	1.40121459960938	1.4013671875	3.10028076171875E-06	4.34463163401233E-06	452013	6.61917947581969E-05
2	498	103.231208739366	1.41128540039063	1.41082763671875	3.1304931640625E-06	4.4165863073431E-06	450672.65625	6.65055413264781E-05
2	499	103.331916739112	1.42135620117188	1.42181396484375	3.1671142578125E-06	4.50304696641979E-06	448930.46875	6.68226493871771E-05
2	500	103.432624738858	1.43142700195313	1.43096923828125	3.21044921875E-06	4.59405418951064E-06	445722.4375	6.71437883283943E-05
2	501	103.533332738603	1.44149780273438	1.44195556640625	3.2611083984375E-06	4.7023731895024E-06	442167.34375	6.74696566420607E-05
2	502	103.634040738349	1.45156860351563	1.45172119140625	3.3209228515625E-06	4.82105406263145E-06	437143.90625	6.7801091063302E-05
2	503	103.734748738095	1.46163940429688	1.4617919921875	3.3905029296875E-06	4.95620997753576E-06	431143.125	6.8139037466608E-05
2	504	103.835456737841	1.47171020507813	1.4715576171875	3.4722900390625E-06	5.10967493028147E-06	423800.3125	6.8484601797536E-05
2	505	103.936164737586	1.48178100585938	1.4813232421875	3.5675048828125E-06	5.28462760485127E-06	415226.6875	6.8839086452499E-05
2	506	104.036872737332	1.49185180664063	1.49169921875	3.67767333984375E-06	5.48598245586618E-06	405609.5	6.92039102432318E-05
2	507	104.137580737078	1.50192260742188	1.50146484375	3.80279541015625E-06	5.70976362723741E-06	394831.875	6.95805792929605E-05
2	508	104.238288736824	1.49185180664063	1.49169921875	3.49273681640625E-06	5.21011270393501E-06	427086.0625	6.99479423929006E-05
2	509	104.338996736569	1.48178100585938	1.48193359375	3.26446533203125E-06	4.83772055304144E-06	453959.0625	7.02881952747703E-05
2	510	104.439704736315	1.47171020507813	1.47186279296875	3.08349609375E-06	4.53848315373762E-06	477335.71875	7.0607835368719E-05
2	511	104.540412736061	1.46163940429688	1.46209716796875	2.93670654296875E-06	4.29375040766899E-06	497869.6875	7.09109808667563E-05
2	512	104.641120735807	1.45156860351563	1.45111083984375	2.81463623046875E-06	4.0843492570275E-06	515558.9375	7.1200578531716E-05
2	513	104.741828735552	1.44149780273438	1.441650390625	2.7117919921875E-06	3.90945569961332E-06	531622.8125	7.14788620825857E-05
2	514	104.842536735298	1.43142700195313	1.431884765625	2.62451171875E-06	3.7579982290481E-06	545581.4375	7.17475631972775E-05
2	515	104.943244735044	1.42135620117188	1.4208984375	2.54852294921875E-06	3.62119203600741E-06	557538.0625	7.20080497558229E-05
2	516	105.04395273479	1.41128540039063	1.41143798828125	2.4822998046875E-06	3.50361233358853E-06	568600.9375	7.22613694961183E-05
2	517	105.144660734535	1.40121459960938	1.4013671875	2.4249267578125E-06	3.3982125842158E-06	577900.875	7.25084682926536E-05
2	518	105.245368734281	1.39114379882813	1.3909912109375	2.37457275390625E-06	3.30300963469199E-06	585785.9375	7.27501392248087E-05
2	519	105.346076734027	1.38107299804688	1.380615234375	2.3297119140625E-06	3.21643574352493E-06	592612	7.29870225768536E-05
2	520	105.446784733772	1.37100219726563	1.37115478515625	2.29034423828125E-06	3.14041631099826E-06	598667.5625	7.32196567696519E-05
2	521	105.547492733518	1.36093139648438	1.36077880859375	2.2552490234375E-06	3.06889501189289E-06	603382.9375	7.34485511202365E-05
2	522	105.648200733264	1.35086059570313	1.3507080078125	2.222900390625E-06	3.00248916573764E-06	607633.1875	7.36740403226577E-05
2	523	105.74890873301	1.34078979492188	1.3409423828125	2.19329833984375E-06	2.94108667731052E-06	611381.6875	7.389641541522E-05
2	524	105.849616732755	1.33071899414063	1.33087158203125	2.16583251953125E-06	2.88244496005063E-06	614485	7.41159165045246E-05
2	525	105.950324732501	1.32064819335938	1.32049560546875	2.14141845703125E-06	2.82773362414446E-06	616645.3125	7.43327982490882E-05
2	526	106.051032732247	1.31057739257813	1.3104248046875	2.119140625E-06	2.77697449746483E-06	618375.5625	7.45473371353E-05
2	527	106.151740731993	1.30050659179688	1.30096435546875	2.09991455078125E-06	2.73191403721285E-06	619532.0625	7.4759780545719E-05
2	528	106.252448731738	1.29043579101563	1.290283203125	2.08099365234375E-06	2.68507119471906E-06	620032.25	7.49703103792854E-05
2	529	106.353156731484	1.28036499023438	1.280517578125	2.06451416015625E-06	2.64364666691108E-06	620251.3125	7.51790503272787E-05
2	530	106.45386473123	1.27029418945313	1.27044677734375	2.04681396484375E-06	2.60036813415354E-06	620694.8125	7.5386073149275E-05
2	531	106.554572730976	1.26022338867188	1.26007080078125	2.03125E-06	2.55951886174444E-06	620342.5625	7.55914225010201E-05
2	532	106.655280730721	1.25015258789063	1.2506103515625	2.0147705078125E-06	2.51969277087483E-06	620721	7.57951565901749E-05
2	533	106.755988730467	1.24008178710938	1.24114990234375	1.99981689453125E-06	2.48207243203069E-06	620631.8125	7.59973045205697E-05
2	534	106.856696730213	1.23001098632813	1.2298583984375	1.986083984375E-06	2.44260218096315E-06	619237.8125	7.6198011811357E-05
2	535	106.957404729959	1.21994018554688	1.2200927734375	1.97235107421875E-06	2.4064513581834E-06	618598.1875	7.63973366701975E-05
2	536	107.058112729704	1.20986938476563	1.20941162109375	1.9586181640625E-06	2.36877554016246E-06	617482.0625	7.65952718211338E-05
2	537	107.15882072945	1.19979858398438	1.1993408203125	1.944580078125E-06	2.33221408052486E-06	616760.875	7.67918172641657E-05
2	538	107.259528729196	1.18972778320313	1.1895751953125	1.93084716796875E-06	2.29688771469228E-06	616089.8125	7.69869584473781E-05
2	539	107.360236728941	1.17965698242188	1.1798095703125	1.91650390625E-06	2.26110955736658E-06	615605.125	7.71806880948134E-05
2	540	107.460944728687	1.16958618164063	1.1700439453125	1.90155029296875E-06	2.22489734369447E-06	615310.5625	7.73729407228529E-05
2	541	107.561652728433	1.15951538085938	1.15966796875	1.8878173828125E-06	2.18924128603248E-06	614290.375	7.75637527112849E-05
2	542	107.662360728179	1.14944458007813	1.14990234375	1.87469482421875E-06	2.15571594708308E-06	613381.0625	7.77532113716006E-05
2	543	107.763068727924	1.13937377929688	1.13922119140625	1.86187744140625E-06	2.12109011954453E-06	611866.9375	7.79413603595458E-05
2	544	107.86377672767	1.12930297851563	1.12945556640625	1.8487548828125E-06	2.08808660318027E-06	610927.6875	7.8128206951078E-05
2	545	107.964484727416	1.11923217773438	1.119384765625	1.8353271484375E-06	2.05443711820408E-06	609910.25	7.83137147664092E-05
2	546	108.065192727162	1.10916137695313	1.10931396484375	1.82220458984375E-06	2.02139699467807E-06	608775.75	7.84978838055395E-05
2	547	108.165900726907	1.09909057617188	1.0992431640625	1.80908203125E-06	1.98862085198925E-06	607624.875	7.86807358963415E-05
2	548	108.266608726653	1.08901977539063	1.08917236328125	1.795654296875E-06	1.95577695194515E-06	606560.1875	7.88622492109425E-05
2	549	108.367316726399	1.07894897460938	1.07879638671875	1.783447265625E-06	1.92397646969766E-06	604893.9375	7.90424674050882E-05
2	550	108.468024726145	1.06887817382813	1.06903076171875	1.7718505859375E-06	1.89416266493936E-06	603341.375	7.92214923421852E-05
2	551	108.56873272589	1.05880737304688	1.058349609375	1.76025390625E-06	1.86296404081077E-06	601248.25	7.93993531260639E-05
2	552	108.669440725636	1.04873657226563	1.04827880859375	1.74774169921875E-06	1.83212057436322E-06	599790.5	7.95759915490635E-05
2	553	108.770148725382	1.03866577148438	1.038818359375	1.73553466796875E-06	1.80290521711868E-06	598558.125	7.9751385783311E-05
2	554	108.870856725128	1.02859497070313	1.0284423828125	1.7218017578125E-06	1.77077390617342E-06	597305.9375	7.99254776211455E-05
2	555	108.971564724873	1.01852416992188	1.0186767578125	1.707763671875E-06	1.73965918293106E-06	596497.5	8.00981724751182E-05
2	556	109.072272724619	1.00845336914063	1.00799560546875	1.69342041015625E-06	1.70696023360506E-06	595242.375	8.02694339654408E-05
2	557	109.172980724365	0.998382568359375	0.99853515625	1.6778564453125E-06	1.67539860740362E-06	595125.5	8.04391893325374E-05
2	558	109.27368872411	0.988311767578125	0.98846435546875	1.65985107421875E-06	1.6407035445809E-06	595513.875	8.06072566774674E-05
2	559	109.374396723856	0.978240966796875	0.9783935546875	1.63970947265625E-06	1.60428112394584E-06	596687.125	8.07734031695873E-05
2	560	109.475104723602	0.968170166015625	0.968017578125	1.614990234375E-06	1.56333885570348E-06	599395.3125	8.09372941148467E-05
2	561	109.575812723348	0.958099365234375	0.958251953125	1.5838623046875E-06	1.51773917878018E-06	605009.625	8.10983692645095E-05
2	562	109.676520723093	0.948028564453125	0.94818115234375	1.54296875E-06	1.46301385939296E-06	614517.4375	8.12558137113228E-05
2	563	109.777228722839	0.937957763671875	0.938720703125	1.49017333984375E-06	1.39885651151417E-06	629940.625	8.14085433376022E-05
2	564	109.877936722585	0.927886962890625	0.9283447265625	1.41937255859375E-06	1.31766705635528E-06	654052.875	8.15550520201214E-05
2	565	109.978644722331	0.917816162109375	0.91796875	1.326904296875E-06	1.21805658181984E-06	691812.375	8.16933388705365E-05
2	566	110.079352722076	0.907745361328125	0.9075927734375	1.20391845703125E-06	1.09266761683102E-06	753865.6875	8.1820777268149E-05
2	567	110.180060721822	0.897674560546875	0.8978271484375	1.0430908203125E-06	9.36515277771832E-07	860737.25	8.19339256850071E-05
2	568	110.280768721568	0.887603759765625	0.88775634765625	8.41064453125E-07	7.46660305139812E-07	1055515.25	8.20287968963385E-05
2	569	110.381476721314	0.877532958984375	0.87738037109375	5.963134765625E-07	5.23193705248559E-07	1471340.875	8.21011781226844E-05
2	570	110.482184721059	0.867462158203125	0.86761474609375	3.1707763671875E-07	2.7510122890817E-07	2736285	8.21471694507636E-05
2	571	110.582892720805	0.857391357421875	0.8575439453125	1.80053710937503E-08	1.54403974050865E-08	47627116	8.21640423964709E-05
2	572	110.683600720551	0.847320556640625	0.8477783203125	-2.7618408203125E-07	-2.34142859767417E-07	-3069613.5	8.21510402602144E-05
2	573	110.784308720297	0.837249755859375	0.83709716796875	-5.4229736328125E-07	-4.53955578905152E-07	-1543612.875	8.21098292362876E-05
2	574	110.885016720042	0.827178955078125	0.82763671875	-7.568359375E-07	-6.26385201485391E-07	-1093548.5	8.20444111013785E-05
2	575	110.985724719788	0.817108154296875	0.8172607421875	-9.08203125E-07	-7.42238739803724E-07	-899865.625	8.19605702417903E-05
2	576	111.086432719534	0.807037353515625	0.8074951171875	-9.9029541015625E-07	-7.99658664618619E-07	-815408.375	8.18649714346975E-05
2	577	111.187140719279	0.796966552734375	0.797119140625	-1.015625E-06	-8.09574146387604E-07	-784855.75	8.17639665910974E-05
2	578	111.287848719025	0.786895751953125	0.78704833984375	-9.98840332031251E-07	-7.86135558428214E-07	-787962.1875	8.16625324659981E-05
2	579	111.388556718771	0.776824951171875	0.7769775390625	-9.58251953125E-07	-7.44540216146561E-07	-810828.0625	8.1563979620114E-05
2	580	111.489264718517	0.766754150390625	0.76690673828125	-9.1217041015625E-07	-6.99549616456352E-07	-840749.4375	8.1469799624756E-05
2	581	111.589972718262	0.756683349609375	0.7568359375	-8.7432861328125E-07	-6.61723277062265E-07	-865619.5625	8.13798396848142E-05
2	582	111.690680718008	0.746612548828125	0.74652099609375	-8.5601806640625E-07	-6.39035476979188E-07	-872085.5625	8.12927100923844E-05
2	583	111.791388717754	0.736541748046875	0.736480712890625	-8.66088867187501E-07	-6.37857738183811E-07	-850352.375	8.12059952295385E-05
2	584	111.8920967175	0.726470947265625	0.726470947265625	-9.10339355468751E-07	-6.61335093354865E-07	-798022.125	8.11165446066298E-05
2	585	111.992804717245	0.716400146484375	0.716339111328125	-9.9639892578125E-07	-7.13759447990014E-07	-718928.0625	8.1020531069953E-05
2	586	112.093512716991	0.706329345703125	0.706268310546875	-1.12152099609375E-06	-7.92094738244487E-07	-629741.5	8.09138873592019E-05
2	587	112.194220716737	0.696258544921875	0.696136474609375	-1.28173828125E-06	-8.92264779395191E-07	-543119.0625	8.07928736321628E-05
2	588	112.294928716483	0.686187744140625	0.686126708984375	-1.46026611328125E-06	-1.00192755780881E-06	-469864.1875	8.06548050604761E-05
2	589	112.395636716228	0.676116943359375	0.67608642578125	-1.636962890625E-06	-1.10672829123359E-06	-413012.6875	8.0498844909016E-05
2	590	112.496344715974	0.666046142578125	0.66595458984375	-1.7913818359375E-06	-1.19297897072101E-06	-371754.6875	8.03262155386619E-05
2	591	112.59705271572	0.655975341796875	0.655914306640625	-1.9036865234375E-06	-1.24865516681893E-06	-344549.5625	8.0140154750552E-05
2	592	112.697760715466	0.645904541015625	0.645904541015625	-1.9622802734375E-06	-1.26744578210491E-06	-329160.1875	7.99454865045846E-05
2	593	112.798468715211	0.635833740234375	0.635833740234375	-1.96746826171875E-06	-1.25098267744761E-06	-323173.5625	7.97476095613092E-05
2	594	112.899176714957	0.625762939453125	0.625701904296875	-1.92779541015625E-06	-1.20622530630499E-06	-324568.625	7.95514642959461E-05
2	595	112.999884714703	0.615692138671875	0.615692138671875	-1.85638427734375E-06	-1.14296119591017E-06	-331662.03125	7.93609142419882E-05
2	596	113.100592714448	0.605621337890625	0.6055908203125	-1.76513671875E-06	-1.06895049611921E-06	-343084.375	7.91785569163039E-05
2	597	113.201300714194	0.595550537109375	0.595489501953125	-1.666259765625E-06	-9.92240188679716E-07	-357380.9375	7.90057747508399E-05
2	598	113.30200871394	0.585479736328125	0.585540771484375	-1.56646728515625E-06	-9.17230465802277E-07	-373797	7.88429970270954E-05
2	599	113.402716713686	0.575408935546875	0.575439453125	-1.47125244140625E-06	-8.46616671879019E-07	-391122.1875	7.86900345701724E-05
2	600	113.503424713431	0.565338134765625	0.565338134765625	-1.38092041015625E-06	-7.80686946200149E-07	-409392.28125	7.85464144428261E-05
2	601	113.604132713177	0.555267333984375	0.55523681640625	-1.298828125E-06	-7.21157221050817E-07	-427490.59375	7.84114745329134E-05
2	602	113.704840712923	0.545196533203125	0.545196533203125	-1.22314453125E-06	-6.66854134578898E-07	-445733.53125	7.82844872446731E-05
2	603	113.805548712669	0.535125732421875	0.535064697265625	-1.1541748046875E-06	-6.17558214344172E-07	-463590.6875	7.81647759140469E-05
2	604	113.906256712414	0.525054931640625	0.525054931640625	-1.09130859375E-06	-5.72996952996618E-07	-481124.15625	7.80517075327225E-05
2	605	114.00696471216	0.514984130859375	0.51495361328125	-1.0345458984375E-06	-5.32743172243499E-07	-497758.125	7.79446636443026E-05
2	606	114.107672711906	0.504913330078125	0.50494384765625	-9.8419189453125E-07	-4.96961604312673E-07	-513054.28125	7.78430112404749E-05
2	607	114.208380711652	0.494842529296875	0.494873046875	-9.37499999999999E-07	-4.63943479189766E-07	-527864.625	7.77462482801639E-05
2	608	114.309088711397	0.484771728515625	0.48480224609375	-8.953857421875E-07	-4.34084995504236E-07	-541445.125	7.76539527578279E-05
2	609	114.409796711143	0.474700927734375	0.474700927734375	-8.563232421875E-07	-4.06497406402195E-07	-554347.875	7.75657463236712E-05
2	610	114.510504710889	0.464630126953125	0.464630126953125	-8.2000732421875E-07	-3.81000091920214E-07	-566617.0625	7.74813379393891E-05
2	611	114.611212710635	0.454559326171875	0.45458984375	-7.86743164062501E-07	-3.57645461690481E-07	-577812.25	7.74004365666769E-05
2	612	114.71192071038	0.444488525390625	0.44451904296875	-7.55615234375E-07	-3.35885346203213E-07	-588287.625	7.73227729951032E-05
2	613	114.812628710126	0.434417724609375	0.434478759765625	-7.26318359375E-07	-3.15569877784583E-07	-598193.3125	7.72481507738121E-05
2	614	114.913336709872	0.424346923828125	0.424285888671875	-6.99462890624999E-07	-2.96772213914664E-07	-606588.125	7.71763516240753E-05
2	615	115.014044709617	0.414276123046875	0.414276123046875	-6.7474365234375E-07	-2.7953018388871E-07	-613975.5625	7.71071572671644E-05
2	616	115.114752709363	0.404205322265625	0.404205322265625	-6.5155029296875E-07	-2.63360107055632E-07	-620374.6875	7.70403712522238E-05
2	617	115.215460709109	0.394134521484375	0.394134521484375	-6.29577636718751E-07	-2.48138292135991E-07	-626030.0625	7.69758626120165E-05
2	618	115.316168708855	0.384063720703125	0.38409423828125	-6.07910156249999E-07	-2.3349477373813E-07	-631827.3125	7.69135513110086E-05
2	619	115.4168767086	0.373992919921875	0.3740234375	-5.87158203125E-07	-2.19610925000779E-07	-637006.25	7.68533718655817E-05
2	620	115.517584708346	0.363922119140625	0.3638916015625	-5.6732177734375E-07	-2.06443630190734E-07	-641420.125	7.6795244240202E-05
2	621	115.618292708092	0.353851318359375	0.353912353515625	-5.48095703125E-07	-1.93977825801994E-07	-645712.75	7.67390738474205E-05
2	622	115.719000707838	0.343780517578125	0.34375	-5.3070068359375E-07	-1.82428351536146E-07	-647728.5625	7.6684751547873E-05
2	623	115.819708707583	0.333709716796875	0.33367919921875	-5.13916015625E-07	-1.71483080180224E-07	-649287.4375	7.66321536502801E-05
2	624	115.920416707329	0.323638916015625	0.3236083984375	-4.9896240234375E-07	-1.61468420856181E-07	-648562.75	7.65811491874047E-05
2	625	116.021124707075	0.313568115234375	0.31365966796875	-4.840087890625E-07	-1.51814020910024E-07	-648045.4375	7.6531658123713E-05
2	626	116.121832706821	0.303497314453125	0.303497314453125	-4.6966552734375E-07	-1.42542219805364E-07	-646198.875	7.64836368034594E-05
2	627	116.222540706566	0.293426513671875	0.29339599609375	-4.559326171875E-07	-1.33768793375566E-07	-643507.375	7.64370270189829E-05
2	628	116.323248706312	0.283355712890625	0.2833251953125	-4.437255859375E-07	-1.25718642607353E-07	-638514.4375	7.6391726906877E-05
2	629	116.423956706058	0.273284912109375	0.2733154296875	-4.3212890625E-07	-1.18107493563002E-07	-632485.875	7.63476200518198E-05
2	630	116.524664705804	0.263214111328125	0.263214111328125	-4.2236328125E-07	-1.11171971184376E-07	-623193.6875	7.63045973144472E-05
2	631	116.625372705549	0.253143310546875	0.253173828125	-4.12902832031251E-07	-1.04536191258831E-07	-613155.9375	7.62625350034796E-05
2	632	116.726080705295	0.243072509765625	0.2430419921875	-4.03747558593751E-07	-9.81276073730442E-08	-601965.25	7.62214112910442E-05
2	633	116.826788705041	0.233001708984375	0.233001708984375	-3.95812988281249E-07	-9.22251004453756E-08	-588666.1875	7.61811534175649E-05
2	634	116.927496704786	0.222930908203125	0.222991943359375	-3.88183593749999E-07	-8.65618119405553E-08	-574449.6875	7.61416740715504E-05
2	635	117.028204704532	0.212860107421875	0.212890625	-3.80554199218749E-07	-8.10164166864524E-08	-559422.625	7.61029659770429E-05
2	636	117.128912704278	0.202789306640625	0.202789306640625	-3.7384033203125E-07	-7.58108171794447E-08	-542449	7.60649782023393E-05
2	637	117.229620704024	0.192718505859375	0.192779541015625	-3.6895751953125E-07	-7.11274594777933E-08	-522497.96875	7.60275797802024E-05
2	638	117.330328703769	0.182647705078125	0.1826171875	-3.6468505859375E-07	-6.659775664275E-08	-500753.15625	7.59906324674375E-05
2	639	117.431036703515	0.172576904296875	0.172698974609375	-3.62243652343749E-07	-6.25591027869632E-08	-476748.125	7.59540344006382E-05
2	640	117.531744703261	0.162506103515625	0.16259765625	-3.6041259765625E-07	-5.86022430582034E-08	-451143.09375	7.5917640060652E-05
2	641	117.632452703007	0.152435302734375	0.1524658203125	-3.6041259765625E-07	-5.49506040670167E-08	-423031.3125	7.58813475840725E-05
2	642	117.733160702752	0.142364501953125	0.142425537109375	-3.6346435546875E-07	-5.17666052246568E-08	-391855.59375	7.58448950364254E-05
2	643	117.833868702498	0.132293701171875	0.132354736328125	-3.7109375E-07	-4.91160143667457E-08	-356661.1875	7.58079113438725E-05
2	644	117.934576702244	0.122222900390625	0.122283935546875	-3.85131835937499E-07	-4.70954333309237E-08	-317511.90625	7.57698289817199E-05
2	645	118.03528470199	0.112152099609375	0.1121826171875	-4.0924072265625E-07	-4.5909693824342E-08	-274123.8125	7.57298330427147E-05
2	646	118.135992701735	0.102081298828125	0.102081298828125	-4.46166992187499E-07	-4.55453061931621E-08	-228796.171875	7.56867593736388E-05
2	647	118.236700701481	0.092010498046875	0.092071533203125	-5.0018310546875E-07	-4.60526230483538E-08	-184075.65625	7.56391018512659E-05
2	648	118.337408701227	0.081939697265625	0.082061767578125	-5.77697753906251E-07	-4.74068961864305E-08	-142049.65625	7.55848304834217E-05
2	649	118.438116700973	0.071868896484375	0.071929931640625	-6.8267822265625E-07	-4.91049974016278E-08	-105364.328125	7.55213623051532E-05
2	650	118.538824700718	0.061798095703125	0.061859130859375	-8.20312500000001E-07	-5.07438180363806E-08	-75409.2265625	7.5445685070008E-05
2	651	118.639532700464	0.051727294921875	0.0517578125	-9.918212890625E-07	-5.13344993180453E-08	-52184.6171875	7.5354430009611E-05
2	652	118.74024070021	0.041656494140625	0.0417327880859375	-1.1907958984375E-06	-4.9695231041369E-08	-35046.1328125	7.52445266698487E-05
2	653	118.840948699955	0.031585693359375	0.03167724609375	-1.40869140625E-06	-4.46234622586417E-08	-22487.001953125	7.51136321923696E-05
2	654	118.941656699701	0.021514892578125	0.0216461181640625	-1.62261962890625E-06	-3.51234135109735E-08	-13340.2294921875	7.49609971535392E-05
2	655	119.042364699447	0.011444091796875	0.01153564453125	-1.81243896484375E-06	-2.09076507218242E-08	-6364.7080078125	7.47880258131772E-05
2	656	119.143072699193	0.001373291015625	0.00144348144531251	-1.9586181640625E-06	-2.82722889544118E-09	-736.989685058594	7.45981378713623E-05
2	657	119.243780698938	-0.008697509765625	-0.00859375	-2.049560546875E-06	1.76134093976543E-08	4192.97216796875	7.43963100831024E-05
2	658	119.344488698684	-0.018768310546875	-0.01865234375	-2.0855712890625E-06	3.89007901446803E-08	8943.5185546875	7.41880940040573E-05
2	659	119.44519669843	-0.028839111328125	-0.028704833984375	-2.076416015625E-06	5.96031739519276E-08	13824.220703125	7.39785173209384E-05
2	660	119.545904698176	-0.038909912109375	-0.0387847900390625	-2.0355224609375E-06	7.89473091344917E-08	19053.974609375	7.37714653951116E-05
2	661	119.646612697921	-0.048980712890625	-0.0488433837890625	-1.976318359375E-06	9.65300728239527E-08	24714.330078125	7.35694557079114E-05
2	662	119.747320697667	-0.059051513671875	-0.05902099609375	-1.90887451171875E-06	1.12663677498404E-07	30919.263671875	7.33738197595812E-05
2	663	119.848028697413	-0.069122314453125	-0.06903076171875	-1.83990478515625E-06	1.27010025607888E-07	37518.66015625	7.31850523152389E-05
2	664	119.948736697159	-0.079193115234375	-0.07916259765625	-1.77337646484375E-06	1.4038508311387E-07	44639.4765625	7.30031097191386E-05
2	665	120.049444696904	-0.089263916015625	-0.089202880859375	-1.7120361328125E-06	1.52718556023501E-07	52103.38671875	7.28276063455269E-05
2	666	120.15015269665	-0.099334716796875	-0.0992431640625	-1.65740966796875E-06	1.64486579024015E-07	59878.4765625	7.26579382899217E-05
2	667	120.250860696396	-0.109405517578125	-0.1092529296875	-1.60980224609375E-06	1.75875612740128E-07	67867.296875	7.24934216123074E-05
2	668	120.351568696141	-0.119476318359375	-0.119415283203125	-1.56829833984375E-06	1.87278786256684E-07	76143.21875	7.23333942005411E-05
2	669	120.452276695887	-0.129547119140625	-0.129425048828125	-1.533203125E-06	1.98434889853161E-07	84414.8125	7.21772230463102E-05
2	670	120.552984695633	-0.139617919921875	-0.139556884765625	-1.502685546875E-06	2.09710123044715E-07	92871.6484375	7.20243479008786E-05
2	671	120.653692695379	-0.149688720703125	-0.149566650390625	-1.47735595703125E-06	2.20963173092059E-07	101239.4140625	7.18742958270013E-05
2	672	120.754400695124	-0.159759521484375	-0.159637451171875	-1.456298828125E-06	2.3247983449437E-07	109618.609375	7.17265720595606E-05
2	673	120.85510869487	-0.169830322265625	-0.169708251953125	-1.439208984375E-06	2.44245626390693E-07	117917.7265625	7.15807691449299E-05
2	674	120.955816694616	-0.179901123046875	-0.179718017578125	-1.4263916015625E-06	2.56348272387186E-07	125994.8671875	7.14364796294831E-05
2	675	121.056524694362	-0.189971923828125	-0.189849853515625	-1.41754150390625E-06	2.69120050688798E-07	133928.953125	7.12932742317207E-05
2	676	121.157232694107	-0.200042724609375	-0.19989013671875	-1.41265869140625E-06	2.82376532823037E-07	141499.25	7.11507600499317E-05
2	677	121.257940693853	-0.189971923828125	-0.189727783203125	-1.24969482421875E-06	2.37101829725361E-07	151819.296875	7.10167005308904E-05
