Potential - Start -0.2 V, Upper Vertex 1.5 V, Lower Vertex -0.2 V, Stop -0.19 V; Scan - # end cross 5, Rate 0.1 Vps, Step 0.01 V 
Scan	Index	Time (s)	Potential applied (V)	WE(1).Potential (V)	WE(1).Current (A)	WE(1).Power (W)	WE(1).Resistance (Ω)	WE(1).Charge (C)
1	1	63.619180839377	-0.189971923828125	-0.189788818359375	-1.79138183593749E-07	3.39984254082992E-08	1059454.875	0
1	2	63.7198888391227	-0.179901123046875	-0.1796875	-1.5838623046875E-07	2.84600254474299E-08	1134489.375	-1.69957043993918E-08
1	3	63.8205968388685	-0.169830322265625	-0.169647216796875	-1.4373779296875E-07	2.4384716468262E-08	1180254.75	-3.22088560267275E-08
1	4	63.9213048386142	-0.159759521484375	-0.159576416015625	-1.312255859375E-07	2.09405079942826E-08	1216046.625	-4.60543638780564E-08
1	5	64.02201283836	-0.149688720703125	-0.149505615234375	-1.2054443359375E-07	1.80220691703425E-08	1240253.25	-5.87319881617532E-08
1	6	64.1227208381057	-0.139617919921875	-0.139434814453125	-1.10778808593751E-07	1.54464228074858E-08	1258677.75	-7.03800395740473E-08
1	7	64.2234288378514	-0.129547119140625	-0.129425048828125	-1.01623535156251E-07	1.31526309843366E-08	1273573.625	-8.10753491009564E-08
1	8	64.3241368375972	-0.119476318359375	-0.11932373046875	-9.21630859374994E-08	1.09972431161509E-08	1294702	-9.0833275123714E-08
1	9	64.4248448373429	-0.109405517578125	-0.109222412109375	-8.36181640625003E-08	9.132977041304E-09	1306204.375	-9.96845699319238E-08
1	10	64.5255528370886	-0.099334716796875	-0.099212646484375	-7.41577148437506E-08	7.35738270307706E-09	1337860.125	-1.07629212209304E-07
1	11	64.6262608368344	-0.089263916015625	-0.089111328125	-6.34765625000006E-08	5.65648061723323E-09	1403846.125	-1.14559647101942E-07
1	12	64.7269688365801	-0.079193115234375	-0.079071044921875	-5.15747070312503E-08	4.07806588498261E-09	1533136.125	-1.20352936505697E-07
1	13	64.8276768363258	-0.069122314453125	-0.06903076171875	-3.60107421875006E-08	2.48584908213445E-09	1916949.125	-1.24763218423141E-07
1	14	64.9283848360716	-0.059051513671875	-0.0589599609375	-1.73950195312494E-08	1.0256095972494E-09	3389473.75	-1.27452409515172E-07
1	15	65.0290928358173	-0.048980712890625	-0.0487884521484375	8.54492187500056E-09	-4.16893519705752E-10	-5709642.5	-1.27898047708186E-07
1	16	65.1298008355631	-0.038909912109375	-0.038714599609375	4.30297851562497E-08	-1.66588076666585E-09	-899716.375	-1.25301056641547E-07
1	17	65.2305088353088	-0.028839111328125	-0.02864990234375	9.03320312499997E-08	-2.58800381125468E-09	-317162.15625	-1.18585759878442E-07
1	18	65.3312168350545	-0.018768310546875	-0.018609619140625	1.5533447265625E-07	-2.89071522274753E-09	-119803.5390625	-1.06215466644244E-07
1	19	65.4319248348003	-0.008697509765625	-0.00853881835937501	2.43530273437501E-07	-2.07946082575461E-09	-35062.65234375	-8.61310311961461E-08
1	20	65.532632834546	0.001373291015625	0.0015289306640625	3.62548828125001E-07	5.54311985201394E-10	4217.17138671875	-5.56125243633687E-08
1	21	65.6333408342917	0.011444091796875	0.0115936279296875	5.16357421875E-07	5.9864557755418E-09	22452.71875	-1.13560778558508E-08
1	22	65.7340488340375	0.021514892578125	0.021661376953125	7.08923339843751E-07	1.53562549343178E-08	30555.31640625	5.03417076913593E-08
1	23	65.8347568337832	0.031585693359375	0.0317138671875	9.3536376953125E-07	2.96640010333249E-08	33905.3828125	1.33138144065015E-07
1	24	65.935464833529	0.041656494140625	0.0417999267578125	1.1865234375E-06	4.95965899460771E-08	35228.91015625	2.39983648953057E-07
1	25	66.0361728332747	0.051727294921875	0.051788330078125	1.4453125E-06	7.48503197200989E-08	35831.92578125	3.72507116708221E-07
1	26	66.1368808330204	0.061798095703125	0.0618896484375	1.68914794921875E-06	1.04540767154049E-07	36639.56640625	5.30339718807227E-07
1	27	66.2375888327662	0.071868896484375	0.07196044921875	1.89605712890625E-06	1.3644111618305E-07	37952.68359375	7.10869130671199E-07
1	28	66.3382968325119	0.081939697265625	0.08203125	2.04803466796875E-06	1.68002827649616E-07	40053.6484375	9.09469918042305E-07
1	29	66.4390048322576	0.092010498046875	0.092071533203125	2.1343994140625E-06	1.96517433437293E-07	43136.97265625	1.12007217012433E-06
1	30	66.5397128320034	0.102081298828125	0.10223388671875	2.15606689453125E-06	2.20423089558608E-07	47416.84765625	1.33611433739134E-06
1	31	66.6404208317491	0.112152099609375	0.112213134765625	2.1270751953125E-06	2.38685771591918E-07	52754.66796875	1.55178770455677E-06
1	32	66.7411288314948	0.122222900390625	0.122283935546875	2.06573486328125E-06	2.5260618485845E-07	59196.3359375	1.76291246134497E-06
1	33	66.8418368312406	0.132293701171875	0.132354736328125	1.98455810546875E-06	2.62665679429119E-07	66692.296875	1.96686096387566E-06
1	34	66.9425448309863	0.142364501953125	0.1424560546875	1.895751953125E-06	2.70061349283424E-07	75144.8828125	2.16224998439429E-06
1	35	67.0432528307321	0.152435302734375	0.152557373046875	1.80816650390625E-06	2.75849117770122E-07	84371.3125	2.34875710702909E-06
1	36	67.1439608304778	0.162506103515625	0.16259765625	1.72576904296875E-06	2.8060600243407E-07	94217.5078125	2.5267049750255E-06
1	37	67.2446688302235	0.172576904296875	0.172637939453125	1.64947509765625E-06	2.8476196689553E-07	104662.3515625	2.69666202257213E-06
1	38	67.3453768299693	0.182647705078125	0.18267822265625	1.5802001953125E-06	2.88668161374517E-07	115604.4765625	2.85928899756982E-06
1	39	67.446084829715	0.192718505859375	0.192840576171875	1.51763916015625E-06	2.92662406309319E-07	127066.15625	3.01527757073927E-06
1	40	67.5467928294607	0.202789306640625	0.202880859375	1.46240234375E-06	2.96693428936123E-07	138731.21875	3.16533464683744E-06
1	41	67.6475008292065	0.212860107421875	0.21295166015625	1.412353515625E-06	3.00763019822625E-07	150777.875	3.31009005094529E-06
1	42	67.7482088289522	0.222930908203125	0.22296142578125	1.3677978515625E-06	3.04966164321741E-07	163007.59375	3.45008174917893E-06
1	43	67.848916828698	0.233001708984375	0.233062744140625	1.326904296875E-06	3.0925193073017E-07	175643.984375	3.58577085535217E-06
1	44	67.9496248284437	0.243072509765625	0.24310302734375	1.29058837890625E-06	3.13745943003596E-07	188366.046875	3.71757209904899E-06
1	45	68.0503328281894	0.253143310546875	0.253204345703125	1.25762939453125E-06	3.18437230362179E-07	201334.625	3.84588520319085E-06
1	46	68.1510408279352	0.263214111328125	0.26324462890625	1.22772216796875E-06	3.23191244433474E-07	214417.109375	3.9710325836495E-06
1	47	68.2517488276809	0.273284912109375	0.2733154296875	1.20025634765625E-06	3.28048571418549E-07	227714.21875	4.09329095418798E-06
1	48	68.3524568274266	0.283355712890625	0.28338623046875	1.17584228515625E-06	3.33217514025819E-07	241007.015625	4.21293680119561E-06
1	49	68.4531648271724	0.293426513671875	0.29345703125	1.15325927734375E-06	3.38432045055015E-07	254458.84375	4.33021659773658E-06
1	50	68.5538728269181	0.303497314453125	0.30352783203125	1.13128662109375E-06	3.43376967748554E-07	268303.21875	4.44525267084828E-06
1	51	68.6545808266638	0.313568115234375	0.313629150390625	1.112060546875E-06	3.48774591429901E-07	282025.25	4.55821418654523E-06
1	52	68.7552888264096	0.323638916015625	0.323760986328125	1.09375E-06	3.54113581124693E-07	296010.03125	4.66928531750455E-06
1	53	68.8559968261553	0.333709716796875	0.33380126953125	1.07696533203125E-06	3.59492389634397E-07	309946.15625	4.77858975500567E-06
1	54	68.9567048259011	0.343780517578125	0.34381103515625	1.06170654296875E-06	3.65026409099301E-07	323828.71875	4.8862802941585E-06
1	55	69.0574128256468	0.353851318359375	0.3538818359375	1.04736328125E-06	3.70642851521552E-07	337878.78125	4.99248017149512E-06
1	56	69.1581208253925	0.363922119140625	0.363983154296875	1.03485107421875E-06	3.76668339185926E-07	351725.15625	5.09732808495755E-06
1	57	69.2588288251383	0.373992919921875	0.37408447265625	1.02294921875E-06	3.82669412601899E-07	365692.15625	5.20094681633054E-06
1	58	69.359536824884	0.384063720703125	0.384063720703125	1.01287841796875E-06	3.89009869650181E-07	379180.46875	5.30345869265147E-06
1	59	69.4602448246297	0.394134521484375	0.394195556640625	1.00250244140625E-06	3.95182013335216E-07	393211.5625	5.40494102097E-06
1	60	69.5609528243755	0.404205322265625	0.40423583984375	9.93957519531249E-07	4.0179327243095E-07	406693.28125	5.50547110833577E-06
1	61	69.6616608241212	0.414276123046875	0.414337158203125	9.86633300781251E-07	4.08798825901613E-07	419950.53125	5.60520174985868E-06
1	62	69.762368823867	0.424346923828125	0.424407958984375	9.80529785156251E-07	4.16144644077576E-07	432835.375	5.70425618207082E-06
1	63	69.8630768236127	0.434417724609375	0.43450927734375	9.74121093749999E-07	4.23264651772115E-07	446052.625	5.80268078920199E-06
1	64	69.9637848233584	0.444488525390625	0.44451904296875	9.686279296875E-07	4.30573550147528E-07	458916.21875	5.90050603932468E-06
1	65	70.0644928231042	0.454559326171875	0.45458984375	9.6435546875E-07	4.38386166479177E-07	471392.4375	5.99783925281372E-06
1	66	70.1652008228499	0.464630126953125	0.46466064453125	9.600830078125E-07	4.46112778718089E-07	483979.6875	6.09474227530882E-06
1	67	70.2659088225956	0.474700927734375	0.4747314453125	9.5672607421875E-07	4.54187926379745E-07	496204.1875	6.19126149103977E-06
1	68	70.3666168223414	0.484771728515625	0.4847412109375	9.5367431640625E-07	4.62285242974758E-07	508288	6.28745783615159E-06
1	69	70.4673248220871	0.494842529296875	0.494842529296875	9.50927734375E-07	4.70559456289266E-07	520378.71875	6.38336223346414E-06
1	70	70.5680328218328	0.504913330078125	0.5050048828125	9.50012207031251E-07	4.79760785765393E-07	531577.25	6.47908200335223E-06
1	71	70.6687408215786	0.514984130859375	0.5150146484375	9.4879150390625E-07	4.88641489937436E-07	542811.1875	6.57469445286551E-06
1	72	70.7694488213243	0.525054931640625	0.525054931640625	9.48486328125001E-07	4.98007409532875E-07	553571.4375	6.6702300500765E-06
1	73	70.8701568210701	0.535125732421875	0.535186767578125	9.48486328125001E-07	5.07617357925483E-07	564253.5625	6.76575018587755E-06
1	74	70.9708648208158	0.545196533203125	0.545196533203125	9.4970703125E-07	5.17776982178475E-07	574068.125	6.86133171257097E-06
1	75	71.0715728205615	0.555267333984375	0.5552978515625	9.5184326171875E-07	5.28556483914144E-07	583392.125	6.95708240527892E-06
1	76	71.1722808203073	0.565338134765625	0.56536865234375	9.5428466796875E-07	5.39522602593934E-07	592452.875	7.05306365489378E-06
1	77	71.272988820053	0.575408935546875	0.575408935546875	9.58251953125E-07	5.51386733604886E-07	600477.75	7.14936732038041E-06
1	78	71.3736968197987	0.585479736328125	0.58544921875	9.6282958984375E-07	5.63687763133203E-07	608050.75	7.24610163160833E-06
1	79	71.4744048195445	0.595550537109375	0.595550537109375	9.6893310546875E-07	5.77048638206179E-07	614645.625	7.34337345420499E-06
1	80	71.5751128192902	0.605621337890625	0.605621337890625	9.77783203125E-07	5.92166372825886E-07	619382	7.44139833841473E-06
1	81	71.6758208190359	0.615692138671875	0.615692138671875	9.8876953125E-07	6.08777668276161E-07	622685.1875	7.54042230255436E-06
1	82	71.7765288187817	0.625762939453125	0.625732421875	1.00250244140625E-06	6.27298277322552E-07	624170.4375	7.64069045544602E-06
1	83	71.8772368185274	0.635833740234375	0.635772705078125	1.0205078125E-06	6.48810953407519E-07	622996.4375	7.74255750002339E-06
1	84	71.9779448182732	0.645904541015625	0.64593505859375	1.044921875E-06	6.74951650125877E-07	618165.875	7.84656003816053E-06
1	85	72.0786528180189	0.655975341796875	0.65594482421875	1.07696533203125E-06	7.06429830188426E-07	609067.75	7.95340565673541E-06
1	86	72.1793608177646	0.666046142578125	0.666015625	1.119384765625E-06	7.45527700019011E-07	594983.6875	8.064000212471E-06
1	87	72.2800688175104	0.676116943359375	0.6761474609375	1.17340087890625E-06	7.93392018749728E-07	576228.875	8.17945146991406E-06
1	88	72.3807768172561	0.686187744140625	0.686187744140625	1.23992919921875E-06	8.50824164899677E-07	553408.8125	8.30097269499674E-06
1	89	72.4814848170018	0.696258544921875	0.6961669921875	1.3165283203125E-06	9.16523504201905E-07	528790	8.42969984660158E-06
1	90	72.5821928167476	0.706329345703125	0.706268310546875	1.39862060546875E-06	9.87801399787713E-07	504974.90625	8.56641872815089E-06
1	91	72.6829008164933	0.716400146484375	0.716339111328125	1.47796630859375E-06	1.05872504718718E-06	484678.9375	8.71126667334465E-06
1	92	72.7836088162391	0.726470947265625	0.7264404296875	1.546630859375E-06	1.12353518488817E-06	469692.1875	8.86356701812474E-06
1	93	72.8843168159848	0.736541748046875	0.736480712890625	1.597900390625E-06	1.17682282052556E-06	460905.28125	9.0219064077246E-06
1	94	72.9850248157305	0.746612548828125	0.746551513671875	1.62872314453125E-06	1.21592574942042E-06	458366.125	9.18438036023872E-06
1	95	73.0857328154763	0.756683349609375	0.75714111328125	1.64093017578125E-06	1.24241569210426E-06	461409.71875	9.34901981963776E-06
1	96	73.186440815222	0.766754150390625	0.7666015625	1.63818359375E-06	1.2558340358737E-06	467958.28125	9.51413676375523E-06
1	97	73.2871488149677	0.776824951171875	0.7769775390625	1.624755859375E-06	1.2623987686311E-06	478211.90625	9.67843880061992E-06
1	98	73.3878568147135	0.786895751953125	0.78704833984375	1.60552978515625E-06	1.26362954233628E-06	490211	9.84109647106379E-06
1	99	73.4885648144592	0.796966552734375	0.7965087890625	1.58477783203125E-06	1.26228940189321E-06	502599.65625	1.00017414297326E-05
1	100	73.5892728142049	0.807037353515625	0.80718994140625	1.56524658203125E-06	1.26345128137473E-06	515695.09375	1.01603573057218E-05
1	101	73.6899808139507	0.817108154296875	0.81695556640625	1.5478515625E-06	1.26452596305171E-06	527799.6875	1.03171141745406E-05
1	102	73.7906888136964	0.827178955078125	0.82763671875	1.53533935546875E-06	1.27070313737931E-06	539057.875	1.0472365829628E-05
1	103	73.8913968134422	0.837249755859375	0.83740234375	1.52740478515625E-06	1.27905229874159E-06	548251.75	1.06265870272182E-05
1	104	73.9921048131879	0.847320556640625	0.8477783203125	1.5240478515625E-06	1.29205466237181E-06	556267.5625	1.07802397906198E-05
1	105	74.0928128129336	0.857391357421875	0.85784912109375	1.52557373046875E-06	1.30871205783478E-06	562312.5	1.09338006950566E-05
1	106	74.1935208126794	0.867462158203125	0.867919921875	1.53167724609375E-06	1.3293731626618E-06	566646.75	1.10877454062575E-05
1	107	74.2942288124251	0.877532958984375	0.87799072265625	1.5399169921875E-06	1.35203276840912E-06	570154.5625	1.12424122562516E-05
1	108	74.3949368121708	0.887603759765625	0.887451171875	1.54876708984375E-06	1.37445510972611E-06	573004.9375	1.13979394882335E-05
1	109	74.4956448119166	0.897674560546875	0.8978271484375	1.5557861328125E-06	1.39682697408716E-06	577089.0625	1.15542661660584E-05
1	110	74.5963528116623	0.907745361328125	0.90789794921875	1.558837890625E-06	1.41526572861039E-06	582419.75	1.17111003419268E-05
1	111	74.6970608114081	0.917816162109375	0.91766357421875	1.5582275390625E-06	1.42992860219238E-06	588915	1.186805729958E-05
1	112	74.7977688111538	0.927886962890625	0.92803955078125	1.5545654296875E-06	1.44269813517894E-06	596976.8125	1.20247987069888E-05
1	113	74.8984768108995	0.937957763671875	0.93780517578125	1.5478515625E-06	1.45158321629424E-06	605875.4375	1.21810180644388E-05
1	114	74.9991848106453	0.948028564453125	0.94818115234375	1.5399169921875E-06	1.46012030199927E-06	615735.25	1.2336498912191E-05
1	115	75.099892810391	0.958099365234375	0.95794677734375	1.53106689453125E-06	1.46668048728316E-06	625672.75	1.249113574886E-05
1	116	75.2006008101367	0.968170166015625	0.968017578125	1.5228271484375E-06	1.47412345086195E-06	635671.375	1.26449112940463E-05
1	117	75.3013088098825	0.978240966796875	0.9783935546875	1.5155029296875E-06	1.48275819356058E-06	645590.0625	1.27979037642945E-05
1	118	75.4020168096282	0.988311767578125	0.98846435546875	1.50909423828125E-06	1.49168579355319E-06	655005.0625	1.29502041090745E-05
1	119	75.5027248093739	0.998382568359375	0.99853515625	1.505126953125E-06	1.50292214584624E-06	663422.5625	1.31019824038958E-05
1	120	75.6034328091197	1.00845336914063	1.00860595703125	1.50177001953125E-06	1.5146940768318E-06	671611.5	1.32533914438682E-05
1	121	75.7041408088654	1.01852416992188	1.01837158203125	1.4996337890625E-06	1.52718439494492E-06	679080.1875	1.34045239974512E-05
1	122	75.8048488086112	1.02859497070313	1.0284423828125	1.49871826171875E-06	1.54134534113837E-06	686214.625	1.35555028464296E-05
1	123	75.9055568083569	1.03866577148438	1.03851318359375	1.4990234375E-06	1.55675547830469E-06	692793.1875	1.37064516820828E-05
1	124	76.0062648081026	1.04873657226563	1.048583984375	1.4990234375E-06	1.57185195348575E-06	699511.4375	1.38574150696513E-05
1	125	76.1069728078484	1.05880737304688	1.05865478515625	1.4996337890625E-06	1.58759439727874E-06	705942.25	1.40084093800397E-05
1	126	76.2076808075941	1.06887817382813	1.06842041015625	1.49871826171875E-06	1.6012611467886E-06	712889.4375	1.41593882290181E-05
1	127	76.3083888073398	1.07894897460938	1.07879638671875	1.4971923828125E-06	1.61516572916298E-06	720546.3125	1.43102442962117E-05
1	128	76.4090968070856	1.08901977539063	1.08917236328125	1.49444580078125E-06	1.62770902534248E-06	728813.5625	1.44608857226558E-05
1	129	76.5098048068313	1.09909057617188	1.0992431640625	1.49169921875E-06	1.63974016231805E-06	736906.6875	1.46112497532158E-05
1	130	76.610512806577	1.10916137695313	1.1090087890625	1.48895263671875E-06	1.65126152751327E-06	744824.75	1.47613372973865E-05
1	131	76.7112208063228	1.11923217773438	1.119384765625	1.48651123046875E-06	1.66397796874662E-06	753028.125	1.49111638165778E-05
1	132	76.8119288060685	1.12930297851563	1.129150390625	1.484375E-06	1.67608254741936E-06	760690.8125	1.50607602336095E-05
1	133	76.9126368058143	1.13937377929688	1.13922119140625	1.48284912109375E-06	1.68929307164944E-06	768265.125	1.5210171113722E-05
1	134	77.01334480556	1.14944458007813	1.14959716796875	1.48193359375E-06	1.70362659446255E-06	775741.375	1.53594610310392E-05
1	135	77.1140528053057	1.15951538085938	1.15997314453125	1.4813232421875E-06	1.71829515238642E-06	783065.5	1.55086727318121E-05
1	136	77.2147608050515	1.16958618164063	1.16943359375	1.48223876953125E-06	1.73337980413635E-06	788964.375	1.56578989845002E-05
1	137	77.3154688047972	1.17965698242188	1.18011474609375	1.48345947265625E-06	1.75065235907823E-06	795515.375	1.58072343765525E-05
1	138	77.4161768045429	1.18972778320313	1.190185546875	1.48529052734375E-06	1.76777120941551E-06	801315	1.59567225637147E-05
1	139	77.5168848042887	1.19979858398438	1.20025634765625	1.488037109375E-06	1.78602601863531E-06	806603.75	1.61064417625312E-05
1	140	77.6175928040344	1.20986938476563	1.21002197265625	1.4910888671875E-06	1.80425024609576E-06	811502.25	1.62564519996522E-05
1	141	77.7183008037802	1.21994018554688	1.21978759765625	1.49505615234375E-06	1.82365090495296E-06	815880.8125	1.64068169397069E-05
1	142	77.8190088035259	1.23001098632813	1.2298583984375	1.4996337890625E-06	1.84433713457111E-06	820105.8125	1.65576111612609E-05
1	143	77.9197168032716	1.24008178710938	1.240234375	1.505126953125E-06	1.86671013580053E-06	824006.5	1.67089128808584E-05
1	144	78.0204248030174	1.25015258789063	1.2506103515625	1.51092529296875E-06	1.88957869795559E-06	827711.625	1.68607839441393E-05
1	145	78.1211328027631	1.26022338867188	1.26068115234375	1.51763916015625E-06	1.91325898413197E-06	830685.6875	1.70132843777537E-05
1	146	78.2218408025088	1.27029418945313	1.26983642578125	1.5252685546875E-06	1.93684149962792E-06	832533	1.71665069501614E-05
1	147	78.3225488022546	1.28036499023438	1.280517578125	1.53350830078125E-06	1.96368432625604E-06	835024.9375	1.73205280589173E-05
1	148	78.4232568020003	1.29043579101563	1.29058837890625	1.54296875E-06	1.99133751266345E-06	836432	1.74754404724808E-05
1	149	78.523964801746	1.30050659179688	1.3006591796875	1.552734375E-06	2.0195782326482E-06	837657.25	1.76313224073965E-05
1	150	78.6246728014918	1.31057739257813	1.31072998046875	1.5643310546875E-06	2.05041556000651E-06	837885.3125	1.77882775460603E-05
1	151	78.7253808012375	1.32064819335938	1.32110595703125	1.575927734375E-06	2.08196752282674E-06	838303.625	1.79464022949105E-05
1	152	78.8260888009833	1.33071899414063	1.33056640625	1.58935546875E-06	2.11474298339454E-06	837173.625	1.81057876034174E-05
1	153	78.926796800729	1.34078979492188	1.3409423828125	1.60430908203125E-06	2.15128602576442E-06	835837.9375	1.82666008186061E-05
1	154	79.0275048004747	1.35086059570313	1.3507080078125	1.6204833984375E-06	2.18879972635477E-06	833521.6875	1.84289820026606E-05
1	155	79.1282128002205	1.36093139648438	1.361083984375	1.63848876953125E-06	2.23012079914042E-06	830694.75	1.85930857696803E-05
1	156	79.2289207999662	1.37100219726563	1.370849609375	1.658935546875E-06	2.27415102926898E-06	826342.9375	1.8759123122436E-05
1	157	79.3296287997119	1.38107299804688	1.3818359375	1.68182373046875E-06	2.32400452659931E-06	821629.4375	1.89273432624759E-05
1	158	79.4303367994577	1.39114379882813	1.3916015625	1.7083740234375E-06	2.37737572206242E-06	814576.6875	1.90980535990093E-05
1	159	79.5310447992034	1.40121459960938	1.4013671875	1.73828125E-06	2.43597014559782E-06	806179.8125	1.92716070159804E-05
1	160	79.6317527989492	1.41128540039063	1.4117431640625	1.7730712890625E-06	2.50312132266117E-06	796213.4375	1.94484182429733E-05
1	161	79.7324607986949	1.42135620117188	1.42120361328125	1.81304931640625E-06	2.57671217696043E-06	783874.8125	1.96289929590421E-05
1	162	79.8331687984406	1.43142700195313	1.43157958984375	1.85943603515625E-06	2.66193069364817E-06	769899.875	1.98139168787748E-05
1	163	79.9338767981864	1.44149780273438	1.44073486328125	1.9122314453125E-06	2.75501861324301E-06	753431.1875	2.00038357434096E-05
1	164	80.0345847979321	1.45156860351563	1.451416015625	1.9744873046875E-06	2.86580257125024E-06	735085	2.01995480892947E-05
1	165	80.1352927976778	1.46163940429688	1.46148681640625	2.0458984375E-06	2.99005341730663E-06	714349.6875	2.04019906959729E-05
1	166	80.2360007974236	1.47171020507813	1.4715576171875	2.12890625E-06	3.13280793307058E-06	691227.125	2.06122076633619E-05
1	167	80.3367087971693	1.48178100585938	1.48162841796875	2.22564697265625E-06	3.29758177031181E-06	665706.8125	2.08314777410123E-05
1	168	80.437416796915	1.49185180664063	1.49139404296875	2.34039306640625E-06	3.4904480799014E-06	637240.875	2.10613961826311E-05
1	169	80.5381247966608	1.50192260742188	1.50177001953125	2.47344970703125E-06	3.71455257663911E-06	607156.0625	2.13037928915583E-05
1	170	80.6388327964065	1.49185180664063	1.49169921875	2.18017578125E-06	3.25216637975245E-06	684210.5625	2.15381205634912E-05
1	171	80.7395407961523	1.48178100585938	1.48193359375	1.96563720703125E-06	2.91294395537989E-06	753920.1875	2.17468787013786E-05
1	172	80.840248795898	1.47171020507813	1.47186279296875	1.79962158203125E-06	2.64879599853884E-06	817873.5625	2.1936475604889E-05
1	173	80.9409567956437	1.46163940429688	1.46148681640625	1.66748046875E-06	2.43700060309493E-06	876464.125	2.21110567508731E-05
1	174	81.0416647953895	1.45156860351563	1.4520263671875	1.561279296875E-06	2.26701877181767E-06	930023.4375	2.2273638023762E-05
1	175	81.1423727951352	1.44149780273438	1.44134521484375	1.4739990234375E-06	2.12454142456409E-06	977846.8125	2.24264767894056E-05
1	176	81.2430807948809	1.43142700195313	1.43157958984375	1.40167236328125E-06	2.00660542759579E-06	1021336.875	2.25712774408748E-05
1	177	81.3437887946267	1.42135620117188	1.42181396484375	1.34185791015625E-06	1.90787227438705E-06	1059586.125	2.27094260480953E-05
1	178	81.4444967943724	1.41128540039063	1.4111328125	1.29150390625E-06	1.82248345481639E-06	1092627.625	2.2842026737635E-05
1	179	81.5452047941181	1.40121459960938	1.4007568359375	1.24755859375E-06	1.74752619841456E-06	1122798.5	2.29698780458421E-05
1	180	81.6459127938639	1.39114379882813	1.39129638671875	1.2103271484375E-06	1.68392375599069E-06	1149521	2.30936420848593E-05
1	181	81.7466207936096	1.38107299804688	1.3812255859375	1.1773681640625E-06	1.62621108756866E-06	1173146.75	2.32138718274655E-05
1	182	81.8473287933554	1.37100219726563	1.370849609375	1.148681640625E-06	1.57466968175868E-06	1193411.375	2.33309983741492E-05
1	183	81.9480367931011	1.36093139648438	1.361083984375	1.12274169921875E-06	1.5281457308447E-06	1212286	2.34453746088548E-05
1	184	82.0487447928468	1.35086059570313	1.3507080078125	1.0992431640625E-06	1.48475658079406E-06	1228761.875	2.35572588280775E-05
1	185	82.1494527925926	1.34078979492188	1.3409423828125	1.077880859375E-06	1.44537602864148E-06	1244054.375	2.36668856814504E-05
1	186	82.2501607923383	1.33071899414063	1.33056640625	1.0589599609375E-06	1.40901647682767E-06	1256484.25	2.37744843616383E-05
1	187	82.350868792084	1.32064819335938	1.32080078125	1.041259765625E-06	1.37529673338577E-06	1268464.25	2.38802385865711E-05
1	188	82.4515767918298	1.31057739257813	1.31103515625	1.02508544921875E-06	1.34392303152708E-06	1278952.125	2.39842884184327E-05
1	189	82.5522847915755	1.30050659179688	1.30096435546875	1.009521484375E-06	1.31335150399536E-06	1288694	2.40867393586086E-05
1	190	82.6529927913213	1.29043579101563	1.2908935546875	9.9609375E-07	1.28585099901102E-06	1295955.875	2.41877296502935E-05
1	191	82.753700791067	1.28036499023438	1.28021240234375	9.83581542968751E-07	1.25919336824154E-06	1301582.375	2.42874139075866E-05
1	192	82.8544087908127	1.27029418945313	1.270751953125	9.7198486328125E-07	1.23515167160804E-06	1307378.375	2.43858848989476E-05
1	193	82.9551167905585	1.26022338867188	1.26007080078125	9.619140625E-07	1.2120797237003E-06	1309962	2.44832644966664E-05
1	194	83.0558247903042	1.25015258789063	1.25030517578125	9.5184326171875E-07	1.19009450827434E-06	1313562.125	2.4579629098298E-05
1	195	83.1565327900499	1.24008178710938	1.240234375	9.4207763671875E-07	1.16839703423466E-06	1316488.5	2.46749968937365E-05
1	196	83.2572407897957	1.23001098632813	1.23016357421875	9.3353271484375E-07	1.1483979278637E-06	1317750.875	2.4769440642558E-05
1	197	83.3579487895414	1.21994018554688	1.21978759765625	9.259033203125E-07	1.12940540475392E-06	1317402.75	2.48630713031162E-05
1	198	83.4586567892871	1.20986938476563	1.21002197265625	9.17663574218749E-07	1.11039310013439E-06	1318590	2.49559016083367E-05
1	199	83.5593647890329	1.19979858398438	1.19964599609375	9.10339355468751E-07	1.0920849717877E-06	1317800.875	2.50479479291243E-05
1	200	83.6600727887786	1.18972778320313	1.18988037109375	9.0301513671875E-07	1.07447999653232E-06	1317674.875	2.51392575592035E-05
1	201	83.7607807885244	1.17965698242188	1.17919921875	8.9569091796875E-07	1.05619801615831E-06	1316524.75	2.52298304985743E-05
1	202	83.8614887882701	1.16958618164063	1.16973876953125	8.880615234375E-07	1.03879995094758E-06	1317182.125	2.5319650376332E-05
1	203	83.9621967880158	1.15951538085938	1.15936279296875	8.807373046875E-07	1.0210940217803E-06	1316354.875	2.54087153734872E-05
1	204	84.0629047877616	1.14944458007813	1.1492919921875	8.73718261718751E-07	1.00415741144388E-06	1315403.5	2.54970600508386E-05
1	205	84.1636127875073	1.13937377929688	1.1395263671875	8.6639404296875E-07	9.87278895081545E-07	1315251.875	2.55846807704074E-05
1	206	84.264320787253	1.12930297851563	1.1297607421875	8.58459472656251E-07	9.6985377240344E-07	1316032.75	2.56715338764479E-05
1	207	84.3650287869988	1.11923217773438	1.11968994140625	8.4991455078125E-07	9.51640799939923E-07	1317414.75	2.57575575233204E-05
1	208	84.4657367867445	1.10916137695313	1.10931396484375	8.4075927734375E-07	9.32665955133416E-07	1319419.25	2.58426898653852E-05
1	209	84.5664447864903	1.09909057617188	1.09954833984375	8.30993652343751E-07	9.13717713046935E-07	1323173	2.59268690570025E-05
1	210	84.667152786236	1.08901977539063	1.08856201171875	8.18786621093751E-07	8.91299976046867E-07	1329482	2.60099423030624E-05
1	211	84.7678607859817	1.07894897460938	1.07879638671875	8.06884765625E-07	8.7046436192395E-07	1336989.375	2.60918022831902E-05
1	212	84.8685687857275	1.06887817382813	1.06903076171875	7.92846679687501E-07	8.47577496188023E-07	1348344.875	2.61723544099368E-05
1	213	84.9692767854732	1.05880737304688	1.05865478515625	7.79113769531251E-07	8.24812502742134E-07	1358793.625	2.62515095528215E-05
1	214	85.0699847852189	1.04873657226563	1.04888916015625	7.65380859375001E-07	8.0279966141461E-07	1370414.75	2.63292804447701E-05
1	215	85.1706927849647	1.03866577148438	1.03912353515625	7.51647949218751E-07	7.81055064180691E-07	1382460.5	2.6405668904772E-05
1	216	85.2714007847104	1.02859497070313	1.02874755859375	7.37915039062501E-07	7.59128283789323E-07	1394127.5	2.64806749328272E-05
1	217	85.3721087844561	1.01852416992188	1.0186767578125	7.2601318359375E-07	7.39572783459153E-07	1403110.5	2.65543894784059E-05
1	218	85.4728167842019	1.00845336914063	1.0089111328125	7.14721679687499E-07	7.21090600563912E-07	1411614.125	2.66269362327876E-05
1	219	85.5735247839476	0.998382568359375	0.9979248046875	7.0526123046875E-07	7.03797638834658E-07	1414972	2.66984370682621E-05
1	220	85.6742327836934	0.988311767578125	0.98846435546875	6.9580078125E-07	6.87774218022241E-07	1420614.125	2.67689865722787E-05
1	221	85.7749407834391	0.978240966796875	0.9783935546875	6.8634033203125E-07	6.71510974825651E-07	1425522.375	2.68385829258477E-05
1	222	85.8756487831848	0.968170166015625	0.96832275390625	6.76879882812501E-07	6.55438213925663E-07	1430568	2.69072261289693E-05
1	223	85.9763567829306	0.958099365234375	0.958251953125	6.6650390625E-07	6.3867861399558E-07	1437729	2.69748707069084E-05
1	224	86.0770647826763	0.948028564453125	0.94757080078125	6.5460205078125E-07	6.20281809915468E-07	1447552.5	2.70413947873749E-05
1	225	86.177772782422	0.937957763671875	0.93780517578125	6.4117431640625E-07	6.01296619606728E-07	1462636.875	2.71066419372801E-05
1	226	86.2784807821678	0.927886962890625	0.92803955078125	6.23779296875E-07	5.7889184290616E-07	1487769.125	2.7170337489224E-05
1	227	86.3791887819135	0.917816162109375	0.91796875	6.0394287109375E-07	5.54400685359724E-07	1519959.625	2.72321576630929E-05
1	228	86.4798967816592	0.907745361328125	0.90789794921875	5.80749511718751E-07	5.27261249771982E-07	1563321.125	2.72918114205822E-05
1	229	86.580604781405	0.897674560546875	0.89813232421875	5.54809570312501E-07	4.98292422435043E-07	1618811.875	2.73489913524827E-05
1	230	86.6813127811507	0.887603759765625	0.8880615234375	5.279541015625E-07	4.6885574533917E-07	1682080.875	2.74035137408646E-05
1	231	86.7820207808965	0.877532958984375	0.8770751953125	5.02624511718749E-07	4.408395000155E-07	1744990.875	2.74554076895583E-05
1	232	86.8827287806422	0.867462158203125	0.867919921875	4.803466796875E-07	4.16902452116119E-07	1806861.5	2.75049042102182E-05
1	233	86.9834367803879	0.857391357421875	0.85723876953125	4.6234130859375E-07	3.96336872654501E-07	1854125.5	2.75523725576932E-05
1	234	87.0841447801337	0.847320556640625	0.84716796875	4.4891357421875E-07	3.80305181124641E-07	1887151.625	2.75982565653976E-05
1	235	87.1848527798794	0.837249755859375	0.83770751953125	4.38842773437501E-07	3.67621879604485E-07	1908901.25	2.76429600489791E-05
1	236	87.2855607796251	0.827178955078125	0.8270263671875	4.315185546875E-07	3.56877222884577E-07	1916548.875	2.76867849606788E-05
1	237	87.3862687793709	0.817108154296875	0.81695556640625	4.2449951171875E-07	3.467972078397E-07	1924514.875	2.77298895525746E-05
1	238	87.4869767791166	0.807037353515625	0.8074951171875	4.150390625E-07	3.3514200481477E-07	1945588.375	2.7772162866313E-05
1	239	87.5876847788624	0.796966552734375	0.79742431640625	4.0283203125E-07	3.21228043276278E-07	1979545.5	2.78133466053987E-05
1	240	87.6883927786081	0.786895751953125	0.78704833984375	3.8482666015625E-07	3.02877168678606E-07	2045202.25	2.78530078503536E-05
1	241	87.7891007783538	0.776824951171875	0.7769775390625	3.5888671875E-07	2.78846925994003E-07	2164966	2.78904572041938E-05
1	242	87.8898087780996	0.766754150390625	0.7666015625	3.22265625E-07	2.47049314339165E-07	2378788	2.79247560683871E-05
1	243	87.9905167778453	0.756683349609375	0.7568359375	2.728271484375E-07	2.06485395892742E-07	2774049.25	2.79547220998211E-05
1	244	88.091224777591	0.746612548828125	0.746551513671875	2.093505859375E-07	1.56290994368646E-07	3566035.25	2.79790001513902E-05
1	245	88.1919327773368	0.736541748046875	0.7364501953125	1.33666992187501E-07	9.8439080886692E-08	5509589.5	2.79962732747663E-05
1	246	88.2926407770825	0.726470947265625	0.72637939453125	4.8828125E-08	3.54677425207228E-08	14876250	2.8005462809233E-05
1	247	88.3933487768282	0.716400146484375	0.71636962890625	-3.87573242187494E-08	-2.77645693103068E-08	-18483464	2.80059703072766E-05
1	248	88.494056776574	0.706329345703125	0.70635986328125	-1.1932373046875E-07	-8.42854959159922E-08	-5919693	2.79980104096467E-05
1	249	88.5947647763197	0.696258544921875	0.69622802734375	-1.85241699218749E-07	-1.28970455648414E-07	-3758484.5	2.7982672690996E-05
1	250	88.6954727760655	0.686187744140625	0.686187744140625	-2.3040771484375E-07	-1.58102949399108E-07	-2978145.75	2.79617433989188E-05
1	251	88.7961807758112	0.676116943359375	0.67608642578125	-2.52685546875001E-07	-1.70837267887691E-07	-2675604	2.79374180536252E-05
1	252	88.8968887755569	0.666046142578125	0.666015625	-2.545166015625E-07	-1.69512034631225E-07	-2616786.5	2.79118794423994E-05
1	253	88.9975967753027	0.655975341796875	0.656005859375	-2.40478515625001E-07	-1.5775530926021E-07	-2727919	2.78869538306026E-05
1	254	89.0983047750484	0.645904541015625	0.645904541015625	-2.15759277343749E-07	-1.3935989784386E-07	-2993635.25	2.78639799944358E-05
1	255	89.1990127747941	0.635833740234375	0.635833740234375	-1.85241699218749E-07	-1.17782917641307E-07	-3432455	2.7843787393067E-05
1	256	89.2997207745399	0.625762939453125	0.625732421875	-1.5289306640625E-07	-9.56701455834263E-08	-4092614.75	2.78267616522498E-05
1	257	89.4004287742856	0.615692138671875	0.61566162109375	-1.2054443359375E-07	-7.42145758181323E-08	-5107342	2.78129937214544E-05
1	258	89.5011367740314	0.605621337890625	0.6055908203125	-8.88061523437497E-08	-5.37801909672453E-08	-6819244	2.78024508588715E-05
1	259	89.6018447737771	0.595550537109375	0.5955810546875	-6.01196289062494E-08	-3.58061100769191E-08	-9906600	2.779495298455E-05
1	260	89.7025527735228	0.585479736328125	0.58551025390625	-3.35693359375E-08	-1.96551894759978E-08	-17441818	2.77902345260372E-05
1	261	89.8032607732686	0.575408935546875	0.57537841796875	-1.00708007812506E-08	-5.79452086313381E-09	-57133336	2.77880371868378E-05
1	262	89.9039687730143	0.565338134765625	0.565338134765625	1.28173828124994E-08	7.2461552313996E-09	44107144	2.77881754300324E-05
1	263	90.00467677276	0.555267333984375	0.555267333984375	3.23486328124997E-08	1.79621384432949E-08	17165096	2.77904491667869E-05
1	264	90.1053847725058	0.545196533203125	0.545196533203125	5.00488281250003E-08	2.72864468797707E-08	10893293	2.77945982816163E-05
1	265	90.2060927722515	0.535125732421875	0.53515625	6.50024414062506E-08	3.47864599348213E-08	8232864	2.78003917628666E-05
1	266	90.3068007719972	0.525054931640625	0.5250244140625	7.84301757812495E-08	4.11777563158466E-08	6694163.5	2.78076149697881E-05
1	267	90.407508771743	0.514984130859375	0.5150146484375	9.06372070312494E-08	4.66794887188371E-08	5682155	2.78161278401967E-05
1	268	90.5082167714887	0.504913330078125	0.50494384765625	1.01623535156251E-07	5.13141777958026E-08	4968769	2.78258085018024E-05
1	269	90.6089247712345	0.494842529296875	0.494873046875	1.11083984375E-07	5.49724710197097E-08	4454945	2.78365205303999E-05
1	270	90.7096327709802	0.484771728515625	0.48480224609375	1.2054443359375E-07	5.84402108927407E-08	4021772.25	2.78481838904554E-05
1	271	90.8103407707259	0.474700927734375	0.4747314453125	1.2939453125E-07	6.14276487453935E-08	3668868.25	2.78607676591491E-05
1	272	90.9110487704717	0.464630126953125	0.464691162109375	1.3702392578125E-07	6.36738022308236E-08	3391314.25	2.78741845249897E-05
1	273	91.0117567702174	0.454559326171875	0.45452880859375	1.44042968749999E-07	6.54716814096901E-08	3155508.5	2.78883362625493E-05
1	274	91.1124647699631	0.444488525390625	0.444549560546875	1.50451660156251E-07	6.68832171868416E-08	2954766.75	2.79031664831564E-05
1	275	91.2131727697089	0.434417724609375	0.434478759765625	1.568603515625E-07	6.81524880974393E-08	2769844.25	2.79186406260123E-05
1	276	91.3138807694546	0.424346923828125	0.42437744140625	1.629638671875E-07	6.91581831802068E-08	2604120	2.79347441392019E-05
1	277	91.4145887692003	0.414276123046875	0.414337158203125	1.68762207031251E-07	6.99244466773052E-08	2455153.75	2.79514479188947E-05
1	278	91.5152967689461	0.404205322265625	0.40423583984375	1.74865722656251E-07	7.06869940358956E-08	2311693	2.79687519650906E-05
1	279	91.6160047686918	0.394134521484375	0.3941650390625	1.800537109375E-07	7.09708771751139E-08	2189152.75	2.79866235359805E-05
1	280	91.7167127684376	0.384063720703125	0.38409423828125	1.85546875000001E-07	7.12674790293022E-08	2070065.875	2.80050317087444E-05
1	281	91.8174207681833	0.373992919921875	0.374053955078125	1.910400390625E-07	7.14592758299659E-08	1957987.375	2.80239946732763E-05
1	282	91.918128767929	0.363922119140625	0.363983154296875	1.96533203125E-07	7.15347709956404E-08	1852018.75	2.8043510610587E-05
1	283	92.0188367676748	0.353851318359375	0.3538818359375	2.0172119140625E-07	7.13854646505752E-08	1754311.625	2.80635649687611E-05
1	284	92.1195447674205	0.343780517578125	0.343841552734375	2.06298828125E-07	7.09341065885383E-08	1666716	2.80841104540741E-05
1	285	92.2202527671662	0.333709716796875	0.333709716796875	2.1087646484375E-07	7.03715272720729E-08	1582489.125	2.81051161437063E-05
1	286	92.320960766912	0.323638916015625	0.32373046875	2.14233398437499E-07	6.93538808604899E-08	1511111.125	2.81265220110072E-05
1	287	92.4216687666577	0.313568115234375	0.31365966796875	2.178955078125E-07	6.83450309679756E-08	1439495.875	2.81482825812418E-05
1	288	92.5223767664035	0.303497314453125	0.303466796875	2.20947265625E-07	6.70501592026085E-08	1373480.75	2.81703796645161E-05
1	289	92.6230847661492	0.293426513671875	0.29345703125	2.239990234375E-07	6.57340919474336E-08	1310081.75	2.81927841569996E-05
1	290	92.7237927658949	0.283355712890625	0.28338623046875	2.26440429687499E-07	6.417009501547E-08	1251482.5	2.82154651358724E-05
1	291	92.8245007656407	0.273284912109375	0.273345947265625	2.2857666015625E-07	6.24805025495334E-08	1195861.125	2.82383771263994E-05
1	292	92.9252087653864	0.263214111328125	0.263275146484375	2.29797363281251E-07	6.04999286224484E-08	1145684	2.8261458282941E-05
1	293	93.0259167651321	0.253143310546875	0.253143310546875	2.31323242187501E-07	5.85579300604877E-08	1094327.125	2.82846776826773E-05
1	294	93.1266247648779	0.243072509765625	0.243133544921875	2.31323242187501E-07	5.62424382621884E-08	1051055.375	2.83079734799685E-05
1	295	93.2273327646236	0.233001708984375	0.23309326171875	2.3162841796875E-07	5.39910196550863E-08	1006324.1875	2.83312856481643E-05
1	296	93.3280407643693	0.222930908203125	0.2230224609375	2.3040771484375E-07	5.13860953788026E-08	967947.0625	2.83545505226357E-05
1	297	93.4287487641151	0.212860107421875	0.212921142578125	2.276611328125E-07	4.84738684747299E-08	935254.6875	2.83776153082727E-05
1	298	93.5294567638608	0.202789306640625	0.202880859375	2.23693847656251E-07	4.53831994207121E-08	906957.6875	2.840034358087E-05
1	299	93.6301647636066	0.192718505859375	0.192840576171875	2.17590332031251E-07	4.19602450563161E-08	886255.3125	2.84225643554237E-05
1	300	93.7308727633523	0.182647705078125	0.1827392578125	2.0751953125E-07	3.79219642354656E-08	880588.3125	2.84439702227246E-05
1	301	93.831580763098	0.172576904296875	0.172637939453125	1.934814453125E-07	3.34022374204324E-08	892271.3125	2.84641628240934E-05
1	302	93.9322887628438	0.162506103515625	0.16259765625	1.73034667968749E-07	2.81350303055206E-08	939682.5625	2.84826182905817E-05
1	303	94.0329967625895	0.152435302734375	0.152496337890625	1.434326171875E-07	2.18729478973501E-08	1063191.5	2.84985526377568E-05
1	304	94.1337047623352	0.142364501953125	0.1424560546875	1.019287109375E-07	1.45203609136502E-08	1397604.875	2.85109072137857E-05
1	305	94.234412762081	0.132293701171875	0.132354736328125	4.36401367187506E-08	5.77597836226573E-09	3032867.25	2.8518237741082E-05
1	306	94.3351207618267	0.122222900390625	0.122314453125	-3.63159179687503E-08	-4.44196146531795E-09	-3368067.25	2.85186069959309E-05
1	307	94.4358287615725	0.112152099609375	0.11224365234375	-1.45263671875E-07	-1.63049254098269E-08	-772689.0625	2.85094629361993E-05
1	308	94.5365367613182	0.102081298828125	0.102203369140625	-2.880859375E-07	-2.94433544212325E-08	-354766.9375	2.84876423393143E-05
1	309	94.6372447610639	0.092010498046875	0.09210205078125	-4.6875E-07	-4.31728359728822E-08	-196484.375	2.84495326923206E-05
1	310	94.7379527608097	0.081939697265625	0.08203125	-6.878662109375E-07	-5.64265221214555E-08	-119254.6640625	2.83912922895979E-05
1	311	94.8386607605554	0.071868896484375	0.07196044921875	-9.37499999999999E-07	-6.74629205832389E-08	-76757.8125	2.83094486803748E-05
1	312	94.9393687603011	0.061798095703125	0.0618896484375	-1.20330810546875E-06	-7.44723180901019E-08	-51432.91796875	2.82016499113524E-05
1	313	95.0400767600469	0.051727294921875	0.051849365234375	-1.46453857421875E-06	-7.59353895318782E-08	-35403.2109375	2.80673139059218E-05
1	314	95.1407847597926	0.041656494140625	0.0417938232421875	-1.69708251953125E-06	-7.09275624899419E-08	-24626.8671875	2.7908114134334E-05
1	315	95.2414927595383	0.031585693359375	0.03172607421875	-1.87896728515625E-06	-5.96122546880906E-08	-16884.845703125	2.77280450973194E-05
1	316	95.3422007592841	0.021514892578125	0.021661376953125	-1.9940185546875E-06	-4.31931859168344E-08	-10863.177734375	2.7533025786397E-05
1	317	95.4429087590298	0.011444091796875	0.01158447265625	-2.04071044921875E-06	-2.36405544029594E-08	-5676.6865234375	2.73298610409256E-05
1	318	95.5436167587756	0.001373291015625	0.0015228271484375	-2.0281982421875E-06	-3.08859537945239E-09	-750.827575683594	2.7124973712489E-05
1	319	95.6443247585213	-0.008697509765625	-0.00855102539062499	-1.971435546875E-06	1.68577951598081E-08	4337.46142578125	2.69235770247178E-05
1	320	95.745032758267	-0.018768310546875	-0.0186126708984375	-1.88812255859375E-06	3.51430031741984E-08	9857.7666015625	2.67292325588642E-05
1	321	95.8457407580128	-0.028839111328125	-0.0286712646484375	-1.79473876953125E-06	5.14574303167592E-08	15975.1748046875	2.65437865891727E-05
1	322	95.9464487577585	-0.038909912109375	-0.0387237548828125	-1.70013427734375E-06	6.58355858718096E-08	22776.880859375	2.63678048213478E-05
1	323	96.0471567575042	-0.048980712890625	-0.0487884521484375	-1.60888671875E-06	7.84950913157445E-08	30324.35546875	2.62011817540042E-05
1	324	96.14786475725	-0.059051513671875	-0.058990478515625	-1.52496337890625E-06	8.9958312798899E-08	38683.2109375	2.60433807852678E-05
1	325	96.2485727569957	-0.069122314453125	-0.06903076171875	-1.44927978515625E-06	1.000448790478E-07	47631.08203125	2.58936161117163E-05
1	326	96.3492807567415	-0.079193115234375	-0.0791015625	-1.3812255859375E-06	1.09257094038639E-07	57269.1171875	2.57510891970014E-05
1	327	96.4499887564872	-0.089263916015625	-0.089141845703125	-1.32049560546875E-06	1.17711415725807E-07	67506.359375	2.56150451605208E-05
1	328	96.5506967562329	-0.099334716796875	-0.09918212890625	-1.2664794921875E-06	1.25612132251263E-07	78313.2578125	2.54847818723647E-05
1	329	96.6514047559787	-0.109405517578125	-0.109283447265625	-1.2188720703125E-06	1.33202533447729E-07	89659.4921875	2.53596335824113E-05
1	330	96.7521127557244	-0.119476318359375	-0.119354248046875	-1.1761474609375E-06	1.40378190849333E-07	101478.984375	2.52390345849562E-05
1	331	96.8528207554701	-0.129547119140625	-0.12939453125	-1.1383056640625E-06	1.47290521113064E-07	113672.9296875	2.51224937528605E-05
1	332	96.9535287552159	-0.139617919921875	-0.13946533203125	-1.104736328125E-06	1.54072409941364E-07	126243.1015625	2.50095472438261E-05
1	333	97.0542367549616	-0.149688720703125	-0.1495361328125	-1.07513427734375E-06	1.60771421064965E-07	139086.015625	2.48997821472585E-05
1	334	97.1549447547073	-0.159759521484375	-0.159637451171875	-1.04827880859375E-06	1.67344552437498E-07	152285.296875	2.47928601311287E-05
1	335	97.2556527544531	-0.169830322265625	-0.16961669921875	-1.02447509765625E-06	1.73768086142445E-07	165564.5	2.46884883381426E-05
1	336	97.3563607541988	-0.179901123046875	-0.17974853515625	-1.0040283203125E-06	1.80472611077676E-07	179027.359375	2.45863448071759E-05
1	337	97.4570687539446	-0.189971923828125	-0.18975830078125	-9.857177734375E-07	1.87048129873801E-07	192507.75	2.44861530518392E-05
1	338	97.5577767536903	-0.200042724609375	-0.199859619140625	-9.6954345703125E-07	1.93772578427343E-07	206137.875	2.43876984313829E-05
1	339	97.658484753436	-0.189971923828125	-0.18975830078125	-8.58154296874999E-07	1.62841899964405E-07	221123.75	2.42956666625105E-05
2	340	97.7591927531818	-0.179901123046875	-0.179656982421875	-7.8460693359375E-07	1.40960111139066E-07	228977.046875	2.42129463003948E-05
2	341	97.8599007529275	-0.169830322265625	-0.169647216796875	-7.2662353515625E-07	1.23269657592573E-07	233473.34375	2.41368506976869E-05
2	342	97.9606087526732	-0.159759521484375	-0.15960693359375	-6.78100585937499E-07	1.08229549766747E-07	235373.546875	2.40661156567512E-05
2	343	98.061316752419	-0.149688720703125	-0.149505615234375	-6.365966796875E-07	9.51747765043365E-08	234851.390625	2.3999917175388E-05
2	344	98.1620247521647	-0.139617919921875	-0.13946533203125	-5.99365234375E-07	8.35906632801198E-08	232688.40625	2.39376804529456E-05
2	345	98.2627327519104	-0.129547119140625	-0.12939453125	-5.65185546875E-07	7.31319147462273E-08	228941.6875	2.38790416915435E-05
2	346	98.3634407516562	-0.119476318359375	-0.11932373046875	-5.340576171875E-07	6.37257500102351E-08	223428.578125	2.38236898439936E-05
2	347	98.4641487514019	-0.109405517578125	-0.109283447265625	-5.0506591796875E-07	5.51953398542082E-08	216374.640625	2.37713647948112E-05
2	348	98.5648567511477	-0.099334716796875	-0.099212646484375	-4.76684570312499E-07	4.72931382944353E-08	208130.609375	2.37219301197911E-05
2	349	98.6655647508934	-0.089263916015625	-0.089141845703125	-4.4891357421875E-07	4.00169852809995E-08	198572.40625	2.3675322154304E-05
2	350	98.7662727506391	-0.079193115234375	-0.079132080078125	-4.20227050781249E-07	3.32534391134232E-08	188307.921875	2.36315590882441E-05
2	351	98.8669807503849	-0.069122314453125	-0.069061279296875	-3.89709472656249E-07	2.69138347164244E-08	177212.21875	2.35907755268272E-05
2	352	98.9676887501306	-0.059051513671875	-0.05889892578125	-3.54919433593751E-07	2.09043733434555E-08	165950.140625	2.35532788792625E-05
2	353	99.0683967498763	-0.048980712890625	-0.0487945556640625	-3.14941406249999E-07	1.5367424666124E-08	154932.1875	2.35195493587526E-05
2	354	99.1691047496221	-0.038909912109375	-0.0387298583984375	-2.6580810546875E-07	1.02947099733797E-08	145706.09375	2.34903072851012E-05
2	355	99.2698127493678	-0.028839111328125	-0.0286651611328125	-2.032470703125E-07	5.82610981680887E-09	141036.03125	2.34666877076961E-05
2	356	99.3705207491136	-0.018768310546875	-0.0186126708984375	-1.220703125E-07	2.27205454450541E-09	152475.015625	2.34503058891278E-05
2	357	99.4712287488593	-0.008697509765625	-0.0085479736328125	-1.58691406249994E-08	1.35648992038995E-10	538653.875	2.3443360987585E-05
2	358	99.571936748605	0.001373291015625	0.00152587890625	1.22680664062499E-07	1.8719582828286E-10	12437.8115234375	2.34487397392513E-05
2	359	99.6726447483508	0.011444091796875	0.0115966796875	2.96630859374999E-07	3.43993278306698E-09	39094.65234375	2.34698527492583E-05
2	360	99.7733527480965	0.021514892578125	0.02166748046875	5.0933837890625E-07	1.10360787175523E-08	42540.4453125	2.35104362218408E-05
2	361	99.8740607478422	0.031585693359375	0.0317169189453125	7.5531005859375E-07	2.39561082082673E-08	41991.921875	2.35741172218695E-05
2	362	99.974768747588	0.041656494140625	0.0417938232421875	1.024169921875E-06	4.28039754751808E-08	40807.5078125	2.36637206398882E-05
2	363	100.075476747334	0.051727294921875	0.051788330078125	1.2957763671875E-06	6.71060931267675E-08	39967.03125	2.37805397773627E-05
2	364	100.176184747079	0.061798095703125	0.0618896484375	1.5478515625E-06	9.57959898073568E-08	39984.2265625	2.3923726985231E-05
2	365	100.276892746825	0.071868896484375	0.071929931640625	1.759033203125E-06	1.2652712655381E-07	40891.7421875	2.40902427321998E-05
2	366	100.377600746571	0.081939697265625	0.082061767578125	1.91162109375E-06	1.56870996192993E-07	42927.84375	2.42750738834729E-05
2	367	100.478308746317	0.092010498046875	0.09210205078125	1.9970703125E-06	1.83934275810316E-07	46118.58203125	2.44718921749154E-05
2	368	100.579016746062	0.102081298828125	0.1021728515625	2.0184326171875E-06	2.0622900365197E-07	50619.8984375	2.46740892180242E-05
2	369	100.679724745808	0.112152099609375	0.11224365234375	1.9891357421875E-06	2.23267846877206E-07	56428.35546875	2.48758860834641E-05
2	370	100.780432745554	0.122222900390625	0.122344970703125	1.927490234375E-06	2.35818717442271E-07	63473.72265625	2.50731045525754E-05
2	371	100.8811407453	0.132293701171875	0.13238525390625	1.84783935546875E-06	2.44626676249027E-07	71643.2734375	2.526320713514E-05
2	372	100.981848745045	0.142364501953125	0.142425537109375	1.7620849609375E-06	2.50965882742094E-07	80827.8515625	2.54449805652257E-05
2	373	101.082556744791	0.152435302734375	0.15252685546875	1.6778564453125E-06	2.55918166658375E-07	90905.7890625	2.56181956501678E-05
2	374	101.183264744537	0.162506103515625	0.16259765625	1.59820556640625E-06	2.59864464169368E-07	101737.640625	2.57831597991753E-05
2	375	101.283972744283	0.172576904296875	0.172576904296875	1.52587890625E-06	2.63331429550817E-07	113100.0078125	2.59404696407728E-05
2	376	101.384680744028	0.182647705078125	0.1827392578125	1.46026611328125E-06	2.66847933971803E-07	125141.0703125	2.60908327618381E-05
2	377	101.485388743774	0.192718505859375	0.192779541015625	1.40167236328125E-06	2.70213746489389E-07	137535.390625	2.62349440163234E-05
2	378	101.58609674352	0.202789306640625	0.20281982421875	1.35009765625E-06	2.73826543661926E-07	150226.046875	2.63735055341385E-05
2	379	101.686804743265	0.212860107421875	0.212890625	1.3037109375E-06	2.77547826499358E-07	163295.890625	2.65071357716806E-05
2	380	101.787512743011	0.222930908203125	0.22296142578125	1.26190185546875E-06	2.8135542606833E-07	176686.828125	2.66363240370993E-05
2	381	101.888220742757	0.233001708984375	0.2330322265625	1.2249755859375E-06	2.85458781945636E-07	190234.1875	2.67615487246076E-05
2	382	101.988928742503	0.243072509765625	0.24310302734375	1.19171142578125E-06	2.89708651735054E-07	203994.890625	2.68832391157048E-05
2	383	102.089636742248	0.253143310546875	0.253143310546875	1.162109375E-06	2.9418021085803E-07	217830.890625	2.70017626462504E-05
2	384	102.190344741994	0.263214111328125	0.26324462890625	1.13525390625E-06	2.98849499813514E-07	231881.71875	2.71174449153477E-05
2	385	102.29105274174	0.273284912109375	0.2733154296875	1.11083984375E-06	3.03609652974046E-07	246043.96875	2.7230544219492E-05
2	386	102.391760741486	0.283355712890625	0.283447265625	1.08795166015625E-06	3.08376911561936E-07	260532.953125	2.7341262466507E-05
2	387	102.492468741231	0.293426513671875	0.293426513671875	1.068115234375E-06	3.13413323738132E-07	274714.28125	2.74498288490577E-05
2	388	102.593176740977	0.303497314453125	0.303466796875	1.0491943359375E-06	3.18395649401282E-07	289237.9375	2.75564434559783E-05
2	389	102.693884740723	0.313568115234375	0.31365966796875	1.0321044921875E-06	3.23729551610086E-07	303903.03125	2.7661246349453E-05
2	390	102.794592740469	0.323638916015625	0.323638916015625	1.015625E-06	3.28695762163989E-07	318659.84375	2.77643575827824E-05
2	391	102.895300740214	0.333709716796875	0.333770751953125	1.0015869140625E-06	3.34300381155117E-07	333241.9375	2.78659317700658E-05
2	392	102.99600873996	0.343780517578125	0.343780517578125	9.87548828125E-07	3.39500019208572E-07	348114.96875	2.79660926025826E-05
2	393	103.096716739706	0.353851318359375	0.353912353515625	9.747314453125E-07	3.44969492971359E-07	363087.0625	2.80649019259727E-05
2	394	103.197424739452	0.363922119140625	0.363983154296875	9.63745117187501E-07	3.50786962144412E-07	377675.78125	2.81625107163563E-05
2	395	103.298132739197	0.373992919921875	0.3740234375	9.53369140625E-07	3.56582404492656E-07	392317.5625	2.82590463029919E-05
2	396	103.398840738943	0.384063720703125	0.3841552734375	9.4329833984375E-07	3.62373015150297E-07	407246.875	2.83545505226357E-05
2	397	103.499548738689	0.394134521484375	0.394195556640625	9.34753417968751E-07	3.68475639334065E-07	421710.75	2.84491179627366E-05
2	398	103.600256738434	0.404205322265625	0.40423583984375	9.27124023437501E-07	3.74776760736495E-07	436010.53125	2.85428704955848E-05
2	399	103.70096473818	0.414276123046875	0.414306640625	9.197998046875E-07	3.81079161115849E-07	450431.34375	2.86358717858093E-05
2	400	103.801672737926	0.424346923828125	0.424407958984375	9.136962890625E-07	3.87779977017999E-07	464495.65625	2.87281945929863E-05
2	401	103.902380737672	0.434417724609375	0.434417724609375	9.08203125E-07	3.94539540593541E-07	478326.625	2.88199353235541E-05
2	402	104.003088737417	0.444488525390625	0.444580078125	9.02709960937501E-07	4.01326843757488E-07	492494.9375	2.89111212623538E-05
2	403	104.103796737163	0.454559326171875	0.45458984375	8.978271484375E-07	4.08143108643344E-07	506322.25	2.90017851511948E-05
2	404	104.204504736909	0.464630126953125	0.464599609375	8.9385986328125E-07	4.15286933730385E-07	519767.84375	2.90920052066213E-05
2	405	104.305212736655	0.474700927734375	0.47467041015625	8.89892578125E-07	4.22405662448E-07	533401.9375	2.91818232653895E-05
2	406	104.4059207364	0.484771728515625	0.484771728515625	8.85925292968751E-07	4.29471526786074E-07	547192.5625	2.92712429654785E-05
2	407	104.506628736146	0.494842529296875	0.494873046875	8.82873535156251E-07	4.36910312373584E-07	560525.4375	2.93603097816231E-05
2	408	104.607336735892	0.504913330078125	0.504913330078125	8.80126953125E-07	4.44387836751048E-07	573682.375	2.94490837404737E-05
2	409	104.708044735638	0.514984130859375	0.5150146484375	8.77685546875E-07	4.52020913144224E-07	586787.25	2.95375957648503E-05
2	410	104.808752735383	0.525054931640625	0.5250244140625	8.76464843749999E-07	4.60165409776891E-07	599025.0625	2.9625924071297E-05
2	411	104.909460735129	0.535125732421875	0.53509521484375	8.7554931640625E-07	4.68502236117274E-07	611153.75	2.9714145057369E-05
2	412	105.010168734875	0.545196533203125	0.545166015625	8.7493896484375E-07	4.76986997455242E-07	623090.3125	2.9802289645886E-05
2	413	105.110876734621	0.555267333984375	0.5552978515625	8.758544921875E-07	4.86360136164876E-07	634007	2.98904487863183E-05
2	414	105.211584734366	0.565338134765625	0.5653076171875	8.77990722656249E-07	4.96334848776314E-07	643865.125	2.99787625408499E-05
2	415	105.312292734112	0.575408935546875	0.575439453125	8.80126953125E-07	5.06459741700382E-07	653814.125	3.0067290936131E-05
2	416	105.413000733858	0.585479736328125	0.585479736328125	8.837890625E-07	5.17440582825657E-07	662465.5	3.01561103697168E-05
2	417	105.513708733603	0.595550537109375	0.595550537109375	8.8836669921875E-07	5.29067278876028E-07	670388.1875	3.02453463518759E-05
2	418	105.614416733349	0.605621337890625	0.605621337890625	8.953857421875E-07	5.4226467227636E-07	676380.375	3.03351644106442E-05
2	419	105.715124733095	0.615692138671875	0.61572265625	9.0545654296875E-07	5.57510134058248E-07	680013.5	3.04258446703898E-05
2	420	105.815832732841	0.625762939453125	0.625732421875	9.19494628906251E-07	5.75357603338489E-07	680517.75	3.05177381960675E-05
2	421	105.916540732586	0.635833740234375	0.63580322265625	9.37805175781251E-07	5.96259553731215E-07	677969.4375	3.06112597172614E-05
2	422	106.017248732332	0.645904541015625	0.6458740234375	9.6282958984375E-07	6.21866547589889E-07	670808.3125	3.07069640257396E-05
2	423	106.117956732078	0.655975341796875	0.65594482421875	9.967041015625E-07	6.53782876725018E-07	658113.875	3.08056369249243E-05
2	424	106.218664731824	0.666046142578125	0.666015625	1.041259765625E-06	6.93495280756906E-07	639624.8125	3.0908253393136E-05
2	425	106.319372731569	0.676116943359375	0.6761474609375	1.09893798828125E-06	7.43044154205563E-07	615273.5	3.10160212393384E-05
2	426	106.420080731315	0.686187744140625	0.68609619140625	1.1688232421875E-06	8.01925182258856E-07	586997.375	3.11302137561142E-05
2	427	106.520788731061	0.696258544921875	0.69622802734375	1.248779296875E-06	8.69435154982057E-07	557526.875	3.12519478029571E-05
2	428	106.621496730807	0.706329345703125	0.706329345703125	1.33270263671875E-06	9.41326959491562E-07	529997.75	3.13819364237133E-05
2	429	106.722204730552	0.716400146484375	0.716339111328125	1.41204833984375E-06	1.01150544651318E-06	507304.96875	3.15201468765736E-05
2	430	106.822912730298	0.726470947265625	0.7264404296875	1.480712890625E-06	1.07564972040564E-06	490601.8125	3.16658079100307E-05
2	431	106.923620730044	0.736541748046875	0.736480712890625	1.53045654296875E-06	1.12715167688293E-06	481216.34375	3.18174315907527E-05
2	432	107.02432872979	0.746612548828125	0.746551513671875	1.56097412109375E-06	1.16534749849961E-06	478260.03125	3.19730970659293E-05
2	433	107.125036729535	0.756683349609375	0.7568359375	1.572265625E-06	1.18994705644582E-06	481366.46875	3.21308689308353E-05
2	434	107.225744729281	0.766754150390625	0.76690673828125	1.568603515625E-06	1.20297261219093E-06	488910.53125	3.22890264214948E-05
2	435	107.326452729027	0.776824951171875	0.777587890625	1.55609130859375E-06	1.2099977766411E-06	499705.8125	3.24463653669227E-05
2	436	107.427160728772	0.786895751953125	0.787353515625	1.53839111328125E-06	1.21125765417673E-06	511803.21875	3.2602187275188E-05
2	437	107.527868728518	0.796966552734375	0.797119140625	1.5203857421875E-06	1.21192852020613E-06	524287.4375	3.27562083839439E-05
2	438	107.628576728264	0.807037353515625	0.806884765625	1.502685546875E-06	1.21249411222379E-06	536961.8125	3.2908432331169E-05
2	439	107.72928472801	0.817108154296875	0.8172607421875	1.488037109375E-06	1.2161143558842E-06	549220.6875	3.30590264638886E-05
2	440	107.829992727755	0.827178955078125	0.82733154296875	1.47735595703125E-06	1.22226310850237E-06	560008.25	3.32083436660469E-05
2	441	107.930700727501	0.837249755859375	0.83709716796875	1.4703369140625E-06	1.23081485980947E-06	569323.375	3.33567732013762E-05
2	442	108.031408727247	0.847320556640625	0.84747314453125	1.46728515625E-06	1.24348468943936E-06	577579.0625	3.35046934196725E-05
2	443	108.132116726993	0.857391357421875	0.8575439453125	1.4678955078125E-06	1.25878489143361E-06	584199.625	3.36524935846683E-05
2	444	108.232824726738	0.867462158203125	0.867919921875	1.470947265625E-06	1.27666442040208E-06	590041.5	3.38004756486043E-05
2	445	108.333532726484	0.877532958984375	0.877685546875	1.475830078125E-06	1.29531463244348E-06	594706.375	3.39488578902092E-05
2	446	108.43424072623	0.887603759765625	0.88775634765625	1.4801025390625E-06	1.31397041513992E-06	599793.8125	3.40976985171437E-05
2	447	108.534948725976	0.897674560546875	0.8984375	1.483154296875E-06	1.33252137857198E-06	605761.3125	3.42469102179166E-05
2	448	108.635656725721	0.907745361328125	0.9075927734375	1.4837646484375E-06	1.34665413042967E-06	611682.4375	3.43963074556086E-05
2	449	108.736364725467	0.917816162109375	0.91796875	1.48193359375E-06	1.36036862841138E-06	619439.875	3.45456428476609E-05
2	450	108.837072725213	0.927886962890625	0.92803955078125	1.478271484375E-06	1.37189431370643E-06	627787	3.46947017533239E-05
2	451	108.937780724959	0.937957763671875	0.9381103515625	1.47186279296875E-06	1.38076973144052E-06	637362.625	3.48432513419539E-05
2	452	109.038488724704	0.948028564453125	0.948486328125	1.4654541015625E-06	1.38996313125972E-06	647230.375	3.4991157008335E-05
2	453	109.13919672445	0.958099365234375	0.958251953125	1.45843505859375E-06	1.39754820338567E-06	657041.25	3.5138386010658E-05
2	454	109.239904724196	0.968170166015625	0.96832275390625	1.4520263671875E-06	1.4060301509744E-06	666876.8125	3.52849419869017E-05
2	455	109.340612723941	0.978240966796875	0.9783935546875	1.44775390625E-06	1.416473082827E-06	675801	3.54309559043031E-05
2	456	109.441320723687	0.988311767578125	0.9881591796875	1.444091796875E-06	1.42699252592138E-06	684277.3125	3.55765732820146E-05
2	457	109.542028723433	0.998382568359375	0.99853515625	1.4422607421875E-06	1.44014802572201E-06	692340.25	3.57219105353579E-05
2	458	109.642736723179	1.00845336914063	1.00860595703125	1.441650390625E-06	1.4540571555699E-06	699618.9375	3.58671277354006E-05
2	459	109.743444722924	1.01852416992188	1.0186767578125	1.441650390625E-06	1.46857576055481E-06	706604.5625	3.6012312193634E-05
2	460	109.84415272267	1.02859497070313	1.02874755859375	1.44256591796875E-06	1.48403614730341E-06	713137.3125	3.61575439455919E-05
2	461	109.944860722416	1.03866577148438	1.03851318359375	1.4447021484375E-06	1.50034213675099E-06	718842.4375	3.63029321306385E-05
2	462	110.045568722162	1.04873657226563	1.048583984375	1.446533203125E-06	1.51681149418437E-06	724894.5625	3.64485167665407E-05
2	463	110.146276721907	1.05880737304688	1.05865478515625	1.44775390625E-06	1.5326716038544E-06	731239.4375	3.65942541975528E-05
2	464	110.246984721653	1.06887817382813	1.0687255859375	1.44683837890625E-06	1.54627321080625E-06	738662.75	3.67400098184589E-05
2	465	110.347692721399	1.07894897460938	1.0784912109375	1.44622802734375E-06	1.55974419158156E-06	745726.9375	3.68856854038313E-05
2	466	110.448400721145	1.08901977539063	1.0888671875	1.44378662109375E-06	1.57209183271334E-06	754174.625	3.70312118320726E-05
2	467	110.54910872089	1.09909057617188	1.0992431640625	1.44073486328125E-06	1.58371801717294E-06	762973.9375	3.71764581359457E-05
2	468	110.649816720636	1.10916137695313	1.1090087890625	1.4373779296875E-06	1.59406476996082E-06	771549.875	3.73213842976838E-05
2	469	110.750524720382	1.11923217773438	1.11907958984375	1.4349365234375E-06	1.60580816555012E-06	779880.9375	3.74660157831386E-05
2	470	110.851232720128	1.12930297851563	1.129150390625	1.43157958984375E-06	1.61646858032327E-06	788744.4375	3.76103562302887E-05
2	471	110.951940719873	1.13937377929688	1.138916015625	1.42852783203125E-06	1.62697313044191E-06	797265.5625	3.77543728973251E-05
2	472	111.052648719619	1.14944458007813	1.1492919921875	1.427001953125E-06	1.64004188718536E-06	805389.1875	3.78981603716966E-05
2	473	111.153356719365	1.15951538085938	1.15966796875	1.4251708984375E-06	1.65272490448842E-06	813704.5625	3.80417804990429E-05
2	474	111.25406471911	1.16958618164063	1.16973876953125	1.42425537109375E-06	1.66600659667893E-06	821298.5	3.81852587452158E-05
2	475	111.354772718856	1.17965698242188	1.1798095703125	1.42425537109375E-06	1.68035001024691E-06	828369.4375	3.8328693335643E-05
2	476	111.455480718602	1.18972778320313	1.190185546875	1.42486572265625E-06	1.69585450748855E-06	835296.6875	3.84721570299007E-05
2	477	111.556188718348	1.19979858398438	1.199951171875	1.42608642578125E-06	1.71123406289553E-06	841429.5	3.86157153116073E-05
2	478	111.656896718093	1.20986938476563	1.209716796875	1.42822265625E-06	1.72774491602468E-06	847008.5625	3.87594409403391E-05
2	479	111.757604717839	1.21994018554688	1.219482421875	1.43096923828125E-06	1.74504179994983E-06	852207.3125	3.89034139516298E-05
2	480	111.858312717585	1.23001098632813	1.23016357421875	1.434326171875E-06	1.76445576016704E-06	857659.625	3.90476925531402E-05
2	481	111.959020717331	1.24008178710938	1.240234375	1.43829345703125E-06	1.78382094873086E-06	862295.75	3.91923385905102E-05
2	482	112.059728717076	1.25015258789063	1.25030517578125	1.44317626953125E-06	1.80441065822379E-06	866356.5625	3.93374320992734E-05
2	483	112.160436716822	1.26022338867188	1.26007080078125	1.4495849609375E-06	1.82657970526634E-06	869263.1875	3.94830931327306E-05
2	484	112.261144716568	1.27029418945313	1.2701416015625	1.456298828125E-06	1.84970576810883E-06	872171	3.96294162783306E-05
2	485	112.361852716314	1.28036499023438	1.280517578125	1.46453857421875E-06	1.87536727480619E-06	874348.875	3.97764924855437E-05
2	486	112.462560716059	1.29043579101563	1.29058837890625	1.47308349609375E-06	1.90114440101752E-06	876113.5625	3.99244127038401E-05
2	487	112.563268715805	1.30050659179688	1.30096435546875	1.483154296875E-06	1.92953075384139E-06	877160.5	4.00732715206686E-05
2	488	112.663976715551	1.31057739257813	1.31011962890625	1.4947509765625E-06	1.9583023913583E-06	876480.25	4.02232217311393E-05
2	489	112.764684715297	1.32064819335938	1.32049560546875	1.50726318359375E-06	1.99033434000739E-06	876088.3125	4.03743870265316E-05
2	490	112.865392715042	1.33071899414063	1.33056640625	1.52099609375E-06	2.02378623725963E-06	874799.375	4.05268692702521E-05
2	491	112.966100714788	1.34078979492188	1.34033203125	1.53656005859375E-06	2.0595007299562E-06	872293.9375	4.0680832171347E-05
2	492	113.066808714534	1.35086059570313	1.35101318359375	1.553955078125E-06	2.09941367756983E-06	869403	4.08364503527991E-05
2	493	113.167516714279	1.36093139648438	1.36077880859375	1.57257080078125E-06	2.13992097997107E-06	865321.1875	4.0993883885676E-05
2	494	113.268224714025	1.37100219726563	1.37115478515625	1.59332275390625E-06	2.18469199353422E-06	860563.125	4.11533001170028E-05
2	495	113.368932713771	1.38107299804688	1.380615234375	1.61590576171875E-06	2.2309441192192E-06	854390.9375	4.1314895497635E-05
2	496	113.469640713517	1.39114379882813	1.3909912109375	1.64154052734375E-06	2.28336853069777E-06	847369.4375	4.14789210481104E-05
2	497	113.570348713262	1.40121459960938	1.4013671875	1.6717529296875E-06	2.34273966270848E-06	838262.125	4.16457587562036E-05
2	498	113.671056713008	1.41128540039063	1.4117431640625	1.70562744140625E-06	2.40790768657462E-06	827697.3125	4.18158233514987E-05
2	499	113.771764712754	1.42135620117188	1.4215087890625	1.74560546875E-06	2.48139349423582E-06	814335.6875	4.19896059611347E-05
2	500	113.8724727125	1.43142700195313	1.431884765625	1.7913818359375E-06	2.56505222751002E-06	799318.5625	4.21677104895934E-05
2	501	113.973180712245	1.44149780273438	1.44134521484375	1.844482421875E-06	2.65853600467381E-06	781436.125	4.23507881350815E-05
2	502	114.073888711991	1.45156860351563	1.451416015625	1.9073486328125E-06	2.76835635304451E-06	760960	4.25397083745338E-05
2	503	114.174596711737	1.46163940429688	1.46148681640625	1.97998046875E-06	2.89371519102133E-06	738131.9375	4.27354534622282E-05
2	504	114.275304711483	1.47171020507813	1.47125244140625	2.06512451171875E-06	3.03831916426134E-06	712428	4.29391402576584E-05
2	505	114.376012711228	1.48178100585938	1.48193359375	2.16400146484375E-06	3.2069065127871E-06	684811.75	4.31520929851104E-05
2	506	114.476720710974	1.49185180664063	1.49169921875	2.279052734375E-06	3.39966118190205E-06	654526	4.33758177678101E-05
2	507	114.57742871072	1.50192260742188	1.5020751953125	2.41180419921875E-06	3.62271134690673E-06	622801.5	4.36120208178181E-05
2	508	114.678136710466	1.49185180664063	1.49200439453125	2.125244140625E-06	3.17087346957123E-06	702039.125	4.38404786109459E-05
2	509	114.778844710211	1.48178100585938	1.48223876953125	1.91741943359375E-06	2.84207339973364E-06	773038.3125	4.40440453530755E-05
2	510	114.879552709957	1.47171020507813	1.4715576171875	1.7572021484375E-06	2.58582417700381E-06	837443.5625	4.4229076593183E-05
2	511	114.980260709703	1.46163940429688	1.46148681640625	1.6302490234375E-06	2.38258735407726E-06	896480.75	4.43996468675323E-05
2	512	115.080968709448	1.45156860351563	1.451416015625	1.5283203125E-06	2.21822847379372E-06	949680.5625	4.45586956629995E-05
2	513	115.181676709194	1.44149780273438	1.44134521484375	1.4447021484375E-06	2.08231449505547E-06	997676.4375	4.47083984909113E-05
2	514	115.28238470894	1.43142700195313	1.43157958984375	1.3751220703125E-06	1.96859650714032E-06	1041056.4375	4.48503888037521E-05
2	515	115.383092708686	1.42135620117188	1.42120361328125	1.31744384765625E-06	1.87235582416179E-06	1078758.5	4.49859689979348E-05
2	516	115.483800708431	1.41128540039063	1.4111328125	1.26922607421875E-06	1.7910464293891E-06	1111805.75	4.51162195531651E-05
2	517	115.584508708177	1.40121459960938	1.40106201171875	1.2274169921875E-06	1.71968736140116E-06	1141471.875	4.5241933548823E-05
2	518	115.685216707923	1.39114379882813	1.39068603515625	1.19140625E-06	1.65687197295483E-06	1167264.375	4.53637294413056E-05
2	519	115.785924707669	1.38107299804688	1.3818359375	1.15936279296875E-06	1.60204922394769E-06	1191892.625	4.54821019957308E-05
2	520	115.886632707414	1.37100219726563	1.3714599609375	1.1309814453125E-06	1.5510958064624E-06	1212628.125	4.55974295618944E-05
2	521	115.98734070716	1.36093139648438	1.36077880859375	1.10626220703125E-06	1.50537812260154E-06	1230069	4.57100832136348E-05
2	522	116.088048706906	1.35086059570313	1.351318359375	1.08367919921875E-06	1.46439560921863E-06	1246972.75	4.58203576272354E-05
2	523	116.188756706652	1.34078979492188	1.3409423828125	1.06353759765625E-06	1.42614248943573E-06	1260832.25	4.59284783573821E-05
2	524	116.289464706397	1.33071899414063	1.33056640625	1.04461669921875E-06	1.38993175369251E-06	1273736.625	4.60346309409942E-05
2	525	116.390172706143	1.32064819335938	1.32080078125	1.02783203125E-06	1.35756135932752E-06	1285035.625	4.61389863630757E-05
2	526	116.490880705889	1.31057739257813	1.31072998046875	1.011962890625E-06	1.32641002892342E-06	1295235.375	4.62416974187363E-05
2	527	116.591588705635	1.30050659179688	1.3006591796875	9.9761962890625E-07	1.29756313071994E-06	1303762.625	4.63428914372344E-05
2	528	116.69229670538	1.29043579101563	1.29058837890625	9.8388671875E-07	1.26979273318284E-06	1311724.625	4.64426666439977E-05
2	529	116.793004705126	1.28036499023438	1.28082275390625	9.716796875E-07	1.24454948036146E-06	1318153.25	4.65411358163692E-05
2	530	116.893712704872	1.27029418945313	1.27044677734375	9.6038818359375E-07	1.2201221579744E-06	1322847.125	4.66384226456285E-05
2	531	116.994420704617	1.26022338867188	1.26007080078125	9.4940185546875E-07	1.19631351935823E-06	1327226	4.67345889774151E-05
2	532	117.095128704363	1.25015258789063	1.25	9.39331054687501E-07	1.17416379907809E-06	1330734.25	4.68296966573689E-05
2	533	117.195836704109	1.24008178710938	1.23992919921875	9.30175781250001E-07	1.15335205919109E-06	1333005.25	4.69238329969812E-05
2	534	117.296544703855	1.23001098632813	1.23016357421875	9.21020507812501E-07	1.13300586690457E-06	1335652.75	4.70170489279553E-05
2	535	117.3972527036	1.21994018554688	1.219482421875	9.124755859375E-07	1.11274789560412E-06	1336454.875	4.71093699161429E-05
2	536	117.497960703346	1.20986938476563	1.21002197265625	9.0362548828125E-07	1.09340669496305E-06	1339074.75	4.72008177894168E-05
2	537	117.598668703092	1.19979858398438	1.199951171875	8.9569091796875E-07	1.07478535937844E-06	1339693.375	4.72914216516074E-05
2	538	117.699376702838	1.18972778320313	1.1895751953125	8.8775634765625E-07	1.05605283806653E-06	1339979.5	4.73812251584604E-05
2	539	117.800084702583	1.17965698242188	1.17950439453125	8.7890625E-07	1.03667377970851E-06	1342013.875	4.74701846542303E-05
2	540	117.900792702329	1.16958618164063	1.16973876953125	8.709716796875E-07	1.01880925740261E-06	1343027.375	4.7558296500938E-05
2	541	118.001500702075	1.15951538085938	1.15936279296875	8.6212158203125E-07	9.99511712507228E-07	1344778.75	4.76455643365625E-05
2	542	118.102208701821	1.14944458007813	1.1492919921875	8.5418701171875E-07	9.81710286396265E-07	1345480.625	4.77319881611038E-05
2	543	118.202916701566	1.13937377929688	1.13922119140625	8.44726562500001E-07	9.62330318543536E-07	1348627.25	4.78175352327526E-05
2	544	118.303624701312	1.12930297851563	1.12945556640625	8.3587646484375E-07	9.44085286391783E-07	1351223.125	4.79021618957631E-05
2	545	118.404332701058	1.11923217773438	1.11846923828125	8.26110839843749E-07	9.23979541767039E-07	1353897.375	4.79858499602415E-05
2	546	118.505040700804	1.10916137695313	1.109619140625	8.160400390625E-07	9.05493607206154E-07	1359760.625	4.80685375805479E-05
2	547	118.605748700549	1.09909057617188	1.0992431640625	8.0413818359375E-07	8.8394335762132E-07	1366983	4.81501192552969E-05
2	548	118.706456700295	1.08901977539063	1.08917236328125	7.9193115234375E-07	8.6254954112519E-07	1375337.25	4.82304894831032E-05
2	549	118.807164700041	1.07894897460938	1.0784912109375	7.7880859375E-07	8.39938195440482E-07	1384796.25	4.83095827803481E-05
2	550	118.907872699786	1.06887817382813	1.0687255859375	7.6507568359375E-07	8.17655916307558E-07	1396888.75	4.83873227494769E-05
2	551	119.008580699532	1.05880737304688	1.0589599609375	7.5042724609375E-07	7.94672359916149E-07	1411142.875	4.84636329929344E-05
2	552	119.109288699278	1.04873657226563	1.04827880859375	7.354736328125E-07	7.70981444020435E-07	1425311.25	4.85384553030599E-05
2	553	119.209996699024	1.03866577148438	1.03912353515625	7.20825195312499E-07	7.49026412449894E-07	1441574.875	4.86117860418744E-05
2	554	119.310704698769	1.02859497070313	1.0284423828125	7.0648193359375E-07	7.26575933640561E-07	1455723.625	4.86836543132085E-05
2	555	119.411412698515	1.01852416992188	1.01837158203125	6.93664550781251E-07	7.06408286532678E-07	1468103.75	4.875415834249E-05
2	556	119.512120698261	1.00845336914063	1.00830078125	6.82373046875E-07	6.8803723252131E-07	1477638.75	4.88234472868498E-05
2	557	119.612828698007	0.998382568359375	0.9979248046875	6.7138671875E-07	6.69993482915743E-07	1486363.625	4.88916157337371E-05
2	558	119.713536697752	0.988311767578125	0.98846435546875	6.6192626953125E-07	6.54290545298863E-07	1493314.875	4.8958754632622E-05
2	559	119.814244697498	0.978240966796875	0.97808837890625	6.53076171875E-07	6.38766209704045E-07	1497663.625	4.90249694848899E-05
2	560	119.914952697244	0.968170166015625	0.96832275390625	6.4422607421875E-07	6.23818777967244E-07	1503079.125	4.909029303235E-05
2	561	120.01566069699	0.958099365234375	0.95855712890625	6.34155273437501E-07	6.07874028446531E-07	1511549.625	4.91546634293627E-05
2	562	120.116368696735	0.948028564453125	0.9478759765625	6.23779296875E-07	5.91265404636943E-07	1519569.5	4.92180079163518E-05
2	563	120.217076696481	0.937957763671875	0.9381103515625	6.1187744140625E-07	5.74008595322084E-07	1533167	4.92802282678895E-05
2	564	120.317784696227	0.927886962890625	0.927734375	5.9783935546875E-07	5.54636130800645E-07	1551812.125	4.93411425850354E-05
2	565	120.418492695973	0.917816162109375	0.91796875	5.8135986328125E-07	5.33670174718281E-07	1579002.625	4.9400518037146E-05
2	566	120.519200695718	0.907745361328125	0.908203125	5.6182861328125E-07	5.10254494656692E-07	1616512.875	4.94580817758106E-05
2	567	120.619908695464	0.897674560546875	0.8978271484375	5.4046630859375E-07	4.85245323034178E-07	1661208.375	4.95135864184704E-05
2	568	120.72061669521	0.887603759765625	0.887451171875	5.17578125E-07	4.59325292467838E-07	1714622.75	4.95668646181002E-05
2	569	120.821324694955	0.877532958984375	0.877685546875	4.9468994140625E-07	4.34182197750488E-07	1774213.5	4.96178363391664E-05
2	570	120.922032694701	0.867462158203125	0.86700439453125	4.73632812499999E-07	4.1064171796279E-07	1830541.25	4.96665961691178E-05
2	571	121.022740694447	0.857391357421875	0.85784912109375	4.5501708984375E-07	3.90335998190494E-07	1885312	4.97133551107254E-05
2	572	121.123448694193	0.847320556640625	0.84747314453125	4.38842773437501E-07	3.71907447060948E-07	1931154.375	4.97583641845267E-05
2	573	121.224156693938	0.837249755859375	0.83740234375	4.26025390625E-07	3.56754640051804E-07	1965616.125	4.98019144288264E-05
2	574	121.324864693684	0.827178955078125	0.82763671875	4.150390625E-07	3.43501540100988E-07	1994117.75	4.98442641401198E-05
2	575	121.42557269343	0.817108154296875	0.81756591796875	4.0313720703125E-07	3.29591216541303E-07	2028009.125	4.98854642501101E-05
2	576	121.526280693176	0.807037353515625	0.8074951171875	3.90625E-07	3.15427769237431E-07	2067187.5	4.99254347232636E-05
2	577	121.626988692921	0.796966552734375	0.797119140625	3.753662109375E-07	2.99211592391657E-07	2123577.25	4.99640045745764E-05
2	578	121.727696692667	0.786895751953125	0.78704833984375	3.5552978515625E-07	2.79819118986779E-07	2213734	5.00008063681889E-05
2	579	121.828404692413	0.776824951171875	0.77728271484375	3.28674316406249E-07	2.5547285531502E-07	2364902.5	5.00352616654709E-05
2	580	121.929112692159	0.766754150390625	0.7666015625	2.9266357421875E-07	2.24356355715827E-07	2619395.25	5.00665482832119E-05
2	581	122.029820691904	0.756683349609375	0.75653076171875	2.45056152343751E-07	1.85392522666916E-07	3087173	5.00936221214943E-05
2	582	122.13052869165	0.746612548828125	0.74658203125	1.8463134765625E-07	1.37842448566516E-07	4043636.5	5.01152608194388E-05
2	583	122.231236691396	0.736541748046875	0.736480712890625	1.10473632812499E-07	8.13616978234677E-08	6666575	5.0130118324887E-05
2	584	122.331944691142	0.726470947265625	0.72637939453125	2.71606445312503E-08	1.97289313774718E-08	26743822	5.01370486745145E-05
2	585	122.432652690887	0.716400146484375	0.716400146484375	-6.01196289062494E-08	-4.3069707800214E-08	-11916244	5.01353897561785E-05
2	586	122.533360690633	0.706329345703125	0.706329345703125	-1.416015625E-07	-1.00017338411362E-07	-4988146.5	5.01252325193491E-05
2	587	122.634068690379	0.696258544921875	0.696197509765625	-2.093505859375E-07	-1.457493539192E-07	-3325510.5	5.0107562856283E-05
2	588	122.734776690124	0.686187744140625	0.686187744140625	-2.5787353515625E-07	-1.76949654928649E-07	-2660946.75	5.00840360473376E-05
2	589	122.83548468987	0.676116943359375	0.67608642578125	-2.82897949218749E-07	-1.91263453075408E-07	-2389860	5.00568057759665E-05
2	590	122.936192689616	0.666046142578125	0.666015625	-2.87475585937499E-07	-1.91463229270994E-07	-2316772.75	5.00280839332845E-05
2	591	123.036900689362	0.655975341796875	0.655914306640625	-2.75573730468751E-07	-1.80752735445822E-07	-2380177.25	4.99997331644408E-05
2	592	123.137608689107	0.645904541015625	0.645904541015625	-2.51159667968751E-07	-1.6222516308062E-07	-2571689	4.99732086609583E-05
2	593	123.238316688853	0.635833740234375	0.63580322265625	-2.20947265625E-07	-1.40478974230973E-07	-2877624.5	4.99494381074328E-05
2	594	123.339024688599	0.625762939453125	0.625762939453125	-1.8768310546875E-07	-1.17445125624727E-07	-3334146.5	4.99288616992999E-05
2	595	123.439732688345	0.615692138671875	0.61572265625	-1.53503417968751E-07	-9.45155278486709E-08	-4011133.5	4.9911679525394E-05
2	596	123.54044068809	0.605621337890625	0.60552978515625	-1.202392578125E-07	-7.28084472711998E-08	-5036041	4.98978952236939E-05
2	597	123.641148687836	0.595550537109375	0.5955810546875	-9.03320312499997E-08	-5.38000470839961E-08	-6593243.5	4.98872941534501E-05
2	598	123.741856687582	0.585479736328125	0.5855712890625	-6.19506835937506E-08	-3.62765391059838E-08	-9452217	4.98796252941247E-05
2	599	123.842564687328	0.575408935546875	0.57537841796875	-3.662109375E-08	-2.10709867332071E-08	-15711667	4.98746630910318E-05
2	600	123.943272687073	0.565338134765625	0.565399169921875	-1.373291015625E-08	-7.76457564910515E-09	-41171112	4.98721274198033E-05
2	601	124.043980686819	0.555267333984375	0.5552978515625	8.54492187500056E-09	4.74497685587494E-09	64985712	4.98718654853292E-05
2	602	124.144688686565	0.545196533203125	0.545166015625	2.71606445312503E-08	1.48070595784588E-08	20071910	4.98736626468599E-05
2	603	124.245396686311	0.535125732421875	0.535186767578125	4.425048828125E-08	2.36822756960464E-08	12094483	4.98772569699213E-05
2	604	124.346104686056	0.525054931640625	0.525054931640625	5.92041015625003E-08	3.10854062490762E-08	8868557	4.9882466555573E-05
2	605	124.446812685802	0.514984130859375	0.514984130859375	7.23266601562494E-08	3.72470800868996E-08	7120253.5	4.98890913149808E-05
2	606	124.547520685548	0.504913330078125	0.504913330078125	8.45336914062495E-08	4.26821848975578E-08	5972924.5	4.9896989366971E-05
2	607	124.648228685293	0.494842529296875	0.494903564453125	9.52148437499995E-08	4.7122163948643E-08	5197756.5	4.9906040658243E-05
2	608	124.748936685039	0.484771728515625	0.48480224609375	1.0498046875E-07	5.08947657351655E-08	4618023.5	4.99161214975175E-05
2	609	124.849644684785	0.474700927734375	0.47467041015625	1.1444091796875E-07	5.43217169024501E-08	4147733.5	4.99271700391546E-05
2	610	124.950352684531	0.464630126953125	0.464630126953125	1.23291015625E-07	5.72847191904202E-08	3768564.25	4.99391389894299E-05
2	611	125.051060684276	0.454559326171875	0.454620361328125	1.312255859375E-07	5.96578217937349E-08	3464418.75	4.99519555887673E-05
2	612	125.151768684022	0.444488525390625	0.444488525390625	1.38244628906251E-07	6.14481550087476E-08	3215231.75	4.99655252497178E-05
2	613	125.252476683768	0.434417724609375	0.4344482421875	1.4495849609375E-07	6.2976958759009E-08	2997052.75	4.99797861266416E-05
2	614	125.353184683514	0.424346923828125	0.424407958984375	1.51977539062501E-07	6.45004760713164E-08	2792570.5	4.99947382195387E-05
2	615	125.453892683259	0.414276123046875	0.414306640625	1.5899658203125E-07	6.58733441127879E-08	2605758	5.00103960803244E-05
2	616	125.554600683005	0.404205322265625	0.40423583984375	1.65710449218751E-07	6.69861037749797E-08	2439410.75	5.00267451570835E-05
2	617	125.655308682751	0.394134521484375	0.394195556640625	1.7120361328125E-07	6.74877043138622E-08	2302495.5	5.00437126902398E-05
2	618	125.756016682497	0.384063720703125	0.38409423828125	1.7730712890625E-07	6.81026435245258E-08	2166265	5.00612623000052E-05
2	619	125.856724682242	0.373992919921875	0.3740234375	1.8341064453125E-07	6.85998742255833E-08	2039268	5.00794230902102E-05
2	620	125.957432681988	0.363922119140625	0.363922119140625	1.8890380859375E-07	6.8746267345432E-08	1926494.5	5.00981732329819E-05
2	621	126.058140681734	0.353851318359375	0.353912353515625	1.9378662109375E-07	6.8583474899242E-08	1826299.25	5.01174436067231E-05
2	622	126.15884868148	0.343780517578125	0.34381103515625	1.9866943359375E-07	6.8304743194858E-08	1730568.375	5.01372051076032E-05
2	623	126.259556681225	0.333709716796875	0.33380126953125	2.03552246093749E-07	6.79459972730001E-08	1639880	5.01574577356223E-05
2	624	126.360264680971	0.323638916015625	0.32366943359375	2.08129882812499E-07	6.73652778004907E-08	1555132	5.01781869388651E-05
2	625	126.460972680717	0.313568115234375	0.31353759765625	2.117919921875E-07	6.64047519194355E-08	1480403.5	5.01993308716919E-05
2	626	126.561680680462	0.303497314453125	0.30352783203125	2.1514892578125E-07	6.53036806852469E-08	1410780.25	5.02208313264418E-05
2	627	126.662388680208	0.293426513671875	0.293426513671875	2.18811035156249E-07	6.42049542420864E-08	1341004.25	5.02426810271572E-05
2	628	126.763096679954	0.283355712890625	0.28338623046875	2.215576171875E-07	6.27863769864234E-08	1279063.375	5.02648545079865E-05
2	629	126.8638046797	0.273284912109375	0.2733154296875	2.23693847656251E-07	6.11389765481363E-08	1221828.125	5.02872753713746E-05
2	630	126.964512679445	0.263214111328125	0.2633056640625	2.2552490234375E-07	5.93819819982855E-08	1167523.75	5.03098963235971E-05
2	631	127.065220679191	0.253143310546875	0.253204345703125	2.26440429687499E-07	5.73356970789973E-08	1118194.125	5.03326555190142E-05
2	632	127.165928678937	0.243072509765625	0.243133544921875	2.27966308593749E-07	5.54262520324755E-08	1066532.875	5.0355534767732E-05
2	633	127.266636678683	0.233001708984375	0.233062744140625	2.276611328125E-07	5.30593275982483E-08	1023726.5625	5.03784795000684E-05
2	634	127.367344678428	0.222930908203125	0.222991943359375	2.2705078125E-07	5.06304935754542E-08	982123.6875	5.04013733007014E-05
2	635	127.468052678174	0.212860107421875	0.212921142578125	2.24914550781249E-07	4.78890633814899E-08	946675.75	5.04241324961185E-05
2	636	127.56876067792	0.202789306640625	0.20281982421875	2.20642089843751E-07	4.47505890122102E-08	919225.5	5.04465679114219E-05
2	637	127.669468677666	0.192718505859375	0.19281005859375	2.14233398437499E-07	4.13063538928782E-08	900000	5.04684649058618E-05
2	638	127.770176677411	0.182647705078125	0.182708740234375	2.05383300781251E-07	3.75253250695096E-08	889598.8125	5.04895942867734E-05
2	639	127.870884677157	0.172576904296875	0.172607421875	1.9073486328125E-07	3.29222515915717E-08	904960.0625	5.05095413245726E-05
2	640	127.971592676903	0.162506103515625	0.162628173828125	1.708984375E-07	2.77929004255384E-08	951607.1875	5.05277530464809E-05
2	641	128.072300676649	0.152435302734375	0.152496337890625	1.416015625E-07	2.15937188130511E-08	1076939.625	5.05434873048216E-05
2	642	128.173008676394	0.142364501953125	0.142425537109375	1.007080078125E-07	1.43433922517033E-08	1414242.375	5.05556890857406E-05
2	643	128.27371667614	0.132293701171875	0.13238525390625	4.33349609374994E-08	5.73690961402917E-09	3054929.5	5.05629432154819E-05
2	644	128.374424675886	0.122222900390625	0.122344970703125	-3.69262695312497E-08	-4.51774351262202E-09	-3313223	5.0563263357617E-05
2	645	128.475132675631	0.112152099609375	0.1123046875	-1.44348144531251E-07	-1.62109721202341E-08	-778012.75	5.055413566879E-05
2	646	128.575840675377	0.102081298828125	0.1021728515625	-2.86254882812501E-07	-2.92474773289086E-08	-356929.65625	5.05324533150997E-05
2	647	128.676548675123	0.092010498046875	0.09210205078125	-4.66308593750001E-07	-4.29479776187236E-08	-197513.09375	5.0494560127845E-05
2	648	128.777256674869	0.081939697265625	0.08203125	-6.8511962890625E-07	-5.6201219678087E-08	-119732.7421875	5.04365816595964E-05
2	649	128.877964674614	0.071868896484375	0.07196044921875	-9.356689453125E-07	-6.73311575383195E-08	-76908.0234375	5.03549672430381E-05
2	650	128.97867267436	0.061798095703125	0.0618896484375	-1.202392578125E-06	-7.4415652306925E-08	-51472.08203125	5.02473085361999E-05
2	651	129.079380674106	0.051727294921875	0.051788330078125	-1.46728515625E-06	-7.59882468059914E-08	-35295.34375	5.01128779433202E-05
2	652	129.180088673852	0.041656494140625	0.0418121337890625	-1.702880859375E-06	-7.12010788106454E-08	-24553.763671875	4.99532470712438E-05
2	653	129.280796673597	0.031585693359375	0.03172607421875	-1.88873291015625E-06	-5.99220797425914E-08	-16797.544921875	4.97723958687857E-05
2	654	129.381504673343	0.021514892578125	0.021661376953125	-2.008056640625E-06	-4.34972697860303E-08	-10787.234375	4.95761778438464E-05
2	655	129.482212673089	0.011444091796875	0.011590576171875	-2.059326171875E-06	-2.3868775400615E-08	-5628.33447265625	4.93713669129647E-05
2	656	129.582920672835	0.001373291015625	0.001507568359375	-2.04803466796875E-06	-3.08755221389845E-09	-736.10498046875	4.91645441798028E-05
2	657	129.68362867258	-0.008697509765625	-0.00855407714843751	-1.9927978515625E-06	1.70465437321354E-08	4292.49609375	4.89610720251221E-05
2	658	129.784336672326	-0.018768310546875	-0.0186126708984375	-1.9097900390625E-06	3.55462930201611E-08	9745.92578125	4.87645629618783E-05
2	659	129.885044672072	-0.028839111328125	-0.028668212890625	-1.8157958984375E-06	5.20556220351409E-08	15788.236328125	4.8576963308733E-05
2	660	129.985752671818	-0.038909912109375	-0.038720703125	-1.72027587890625E-06	6.66102906166088E-08	22508.427734375	4.83989097119775E-05
2	661	130.086460671563	-0.048980712890625	-0.0487945556640625	-1.62811279296875E-06	7.94430405903768E-08	29970.01171875	4.8230303946184E-05
2	662	130.187168671309	-0.059051513671875	-0.0589599609375	-1.5435791015625E-06	9.100936182449E-08	38196.91796875	4.80705966765527E-05
2	663	130.287876671055	-0.069122314453125	-0.06903076171875	-1.46759033203125E-06	1.01308877731299E-07	47036.8046875	4.79189729958307E-05
2	664	130.3885846708	-0.079193115234375	-0.0791015625	-1.39923095703125E-06	1.10681348530761E-07	56532.171875	4.77746179967653E-05
2	665	130.489292670546	-0.089263916015625	-0.089141845703125	-1.33819580078125E-06	1.19289239819409E-07	66613.4609375	4.76367749797646E-05
2	666	130.590000670292	-0.099334716796875	-0.099212646484375	-1.2841796875E-06	1.2740686372581E-07	77257.6015625	4.75047272630036E-05
2	667	130.690708670038	-0.109405517578125	-0.1092529296875	-1.236572265625E-06	1.35099128328875E-07	88351.4375	4.73777981824242E-05
2	668	130.791416669783	-0.119476318359375	-0.119354248046875	-1.19415283203125E-06	1.42527213142785E-07	99948.890625	4.72554020234384E-05
2	669	130.892124669529	-0.129547119140625	-0.12939453125	-1.15692138671875E-06	1.49699303619855E-07	111843.84375	4.7137014917098E-05
2	670	130.992832669275	-0.139617919921875	-0.139495849609375	-1.1236572265625E-06	1.56745514345857E-07	124144.4921875	4.70221784780733E-05
2	671	131.093540669021	-0.149688720703125	-0.149566650390625	-1.0943603515625E-06	1.63679800380123E-07	136670.390625	4.69104925286956E-05
2	672	131.194248668766	-0.159759521484375	-0.159576416015625	-1.0687255859375E-06	1.70543387412181E-07	149314.6875	4.68015750811901E-05
2	673	131.294956668512	-0.169830322265625	-0.169677734375	-1.046142578125E-06	1.77507089915707E-07	162193.703125	4.66950805275701E-05
2	674	131.395664668258	-0.179901123046875	-0.179718017578125	-1.02569580078125E-06	1.8433600246226E-07	175215.71875	4.65907578472979E-05
2	675	131.496372668004	-0.189971923828125	-0.18975830078125	-1.00860595703125E-06	1.91391350767844E-07	188139.171875	4.64883196400478E-05
2	676	131.597080667749	-0.200042724609375	-0.19989013671875	-9.94262695312501E-07	1.98743308033045E-07	201043.59375	4.63874675915577E-05
2	677	131.697788667495	-0.189971923828125	-0.1898193359375	-8.795166015625E-07	1.66949249091886E-07	215822.359375	4.62931166111957E-05
