Potential - OCP 0.000355051078048407 V
Time (s)	WE(1).Potential (V)
5.18528098690842	0.001812744140625
5.28528098665595	0.001800537109375
5.38528098640347	0.00179138183593749
5.485280986151	0.0017852783203125
5.58528098589852	0.00177612304687499
5.68528098564605	0.00177001953125
5.78528098539357	0.00176391601562501
5.88528098514109	0.00176086425781249
5.98528098488862	0.00176086425781249
6.08528098463614	0.00176086425781249
6.18528098438367	0.0017425537109375
6.28528098413119	0.00173034667968749
6.38528098387872	0.0017425537109375
6.48528098362624	0.00174560546874999
6.58528098337376	0.00173339843750001
6.68528098312129	0.001690673828125
6.78528098286881	0.001690673828125
6.88528098261634	0.00168762207031251
6.98528098236386	0.0016937255859375
7.08528098211139	0.001690673828125
7.18528098185891	0.00168762207031251
7.28528098160643	0.00168457031249999
7.38528098135396	0.001678466796875
7.48528098110148	0.00167236328125001
7.58528098084901	0.00167236328125001
7.68528098059653	0.00166931152343749
7.78528098034406	0.00164794921875
7.88528098009158	0.00162353515624999
7.9852809798391	0.00161132812500001
8.08528097958663	0.0016021728515625
8.18528097933415	0.00159606933593751
8.28528097908168	0.0015869140625
8.3852809788292	0.00157775878906249
8.48528097857672	0.001568603515625
8.58528097832425	0.001556396484375
8.68528097807177	0.001544189453125
8.7852809778193	0.00153198242187499
8.88528097756682	0.00151977539062501
8.98528097731435	0.001507568359375
9.08528097706187	0.001495361328125
9.18528097680939	0.001483154296875
9.28528097655692	0.0014678955078125
9.38528097630444	0.00145568847656249
9.48528097605197	0.00144348144531251
9.58528097579949	0.0014312744140625
9.68528097554702	0.0014190673828125
9.78528097529454	0.0014068603515625
9.88528097504206	0.00139465332031249
9.98528097478959	0.00138244628906251
10.0852809745371	0.0013702392578125
10.1852809742846	0.00135498046875
10.2852809740322	0.0013427734375
10.3852809737797	0.00133056640625
10.4852809735272	0.0013275146484375
10.5852809732747	0.00133361816406249
10.6852809730223	0.001312255859375
10.7852809727698	0.0012969970703125
10.8852809725173	0.00128173828125
10.9852809722648	0.00127563476562501
11.0852809720124	0.0012542724609375
11.1852809717599	0.00119628906249999
11.2852809715074	0.001190185546875
11.3852809712549	0.00123291015625
11.4852809710025	0.00126953125
11.58528097075	0.00124206542968749
11.6852809704975	0.0012237548828125
11.785280970245	0.0011871337890625
11.8852809699926	0.0011566162109375
11.9852809697401	0.00115051269531249
12.0852809694876	0.001171875
12.1852809692351	0.001202392578125
12.2852809689826	0.00116882324218751
12.3852809687302	0.0011627197265625
12.4852809684777	0.00116577148437499
12.5852809682252	0.00115966796875
12.6852809679727	0.0011474609375
12.7852809677203	0.001141357421875
12.8852809674678	0.001141357421875
12.9852809672153	0.0011444091796875
13.0852809669628	0.00113525390624999
13.1852809667104	0.0011322021484375
13.2852809664579	0.0011322021484375
13.3852809662054	0.0011322021484375
13.4852809659529	0.0011322021484375
13.5852809657005	0.001129150390625
13.685280965448	0.001116943359375
13.7852809651955	0.0010986328125
13.885280964943	0.0010955810546875
13.9852809646906	0.00109252929687501
14.0852809644381	0.00108947753906249
14.1852809641856	0.00108642578125
14.2852809639331	0.0010833740234375
14.3852809636807	0.001080322265625
14.4852809634282	0.00107727050781251
14.5852809631757	0.001068115234375
14.6852809629232	0.0010711669921875
14.7852809626708	0.001068115234375
14.8852809624183	0.00106201171875001
14.9852809621658	0.001055908203125
15.0852809619133	0.0010528564453125
15.1852809616609	0.00104675292968751
15.2852809614084	0.0010406494140625
15.3852809611559	0.00103759765625
15.4852809609034	0.00103149414062501
15.5852809606509	0.001025390625
15.6852809603985	0.0010223388671875
15.785280960146	0.00101623535156251
15.8852809598935	0.00101318359374999
15.985280959641	0.001007080078125
16.0852809593886	0.0010040283203125
16.1852809591361	0.00100097656250001
16.2852809588836	0.000997924804687494
16.3852809586311	0.000994873046874997
16.4852809583787	0.000994873046874997
16.5852809581262	0.0009918212890625
16.6852809578737	0.0009918212890625
16.7852809576212	0.000988769531250003
16.8852809573688	0.000988769531250003
16.9852809571163	0.000988769531250003
17.0852809568638	0.000988769531250003
17.1852809566113	0.000985717773437506
17.2852809563589	0.000985717773437506
17.3852809561064	0.000982666015624994
17.4852809558539	0.000979614257812497
17.5852809556014	0.000979614257812497
17.685280955349	0.000973510742187503
17.7852809550965	0.000970458984375006
17.885280954844	0.000964355468749997
17.9852809545915	0.000958251953125003
18.0852809543391	0.000952148437499994
18.1852809540866	0.000942993164062503
18.2852809538341	0.000936889648437494
18.3852809535816	0.000927734375000003
18.4852809533292	0.000918579101562497
18.5852809530767	0.000909423828125006
18.6852809528242	0.0009002685546875
18.7852809525717	0.000888061523437497
18.8852809523192	0.000881958007812503
18.9852809520668	0.000872802734374997
19.0852809518143	0.000863647460937506
19.1852809515618	0.0008544921875
19.2852809513093	0.000845336914062494
19.3852809510569	0.0008392333984375
19.4852809508044	0.000830078124999994
19.5852809505519	0.000823974609375
19.6852809502994	0.000817871093750006
19.785280950047	0.000811767578124997
19.8852809497945	0.000805664062500003
19.985280949542	0.000799560546874994
20.0852809492895	0.00079345703125
20.1852809490371	0.000790405273437503
20.2852809487846	0.000784301757812494
20.3852809485321	0.0007781982421875
20.4852809482796	0.000775146484375003
20.5852809480272	0.000772094726562506
20.6852809477747	0.000769042968749994
20.7852809475222	0.000762939453125
20.8852809472697	0.000759887695312503
20.9852809470173	0.000759887695312503
21.0852809467648	0.000756835937500006
21.1852809465123	0.000756835937500006
21.2852809462598	0.000756835937500006
21.3852809460074	0.000744628906250003
21.4852809457549	0.000738525390624994
21.5852809455024	0.000738525390624994
21.6852809452499	0.000732421875
21.7852809449975	0.000729370117187503
21.885280944745	0.000723266601562494
21.9852809444925	0.000711059570312506
22.08528094424	0.0007171630859375
22.1852809439876	0.000720214843749997
22.2852809437351	0.000714111328125003
22.3852809434826	0.000714111328125003
22.4852809432301	0.000714111328125003
22.5852809429776	0.000711059570312506
22.6852809427252	0.000711059570312506
22.7852809424727	0.000708007812499994
22.8852809422202	0.000711059570312506
22.9852809419677	0.000708007812499994
23.0852809417153	0.000704956054687497
23.1852809414628	0.000698852539062503
23.2852809412103	0.000695800781250006
23.3852809409578	0.000692749023437494
23.4852809407054	0.0006866455078125
23.5852809404529	0.000683593750000003
23.6852809402004	0.000680541992187506
23.7852809399479	0.000683593750000003
23.8852809396955	0.000680541992187506
23.985280939443	0.000677490234374994
24.0852809391905	0.000677490234374994
24.185280938938	0.000674438476562497
24.2852809386856	0.000674438476562497
24.3852809384331	0.00067138671875
24.4852809381806	0.00067138671875
24.5852809379281	0.000668334960937503
24.6852809376757	0.000668334960937503
24.7852809374232	0.000665283203125006
24.8852809371707	0.000665283203125006
24.9852809369182	0.000662231445312494
25.0852809366658	0.000659179687499997
25.1852809364133	0.000659179687499997
25.2852809361608	0.0006561279296875
25.3852809359083	0.000653076171875003
25.4852809356559	0.000653076171875003
25.5852809354034	0.000650024414062506
25.6852809351509	0.000646972656249994
25.7852809348984	0.000646972656249994
25.8852809346459	0.000640869140625
25.9852809343935	0.000637817382812503
26.085280934141	0.000634765625000006
26.1852809338885	0.000628662109374997
26.285280933636	0.0006256103515625
26.3852809333836	0.000619506835937506
26.4852809331311	0.000613403320312497
26.5852809328786	0.000607299804687503
26.6852809326261	0.000601196289062494
26.7852809323737	0.0005950927734375
26.8852809321212	0.000592041015625003
26.9852809318687	0.000582885742187497
27.0852809316162	0.000576782226562503
27.1852809313638	0.000570678710937494
27.2852809311113	0.000567626953124997
27.3852809308588	0.000567626953124997
27.4852809306063	0.000558471679687506
27.5852809303539	0.00054931640625
27.6852809301014	0.000543212890625006
27.7852809298489	0.0005340576171875
27.8852809295964	0.000527954101562506
27.985280929344	0.000521850585937497
28.0852809290915	0.000521850585937497
28.185280928839	0.000512695312500006
28.2852809285865	0.000509643554687494
28.3852809283341	0.000506591796874997
28.4852809280816	0.000500488281250003
28.5852809278291	0.000500488281250003
28.6852809275766	0.000494384765624994
28.7852809273242	0.000494384765624994
28.8852809270717	0.000491333007812497
28.9852809268192	0.00048828125
29.0852809265667	0.000491333007812497
29.1852809263142	0.000485229492187503
29.2852809260618	0.000482177734375006
29.3852809258093	0.000479125976562494
29.4852809255568	0.000476074218749997
29.5852809253043	0.0004730224609375
29.6852809250519	0.000469970703125003
29.7852809247994	0.000463867187499994
29.8852809245469	0.000460815429687497
29.9852809242944	0.000460815429687497
30.085280924042	0.000454711914062503
30.1852809237895	0.000448608398437494
30.285280923537	0.0004425048828125
30.3852809232845	0.000436401367187506
30.4852809230321	0.000430297851562497
30.5852809227796	0.000424194335937503
30.6852809225271	0.000424194335937503
30.7852809222746	0.000415039062499997
30.8852809220222	0.0004119873046875
30.9852809217697	0.000402832031249994
31.0852809215172	0.000399780273437497
31.1852809212647	0.000393676757812503
31.2852809210123	0.000387573242187494
31.3852809207598	0.000387573242187494
31.4852809205073	0.000384521484374997
31.5852809202548	0.0003814697265625
31.6852809200024	0.000378417968750003
31.7852809197499	0.000375366210937506
31.8852809194974	0.000372314453124994
31.9852809192449	0.000369262695312497
32.0852809189925	0.000363159179687503
32.18528091874	0.000360107421875006
32.2852809184875	0.000363159179687503
32.385280918235	0.000357055664062494
32.4852809179825	0.000354003906249997
32.5852809177301	0.0003509521484375
32.6852809174776	0.000347900390625003
32.7852809172251	0.000341796874999994
32.8852809169726	0.000338745117187497
32.9852809167202	0.000332641601562503
33.0852809164677	0.000329589843750006
33.1852809162152	0.000329589843750006
33.2852809159627	0.000323486328124997
33.3852809157103	0.0003204345703125
33.4852809154578	0.000308227539062497
33.5852809152053	0.000314331054687506
33.6852809149528	0.000314331054687506
33.7852809147004	0.000311279296874994
33.8852809144479	0.000311279296874994
33.9852809141954	0.000308227539062497
34.0852809139429	0.00030517578125
34.1852809136905	0.00030517578125
34.285280913438	0.000302124023437503
34.3852809131855	0.000299072265625006
34.485280912933	0.000296020507812494
34.5852809126806	0.000292968749999997
34.6852809124281	0.0002899169921875
34.7852809121756	0.000286865234375003
34.8852809119231	0.000283813476562506
34.9852809116707	0.000277709960937497
35.0852809114182	0.000274658203125
