Potential - Start -0.2 V, Upper Vertex 1.5 V, Lower Vertex -0.2 V, Stop -0.19 V; Scan - # end cross 5, Rate 0.1 Vps, Step 0.01 V 
Scan	Index	Time (s)	Potential applied (V)	WE(1).Potential (V)	WE(1).Current (A)	WE(1).Power (W)	WE(1).Resistance (Ω)	WE(1).Charge (C)
1	1	63.2315228403558	-0.189971923828125	-0.189910888671875	-2.0599365234375E-07	3.91204366678721E-08	921925.9375	0
1	2	63.3322308401015	-0.179901123046875	-0.1796875	-1.7059326171875E-07	3.0653474425435E-08	1053309.5	-1.89626572222323E-08
1	3	63.4329388398472	-0.169830322265625	-0.169647216796875	-1.42517089843749E-07	2.41776252352111E-08	1190364.125	-3.47290161073488E-08
1	4	63.533646839593	-0.159759521484375	-0.159637451171875	-1.1932373046875E-07	1.90485351936331E-08	1337851.625	-4.79137476361302E-08
1	5	63.6343548393387	-0.149688720703125	-0.149627685546875	-9.79614257812497E-08	1.46577416870741E-08	1527414.375	-5.88549227131807E-08
1	6	63.7350628390844	-0.139617919921875	-0.139495849609375	-7.781982421875E-08	1.08555422428935E-08	1792549.125	-6.77062104159631E-08
1	7	63.8357708388302	-0.129547119140625	-0.129425048828125	-5.79833984375E-08	7.50450368514066E-09	2232105.25	-7.45444452832089E-08
1	8	63.9364788385759	-0.119476318359375	-0.119415283203125	-3.78417968750003E-08	4.51888881869422E-09	3155645.25	-7.9369627314918E-08
1	9	64.0371868383216	-0.109405517578125	-0.109283447265625	-1.52587890625E-08	1.6675330005711E-09	7162000.5	-8.20434564730022E-08
1	10	64.1378948380674	-0.099334716796875	-0.09930419921875	1.00708007812506E-08	-1.00007280234848E-09	-9860607	-8.23046946152317E-08
1	11	64.2386028378131	-0.089263916015625	-0.08917236328125	4.119873046875E-08	-3.67378794052797E-09	-2164444.5	-7.97230654825398E-08
1	12	64.3393108375589	-0.079193115234375	-0.07916259765625	7.96508789062497E-08	-6.30537000390063E-09	-993869.8125	-7.36378069632337E-08
1	13	64.4400188373046	-0.069122314453125	-0.069061279296875	1.2969970703125E-07	-8.957226960149E-09	-532470.625	-6.30961665137875E-08
1	14	64.5407268370503	-0.059051513671875	-0.0589599609375	1.95922851562499E-07	-1.15516032295204E-08	-300934.59375	-4.66997676085157E-08
1	15	64.6414348367961	-0.048980712890625	-0.0488037109375	2.84729003906251E-07	-1.38958311524107E-08	-171404.078125	-2.24970246875955E-08
1	16	64.7421428365418	-0.038909912109375	-0.0387908935546875	4.00390624999999E-07	-1.55315085237362E-08	-96882.625	1.20014869153806E-08
1	17	64.8428508362875	-0.028839111328125	-0.0287078857421875	5.48706054687501E-07	-1.57521906629654E-08	-52319.24609375	5.97922991119049E-08
1	18	64.9435588360333	-0.018768310546875	-0.0186553955078125	7.31201171875E-07	-1.36408466744342E-08	-25513.35546875	1.24240742138682E-07
1	19	65.044266835779	-0.008697509765625	-0.0086212158203125	9.429931640625E-07	-8.1297475418296E-09	-9142.39453125	2.08543127655503E-07
1	20	65.1449748355247	0.001373291015625	0.001495361328125	1.1737060546875E-06	1.75511449818089E-09	1274.05102539063	3.1512740861217E-07
1	21	65.2456828352705	0.011444091796875	0.01153564453125	1.4044189453125E-06	1.62008770843158E-08	8213.8203125	4.44946294919646E-07
1	22	65.3463908350162	0.021514892578125	0.0216339111328125	1.61163330078125E-06	3.48659305871024E-08	13423.5947265625	5.96816562392632E-07
1	23	65.447098834762	0.031585693359375	0.0316741943359375	1.77703857421875E-06	5.62862645381301E-08	17824.146484375	7.67449762406613E-07
1	24	65.5478068345077	0.041656494140625	0.04176025390625	1.88873291015625E-06	7.88739669133065E-08	22110.197265625	9.52036032231263E-07
1	25	65.6485148342534	0.051727294921875	0.051727294921875	1.93878173828125E-06	1.00287934401422E-07	26680.30859375	1.14476665658003E-06
1	26	65.7492228339992	0.061798095703125	0.06182861328125	1.9427490234375E-06	1.2011747685392E-07	31825.32421875	1.34021729536471E-06
1	27	65.8499308337449	0.071868896484375	0.07183837890625	1.9085693359375E-06	1.37108514763895E-07	37639.9140625	1.534146576887E-06
1	28	65.9506388334906	0.081939697265625	0.08203125	1.8536376953125E-06	1.52056216506935E-07	44254.19921875	1.72358875261125E-06
1	29	66.0513468332364	0.092010498046875	0.0921630859375	1.78680419921875E-06	1.64677388170276E-07	51579.84765625	1.90689945611666E-06
1	30	66.1520548329821	0.102081298828125	0.10211181640625	1.71661376953125E-06	1.75286544390474E-07	59484.4453125	2.08331061912759E-06
1	31	66.2527628327279	0.112152099609375	0.1121826171875	1.649169921875E-06	1.85008204311998E-07	68023.6875	2.25279131882417E-06
1	32	66.3534708324736	0.122222900390625	0.122314453125	1.585693359375E-06	1.93953212601627E-07	77136.2578125	2.41567954617494E-06
1	33	66.4541788322193	0.132293701171875	0.132354736328125	1.52801513671875E-06	2.02240030944267E-07	86618.734375	2.57246733781358E-06
1	34	66.5548868319651	0.142364501953125	0.142425537109375	1.47552490234375E-06	2.10152421686871E-07	96525.3359375	2.72370743914507E-06
1	35	66.6555948317108	0.152435302734375	0.15240478515625	1.42913818359375E-06	2.17807496483147E-07	106641.046875	2.86996896647906E-06
1	36	66.7563028314565	0.162506103515625	0.16259765625	1.3873291015625E-06	2.2557645706911E-07	117201.9375	3.01178920381062E-06
1	37	66.8570108312023	0.172576904296875	0.172576904296875	1.34979248046875E-06	2.32943008882103E-07	127854.3984375	3.14961425829097E-06
1	38	66.957718830948	0.182647705078125	0.182647705078125	1.3165283203125E-06	2.40460877876103E-07	138734.359375	3.28387432091404E-06
1	39	67.0584268306937	0.192718505859375	0.192779541015625	1.28662109375E-06	2.48034240257766E-07	149833.96875	3.41495319844398E-06
1	40	67.1591348304395	0.202789306640625	0.202850341796875	1.259765625E-06	2.55543881166886E-07	161022.296875	3.5431739888736E-06
1	41	67.2598428301852	0.212860107421875	0.212921142578125	1.23504638671875E-06	2.62967489561561E-07	172399.3125	3.66879771718231E-06
1	42	67.360550829931	0.222930908203125	0.222930908203125	1.21246337890625E-06	2.7029554416913E-07	183866.109375	3.79203970624076E-06
1	43	67.4612588296767	0.233001708984375	0.23297119140625	1.19293212890625E-06	2.77918815072553E-07	195292.90625	3.91316098102834E-06
1	44	67.5619668294224	0.243072509765625	0.24310302734375	1.17462158203125E-06	2.85554051515646E-07	206962.859375	4.03237663704203E-06
1	45	67.6626748291682	0.253143310546875	0.253143310546875	1.15814208984375E-06	2.93175901333598E-07	218577.09375	4.14984060626011E-06
1	46	67.7633828289139	0.263214111328125	0.263214111328125	1.1431884765625E-06	3.00903337802083E-07	230245.59375	4.26572205469711E-06
1	47	67.8640908286596	0.273284912109375	0.27325439453125	1.12823486328125E-06	3.08295142303905E-07	242196.375	4.38009692516061E-06
1	48	67.9647988284054	0.283355712890625	0.283447265625	1.11541748046875E-06	3.16162044100565E-07	254117.640625	4.4930739022675E-06
1	49	68.0655068281511	0.293426513671875	0.29339599609375	1.103515625E-06	3.23767068266534E-07	265873.90625	4.604806235875E-06
1	50	68.1662148278969	0.303497314453125	0.303497314453125	1.0931396484375E-06	3.3176493730025E-07	277638.1875	4.71541670776787E-06
1	51	68.2669228276426	0.313568115234375	0.313568115234375	1.0833740234375E-06	3.39711533570153E-07	289436.625	4.82501263832091E-06
1	52	68.3676308273883	0.323638916015625	0.3236083984375	1.0748291015625E-06	3.47823743140907E-07	301078.9375	4.93368679599371E-06
1	53	68.4683388271341	0.333709716796875	0.333740234375	1.06658935546875E-06	3.55963777565194E-07	312904.15625	5.04151603308856E-06
1	54	68.5690468268798	0.343780517578125	0.343780517578125	1.0595703125E-06	3.64259619800578E-07	324452.78125	5.14857629241305E-06
1	55	68.6697548266255	0.353851318359375	0.3538818359375	1.0528564453125E-06	3.72586754338045E-07	336115.9375	5.25494579051156E-06
1	56	68.7704628263713	0.363922119140625	0.36395263671875	1.04705810546875E-06	3.81079530598072E-07	347595.46875	5.36068455403438E-06
1	57	68.871170826117	0.373992919921875	0.3740234375	1.04278564453125E-06	3.90026258401122E-07	358677.21875	5.46591672900831E-06
1	58	68.9718788258627	0.384063720703125	0.384063720703125	1.03912353515625E-06	3.99089628899674E-07	369603.53125	5.57074918106082E-06
1	59	69.0725868256085	0.394134521484375	0.394134521484375	1.03546142578125E-06	4.08111105798525E-07	380636.59375	5.67521283301176E-06
1	60	69.1732948253542	0.404205322265625	0.40423583984375	1.03271484375E-06	4.17460370272238E-07	391430.25	5.77935361434356E-06
1	61	69.2740028251	0.414276123046875	0.414306640625	1.02935791015625E-06	4.26469824788001E-07	402490.375	5.88318744121352E-06
1	62	69.3747108248457	0.424346923828125	0.424346923828125	1.0272216796875E-06	4.35898328987605E-07	413101.625	5.98674432694679E-06
1	63	69.4754188245914	0.434417724609375	0.4344482421875	1.02508544921875E-06	4.45346586275264E-07	423816.625	6.09008611718309E-06
1	64	69.5761268243372	0.444488525390625	0.4444580078125	1.0235595703125E-06	4.54929249826819E-07	434227.8125	6.19324373474228E-06
1	65	69.6768348240829	0.454559326171875	0.45458984375	1.0223388671875E-06	4.64744886130575E-07	444656.71875	6.2962631091068E-06
1	66	69.7775428238286	0.464630126953125	0.464599609375	1.0211181640625E-06	4.74411081086146E-07	454991.0625	6.39915924693923E-06
1	67	69.8782508235744	0.474700927734375	0.474639892578125	1.02081298828125E-06	4.84518579924043E-07	464962.625	6.50197853246937E-06
1	68	69.9789588233201	0.484771728515625	0.48480224609375	1.0211181640625E-06	4.95040353598597E-07	474775.875	6.6047978179995E-06
1	69	70.0796668230658	0.494842529296875	0.494842529296875	1.0211181640625E-06	5.05292689467751E-07	484608.5	6.70763256493956E-06
1	70	70.1803748228116	0.504913330078125	0.5048828125	1.0223388671875E-06	5.16161321684194E-07	493850.71875	6.81052870277199E-06
1	71	70.2810828225573	0.514984130859375	0.514923095703125	1.0235595703125E-06	5.27054453414166E-07	503070.96875	6.91354807713651E-06
1	72	70.3817908223031	0.525054931640625	0.52508544921875	1.025390625E-06	5.38417680218117E-07	512083.34375	7.01672115610563E-06
1	73	70.4824988220488	0.535125732421875	0.535125732421875	1.0272216796875E-06	5.49692742879415E-07	520944.78125	7.12007795300451E-06
1	74	70.5832068217945	0.545196533203125	0.545166015625	1.02996826171875E-06	5.61503668450314E-07	529303.75	7.22366576155764E-06
1	75	70.6839148215403	0.555267333984375	0.55523681640625	1.0345458984375E-06	5.7441798162472E-07	536696.1875	7.32762237021234E-06
1	76	70.784622821286	0.565338134765625	0.565277099609375	1.0382080078125E-06	5.86875216868066E-07	544473.875	7.43199370845105E-06
1	77	70.8853308210317	0.575408935546875	0.5753173828125	1.04400634765625E-06	6.00635019054607E-07	551066.9375	7.53684162191348E-06
1	78	70.9860388207775	0.585479736328125	0.58538818359375	1.05133056640625E-06	6.15436476891773E-07	556807	7.64235028327676E-06
1	79	71.0867468205232	0.595550537109375	0.595458984375	1.05987548828125E-06	6.31112357041275E-07	561819.75	7.74865839048289E-06
1	80	71.187454820269	0.605621337890625	0.6055908203125	1.07025146484375E-06	6.48134459879657E-07	565839.75	7.85591873864178E-06
1	81	71.2881628200147	0.615692138671875	0.61566162109375	1.08306884765625E-06	6.66803884996625E-07	568441.8125	7.96434687799774E-06
1	82	71.3888708197604	0.625762939453125	0.625701904296875	1.1004638671875E-06	6.88562295181327E-07	568580.1875	8.07429660198977E-06
1	83	71.4895788195062	0.635833740234375	0.635711669921875	1.1212158203125E-06	7.12769917754486E-07	566984.25	8.18616626929725E-06
1	84	71.5902868192519	0.645904541015625	0.645904541015625	1.14593505859375E-06	7.40164637136331E-07	563648.5	8.30032695375849E-06
1	85	71.6909948189976	0.655975341796875	0.655914306640625	1.1749267578125E-06	7.70651240600273E-07	558259.75	8.4171915659681E-06
1	86	71.7917028187434	0.666046142578125	0.66595458984375	1.2054443359375E-06	8.02771126018342E-07	552455.75	8.53705296322005E-06
1	87	71.8924108184891	0.676116943359375	0.675994873046875	1.2347412109375E-06	8.34678701266967E-07	547479	8.65992569742957E-06
1	88	71.9931188182348	0.686187744140625	0.686126708984375	1.26007080078125E-06	8.64568221459194E-07	544514.4375	8.78554965311196E-06
1	89	72.0938268179806	0.696258544921875	0.6961669921875	1.2811279296875E-06	8.91878926267964E-07	543401.625	8.9135091911885E-06
1	90	72.1945348177263	0.706329345703125	0.70623779296875	1.29638671875E-06	9.15557279768109E-07	544774	9.0432968136156E-06
1	91	72.2952428174721	0.716400146484375	0.716339111328125	1.3079833984375E-06	9.36959622777067E-07	547666.875	9.17443776415894E-06
1	92	72.3959508172178	0.726470947265625	0.72637939453125	1.318359375E-06	9.57629026743234E-07	550972.25	9.30668466025963E-06
1	93	72.4966588169635	0.736541748046875	0.7364501953125	1.32965087890625E-06	9.79221681518538E-07	553867.3125	9.44002204050776E-06
1	94	72.5973668167093	0.746612548828125	0.746551513671875	1.346435546875E-06	1.00518343515432E-06	554465.125	9.57477368501713E-06
1	95	72.698074816455	0.756683349609375	0.7568359375	1.3714599609375E-06	1.03797015071905E-06	551846.9375	9.71163080976112E-06
1	96	72.7987828162007	0.766754150390625	0.76690673828125	1.40838623046875E-06	1.08010090116295E-06	544528.75	9.85160750133218E-06
1	97	72.8994908159465	0.776824951171875	0.77728271484375	1.46209716796875E-06	1.13646274257917E-06	531621.8125	9.99614803731674E-06
1	98	73.0001988156922	0.786895751953125	0.78765869140625	1.53564453125E-06	1.20956372029468E-06	512917.34375	1.01470959634753E-05
1	99	73.100906815438	0.796966552734375	0.79742431640625	1.632080078125E-06	1.30146031551703E-06	488593.875	1.03066031442722E-05
1	100	73.2016148151837	0.807037353515625	0.8074951171875	1.75323486328125E-06	1.41572854772676E-06	460574.40625	1.04770679172361E-05
1	101	73.3023228149294	0.817108154296875	0.81695556640625	1.8951416015625E-06	1.54824635956174E-06	431078.9375	1.06607776615419E-05
1	102	73.4030308146752	0.827178955078125	0.82733154296875	2.04803466796875E-06	1.69440352237871E-06	403963.6875	1.08593330878648E-05
1	103	73.5037388144209	0.837249755859375	0.83709716796875	2.2003173828125E-06	1.84187945251324E-06	380443.84375	1.10732544271741E-05
1	104	73.6044468141666	0.847320556640625	0.84747314453125	2.33673095703125E-06	1.98031671061472E-06	362674.6875	1.13017131297966E-05
1	105	73.7051548139124	0.857391357421875	0.85784912109375	2.4432373046875E-06	2.09592894861999E-06	351111.6875	1.15424036266631E-05
1	106	73.8058628136581	0.867462158203125	0.86761474609375	2.51373291015625E-06	2.18095169657317E-06	345149.9375	1.17920062621124E-05
1	107	73.9065708134038	0.877532958984375	0.877685546875	2.54547119140625E-06	2.23412303057557E-06	344802.8125	1.20467575470684E-05
1	108	74.0072788131496	0.887603759765625	0.8880615234375	2.54638671875E-06	2.26134807235212E-06	348753.59375	1.23031531984452E-05
1	109	74.1079868128953	0.897674560546875	0.89813232421875	2.52288818359375E-06	2.26588736040867E-06	355993.71875	1.25584110719501E-05
1	110	74.2086948126411	0.907745361328125	0.9075927734375	2.48565673828125E-06	2.2559640910913E-06	365131.96875	1.28106112242676E-05
1	111	74.3094028123868	0.917816162109375	0.91796875	2.44232177734375E-06	2.24197515308333E-06	375859.03125	1.30587550302153E-05
1	112	74.4101108121325	0.927886962890625	0.927734375	2.3974609375E-06	2.22420680984214E-06	386965.40625	1.33024577735341E-05
1	113	74.5108188118783	0.937957763671875	0.93780517578125	2.354736328125E-06	2.20828383135085E-06	398263.34375	1.35417494675494E-05
1	114	74.611526811624	0.948028564453125	0.9478759765625	2.31658935546875E-06	2.1958392153465E-06	409168.78125	1.37769693537848E-05
1	115	74.7122348113697	0.958099365234375	0.95794677734375	2.28363037109375E-06	2.18759623749065E-06	419484.1875	1.40086094688741E-05
1	116	74.8129428111155	0.968170166015625	0.968017578125	2.25555419921875E-06	2.18341597246763E-06	429170.625	1.42371754918713E-05
1	117	74.9136508108612	0.978240966796875	0.977783203125	2.23419189453125E-06	2.18455534195527E-06	437645.125	1.44632522278698E-05
1	118	75.014358810607	0.988311767578125	0.9881591796875	2.2174072265625E-06	2.19115122490621E-06	445637.21875	1.46874072015635E-05
1	119	75.1150668103527	0.998382568359375	0.99822998046875	2.20458984375E-06	2.20068750422797E-06	452796.28125	1.49100724229356E-05
1	120	75.2157748100984	1.00845336914063	1.00830078125	2.193603515625E-06	2.21181198867271E-06	459655	1.51315398397855E-05
1	121	75.3164828098442	1.01852416992188	1.0186767578125	2.18353271484375E-06	2.22431390284328E-06	466526.9375	1.53519449668238E-05
1	122	75.4171908095899	1.02859497070313	1.0284423828125	2.1728515625E-06	2.23465258386568E-06	473314.625	1.55713078129338E-05
1	123	75.5178988093356	1.03866577148438	1.03851318359375	2.1612548828125E-06	2.24449149754946E-06	480514	1.57895465235924E-05
1	124	75.6186068090814	1.04873657226563	1.04888916015625	2.14813232421875E-06	2.25315284296812E-06	488279.59375	1.6006541045499E-05
1	125	75.7193148088271	1.05880737304688	1.05865478515625	2.1343994140625E-06	2.25959206545667E-06	495996.5625	1.62221840582788E-05
1	126	75.8200228085728	1.06887817382813	1.06842041015625	2.12127685546875E-06	2.26641532208305E-06	503668.5625	1.64364737429423E-05
1	127	75.9207308083186	1.07894897460938	1.0784912109375	2.1087646484375E-06	2.27428404286911E-06	511432.71875	1.66494737641187E-05
1	128	76.0214388080643	1.08901977539063	1.08856201171875	2.09716796875E-06	2.28289741244225E-06	519062.875	1.68612587003736E-05
1	129	76.1221468078101	1.09909057617188	1.09893798828125	2.08648681640625E-06	2.29291958930844E-06	526693	1.70719231391558E-05
1	130	76.2228548075558	1.10916137695313	1.10931396484375	2.07733154296875E-06	2.30441287385474E-06	534009.0625	1.72815889527556E-05
1	131	76.3235628073015	1.11923217773438	1.11968994140625	2.0697021484375E-06	2.31742455980566E-06	540990.875	1.74904071172932E-05
1	132	76.4242708070473	1.12930297851563	1.12945556640625	2.06268310546875E-06	2.32970887736883E-06	547566.25	1.76984904101118E-05
1	133	76.524978806793	1.13937377929688	1.1395263671875	2.0574951171875E-06	2.34456979342212E-06	553841.625	1.79059570655227E-05
1	134	76.6256868065387	1.14944458007813	1.14990234375	2.05352783203125E-06	2.36135656450642E-06	559964.3125	1.81129635166144E-05
1	135	76.7263948062845	1.15951538085938	1.15966796875	2.05108642578125E-06	2.37857921092655E-06	565392.0625	1.83196480065817E-05
1	136	76.8271028060302	1.16958618164063	1.16943359375	2.04864501953125E-06	2.3957543362485E-06	570832.6875	1.85260851139901E-05
1	137	76.9278108057759	1.17965698242188	1.17919921875	2.0477294921875E-06	2.4146809209924E-06	575856.9375	1.87323548743734E-05
1	138	77.0285188055217	1.18972778320313	1.1895751953125	2.0477294921875E-06	2.43592808146786E-06	580924	1.89385773410322E-05
1	139	77.1292268052674	1.19979858398438	1.19964599609375	2.04833984375E-06	2.45728278969182E-06	585667.4375	1.91448307305109E-05
1	140	77.2299348050132	1.20986938476563	1.2103271484375	2.05047607421875E-06	2.48174683292746E-06	590266.4375	1.93512223631842E-05
1	141	77.3306428047589	1.21994018554688	1.2200927734375	2.05291748046875E-06	2.50474954555102E-06	594321.4375	1.95578450075118E-05
1	142	77.4313508045046	1.23001098632813	1.23016357421875	2.0562744140625E-06	2.52955373980512E-06	598248.75	1.97647586901439E-05
1	143	77.5320588042504	1.24008178710938	1.23992919921875	2.0599365234375E-06	2.55417535299785E-06	601925.9375	1.99720270757098E-05
1	144	77.6327668039961	1.25015258789063	1.24969482421875	2.064208984375E-06	2.57963120020577E-06	605411	2.0179693819955E-05
1	145	77.7334748037418	1.26022338867188	1.26007080078125	2.0697021484375E-06	2.60797105511301E-06	608817.5	2.03878535103286E-05
1	146	77.8341828034876	1.27029418945313	1.27044677734375	2.0758056640625E-06	2.63720062321227E-06	612025.875	2.05965952773113E-05
1	147	77.9348908032333	1.28036499023438	1.280517578125	2.08282470703125E-06	2.66709366769646E-06	614798.5	2.08059991564369E-05
1	148	78.0355988029791	1.29043579101563	1.29058837890625	2.0904541015625E-06	2.69791576101852E-06	617372.3125	2.10161397262709E-05
1	149	78.1363068027248	1.30050659179688	1.30035400390625	2.0989990234375E-06	2.72944157586608E-06	619511.5	2.12270970223472E-05
1	150	78.2370148024705	1.31057739257813	1.3104248046875	2.10784912109375E-06	2.76217770078802E-06	621688.1875	2.14389274333371E-05
1	151	78.3377228022163	1.32064819335938	1.32049560546875	2.117919921875E-06	2.79670393865672E-06	623487.0625	2.16517128137639E-05
1	152	78.438430801962	1.33071899414063	1.33056640625	2.12982177734375E-06	2.83386930277629E-06	624731.375	2.18656023207586E-05
1	153	78.5391388017077	1.34078979492188	1.34063720703125	2.142333984375E-06	2.87209240923403E-06	625783.5	2.20807232835796E-05
1	154	78.6398468014535	1.35086059570313	1.35101318359375	2.15545654296875E-06	2.91205014946172E-06	626787.5	2.22971339098876E-05
1	155	78.7405548011992	1.36093139648438	1.361083984375	2.1697998046875E-06	2.95327959065617E-06	627285.5625	2.25149287871318E-05
1	156	78.8412628009449	1.37100219726563	1.370849609375	2.1868896484375E-06	2.99789667224104E-06	626849.0625	2.27343043661676E-05
1	157	78.9419708006907	1.38107299804688	1.3812255859375	2.2052001953125E-06	3.04587888422247E-06	626349.3125	2.29554643738084E-05
1	158	79.0426788004364	1.39114379882813	1.3909912109375	2.2259521484375E-06	3.09627989736327E-06	624897.1875	2.31785907089943E-05
1	159	79.1433868001822	1.40121459960938	1.40106201171875	2.2491455078125E-06	3.15119223159854E-06	622930.8125	2.3403928935295E-05
1	160	79.2440947999279	1.41128540039063	1.41143798828125	2.276611328125E-06	3.21329548569338E-06	619973.25	2.36318192037288E-05
1	161	79.3448027996736	1.42135620117188	1.4215087890625	2.30804443359375E-06	3.28090550283378E-06	615893.125	2.38626744248904E-05
1	162	79.4455107994194	1.43142700195313	1.4312744140625	2.3443603515625E-06	3.35542313223414E-06	610518.0625	2.40969420701731E-05
1	163	79.5462187991651	1.44149780273438	1.44134521484375	2.386474609375E-06	3.43973374583584E-06	603964.1875	2.43351587414509E-05
1	164	79.6469267989108	1.45156860351563	1.451416015625	2.435302734375E-06	3.53463724422909E-06	595990	2.45779538090574E-05
1	165	79.7476347986566	1.46163940429688	1.4617919921875	2.4908447265625E-06	3.64109678230307E-06	586865.9375	2.48260057560401E-05
1	166	79.8483427984023	1.47171020507813	1.470947265625	2.55584716796875E-06	3.75951617570536E-06	575522.4375	2.50801276706625E-05
1	167	79.9490507981481	1.48178100585938	1.48223876953125	2.630615234375E-06	3.89919978260878E-06	563457.0625	2.53412854362978E-05
1	168	80.0497587978938	1.49185180664063	1.49200439453125	2.71697998046875E-06	4.05374612455489E-06	549140.75	2.56105595326517E-05
1	169	80.1504667976395	1.50192260742188	1.50177001953125	2.81463623046875E-06	4.22693619839265E-06	533557.4375	2.58890977420378E-05
1	170	80.2511747973853	1.49185180664063	1.49139404296875	2.52899169921875E-06	3.77172318621888E-06	589718.8125	2.6158169930568E-05
1	171	80.351882797131	1.48178100585938	1.48193359375	2.3193359375E-06	3.43710166816891E-06	638947.375	2.64023037743755E-05
1	172	80.4525907968767	1.47171020507813	1.47186279296875	2.15606689453125E-06	3.17343437927775E-06	682661.0625	2.66276583715808E-05
1	173	80.5532987966225	1.46163940429688	1.46148681640625	2.021484375E-06	2.95437257591402E-06	722977.0625	2.68380135821644E-05
1	174	80.6540067963682	1.45156860351563	1.451416015625	1.91009521484375E-06	2.77234266832238E-06	759865.875	2.70359851128887E-05
1	175	80.7547147961139	1.44149780273438	1.441650390625	1.81640625E-06	2.6186228296865E-06	793682.8125	2.72236302407691E-05
1	176	80.8554227958597	1.43142700195313	1.43096923828125	1.73675537109375E-06	2.48524338530842E-06	823932.5625	2.74025460385019E-05
1	177	80.9561307956054	1.42135620117188	1.42120361328125	1.66839599609375E-06	2.37113044931903E-06	851838.3125	2.75740076176589E-05
1	178	81.0568387953512	1.41128540039063	1.4111328125	1.60919189453125E-06	2.27078339776199E-06	876920.1875	2.77390481642215E-05
1	179	81.1575467950969	1.40121459960938	1.40106201171875	1.55731201171875E-06	2.18189074985276E-06	899666.875	2.78984934993787E-05
1	180	81.2582547948426	1.39114379882813	1.39068603515625	1.51153564453125E-06	2.10207144846208E-06	920048.4375	2.80530221061781E-05
1	181	81.3589627945884	1.38107299804688	1.3812255859375	1.47125244140625E-06	2.03213153326942E-06	938809.375	2.82032178802183E-05
1	182	81.4596707943341	1.37100219726563	1.37115478515625	1.4349365234375E-06	1.96752012016077E-06	955550.8125	2.83495555777336E-05
1	183	81.5603787940798	1.36093139648438	1.361083984375	1.4019775390625E-06	1.90820924217405E-06	970831.5	2.84924062725622E-05
1	184	81.6610867938256	1.35086059570313	1.35101318359375	1.37298583984375E-06	1.85492194759718E-06	983996.4375	2.86321374005638E-05
1	185	81.7617947935713	1.34078979492188	1.3409423828125	1.3458251953125E-06	1.80467395693995E-06	996371.9375	2.87690400000429E-05
1	186	81.862502793317	1.33071899414063	1.33087158203125	1.32049560546875E-06	1.75741001839924E-06	1007857.625	2.89032996079186E-05
1	187	81.9632107930628	1.32064819335938	1.32080078125	1.2982177734375E-06	1.71468695953081E-06	1017395.4375	2.90351617877604E-05
1	188	82.0639187928085	1.31057739257813	1.3104248046875	1.27716064453125E-06	1.67362304637209E-06	1026045.375	2.91648429993074E-05
1	189	82.1646267925543	1.30050659179688	1.30035400390625	1.2579345703125E-06	1.63576021350309E-06	1033721.5625	2.92924960376695E-05
1	190	82.2653347923	1.29043579101563	1.2908935546875	1.2396240234375E-06	1.60022261752601E-06	1041358.9375	2.94182573270518E-05
1	191	82.3660427920457	1.28036499023438	1.28021240234375	1.22283935546875E-06	1.56549401708617E-06	1046917.9375	2.95422523777233E-05
1	192	82.4667507917915	1.27029418945313	1.2701416015625	1.20697021484375E-06	1.53302300986979E-06	1052338.875	2.9664603061974E-05
1	193	82.5674587915372	1.26022338867188	1.2603759765625	1.1920166015625E-06	1.50238906826416E-06	1057347.625	2.97854021482635E-05
1	194	82.6681667912829	1.25015258789063	1.25030517578125	1.177978515625E-06	1.47283253681962E-06	1061399	2.9904740586062E-05
1	195	82.7688747910287	1.24008178710938	1.2396240234375	1.16455078125E-06	1.44360512877029E-06	1064465.375	3.00226965919137E-05
1	196	82.8695827907744	1.23001098632813	1.229248046875	1.1517333984375E-06	1.41576606438321E-06	1067302.625	3.01393301924691E-05
1	197	82.9702907905202	1.21994018554688	1.21978759765625	1.13922119140625E-06	1.389607746205E-06	1070720.625	3.02546886814525E-05
1	198	83.0709987902659	1.20986938476563	1.209716796875	1.12701416015625E-06	1.36336791456415E-06	1073382.125	3.0368802981684E-05
1	199	83.1717067900116	1.19979858398438	1.19964599609375	1.11572265625E-06	1.33847220240568E-06	1075218.875	3.04817331198137E-05
1	200	83.2724147897574	1.18972778320313	1.18988037109375	1.10443115234375E-06	1.3141409453965E-06	1077369.5	3.05935282085557E-05
1	201	83.3731227895031	1.17965698242188	1.1798095703125	1.09375E-06	1.29041677610076E-06	1078683	3.07042137137614E-05
1	202	83.4738307892488	1.16958618164063	1.16943359375	1.082763671875E-06	1.26622023799428E-06	1080045.125	3.08138114633039E-05
1	203	83.5745387889946	1.15951538085938	1.15966796875	1.07208251953125E-06	1.2432597031875E-06	1081696.625	3.09223141812254E-05
1	204	83.6752467887403	1.14944458007813	1.14959716796875	1.06170654296875E-06	1.22053472750849E-06	1082782.5	3.10297618852928E-05
1	205	83.775954788486	1.13937377929688	1.1395263671875	1.0516357421875E-06	1.19836670364748E-06	1083575.125	3.11361764033791E-05
1	206	83.8766627882318	1.12930297851563	1.12945556640625	1.041259765625E-06	1.17605668492615E-06	1084701	3.12415613734629E-05
1	207	83.9773707879775	1.11923217773438	1.119384765625	1.03057861328125E-06	1.1536139936652E-06	1086171.25	3.13458876917139E-05
1	208	84.0780787877233	1.10916137695313	1.10931396484375	1.02020263671875E-06	1.13172495730396E-06	1087346.75	3.14491517201532E-05
1	209	84.178786787469	1.09909057617188	1.0986328125	1.009521484375E-06	1.10909343220555E-06	1088270.875	3.15513570967596E-05
1	210	84.2794947872147	1.08901977539063	1.08856201171875	9.9761962890625E-07	1.08597077996819E-06	1091159.375	3.16524237859994E-05
1	211	84.3802027869605	1.07894897460938	1.07879638671875	9.857177734375E-07	1.0633887086442E-06	1094427.25	3.17522935802117E-05
1	212	84.4809107867062	1.06887817382813	1.06903076171875	9.722900390625E-07	1.03940783446888E-06	1099497.875	3.18508864438627E-05
1	213	84.5816187864519	1.05880737304688	1.0589599609375	9.5703125E-07	1.01345779057738E-06	1106505.125	3.19480350299273E-05
1	214	84.6823267861977	1.04873657226563	1.04888916015625	9.4146728515625E-07	9.87494786386378E-07	1114100.5	3.204363383702E-05
1	215	84.7830347859434	1.03866577148438	1.03912353515625	9.228515625E-07	9.58956775320985E-07	1125992.125	3.21375082421582E-05
1	216	84.8837427856892	1.02859497070313	1.0284423828125	9.02404785156249E-07	9.28071301586897E-07	1139668.625	3.22294181387406E-05
1	217	84.9844507854349	1.01852416992188	1.01837158203125	8.81347656250001E-07	8.97539393918123E-07	1155470.875	3.23192361975089E-05
1	218	85.0851587851806	1.00845336914063	1.00799560546875	8.587646484375E-07	8.65630966018216E-07	1173774	3.24068569170777E-05
1	219	85.1858667849264	0.998382568359375	0.99884033203125	8.3740234375E-07	8.36431183870445E-07	1192784.375	3.24922657455318E-05
1	220	85.2865747846721	0.988311767578125	0.98846435546875	8.17260742187501E-07	8.07833089311316E-07	1209484.75	3.25755863741506E-05
1	221	85.3872827844178	0.978240966796875	0.97808837890625	7.99560546875E-07	7.82040899593994E-07	1223282.375	3.26570007018745E-05
1	222	85.4879907841636	0.968170166015625	0.96832275390625	7.82470703125E-07	7.57684176733164E-07	1237519.5	3.27366615238134E-05
1	223	85.5886987839093	0.958099365234375	0.95855712890625	7.66601562499999E-07	7.34831360205135E-07	1250398.125	3.28146634274162E-05
1	224	85.689406783655	0.948028564453125	0.94818115234375	7.4920654296875E-07	7.10383517343871E-07	1265580.375	3.2890988222789E-05
1	225	85.7901147834008	0.937957763671875	0.9381103515625	7.28759765625001E-07	6.83657049194153E-07	1287269.75	3.29654103552457E-05
1	226	85.8908227831465	0.927886962890625	0.9283447265625	7.02514648437499E-07	6.52175742743566E-07	1321459.625	3.3037482353393E-05
1	227	85.9915307828923	0.917816162109375	0.91796875	6.671142578125E-07	6.12390010701347E-07	1376029.25	3.3106447517639E-05
1	228	86.092238782638	0.907745361328125	0.9075927734375	6.1920166015625E-07	5.61982972158148E-07	1465746.625	3.31712180923205E-05
1	229	86.1929467823837	0.897674560546875	0.8978271484375	5.5511474609375E-07	4.98397071169165E-07	1617372.125	3.3230349799851E-05
1	230	86.2936547821295	0.887603759765625	0.887451171875	4.69970703125E-07	4.1707605191732E-07	1888311.75	3.32819690811448E-05
1	231	86.3943627818752	0.877532958984375	0.87799072265625	3.60107421875E-07	3.16170968517326E-07	2438135.75	3.33237658196595E-05
1	232	86.4950707816209	0.867462158203125	0.86761474609375	2.24609375E-07	1.94874402836831E-07	3862772	3.33532079821452E-05
1	233	86.5957787813667	0.857391357421875	0.8575439453125	6.77490234374994E-08	5.80977612685274E-08	12657658	3.33679308823776E-05
1	234	86.6964867811124	0.847320556640625	0.84808349609375	-1.019287109375E-07	-8.64440536929578E-08	-8320359.5	3.33662101184018E-05
1	235	86.7971947808581	0.837249755859375	0.83740234375	-2.703857421875E-07	-2.26421647653297E-07	-3097065.75	3.334745997563E-05
1	236	86.8979027806039	0.827178955078125	0.82733154296875	-4.2144775390625E-07	-3.48677019701427E-07	-1963070.375	3.33126263285521E-05
1	237	86.9986107803496	0.817108154296875	0.8172607421875	-5.4168701171875E-07	-4.42699501945754E-07	-1508732.5	3.32641284330748E-05
1	238	87.0993187800954	0.807037353515625	0.806884765625	-6.21948242187501E-07	-5.01840531796915E-07	-1297350.375	3.3205531508429E-05
1	239	87.2000267798411	0.796966552734375	0.79742431640625	-6.6192626953125E-07	-5.27836107266921E-07	-1204702.625	3.3140884625027E-05
1	240	87.3007347795868	0.786895751953125	0.787353515625	-6.67724609375001E-07	-5.25735288192664E-07	-1179159.125	3.30739312630612E-05
1	241	87.4014427793326	0.776824951171875	0.777587890625	-6.48193359375E-07	-5.04027298120491E-07	-1199623.375	3.30076691170689E-05
1	242	87.5021507790783	0.766754150390625	0.76690673828125	-6.134033203125E-07	-4.70423117349128E-07	-1250248.75	3.29441427311394E-05
1	243	87.602858778824	0.756683349609375	0.7568359375	-5.706787109375E-07	-4.31910166298621E-07	-1326203.25	3.288451989647E-05
1	244	87.7035667785698	0.746612548828125	0.746612548828125	-5.2642822265625E-07	-3.93037907997495E-07	-1418260.875	3.28292771882843E-05
1	245	87.8042747783155	0.736541748046875	0.7364501953125	-4.852294921875E-07	-3.57347346380266E-07	-1517736	3.27783345710486E-05
1	246	87.9049827780613	0.726470947265625	0.726409912109375	-4.49218749999999E-07	-3.26316950349792E-07	-1617051.75	3.27312809531577E-05
1	247	88.005690777807	0.716400146484375	0.716339111328125	-4.193115234375E-07	-3.00369237038467E-07	-1708369.75	3.26875488099176E-05
1	248	88.1063987775527	0.706329345703125	0.706268310546875	-3.985595703125E-07	-2.81490002862483E-07	-1772052.125	3.26463668898214E-05
1	249	88.2071067772985	0.696258544921875	0.69622802734375	-3.8482666015625E-07	-2.67927106278876E-07	-1809199.125	3.26069202856161E-05
1	250	88.3078147770442	0.686187744140625	0.68609619140625	-3.7811279296875E-07	-2.59421739201571E-07	-1814527.875	3.25685032294132E-05
1	251	88.4085227767899	0.676116943359375	0.676025390625	-3.753662109375E-07	-2.53757093560125E-07	-1800975.625	3.2530562748434E-05
1	252	88.5092307765357	0.666046142578125	0.665985107421875	-3.753662109375E-07	-2.49988289624525E-07	-1774227.75	3.24927568726707E-05
1	253	88.6099387762814	0.655975341796875	0.6558837890625	-3.753662109375E-07	-2.46196606212834E-07	-1747317.125	3.24549546348862E-05
1	254	88.7106467760271	0.645904541015625	0.645904541015625	-3.7109375E-07	-2.39691132719599E-07	-1740542.875	3.24173706758302E-05
1	255	88.8113547757729	0.635833740234375	0.635833740234375	-3.62243652343749E-07	-2.30326733685615E-07	-1755265.375	3.23804415529594E-05
1	256	88.9120627755186	0.625762939453125	0.625732421875	-3.48510742187499E-07	-2.18074461599826E-07	-1795446.625	3.2344654755434E-05
1	257	89.0127707752644	0.615692138671875	0.615631103515625	-3.30505371093751E-07	-2.0346938356397E-07	-1862696.25	3.23104613926262E-05
1	258	89.1134787750101	0.605621337890625	0.605560302734375	-3.10363769531249E-07	-1.87943967944193E-07	-1951130.875	3.22781925206073E-05
1	259	89.2141867747558	0.595550537109375	0.59552001953125	-2.880859375E-07	-1.71560941453208E-07	-2067161	3.22480591421481E-05
1	260	89.3148947745016	0.585479736328125	0.585418701171875	-2.6580810546875E-07	-1.55609029661719E-07	-2202411	3.22201667586342E-05
1	261	89.4156027742473	0.575408935546875	0.57537841796875	-2.423095703125E-07	-1.39419697120502E-07	-2374559.25	3.21945808536839E-05
1	262	89.516310773993	0.565338134765625	0.56524658203125	-2.1820068359375E-07	-1.2333718757418E-07	-2590489.5	3.21713923767675E-05
1	263	89.6170187737388	0.555267333984375	0.555267333984375	-1.93176269531251E-07	-1.07264469306756E-07	-2874407.75	3.21506777254399E-05
1	264	89.7177267734845	0.545196533203125	0.54510498046875	-1.69677734375E-07	-9.24921792488931E-08	-3212590	3.21324077958707E-05
1	265	89.8184347732303	0.535125732421875	0.535125732421875	-1.4923095703125E-07	-7.98573225324617E-08	-3585889.5	3.21163497574162E-05
1	266	89.919142772976	0.525054931640625	0.524993896484375	-1.3092041015625E-07	-6.8732418867512E-08	-4010023.25	3.21022416756023E-05
1	267	90.0198507727217	0.514984130859375	0.51495361328125	-1.15356445312501E-07	-5.94032165679437E-08	-4464021.5	3.20898398058489E-05
1	268	90.1205587724675	0.504913330078125	0.50482177734375	-1.019287109375E-07	-5.14558315956037E-08	-4952695	3.2078900403576E-05
1	269	90.2212667722132	0.494842529296875	0.494842529296875	-8.97216796875003E-08	-4.43981029718543E-08	-5515306	3.20692488458008E-05
1	270	90.3219747719589	0.484771728515625	0.484771728515625	-7.87353515625006E-08	-3.81686717787488E-08	-6156977	3.20607650792226E-05
1	271	90.4226827717047	0.474700927734375	0.474700927734375	-6.89697265624997E-08	-3.27399938271355E-08	-6882743.5	3.20533290505409E-05
1	272	90.5233907714504	0.464630126953125	0.464599609375	-5.92041015625003E-08	-2.75062017607297E-08	-7847422.5	3.20468752761371E-05
1	273	90.6240987711961	0.454559326171875	0.45458984375	-5.12695312500006E-08	-2.33066081989364E-08	-8866667	3.20413128065411E-05
1	274	90.7248067709419	0.444488525390625	0.444488525390625	-4.39453125000003E-08	-1.95331875119109E-08	-10114583	3.20365179504734E-05
1	275	90.8255147706876	0.434417724609375	0.4344482421875	-3.69262695312497E-08	-1.60425539519338E-08	-11765289	3.20324470521882E-05
1	276	90.9262227704334	0.424346923828125	0.42431640625	-3.11279296874994E-08	-1.32080906212195E-08	-13631373	3.20290200761519E-05
1	277	91.0269307701791	0.414276123046875	0.41424560546875	-2.56347656250003E-08	-1.06190887194657E-08	-16159524	3.20261606248096E-05
1	278	91.1276387699248	0.404205322265625	0.40423583984375	-2.10571289062503E-08	-8.51204529084271E-09	-19197102	3.20238104905002E-05
1	279	91.2283467696706	0.394134521484375	0.394134521484375	-1.678466796875E-08	-6.61541710300639E-09	-23481818	3.20219041896053E-05
1	280	91.3290547694163	0.384063720703125	0.384033203125	-1.28173828124994E-08	-4.92230034510044E-09	-29961904	3.20204126182944E-05
1	281	91.429762769162	0.373992919921875	0.37408447265625	-8.23974609374945E-09	-3.08236103307991E-09	-45400000	3.20193539664615E-05
1	282	91.5304707689078	0.363922119140625	0.36395263671875	-4.27246093750028E-09	-1.55497348330869E-09	-85185712	3.20187245961279E-05
1	283	91.6311787686535	0.353851318359375	0.353912353515625	-3.05175781249722E-10	-1.08005479559914E-10	-1159699968	3.20184917654842E-05
1	284	91.7318867683992	0.343780517578125	0.343780517578125	3.66210937499945E-09	1.25896182368024E-09	93875000	3.20186627504881E-05
1	285	91.832594768145	0.333709716796875	0.33367919921875	6.40869140624972E-09	2.13844697505294E-09	52066668	3.20191684295423E-05
1	286	91.9333027678907	0.323638916015625	0.323699951171875	1.00708007812506E-08	3.25991744709597E-09	32142426	3.20199978887103E-05
1	287	92.0340107676365	0.313568115234375	0.3135986328125	1.31225585937506E-08	4.11521616783261E-09	23897676	3.20211656799074E-05
1	288	92.1347187673822	0.303497314453125	0.30352783203125	1.55639648437497E-08	4.724096225317E-09	19501962	3.20226099574938E-05
1	289	92.2354267671279	0.293426513671875	0.293365478515625	1.80053710937503E-08	5.28215426953693E-09	16293220	3.20243016176391E-05
1	290	92.3361347668737	0.283355712890625	0.2833251953125	1.983642578125E-08	5.6201590048488E-09	14283077	3.20262079185341E-05
1	291	92.4368427666194	0.273284912109375	0.273223876953125	2.16674804687497E-08	5.9200728763642E-09	12609859	3.20282961183693E-05
1	292	92.5375507663651	0.263214111328125	0.26318359375	2.31933593749997E-08	6.10411143853185E-09	11347369	3.20305553032085E-05
1	293	92.6382587661109	0.253143310546875	0.253173828125	2.41088867187503E-08	6.10373884768478E-09	10501266	3.20329381793272E-05
1	294	92.7389667658566	0.243072509765625	0.243011474609375	2.47192382812497E-08	6.00705840625437E-09	9830864	3.20353974530008E-05
1	295	92.8396747656024	0.233001708984375	0.233001708984375	2.47192382812497E-08	5.759624777113E-09	9425926	3.20378858305048E-05
1	296	92.9403827653481	0.222930908203125	0.222930908203125	2.44140625E-08	5.44264899815516E-09	9131250	3.20403596560936E-05
1	297	93.0410907650938	0.212860107421875	0.212890625	2.44140625E-08	5.19752507699422E-09	8720000	3.20428189297672E-05
1	298	93.1417987648396	0.202789306640625	0.2027587890625	2.31933593749997E-08	4.70265737462228E-09	8742106	3.20452163578011E-05
1	299	93.2425067645853	0.192718505859375	0.1927490234375	2.10571289062503E-08	4.05874089892677E-09	9153624	3.2047442800831E-05
1	300	93.343214764331	0.182647705078125	0.182647705078125	1.89208984374994E-08	3.45585871031062E-09	9653226	3.20494582410902E-05
1	301	93.4439227640768	0.172576904296875	0.172576904296875	1.52587890625E-08	2.63331445538029E-09	11310001	3.20511790050659E-05
1	302	93.5446307638225	0.162506103515625	0.162506103515625	9.46044921874972E-09	1.53738077823817E-09	17177420	3.2052423193818E-05
1	303	93.6453387635682	0.152435302734375	0.15240478515625	2.13623046874945E-09	3.25571708481576E-10	71342864	3.20530052704271E-05
1	304	93.746046763314	0.142364501953125	0.1424560546875	-7.62939453125E-09	-1.08685338506831E-09	-18672002	3.20527287840378E-05
1	305	93.8467547630597	0.132293701171875	0.13232421875	-2.10571289062503E-08	-2.78636802519827E-09	-6284058.5	3.20512845064513E-05
1	306	93.9474627628055	0.122222900390625	0.12225341796875	-3.93676757812503E-08	-4.81283279896161E-09	-3105426.5	3.20482431561686E-05
1	307	94.0481707625512	0.112152099609375	0.112213134765625	-6.50024414062506E-08	-7.29412752420444E-09	-1726291.125	3.20429862767924E-05
1	308	94.1488787622969	0.102081298828125	0.102142333984375	-1.00097656250001E-07	-1.02242081467807E-08	-1020426.875	3.20346734952182E-05
1	309	94.2495867620427	0.092010498046875	0.092010498046875	-1.483154296875E-07	-1.36465754252413E-08	-620370.375	3.20221661240794E-05
1	310	94.3502947617884	0.081939697265625	0.08197021484375	-2.14538574218751E-07	-1.75857728379469E-08	-382076.8125	3.20038925565314E-05
1	311	94.4510027615341	0.071868896484375	0.0718994140625	-3.0517578125E-07	-2.19419593605608E-08	-235600	3.19777245749719E-05
1	312	94.5517107612799	0.061798095703125	0.06182861328125	-4.25109863281251E-07	-2.62839527920278E-08	-145441.5	3.19409518851899E-05
1	313	94.6524187610256	0.051727294921875	0.051727294921875	-5.780029296875E-07	-2.98985263214036E-08	-89493.140625	3.18904421874322E-05
1	314	94.7531267607714	0.041656494140625	0.041754150390625	-7.65380859375001E-07	-3.19578248308972E-08	-54553.4296875	3.18227976094931E-05
1	315	94.8538347605171	0.031585693359375	0.031640625	-9.8388671875E-07	-3.11307921663229E-08	-32158.810546875	3.17347148666158E-05
1	316	94.9545427602628	0.021514892578125	0.0216583251953125	-1.21673583984375E-06	-2.63524597698961E-08	-17800.3515625	3.16239020321518E-05
1	317	95.0552507600086	0.011444091796875	0.0115570068359375	-1.4471435546875E-06	-1.67246483329109E-08	-7986.08251953125	3.14897661155555E-05
1	318	95.1559587597543	0.001373291015625	0.001495361328125	-1.65069580078125E-06	-2.46838660622473E-09	-905.897644042969	3.13337768602651E-05
1	319	95.2566667595	-0.008697509765625	-0.00858459472656251	-1.8072509765625E-06	1.55145158942105E-08	4750.08447265625	3.11596559186E-05
1	320	95.3573747592458	-0.018768310546875	-0.0186370849609375	-1.90704345703125E-06	3.55417313357975E-08	9772.7646484375	3.09726274281275E-05
1	321	95.4580827589915	-0.028839111328125	-0.0286956787109375	-1.947021484375E-06	5.58711015230529E-08	14738.244140625	3.07785594486631E-05
1	322	95.5587907587372	-0.038909912109375	-0.0387359619140625	-1.93878173828125E-06	7.51005728716336E-08	19979.5390625	3.05828943965025E-05
1	323	95.659498758483	-0.048980712890625	-0.04884033203125	-1.89605712890625E-06	9.26040542026385E-08	25758.89453125	3.03897941194009E-05
1	324	95.7602067582287	-0.059051513671875	-0.0589599609375	-1.832275390625E-06	1.08030882017829E-07	32178.548828125	3.02020580420503E-05
1	325	95.8609147579745	-0.069122314453125	-0.069122314453125	-1.75994873046875E-06	1.21651723361538E-07	39275.1875	3.00211740977829E-05
1	326	95.9616227577202	-0.079193115234375	-0.0791015625	-1.68792724609375E-06	1.33517687572748E-07	46863.13671875	2.98475606541615E-05
1	327	96.0623307574659	-0.089263916015625	-0.089202880859375	-1.61895751953125E-06	1.44415679415033E-07	55098.96484375	2.96810449071927E-05
1	328	96.1630387572117	-0.099334716796875	-0.0992431640625	-1.556396484375E-06	1.54461702095432E-07	63764.70703125	2.95211539196316E-05
1	329	96.2637467569574	-0.109405517578125	-0.1092529296875	-1.5008544921875E-06	1.63972742939222E-07	72793.8203125	2.93672092084307E-05
1	330	96.3644547567031	-0.119476318359375	-0.119354248046875	-1.45172119140625E-06	1.73269086189975E-07	82215.6875	2.92185341095319E-05
1	331	96.4651627564489	-0.129547119140625	-0.129486083984375	-1.40838623046875E-06	1.82366406420442E-07	91939.328125	2.90745174424956E-05
1	332	96.5658707561946	-0.139617919921875	-0.13958740234375	-1.3720703125E-06	1.91523724879517E-07	101734.875	2.89345098281046E-05
1	333	96.6665787559403	-0.149688720703125	-0.149566650390625	-1.34063720703125E-06	2.00514605808166E-07	111563.859375	2.87979146378348E-05
1	334	96.7672867556861	-0.159759521484375	-0.15966796875	-1.31439208984375E-06	2.0986631454889E-07	121476.6640625	2.8664222554653E-05
1	335	96.8679947554318	-0.169830322265625	-0.16973876953125	-1.29150390625E-06	2.19218279084998E-07	131427.234375	2.85330061160494E-05
1	336	96.9687027551776	-0.179901123046875	-0.179718017578125	-1.27227783203125E-06	2.28651245492983E-07	141256.890625	2.84039088001009E-05
1	337	97.0694107549233	-0.189971923828125	-0.189788818359375	-1.25701904296875E-06	2.38568162558295E-07	150983.25	2.82765486190328E-05
1	338	97.170118754669	-0.200042724609375	-0.199920654296875	-1.2451171875E-06	2.48924635570802E-07	160563.734375	2.81505563179962E-05
1	339	97.2708267544148	-0.189971923828125	-0.18975830078125	-1.09130859375E-06	2.07084866588048E-07	173881.4375	2.80329077213537E-05
2	340	97.3715347541605	-0.179901123046875	-0.17974853515625	-9.8480224609375E-07	1.77016758584614E-07	182522.46875	2.79283667623531E-05
2	341	97.4722427539062	-0.169830322265625	-0.16973876953125	-8.99353027343749E-07	1.52655061924634E-07	188734.3125	2.7833491913043E-05
2	342	97.572950753652	-0.159759521484375	-0.15966796875	-8.2672119140625E-07	1.32000891994721E-07	193134	2.77465769613627E-05
2	343	97.6736587533977	-0.149688720703125	-0.1495361328125	-7.63549804687499E-07	1.14178284604805E-07	195843.328125	2.76665014098398E-05
2	344	97.7743667531435	-0.139617919921875	-0.1395263671875	-7.05871582031251E-07	9.84876962206727E-08	197665.375	2.75925103778718E-05
2	345	97.8750747528892	-0.129547119140625	-0.1295166015625	-6.5155029296875E-07	8.43865777255814E-08	198782.203125	2.75241582130548E-05
2	346	97.9757827526349	-0.119476318359375	-0.11932373046875	-6.0089111328125E-07	7.17005690376027E-08	198577.96875	2.74610920314444E-05
2	347	98.0764907523807	-0.109405517578125	-0.109283447265625	-5.5084228515625E-07	6.0197940854323E-08	198393.34375	2.74030990112806E-05
2	348	98.1771987521264	-0.099334716796875	-0.099273681640625	-5.0018310546875E-07	4.96550178752386E-08	198474.6875	2.73501755145844E-05
2	349	98.2779067518721	-0.089263916015625	-0.08917236328125	-4.46472167968751E-07	3.98129778034217E-08	199726.59375	2.73025070782751E-05
2	350	98.3786147516179	-0.079193115234375	-0.0791015625	-3.8604736328125E-07	3.0536948969484E-08	204901.1875	2.7260586648481E-05
2	351	98.4793227513636	-0.069122314453125	-0.0689697265625	-3.15246582031251E-07	2.17424709347824E-08	218780.25	2.72252727882005E-05
2	352	98.5800307511093	-0.059051513671875	-0.05902099609375	-2.288818359375E-07	1.35088340513789E-08	257866.671875	2.71978751698043E-05
2	353	98.6807387508551	-0.048980712890625	-0.0488250732421875	-1.220703125E-07	5.96009153142063E-09	399975.03125	2.71802018687595E-05
2	354	98.7814467506008	-0.038909912109375	-0.03875732421875	1.28173828124994E-08	-4.96767460500536E-10	-3023809.5	2.71747012448031E-05
2	355	98.8821547503466	-0.028839111328125	-0.02872314453125	1.79138183593749E-07	-5.14541209639674E-09	-160340.71875	2.71843673544936E-05
2	356	98.9828627500923	-0.018768310546875	-0.0186492919921875	3.7994384765625E-07	-7.08568315133107E-09	-49084.33984375	2.72125198534923E-05
2	357	99.083570749838	-0.008697509765625	-0.008563232421875	6.085205078125E-07	-5.21090282035175E-09	-14072.216796875	2.72622928605415E-05
2	358	99.1842787495838	0.001373291015625	0.00144348144531251	8.55407714843751E-07	1.23476506797005E-09	1687.47778320313	2.73360074061202E-05
2	359	99.2849867493295	0.011444091796875	0.0115509033203125	1.1016845703125E-06	1.27254518034192E-08	10484.7646484375	2.74345547950361E-05
2	360	99.3856947490752	0.021514892578125	0.0215789794921875	1.324462890625E-06	2.85805548116969E-08	16292.626953125	2.75567199423676E-05
2	361	99.486402748821	0.031585693359375	0.031683349609375	1.502685546875E-06	4.76101114088578E-08	21084.482421875	2.76990795100573E-05
2	362	99.5871107485667	0.041656494140625	0.0417388916015625	1.6241455078125E-06	6.77900331425008E-08	25698.984375	2.78565275948495E-05
2	363	99.6878187483125	0.051727294921875	0.051788330078125	1.6864013671875E-06	8.73359056186018E-08	30709.375	2.8023227059748E-05
2	364	99.7885267480582	0.061798095703125	0.06182861328125	1.69647216796875E-06	1.04890524710299E-07	36445.40234375	2.81935681414325E-05
2	365	99.8892347478039	0.071868896484375	0.071929931640625	1.67022705078125E-06	1.20139318937618E-07	43065.9609375	2.83630943158641E-05
2	366	99.9899427475497	0.081939697265625	0.08197021484375	1.62017822265625E-06	1.32806349029124E-07	50593.33203125	2.85287787846755E-05
2	367	100.090650747295	0.092010498046875	0.092010498046875	1.5594482421875E-06	1.43485607395633E-07	59001.9609375	2.86888862319756E-05
2	368	100.191358747041	0.102081298828125	0.10211181640625	1.49505615234375E-06	1.52662906316436E-07	68299.65625	2.88426926999819E-05
2	369	100.292066746787	0.112152099609375	0.112274169921875	1.43218994140625E-06	1.60797938519863E-07	78393.3515625	2.89900908683194E-05
2	370	100.392774746533	0.122222900390625	0.122283935546875	1.37359619140625E-06	1.67968750020009E-07	89024.6640625	2.91313735942822E-05
2	371	100.493482746278	0.132293701171875	0.13232421875	1.31988525390625E-06	1.7465278290274E-07	100254.3359375	2.92670010821894E-05
2	372	100.594190746024	0.142364501953125	0.142333984375	1.27197265625E-06	1.81044939040476E-07	111900.1875	2.93975117529044E-05
2	373	100.69489874577	0.152435302734375	0.152435302734375	1.2298583984375E-06	1.87473844448505E-07	123945.40625	2.95234895020258E-05
2	374	100.795606745516	0.162506103515625	0.1624755859375	1.19232177734375E-06	1.93723181496352E-07	136268.234375	2.96454563795123E-05
2	375	100.896314745261	0.172576904296875	0.172637939453125	1.15936279296875E-06	2.00149997908738E-07	148907.609375	2.97638725896832E-05
2	376	100.997022745007	0.182647705078125	0.1826171875	1.13006591796875E-06	2.06369463739975E-07	161598.703125	2.98791546811117E-05
2	377	101.097730744753	0.192718505859375	0.19281005859375	1.10443115234375E-06	2.12945437283452E-07	174578.609375	2.99916700896574E-05
2	378	101.198438744499	0.202789306640625	0.2027587890625	1.0809326171875E-06	2.19168597936914E-07	187577.640625	3.01017116726143E-05
2	379	101.299146744244	0.212860107421875	0.212860107421875	1.0601806640625E-06	2.25670177655957E-07	200777.203125	3.02095249935519E-05
2	380	101.39985474399	0.222930908203125	0.2230224609375	1.04217529296875E-06	2.32428504887139E-07	213997.0625	3.03153883578489E-05
2	381	101.500562743736	0.233001708984375	0.23297119140625	1.02508544921875E-06	2.3881537458692E-07	227270.015625	3.04194818454562E-05
2	382	101.601270743481	0.243072509765625	0.2430419921875	1.0101318359375E-06	2.45504423901366E-07	240604.25	3.05219655274414E-05
2	383	101.701978743227	0.253143310546875	0.253143310546875	9.9700927734375E-07	2.52386229249169E-07	253902.671875	3.06230322166812E-05
2	384	101.802686742973	0.263214111328125	0.263275146484375	9.85107421875001E-07	2.59354294485092E-07	267255.28125	3.07228401652537E-05
2	385	101.903394742719	0.273284912109375	0.273284912109375	9.74121093749999E-07	2.66212595079196E-07	280545.09375	3.08214948745444E-05
2	386	102.004102742464	0.283355712890625	0.28338623046875	9.6435546875E-07	2.73285053253858E-07	293860.78125	3.09191054839175E-05
2	387	102.10481074221	0.293426513671875	0.293365478515625	9.55810546875E-07	2.80401792451812E-07	306928.5	3.10157920466736E-05
2	388	102.205518741956	0.303497314453125	0.303497314453125	9.478759765625E-07	2.87677806909414E-07	320186.75	3.11116491502617E-05
2	389	102.306226741702	0.313568115234375	0.313568115234375	9.4024658203125E-07	2.94831323799372E-07	333495.625	3.12067240884062E-05
2	390	102.406934741447	0.323638916015625	0.32366943359375	9.33837890625E-07	3.02254761663789E-07	346601.3125	3.13010932586621E-05
2	391	102.507642741193	0.333709716796875	0.333740234375	9.28344726562499E-07	3.09825992417245E-07	359500.34375	3.13948621624149E-05
2	392	102.608350740939	0.343780517578125	0.343841552734375	9.234619140625E-07	3.17524552428949E-07	372339.75	3.14881071972195E-05
2	393	102.709058740685	0.353851318359375	0.353851318359375	9.19189453124999E-07	3.25256394262396E-07	384960.1875	3.15808902087156E-05
2	394	102.80976674043	0.363922119140625	0.36395263671875	9.1552734375E-07	3.33208589609058E-07	397533.34375	3.16732766805217E-05
2	395	102.910474740176	0.373992919921875	0.373992919921875	9.130859375E-07	3.41487663035878E-07	409592.25	3.17653539241292E-05
2	396	103.011182739922	0.384063720703125	0.384063720703125	9.1064453125E-07	3.49745533867463E-07	421749.34375	3.18571874231566E-05
2	397	103.111890739668	0.394134521484375	0.394134521484375	9.08813476562501E-07	3.58194739646933E-07	433680.34375	3.19488026434556E-05
2	398	103.212598739413	0.404205322265625	0.4041748046875	9.075927734375E-07	3.66826128583853E-07	445326.15625	3.20402687066235E-05
2	399	103.313306739159	0.414276123046875	0.414276123046875	9.0667724609375E-07	3.75614717995632E-07	456916.875	3.21316219924483E-05
2	400	103.414014738905	0.424346923828125	0.424285888671875	9.0606689453125E-07	3.84431388056328E-07	468272.15625	3.22229025186971E-05
2	401	103.51472273865	0.434417724609375	0.434417724609375	9.0545654296875E-07	3.93346368809944E-07	479777.5625	3.23141175613273E-05
2	402	103.615430738396	0.444488525390625	0.44451904296875	9.04235839843751E-07	4.01950046580168E-07	491596.34375	3.24052452924661E-05
2	403	103.716138738142	0.454559326171875	0.454498291015625	9.04541015625E-07	4.11112324627538E-07	502462.90625	3.24963220919017E-05
2	404	103.816846737888	0.464630126953125	0.464630126953125	9.03930664062499E-07	4.19993398281804E-07	514010.8125	3.25873879774008E-05
2	405	103.917554737633	0.474700927734375	0.47467041015625	9.0484619140625E-07	4.29503700161149E-07	524586.875	3.26784684148151E-05
2	406	104.018262737379	0.484771728515625	0.484771728515625	9.05761718750001E-07	4.39087642689628E-07	535208.9375	3.27696398016997E-05
2	407	104.118970737125	0.494842529296875	0.494873046875	9.063720703125E-07	4.48539111630453E-07	545993.25	3.28608875861391E-05
2	408	104.219678736871	0.504913330078125	0.5048828125	9.0850830078125E-07	4.58690237792325E-07	555727.25	3.29522736137733E-05
2	409	104.320386736616	0.514984130859375	0.51495361328125	9.1064453125E-07	4.68939703068827E-07	565482.5625	3.3043874282157E-05
2	410	104.421094736362	0.525054931640625	0.525054931640625	9.13391113281251E-07	4.79580478440766E-07	574841.3125	3.31357223330997E-05
2	411	104.521802736108	0.535125732421875	0.53509521484375	9.16442871093751E-07	4.9038419547287E-07	583882.8125	3.32278614223469E-05
2	412	104.622510735854	0.545196533203125	0.545166015625	9.197998046875E-07	5.0144359420301E-07	592700.75	3.33203242917079E-05
2	413	104.723218735599	0.555267333984375	0.555267333984375	9.246826171875E-07	5.13446025252051E-07	600495.0625	3.3413201890653E-05
2	414	104.823926735345	0.565338134765625	0.56536865234375	9.29870605468749E-07	5.25719656252477E-07	608007.875	3.35065851686522E-05
2	415	104.924634735091	0.575408935546875	0.57537841796875	9.35974121093749E-07	5.38539268291061E-07	614737.5625	3.36005359713454E-05
2	416	105.025342734836	0.585479736328125	0.58538818359375	9.43603515624999E-07	5.52374331164174E-07	620375.1875	3.36951816279907E-05
2	417	105.126050734582	0.595550537109375	0.5955810546875	9.53063964843751E-07	5.6762684153E-07	624911.9375	3.37906858476344E-05
2	418	105.226758734328	0.605621337890625	0.605560302734375	9.64965820312499E-07	5.84345002607733E-07	627545.875	3.38872669090051E-05
2	419	105.327466734074	0.615692138671875	0.61566162109375	9.80224609374999E-07	6.03486682848597E-07	628082.1875	3.39852158504073E-05
2	420	105.428174733819	0.625762939453125	0.625701904296875	9.9822998046875E-07	6.245944064176E-07	626811.375	3.40848382620607E-05
2	421	105.528882733565	0.635833740234375	0.635772705078125	1.02142333984375E-06	6.49393030016654E-07	622438.0625	3.41865343216341E-05
2	422	105.629590733311	0.645904541015625	0.645843505859375	1.0479736328125E-06	6.76826914514095E-07	616278.4375	3.42907369486056E-05
2	423	105.730298733057	0.655975341796875	0.655914306640625	1.07879638671875E-06	7.07597962446016E-07	608005.6875	3.439782813075E-05
2	424	105.831006732802	0.666046142578125	0.666015625	1.11083984375E-06	7.39836650609504E-07	599560.5	3.45080879924353E-05
2	425	105.931714732548	0.676116943359375	0.676025390625	1.1419677734375E-06	7.71999225435138E-07	591982.875	3.46215238096192E-05
2	426	106.032422732294	0.686187744140625	0.686065673828125	1.16973876953125E-06	8.02517604370223E-07	586511.875	3.47379282175098E-05
2	427	106.13313073204	0.696258544921875	0.696197509765625	1.19293212890625E-06	8.30516398764303E-07	583601.9375	3.48568974004593E-05
2	428	106.233838731785	0.706329345703125	0.70623779296875	1.21124267578125E-06	8.55425355439365E-07	583068.8125	3.49779584212229E-05
2	429	106.334546731531	0.716400146484375	0.71630859375	1.22589111328125E-06	8.78116338753898E-07	584316.6875	3.51006783603225E-05
2	430	106.435254731277	0.726470947265625	0.7264404296875	1.23931884765625E-06	9.00291354355431E-07	586161.0625	3.52248098351993E-05
2	431	106.535962731023	0.736541748046875	0.73638916015625	1.2542724609375E-06	9.23632626381732E-07	587104.625	3.53503710357472E-05
2	432	106.636670730768	0.746612548828125	0.746490478515625	1.2750244140625E-06	9.51793538206402E-07	585471.5625	3.54777330358047E-05
2	433	106.737378730514	0.756683349609375	0.7568359375	1.30157470703125E-06	9.85078486337443E-07	581477.125	3.5607474274002E-05
2	434	106.83808673026	0.766754150390625	0.7666015625	1.3397216796875E-06	1.02703268112236E-06	572209.5625	3.57404751412105E-05
2	435	106.938794730005	0.776824951171875	0.7769775390625	1.392822265625E-06	1.08219160210865E-06	557844	3.58780707756523E-05
2	436	107.039502729751	0.786895751953125	0.787353515625	1.46453857421875E-06	1.15310956516623E-06	537612	3.6021949199494E-05
2	437	107.140210729497	0.796966552734375	0.797119140625	1.55853271484375E-06	1.24233622500469E-06	511454.90625	3.61741731467191E-05
2	438	107.240918729243	0.807037353515625	0.806884765625	1.6741943359375E-06	1.35088191655086E-06	481954.0625	3.63369545084424E-05
2	439	107.341626728988	0.817108154296875	0.816650390625	1.80908203125E-06	1.47738751365978E-06	451417.03125	3.65123487426899E-05
2	440	107.442334728734	0.827178955078125	0.82733154296875	1.95556640625E-06	1.61790171659959E-06	423064.90625	3.67019165423699E-05
2	441	107.54304272848	0.837249755859375	0.83770751953125	2.09991455078125E-06	1.75911418409669E-06	398924.5625	3.69061235687695E-05
2	442	107.643750728226	0.847320556640625	0.84747314453125	2.22930908203125E-06	1.88927958788554E-06	380150.59375	3.71241185348481E-05
2	443	107.744458727971	0.857391357421875	0.8575439453125	2.3291015625E-06	1.99730698113854E-06	368186.59375	3.73536531697027E-05
2	444	107.845166727717	0.867462158203125	0.867919921875	2.39471435546875E-06	2.07842026611615E-06	362431.5	3.75915151380468E-05
2	445	107.945874727463	0.877532958984375	0.877685546875	2.42401123046875E-06	2.12751956496504E-06	362079.8125	3.78341574105434E-05
2	446	108.046582727209	0.887603759765625	0.887451171875	2.42401123046875E-06	2.15119166568911E-06	366108.53125	3.80782767024357E-05
2	447	108.147290726954	0.897674560546875	0.89752197265625	2.40081787109375E-06	2.15478667087154E-06	373840.125	3.83212245651521E-05
2	448	108.2479987267	0.907745361328125	0.9075927734375	2.364501953125E-06	2.1460048174049E-06	383841	3.85611783713102E-05
2	449	108.348706726446	0.917816162109375	0.91827392578125	2.322998046875E-06	2.13314842767431E-06	395296.90625	3.87972104363143E-05
2	450	108.449414726192	0.927886962890625	0.927734375	2.2802734375E-06	2.11548785955529E-06	406852.28125	3.90290042560082E-05
2	451	108.550122725937	0.937957763671875	0.93780517578125	2.24029541015625E-06	2.10096050068387E-06	418607.84375	3.92566325899679E-05
2	452	108.650830725683	0.948028564453125	0.9478759765625	2.2039794921875E-06	2.08909909815702E-06	430074.78125	3.94804192183074E-05
2	453	108.751538725429	0.958099365234375	0.95794677734375	2.17315673828125E-06	2.08176834348706E-06	440808.90625	3.9700826164335E-05
2	454	108.852246725174	0.968170166015625	0.96832275390625	2.147216796875E-06	2.07919879358087E-06	450966.46875	3.99183736590203E-05
2	455	108.95295472492	0.978240966796875	0.9783935546875	2.12677001953125E-06	2.0808179215237E-06	460037.34375	4.01335892092902E-05
2	456	109.053662724666	0.988311767578125	0.98876953125	2.11090087890625E-06	2.08719438887783E-06	468411.1875	4.03469712182414E-05
2	457	109.154370724412	0.998382568359375	0.99853515625	2.09808349609375E-06	2.09501013159752E-06	475927.25	4.05589089496061E-05
2	458	109.255078724157	1.00845336914063	1.00860595703125	2.08740234375E-06	2.10536632039293E-06	483187.15625	4.07696679758374E-05
2	459	109.355786723903	1.01852416992188	1.01837158203125	2.076416015625E-06	2.11456290344358E-06	490446.8125	4.09793319704477E-05
2	460	109.456494723649	1.02859497070313	1.02874755859375	2.06451416015625E-06	2.12386385101127E-06	498300.09375	4.11878427257761E-05
2	461	109.557202723395	1.03866577148438	1.03851318359375	2.052001953125E-06	2.13103112400859E-06	506097.5625	4.13951274822466E-05
2	462	109.65791072314	1.04873657226563	1.048583984375	2.037353515625E-06	2.13633620660403E-06	514679.46875	4.16010407207068E-05
2	463	109.758618722886	1.05880737304688	1.05926513671875	2.02239990234375E-06	2.1422576992336E-06	523766.40625	4.18054660258349E-05
2	464	109.859326722632	1.06887817382813	1.06903076171875	2.0074462890625E-06	2.14602187043056E-06	532532.6875	4.20083852077369E-05
2	465	109.960034722378	1.07894897460938	1.07879638671875	1.99249267578125E-06	2.14949386645458E-06	541430.5625	4.22097982664127E-05
2	466	110.060742722123	1.08901977539063	1.08917236328125	1.97906494140625E-06	2.15554268834239E-06	550347	4.24097815994173E-05
2	467	110.161450721869	1.09909057617188	1.09832763671875	1.96624755859375E-06	2.15958402804972E-06	558590.75	4.2608444346115E-05
2	468	110.262158721615	1.10916137695313	1.10931396484375	1.95465087890625E-06	2.16832131627598E-06	567525.375	4.28058774559759E-05
2	469	110.362866721361	1.11923217773438	1.119384765625	1.944580078125E-06	2.17673323277268E-06	575643.5	4.30022191721946E-05
2	470	110.463574721106	1.12930297851563	1.12945556640625	1.9354248046875E-06	2.18597620005312E-06	583569.875	4.31975931860507E-05
2	471	110.564282720852	1.13937377929688	1.138916015625	1.927490234375E-06	2.1952494080324E-06	590880.375	4.33921049989294E-05
2	472	110.664990720598	1.14944458007813	1.14990234375	1.92108154296875E-06	2.20905621972634E-06	598570.3125	4.35858964920044E-05
2	473	110.765698720343	1.15951538085938	1.15936279296875	1.91558837890625E-06	2.2208619157027E-06	605225.4375	4.37790877185762E-05
2	474	110.866406720089	1.16958618164063	1.16943359375	1.91131591796875E-06	2.23515689867781E-06	611847.375	4.3971787818009E-05
2	475	110.967114719835	1.17965698242188	1.17919921875	1.90826416015625E-06	2.25022336053371E-06	617943.4375	4.41641204815824E-05
2	476	111.067822719581	1.18972778320313	1.1895751953125	1.9061279296875E-06	2.2674823867419E-06	624079.4375	4.43561912106816E-05
2	477	111.168530719326	1.19979858398438	1.1993408203125	1.90460205078125E-06	2.28426688408945E-06	629706.8125	4.45480764028616E-05
2	478	111.269238719072	1.20986938476563	1.21002197265625	1.904296875E-06	2.30424097935611E-06	635416.6875	4.47398706455715E-05
2	479	111.369946718818	1.21994018554688	1.2200927734375	1.90521240234375E-06	2.32453589887882E-06	640397.25	4.49316939921118E-05
2	480	111.470654718564	1.23001098632813	1.23046875	1.90673828125E-06	2.34618187278102E-06	645326.5	4.51236410299316E-05
2	481	111.571362718309	1.24008178710938	1.23992919921875	1.9085693359375E-06	2.36649066209793E-06	649664.25	4.53157554147765E-05
2	482	111.672070718055	1.25015258789063	1.25	1.9122314453125E-06	2.39028940995922E-06	653686.5625	4.55081499239895E-05
2	483	111.772778717801	1.26022338867188	1.2603759765625	1.91650390625E-06	2.41551538238127E-06	657643.3125	4.57009409728926E-05
2	484	111.873486717547	1.27029418945313	1.2701416015625	1.9219970703125E-06	2.44120838033268E-06	660844.75	4.58942231489345E-05
2	485	111.974194717292	1.28036499023438	1.280517578125	1.92840576171875E-06	2.46935746872623E-06	664029.125	4.60881092294585E-05
2	486	112.074902717038	1.29043579101563	1.29058837890625	1.9366455078125E-06	2.49941217589367E-06	666404.0625	4.62827301817015E-05
2	487	112.175610716784	1.30050659179688	1.3006591796875	1.944580078125E-06	2.52923564403318E-06	668863.8125	4.64781624032184E-05
2	488	112.27631871653	1.31057739257813	1.31011962890625	1.95465087890625E-06	2.56082626037824E-06	670257.625	4.66745041194372E-05
2	489	112.377026716275	1.32064819335938	1.3201904296875	1.9659423828125E-06	2.59541820923914E-06	671530.5625	4.68719226773828E-05
2	490	112.477734716021	1.33071899414063	1.33056640625	1.9781494140625E-06	2.63205902228947E-06	672631.9375	4.70705235784408E-05
2	491	112.578442715767	1.34078979492188	1.3409423828125	1.99249267578125E-06	2.67181781055115E-06	672997.4375	4.72704632556997E-05
2	492	112.679150715512	1.35086059570313	1.3507080078125	2.00775146484375E-06	2.71188582701143E-06	672746.625	4.74718908662908E-05
2	493	112.779858715258	1.36093139648438	1.361083984375	2.02392578125E-06	2.75473280453298E-06	672497.0625	4.76749009976629E-05
2	494	112.880566715004	1.37100219726563	1.370849609375	2.04254150390625E-06	2.8000170004816E-06	671149	4.78796646348201E-05
2	495	112.98127471475	1.38107299804688	1.380615234375	2.0623779296875E-06	2.84735028799332E-06	669428.8125	4.80863636767026E-05
2	496	113.081982714495	1.39114379882813	1.3909912109375	2.0855712890625E-06	2.90101115751895E-06	666959.375	4.82952273159754E-05
2	497	113.182690714241	1.40121459960938	1.4013671875	2.11029052734375E-06	2.95729182653304E-06	664063.625	4.8506506573176E-05
2	498	113.283398713987	1.41128540039063	1.4111328125	2.13958740234375E-06	3.0192420581443E-06	659535	4.87205070385244E-05
2	499	113.384106713733	1.42135620117188	1.42181396484375	2.17376708984375E-06	3.09069241666293E-06	654078.3125	4.89377016492654E-05
2	500	113.484814713478	1.43142700195313	1.4312744140625	2.2125244140625E-06	3.16672958433628E-06	646896.5625	4.91585669806227E-05
2	501	113.585522713224	1.44149780273438	1.44195556640625	2.2576904296875E-06	3.25548921864538E-06	638686.1875	4.93836596433539E-05
2	502	113.68623071297	1.45156860351563	1.45172119140625	2.3095703125E-06	3.35285199071222E-06	628567.6875	4.96136417496018E-05
2	503	113.786938712716	1.46163940429688	1.4617919921875	2.3687744140625E-06	3.46265551343095E-06	617109	4.98492154292762E-05
2	504	113.887646712461	1.47171020507813	1.47216796875	2.43621826171875E-06	3.58652232534951E-06	604284.125	5.00911628478207E-05
2	505	113.988354712207	1.48178100585938	1.48193359375	2.51190185546875E-06	3.72247177438112E-06	589964.75	5.03403207403608E-05
2	506	114.089062711953	1.49185180664063	1.4923095703125	2.59765625E-06	3.87650743505219E-06	574483.0625	5.05976095155347E-05
2	507	114.189770711699	1.50192260742188	1.5020751953125	2.69256591796875E-06	4.04443653678754E-06	557860.125	5.08639932377264E-05
2	508	114.290478711444	1.49185180664063	1.49139404296875	2.4267578125E-06	3.61925185643486E-06	614562.4375	5.11217695020605E-05
2	509	114.39118671119	1.48178100585938	1.48223876953125	2.23419189453125E-06	3.31160595123947E-06	663433.9375	5.13564700668212E-05
2	510	114.491894710936	1.47171020507813	1.47216796875	2.0831298828125E-06	3.06671699945582E-06	706709.625	5.15738647663966E-05
2	511	114.592602710681	1.46163940429688	1.4617919921875	1.96014404296875E-06	2.86532258542138E-06	745757.5	5.17774569743779E-05
2	512	114.693310710427	1.45156860351563	1.45172119140625	1.8585205078125E-06	2.69805354946584E-06	781116.625	5.19697423442267E-05
2	513	114.794018710173	1.44149780273438	1.4410400390625	1.7724609375E-06	2.55418717642897E-06	813016.5625	5.21525762451347E-05
2	514	114.894726709919	1.43142700195313	1.43157958984375	1.6998291015625E-06	2.43344061345852E-06	842190.3125	5.23274211445823E-05
2	515	114.995434709664	1.42135620117188	1.4215087890625	1.6375732421875E-06	2.32782463172043E-06	868058.1875	5.24954739375971E-05
2	516	115.09614270941	1.41128540039063	1.4111328125	1.583251953125E-06	2.23417873712606E-06	891287.625	5.26576550328173E-05
2	517	115.196850709156	1.40121459960938	1.40106201171875	1.53564453125E-06	2.15153318094963E-06	912360.875	5.28147029399406E-05
2	518	115.297558708902	1.39114379882813	1.3909912109375	1.4935302734375E-06	2.07748735192581E-06	931344.5	5.29672324773856E-05
2	519	115.398266708647	1.38107299804688	1.3812255859375	1.456298828125E-06	2.01147713596583E-06	948449.3125	5.31157711520791E-05
2	520	115.498974708393	1.37100219726563	1.37115478515625	1.42364501953125E-06	1.95203756447881E-06	963129.6875	5.32607882632874E-05
2	521	115.599682708139	1.36093139648438	1.361083984375	1.3934326171875E-06	1.89657885130146E-06	976784.9375	5.34026366949547E-05
2	522	115.700390707885	1.35086059570313	1.3507080078125	1.3665771484375E-06	1.84584655471554E-06	988387.75	5.35416147613432E-05
2	523	115.80109870763	1.34078979492188	1.34033203125	1.34185791015625E-06	1.79853509507666E-06	998862.875	5.36779953108635E-05
2	524	115.901806707376	1.33071899414063	1.33056640625	1.31988525390625E-06	1.75619493347767E-06	1008092.5	5.38120257260744E-05
2	525	116.002514707122	1.32064819335938	1.32049560546875	1.2994384765625E-06	1.7159027265734E-06	1016204.875	5.39439170097467E-05
2	526	116.103222706868	1.31057739257813	1.31103515625	1.28021240234375E-06	1.67840346421144E-06	1024076.3125	5.40738146810327E-05
2	527	116.203930706613	1.30050659179688	1.3006591796875	1.26251220703125E-06	1.64209814101923E-06	1030215.125	5.42018497071695E-05
2	528	116.304638706359	1.29043579101563	1.29058837890625	1.24603271484375E-06	1.608115212548E-06	1035758.0625	5.43281676073093E-05
2	529	116.405346706105	1.28036499023438	1.28021240234375	1.23016357421875E-06	1.57487068008777E-06	1040684.6875	5.44528520549648E-05
2	530	116.50605470585	1.27029418945313	1.26983642578125	1.2158203125E-06	1.54389283579803E-06	1044427.75	5.45760158274788E-05
2	531	116.606762705596	1.26022338867188	1.2603759765625	1.202392578125E-06	1.51546669258096E-06	1048223.375	5.4697782616131E-05
2	532	116.707470705342	1.25015258789063	1.25030517578125	1.18865966796875E-06	1.48618732964678E-06	1051861.375	5.48181815247517E-05
2	533	116.808178705088	1.24008178710938	1.240234375	1.1761474609375E-06	1.45869842071988E-06	1054488.875	5.49372598470654E-05
2	534	116.908886704833	1.23001098632813	1.23016357421875	1.16302490234375E-06	1.43071088132274E-06	1057727.625	5.50550466869026E-05
2	535	117.009594704579	1.21994018554688	1.2188720703125	1.151123046875E-06	1.40307167839637E-06	1058854.75	5.51715747860726E-05
2	536	117.110302704325	1.20986938476563	1.209716796875	1.138916015625E-06	1.3777657841274E-06	1062165.125	5.5286887800321E-05
2	537	117.211010704071	1.19979858398438	1.19964599609375	1.1273193359375E-06	1.35238406073768E-06	1064158.125	5.5401000281563E-05
2	538	117.311718703816	1.18972778320313	1.190185546875	1.11572265625E-06	1.32791694795742E-06	1066739.625	5.5513944971608E-05
2	539	117.412426703562	1.17965698242188	1.17919921875	1.103515625E-06	1.30126477415615E-06	1068584.125	5.56256927666254E-05
2	540	117.513134703308	1.16958618164063	1.1700439453125	1.0919189453125E-06	1.2775930144926E-06	1071548.375	5.57362436666153E-05
2	541	117.613842703054	1.15951538085938	1.15997314453125	1.0809326171875E-06	1.25385281535273E-06	1073122.5	5.58456558792386E-05
2	542	117.714550702799	1.14944458007813	1.14959716796875	1.0699462890625E-06	1.2300072285143E-06	1074443.875	5.59539585083257E-05
2	543	117.815258702545	1.13937377929688	1.1395263671875	1.058349609375E-06	1.20601725939196E-06	1076701.375	5.60611297260039E-05
2	544	117.915966702291	1.12930297851563	1.12945556640625	1.0467529296875E-06	1.18226091672113E-06	1079008.75	5.61671295145061E-05
2	545	118.016674702037	1.11923217773438	1.11907958984375	1.03607177734375E-06	1.15944681056135E-06	1080117.75	5.62720088055357E-05
2	546	118.117382701782	1.10916137695313	1.10931396484375	1.024169921875E-06	1.13612600216584E-06	1083134.625	5.63757494091988E-05
2	547	118.218090701528	1.09909057617188	1.09954833984375	1.01165771484375E-06	1.11236647626356E-06	1086877.875	5.6478260376025E-05
2	548	118.318798701274	1.08901977539063	1.0894775390625	9.9853515625E-07	1.08788162833662E-06	1091075.75	5.65794834983535E-05
2	549	118.419506701019	1.07894897460938	1.0784912109375	9.85107421875001E-07	1.06242964648118E-06	1094795.625	5.6679367844481E-05
2	550	118.520214700765	1.06887817382813	1.06903076171875	9.7076416015625E-07	1.03777676940808E-06	1101226	5.67778515687678E-05
2	551	118.620922700511	1.05880737304688	1.05865478515625	9.5489501953125E-07	1.01090415682847E-06	1108661	5.6874818255892E-05
2	552	118.721630700257	1.04873657226563	1.04888916015625	9.3658447265625E-07	9.82373308033857E-07	1119908.75	5.69700605410617E-05
2	553	118.822338700002	1.03866577148438	1.038818359375	9.1705322265625E-07	9.52651646457525E-07	1132778.75	5.70634001633152E-05
2	554	118.923046699748	1.02859497070313	1.02813720703125	8.953857421875E-07	9.20579338981042E-07	1148261.75	5.71546624996699E-05
2	555	119.023754699494	1.01852416992188	1.01837158203125	8.7249755859375E-07	8.88526699327485E-07	1167191.375	5.72436838410795E-05
2	556	119.12446269924	1.00845336914063	1.00860595703125	8.48388671875E-07	8.55689847867325E-07	1188849	5.73303368582856E-05
2	557	119.225170698985	0.998382568359375	0.9979248046875	8.24584960937499E-07	8.22873801098467E-07	1210214.625	5.74145778955426E-05
2	558	119.325878698731	0.988311767578125	0.98846435546875	8.0230712890625E-07	7.93051981418103E-07	1232027.375	5.74964979023207E-05
2	559	119.426586698477	0.978240966796875	0.97808837890625	7.82470703125E-07	7.65325467000366E-07	1250000	5.75762969674543E-05
2	560	119.527294698223	0.968170166015625	0.968017578125	7.62939453125E-07	7.38538744826656E-07	1268800.125	5.76541133341379E-05
2	561	119.628002697968	0.958099365234375	0.958251953125	7.45544433593751E-07	7.14419400082988E-07	1285305	5.773007433163E-05
2	562	119.728710697714	0.948028564453125	0.94818115234375	7.2662353515625E-07	6.88970715145842E-07	1304914	5.78042017878033E-05
2	563	119.82941869746	0.937957763671875	0.93780517578125	7.0465087890625E-07	6.60825207887683E-07	1330879.25	5.78762737859506E-05
2	564	119.930126697206	0.927886962890625	0.927734375	6.77490234375E-07	6.28530983703968E-07	1369369.375	5.79458683205303E-05
2	565	120.030834696951	0.917816162109375	0.91796875	6.4208984375E-07	5.89418391427898E-07	1429657.75	5.80123160034418E-05
2	566	120.131542696697	0.907745361328125	0.908203125	5.950927734375E-07	5.40465123322065E-07	1526153.875	5.80746127525344E-05
2	567	120.232250696443	0.897674560546875	0.89813232421875	5.322265625E-07	4.78009837934223E-07	1687500.125	5.81313761358615E-05
2	568	120.332958696188	0.887603759765625	0.88775634765625	4.5013427734375E-07	3.99609575651994E-07	1972203.375	5.81808417337015E-05
2	569	120.433666695934	0.877532958984375	0.877685546875	3.448486328125E-07	3.02668638596515E-07	2545132.75	5.82208740524948E-05
2	570	120.53437469568	0.867462158203125	0.8673095703125	2.1636962890625E-07	1.8765945242194E-07	4008462.75	5.82491338718683E-05
2	571	120.635082695426	0.857391357421875	0.8575439453125	6.7138671875E-08	5.75743612785118E-08	12772727	5.82634093007073E-05
2	572	120.735790695171	0.847320556640625	0.84716796875	-9.52148437499995E-08	-8.06629643079759E-08	-8897436	5.82619941269513E-05
2	573	120.836498694917	0.837249755859375	0.83709716796875	-2.55737304687501E-07	-2.14076962379295E-07	-3273269.75	5.82443244638853E-05
2	574	120.937206694663	0.827178955078125	0.82763671875	-4.00390624999999E-07	-3.31377975726355E-07	-2067073.25	5.82112843403593E-05
2	575	121.037914694409	0.817108154296875	0.81756591796875	-5.16662597656251E-07	-4.22405719291419E-07	-1582398.25	5.81651074753609E-05
2	576	121.138622694154	0.807037353515625	0.80718994140625	-5.9539794921875E-07	-4.8059922619359E-07	-1355715.125	5.81091117055621E-05
2	577	121.2393306939	0.796966552734375	0.79681396484375	-6.365966796875E-07	-5.07249126258102E-07	-1251677.875	5.80470732529648E-05
2	578	121.340038693646	0.786895751953125	0.7867431640625	-6.4666748046875E-07	-5.08761218043219E-07	-1216611.625	5.7982459111372E-05
2	579	121.440746693392	0.776824951171875	0.7769775390625	-6.32324218749999E-07	-4.91301705096703E-07	-1228764.5	5.79180559725501E-05
2	580	121.541454693137	0.766754150390625	0.7672119140625	-6.0394287109375E-07	-4.63352137103357E-07	-1270338.625	5.78558028792031E-05
2	581	121.642162692883	0.756683349609375	0.7568359375	-5.6884765625E-07	-4.30524352168504E-07	-1330472.125	5.77967475692276E-05
2	582	121.742870692629	0.746612548828125	0.7464599609375	-5.3253173828125E-07	-3.97513616690048E-07	-1401719.25	5.77412902202923E-05
2	583	121.843578692375	0.736541748046875	0.7364501953125	-4.98352050781251E-07	-3.67011466551048E-07	-1477771	5.76893799006939E-05
2	584	121.94428669212	0.726470947265625	0.7264404296875	-4.6844482421875E-07	-3.40297248158095E-07	-1550749.125	5.76407001062762E-05
2	585	122.044994691866	0.716400146484375	0.716339111328125	-4.443359375E-07	-3.18295207080155E-07	-1612156.625	5.75947378820274E-05
2	586	122.145702691612	0.706329345703125	0.706298828125	-4.25109863281251E-07	-3.00254583862625E-07	-1661450.125	5.75509584450629E-05
2	587	122.246410691357	0.696258544921875	0.696197509765625	-4.1351318359375E-07	-2.87886848582275E-07	-1683616.375	5.75087287870701E-05
2	588	122.347118691103	0.686187744140625	0.686126708984375	-4.071044921875E-07	-2.79325263363717E-07	-1685382.25	5.74674086237792E-05
2	589	122.447826690849	0.676116943359375	0.6761474609375	-4.06799316406251E-07	-2.7505632260727E-07	-1662115.625	5.74264231545385E-05
2	590	122.548534690595	0.666046142578125	0.665924072265625	-4.08325195312501E-07	-2.71913563665294E-07	-1630867	5.73853794776369E-05
2	591	122.64924269034	0.655975341796875	0.65594482421875	-4.09545898437499E-07	-2.68639496425749E-07	-1601639.375	5.73441975575406E-05
2	592	122.749950690086	0.645904541015625	0.645843505859375	-4.071044921875E-07	-2.62925794913826E-07	-1586431.75	5.73030738451052E-05
2	593	122.850658689832	0.635833740234375	0.635772705078125	-4.00390624999999E-07	-2.54557420475976E-07	-1587881.125	5.72624157939572E-05
2	594	122.951366689578	0.625762939453125	0.625701904296875	-3.875732421875E-07	-2.42505308278851E-07	-1614409.5	5.72227363591082E-05
2	595	123.052074689323	0.615692138671875	0.61566162109375	-3.704833984375E-07	-2.28092403631308E-07	-1661779.375	5.71845666854642E-05
2	596	123.152782689069	0.605621337890625	0.605560302734375	-3.50036621093749E-07	-2.11968270491525E-07	-1729991.375	5.71482851228211E-05
2	597	123.253490688815	0.595550537109375	0.5955810546875	-3.27148437499999E-07	-1.94843408962697E-07	-1820522.5	5.71141863474622E-05
2	598	123.354198688561	0.585479736328125	0.585418701171875	-3.02734374999999E-07	-1.77226368691663E-07	-1933770.125	5.7082470448222E-05
2	599	123.454906688306	0.575408935546875	0.575347900390625	-2.7618408203125E-07	-1.58901926283761E-07	-2083204.5	5.70533193240408E-05
2	600	123.555614688052	0.565338134765625	0.565338134765625	-2.490234375E-07	-1.40782447033416E-07	-2270220.75	5.70268712181132E-05
2	601	123.656322687798	0.555267333984375	0.55523681640625	-2.2430419921875E-07	-1.2454194120437E-07	-2475374.25	5.7003038818948E-05
2	602	123.757030687544	0.545196533203125	0.545135498046875	-2.03552246093749E-07	-1.10963554789123E-07	-2678111	5.69814947084524E-05
2	603	123.857738687289	0.535125732421875	0.53509521484375	-1.861572265625E-07	-9.96118387774914E-08	-2874426.25	5.69618714507669E-05
2	604	123.958446687035	0.525054931640625	0.525054931640625	-1.70288085937501E-07	-8.94105909310383E-08	-3083333.5	5.69439216633327E-05
2	605	124.059154686781	0.514984130859375	0.514984130859375	-1.556396484375E-07	-8.01519419724173E-08	-3308823.75	5.69275107409339E-05
2	606	124.159862686526	0.504913330078125	0.5048828125	-1.42517089843749E-07	-7.19544246408077E-08	-3542612.75	5.69124968023971E-05
2	607	124.260570686272	0.494842529296875	0.494842529296875	-1.2939453125E-07	-6.40299120391319E-08	-3824292.75	5.68988034501672E-05
2	608	124.361278686018	0.484771728515625	0.484771728515625	-1.18408203125001E-07	-5.74009497711359E-08	-4094072.25	5.68863251828589E-05
2	609	124.461986685764	0.474700927734375	0.47467041015625	-1.080322265625E-07	-5.12797022622635E-08	-4393785.5	5.68749237572774E-05
2	610	124.562694685509	0.464630126953125	0.464630126953125	-9.88769531250003E-08	-4.59412099473866E-08	-4699074	5.68645045859739E-05
2	611	124.663402685255	0.454559326171875	0.454620361328125	-9.03320312499997E-08	-4.10667801986619E-08	-5032770.5	5.68549767194781E-05
2	612	124.764110685001	0.444488525390625	0.444549560546875	-8.27026367187497E-08	-3.67654209298962E-08	-5375277	5.68462637602352E-05
2	613	124.864818684747	0.434417724609375	0.434417724609375	-7.59887695312503E-08	-3.3010866928862E-08	-5716868	5.68382747587748E-05
2	614	124.965526684492	0.424346923828125	0.424346923828125	-6.92749023437495E-08	-2.93965918274353E-08	-6125550.5	5.68309587833937E-05
2	615	125.066234684238	0.414276123046875	0.414306640625	-6.37817382812503E-08	-2.6425196253399E-08	-6495694	5.68242612644099E-05
2	616	125.166942683984	0.404205322265625	0.40423583984375	-5.88989257812506E-08	-2.38090560600313E-08	-6863213	5.68180839763954E-05
2	617	125.26765068373	0.394134521484375	0.39410400390625	-5.37109374999997E-08	-2.11676951522577E-08	-7337500.5	5.68124123674352E-05
2	618	125.368358683475	0.384063720703125	0.384033203125	-4.97436523437506E-08	-1.91032132335067E-08	-7720245.5	5.68072027817834E-05
2	619	125.469066683221	0.373992919921875	0.3740234375	-4.54711914062503E-08	-1.70072897986984E-08	-8225503.5	5.68024079257157E-05
2	620	125.569774682967	0.363922119140625	0.363922119140625	-4.15039062499997E-08	-1.51041898988069E-08	-8768382	5.67980277992319E-05
2	621	125.670482682713	0.353851318359375	0.3538818359375	-3.72314453124994E-08	-1.31755317767102E-08	-9504918	5.6794066040311E-05
2	622	125.771190682458	0.343780517578125	0.343780517578125	-3.38745117187497E-08	-1.16453966469976E-08	-10148649	5.6790482631186E-05
2	623	125.871898682204	0.333709716796875	0.333709716796875	-3.02124023437503E-08	-1.00821715420807E-08	-11045455	5.67872557439841E-05
2	624	125.97260668195	0.323638916015625	0.323638916015625	-2.71606445312503E-08	-8.7902414236396E-09	-11915731	5.67843671888113E-05
2	625	126.073314681695	0.313568115234375	0.3135986328125	-2.44140625E-08	-7.6562161055449E-09	-12845000	5.6781769671943E-05
2	626	126.174022681441	0.303497314453125	0.30352783203125	-2.16674804687497E-08	-6.57668319803406E-09	-14008451	5.67794486414641E-05
2	627	126.274730681187	0.293426513671875	0.293426513671875	-1.95312500000003E-08	-5.73098635214819E-09	-15023438	5.67773749935441E-05
2	628	126.375438680933	0.283355712890625	0.283355712890625	-1.77001953125006E-08	-5.01545160958017E-09	-16008621	5.67755014344584E-05
2	629	126.476146680678	0.273284912109375	0.273284912109375	-1.64794921875003E-08	-4.50359660675304E-09	-16583334	5.67737806704827E-05
2	630	126.576854680424	0.263214111328125	0.26318359375	-1.52587890625E-08	-4.01586275344812E-09	-17248002	5.67721835977864E-05
2	631	126.67756268017	0.253143310546875	0.25311279296875	-1.49536132812503E-08	-3.78495101927001E-09	-16926530	5.67706592846662E-05
2	632	126.778270679916	0.243072509765625	0.243072509765625	-1.46484375000006E-08	-3.56063245554594E-09	-16593750	5.67691713513341E-05
2	633	126.878978679661	0.233001708984375	0.2330322265625	-1.43432617187494E-08	-3.3424421008732E-09	-16246809	5.67677088838536E-05
2	634	126.979686679407	0.222930908203125	0.222930908203125	-1.55639648437497E-08	-3.46968875852838E-09	-14323530	5.67662027606275E-05
2	635	127.080394679153	0.212860107421875	0.212890625	-1.678466796875E-08	-3.57329854594468E-09	-12683636	5.67645765841007E-05
2	636	127.181102678899	0.202789306640625	0.202789306640625	-1.80053710937503E-08	-3.65129682045051E-09	-11262712	5.67628230783157E-05
2	637	127.281810678644	0.192718505859375	0.1927490234375	-2.04467773437494E-08	-3.94109633816697E-09	-9426866	5.67608876735903E-05
2	638	127.38251867839	0.182647705078125	0.182647705078125	-2.31933593749997E-08	-4.23621360212678E-09	-7875000.5	5.67586903343908E-05
2	639	127.483226678136	0.172576904296875	0.172576904296875	-2.77709960937497E-08	-4.79263251307316E-09	-6214285.5	5.6756121921353E-05
2	640	127.583934677882	0.162506103515625	0.162506103515625	-3.32641601562503E-08	-5.40562883344364E-09	-4885321.5	5.67530514672399E-05
2	641	127.684642677627	0.152435302734375	0.152496337890625	-4.119873046875E-08	-6.28265528490601E-09	-3701481.75	5.67493007110897E-05
2	642	127.785350677373	0.142364501953125	0.1424560546875	-5.12695312500006E-08	-7.30365501411256E-09	-2778571.5	5.67446440982167E-05
2	643	127.886058677119	0.132293701171875	0.13238525390625	-6.53076171875003E-08	-8.64576588099908E-09	-2027102.75	5.67387760384008E-05
2	644	127.986766676864	0.122222900390625	0.1221923828125	-8.36181640625003E-08	-1.0217502399712E-08	-1461313.875	5.67312745261006E-05
2	645	128.08747467661	0.112152099609375	0.11224365234375	-1.09252929687501E-07	-1.22629479903935E-08	-1027374.3125	5.67215647606645E-05
2	646	128.188182676356	0.102081298828125	0.10211181640625	-1.45263671875E-07	-1.48331373850397E-08	-702941.1875	5.67087481613271E-05
2	647	128.288890676102	0.092010498046875	0.092010498046875	-1.94396972656249E-07	-1.78865615652057E-08	-473312.4375	5.6691646022955E-05
2	648	128.389598675847	0.081939697265625	0.082000732421875	-2.61535644531249E-07	-2.14461142178379E-08	-313535.59375	5.66686867387034E-05
2	649	128.490306675593	0.071868896484375	0.071929931640625	-3.53088378906249E-07	-2.53976235597975E-08	-203716.5	5.66377384529915E-05
2	650	128.591014675339	0.061798095703125	0.061859130859375	-4.7332763671875E-07	-2.92796347167723E-08	-130689.8828125	5.65961236134171E-05
2	651	128.691722675085	0.051727294921875	0.051788330078125	-6.2835693359375E-07	-3.25415570046061E-08	-82418.6484375	5.65406517125666E-05
2	652	128.79243067483	0.041656494140625	0.0417327880859375	-8.1787109375E-07	-3.41320394170452E-08	-51026.12109375	5.64678266528063E-05
2	653	128.893138674576	0.031585693359375	0.0317047119140625	-1.03790283203125E-06	-3.29064100412779E-08	-30546.8984375	5.63743815291673E-05
2	654	128.993846674322	0.021514892578125	0.02159423828125	-1.2738037109375E-06	-2.75068199329098E-08	-16952.5625	5.62579771212768E-05
2	655	129.094554674068	0.011444091796875	0.011529541015625	-1.50634765625E-06	-1.73674958858783E-08	-7653.970703125	5.61179840588011E-05
2	656	129.195262673813	0.001373291015625	0.001422119140625	-1.71234130859375E-06	-2.4351531902056E-09	-830.511474609375	5.59559121029451E-05
2	657	129.295970673559	-0.008697509765625	-0.00859680175781249	-1.871337890625E-06	1.60875206489663E-08	4593.93359375	5.5775457440177E-05
2	658	129.396678673305	-0.018768310546875	-0.01866455078125	-1.97113037109375E-06	3.67902615039384E-08	9468.9580078125	5.55819751753006E-05
2	659	129.497386673051	-0.028839111328125	-0.0287078857421875	-2.0123291015625E-06	5.7769714345568E-08	14266	5.53813915757928E-05
2	660	129.598094672796	-0.038909912109375	-0.0388092041015625	-2.00439453125E-06	7.77889468395188E-08	19362.05859375	5.51791345060337E-05
2	661	129.698802672542	-0.048980712890625	-0.0488616943359375	-1.9622802734375E-06	9.58803383355189E-08	24900.466796875	5.49793949176092E-05
2	662	129.799510672288	-0.059051513671875	-0.058990478515625	-1.9000244140625E-06	1.12083348824399E-07	31047.22265625	5.47849122085609E-05
2	663	129.900218672033	-0.069122314453125	-0.069091796875	-1.82861328125E-06	1.26342172279692E-07	37783.7109375	5.45971633982845E-05
2	664	130.000926671779	-0.079193115234375	-0.079132080078125	-1.756591796875E-06	1.39002750643158E-07	45048.6484375	5.44166323379613E-05
2	665	130.101634671525	-0.089263916015625	-0.0892333984375	-1.68792724609375E-06	1.50619484884373E-07	52865.66796875	5.42431880603544E-05
2	666	130.202342671271	-0.099334716796875	-0.0992431640625	-1.62628173828125E-06	1.61397338160896E-07	61024.5859375	5.40763030585367E-05
2	667	130.303050671016	-0.109405517578125	-0.109283447265625	-1.57135009765625E-06	1.71722547293029E-07	69547.484375	5.39152897545137E-05
2	668	130.403758670762	-0.119476318359375	-0.11932373046875	-1.5240478515625E-06	1.8185507144608E-07	78293.953125	5.37594241905026E-05
2	669	130.504466670508	-0.129547119140625	-0.1295166015625	-1.483154296875E-06	1.92093096984536E-07	87325.1015625	5.3608000598615E-05
2	670	130.605174670254	-0.139617919921875	-0.139556884765625	-1.44775390625E-06	2.02044020625181E-07	96395.4453125	5.34604150743689E-05
2	671	130.705882669999	-0.149688720703125	-0.14959716796875	-1.41815185546875E-06	2.12151491041368E-07	105487.4140625	5.3316107369028E-05
2	672	130.806590669745	-0.159759521484375	-0.159576416015625	-1.39404296875E-06	2.22456364440404E-07	114470.234375	5.31745026819408E-05
2	673	130.907298669491	-0.169830322265625	-0.16973876953125	-1.37420654296875E-06	2.33256116644043E-07	123517.6640625	5.30351098859683E-05
2	674	131.008006669237	-0.179901123046875	-0.17974853515625	-1.358642578125E-06	2.44213993028097E-07	132300.09375	5.28974996996112E-05
2	675	131.108714668982	-0.189971923828125	-0.189788818359375	-1.34613037109375E-06	2.55480500754857E-07	140988.4375	5.27613046870101E-05
2	676	131.209422668728	-0.200042724609375	-0.199920654296875	-1.33697509765625E-06	2.67288925215325E-07	149532.078125	5.26261974300724E-05
2	677	131.310130668474	-0.189971923828125	-0.18988037109375	-1.17462158203125E-06	2.23037559976547E-07	161652.390625	5.24997303728014E-05
