Potential - Start -0.2 V, Upper Vertex 1.5 V, Lower Vertex -0.2 V, Stop -0.19 V; Scan - # end cross 5, Rate 0.1 Vps, Step 0.01 V 
Scan	Index	Time (s)	Potential applied (V)	WE(1).Potential (V)	WE(1).Current (A)	WE(1).Power (W)	WE(1).Resistance (Ω)	WE(1).Charge (C)
1	1	58.2454318529444	-0.189971923828125	-0.1898193359375	-2.20642089843751E-07	4.18821315406603E-08	860304.3125	0
1	2	58.3461398526902	-0.179901123046875	-0.179718017578125	-1.84326171875E-07	3.31267351327824E-08	975000	-2.03917718266666E-08
1	3	58.4468478524359	-0.169830322265625	-0.169677734375	-1.5594482421875E-07	2.64603627897486E-08	1088062.625	-3.75257762641468E-08
1	4	58.5475558521816	-0.159759521484375	-0.15960693359375	-1.32141113281251E-07	2.10906367925645E-08	1207852.25	-5.20320568853094E-08
1	5	58.6482638519274	-0.149688720703125	-0.149566650390625	-1.0955810546875E-07	1.63862381441504E-08	1365181.125	-6.42025739239216E-08
1	6	58.7489718516731	-0.139617919921875	-0.1395263671875	-8.88061523437497E-08	1.23908003857309E-08	1571134	-7.41910142210145E-08
1	7	58.8496798514188	-0.129547119140625	-0.12939453125	-6.92749023437495E-08	8.96379415138426E-09	1867841.375	-8.21510255377689E-08
1	8	58.9503878511646	-0.119476318359375	-0.119476318359375	-4.8828125E-08	5.83380455054794E-09	2446875	-8.80979840189866E-08
1	9	59.0510958509103	-0.109405517578125	-0.1092529296875	-2.68554687500006E-08	2.93403856765906E-09	4068181.75	-9.19089586659538E-08
1	10	59.1518038506561	-0.099334716796875	-0.0992431640625	-2.44140625000056E-09	2.42292880203721E-10	40650000	-9.33841732830842E-08
1	11	59.2525118504018	-0.089263916015625	-0.089202880859375	2.80761718749994E-08	-2.50447529381859E-09	-3177174	-9.20933587167383E-08
1	12	59.3532198501475	-0.079193115234375	-0.07916259765625	6.40869140625E-08	-5.07328623555736E-09	-1235238.125	-8.74525767358136E-08
1	13	59.4539278498933	-0.069122314453125	-0.069061279296875	1.116943359375E-07	-7.71375319175149E-09	-618306	-7.86012890330312E-08
1	14	59.554635849639	-0.059051513671875	-0.058990478515625	1.7425537109375E-07	-1.02794075473867E-08	-338528.90625	-6.42025810293489E-08
1	15	59.6553438493847	-0.048980712890625	-0.048858642578125	2.5665283203125E-07	-1.25397097150426E-08	-190368.609375	-4.25046273733187E-08
1	16	59.7560518491305	-0.038909912109375	-0.038775634765625	3.6590576171875E-07	-1.41882274817817E-08	-105971.6484375	-1.11563114302271E-08
1	17	59.8567598488762	-0.028839111328125	-0.0287353515625	5.06591796875E-07	-1.45570924203753E-08	-56722.890625	3.27774287711691E-08
1	18	59.9574678486219	-0.018768310546875	-0.01864013671875	6.82373046875E-07	-1.2719525877003E-08	-27316.63671875	9.2646565974519E-08
1	19	60.0581758483677	-0.008697509765625	-0.00853271484375	8.8836669921875E-07	-7.58018003921279E-09	-9604.947265625	1.71739586107833E-07
1	20	60.1588838481134	0.001373291015625	0.0014678955078125	1.116943359375E-06	1.63955593546206E-09	1314.20764160156	2.72714970606103E-07
1	21	60.2595918478592	0.011444091796875	0.0115447998046875	1.34796142578125E-06	1.55619446218225E-08	8564.63671875	3.96832774640643E-07
1	22	60.3602998476049	0.021514892578125	0.0215850830078125	1.55853271484375E-06	3.3641054386635E-08	13849.619140625	5.43186388313188E-07
1	23	60.4610078473506	0.031585693359375	0.031640625	1.7279052734375E-06	5.46720038130388E-08	18311.552734375	7.08671677784878E-07
1	24	60.5617158470964	0.041656494140625	0.04178466796875	1.84295654296875E-06	7.70073214084732E-08	22672.626953125	8.88478837168805E-07
1	25	60.6624238468421	0.051727294921875	0.0517578125	1.9000244140625E-06	9.8341104148858E-08	27240.60546875	1.07695291262644E-06
1	26	60.7631318465878	0.061798095703125	0.061859130859375	1.90673828125E-06	1.1794917043062E-07	32442.3828125	1.26863858440629E-06
1	27	60.8638398463336	0.071868896484375	0.0718994140625	1.87713623046875E-06	1.34964992071218E-07	38302.71875	1.45917181271216E-06
1	28	60.9645478460793	0.081939697265625	0.081939697265625	1.824951171875E-06	1.49535949844903E-07	44899.66796875	1.64558673532156E-06
1	29	61.065255845825	0.092010498046875	0.092041015625	1.76025390625E-06	1.62015552973571E-07	52288.48828125	1.82611620402895E-06
1	30	61.1659638455708	0.102081298828125	0.1021728515625	1.69281005859375E-06	1.72959218502911E-07	60356.953125	1.99999180949817E-06
1	31	61.2666718453165	0.112152099609375	0.112152099609375	1.62628173828125E-06	1.82390905933971E-07	68962.28125	2.16712123801699E-06
1	32	61.3673798450623	0.122222900390625	0.122314453125	1.5643310546875E-06	1.91340291166853E-07	78189.625	2.3277814307221E-06
1	33	61.468087844808	0.132293701171875	0.132354736328125	1.50787353515625E-06	1.99574202497388E-07	87775.75	2.48247920353606E-06
1	34	61.5687958445537	0.142364501953125	0.1424560546875	1.45660400390625E-06	2.07502054649922E-07	97800.125	2.63175252257497E-06
1	35	61.6695038442995	0.152435302734375	0.152496337890625	1.4105224609375E-06	2.15099490219473E-07	108113.375	2.77612366517133E-06
1	36	61.7702118440452	0.162506103515625	0.16253662109375	1.36993408203125E-06	2.22664439775144E-07	118645.5859375	2.9161308248149E-06
1	37	61.8709198437909	0.172576904296875	0.172607421875	1.3336181640625E-06	2.30192384265138E-07	129427.921875	3.052265583392E-06
1	38	61.9716278435367	0.182647705078125	0.1826171875	1.30096435546875E-06	2.37578447581654E-07	140370.640625	3.1849272090767E-06
1	39	62.0723358432824	0.192718505859375	0.1927490234375	1.27166748046875E-06	2.45112659058577E-07	151571.875	3.314469495308E-06
1	40	62.1730438430282	0.202789306640625	0.202880859375	1.24542236328125E-06	2.52672350598004E-07	162901.25	3.44121508533135E-06
1	41	62.2737518427739	0.212860107421875	0.212921142578125	1.22161865234375E-06	2.60108436123119E-07	174294.28125	3.56544046553608E-06
1	42	62.3744598425196	0.222930908203125	0.222930908203125	1.199951171875E-06	2.67506209183921E-07	185783.3125	3.68737619282911E-06
1	43	62.4751678422654	0.233001708984375	0.233001708984375	1.180419921875E-06	2.750398380158E-07	197388.84375	3.80723736270738E-06
1	44	62.5758758420111	0.243072509765625	0.243133544921875	1.16363525390625E-06	2.8291876219555E-07	208943.09375	3.92526999348775E-06
1	45	62.6765838417568	0.253143310546875	0.253204345703125	1.14715576171875E-06	2.9046483973616E-07	220723.59375	4.04162756240112E-06
1	46	62.7772918415026	0.263214111328125	0.26318359375	1.13250732421875E-06	2.98057358349979E-07	232390.1875	4.15641761719598E-06
1	47	62.8779998412483	0.273284912109375	0.2733154296875	1.11907958984375E-06	3.05861703964183E-07	244232.34375	4.2697943172243E-06
1	48	62.978707840994	0.283355712890625	0.2833251953125	1.10687255859375E-06	3.13604886059693E-07	255969.125	4.38187953477609E-06
1	49	63.0794158407398	0.293426513671875	0.293426513671875	1.09588623046875E-06	3.21562055205504E-07	267752.71875	4.49279741587816E-06
1	50	63.1801238404855	0.303497314453125	0.303436279296875	1.0858154296875E-06	3.29475767557597E-07	279454.75	4.60265482615796E-06
1	51	63.2808318402313	0.313568115234375	0.313568115234375	1.07666015625E-06	3.37606309130933E-07	291241.5	4.71154407932772E-06
1	52	63.381539839977	0.323638916015625	0.323699951171875	1.06842041015625E-06	3.4584761010592E-07	302970.59375	4.81955748909968E-06
1	53	63.4822478397227	0.333709716796875	0.33380126953125	1.0614013671875E-06	3.54297128524195E-07	314491.09375	4.92680237584864E-06
1	54	63.5829558394685	0.343780517578125	0.34381103515625	1.05499267578125E-06	3.62718083124491E-07	325889.53125	5.03337150803418E-06
1	55	63.6836638392142	0.353851318359375	0.353851318359375	1.04949951171875E-06	3.71366780882454E-07	337161.96875	5.1393408284639E-06
1	56	63.7843718389599	0.363922119140625	0.363922119140625	1.044921875E-06	3.80270194000332E-07	348276.875	5.24480356034474E-06
1	57	63.8850798387057	0.373992919921875	0.3740234375	1.04095458984375E-06	3.89341408890687E-07	359308.125	5.34983564648428E-06
1	58	63.9857878384514	0.384063720703125	0.384063720703125	1.0382080078125E-06	3.9873802393231E-07	369929.46875	5.45452985534212E-06
1	59	64.0864958381972	0.394134521484375	0.3941650390625	1.036376953125E-06	4.0850355276234E-07	380329.8125	5.55899350729305E-06
1	60	64.1872038379429	0.404205322265625	0.40423583984375	1.03515625E-06	4.1844722886708E-07	390507.09375	5.66330345463939E-06
1	61	64.2879118376886	0.414276123046875	0.414306640625	1.03363037109375E-06	4.28239928851326E-07	400826.6875	5.76747515879106E-06
1	62	64.3886198374344	0.424346923828125	0.42431640625	1.03302001953125E-06	4.38327333540656E-07	410753.34375	5.87153954256792E-06
1	63	64.4893278371801	0.434417724609375	0.43438720703125	1.03302001953125E-06	4.48730673952014E-07	420502.21875	5.97557254877756E-06
1	64	64.5900358369258	0.444488525390625	0.444549560546875	1.03271484375E-06	4.59092944993245E-07	430466.90625	6.07959054832463E-06
1	65	64.6907438366716	0.454559326171875	0.454620361328125	1.03363037109375E-06	4.69909423372883E-07	439828.75	6.18363947069156E-06
1	66	64.7914518364173	0.464630126953125	0.464599609375	1.03485107421875E-06	4.80791413792758E-07	448953.125	6.2877957134333E-06
1	67	64.892159836163	0.474700927734375	0.47467041015625	1.03668212890625E-06	4.92082335767918E-07	457874.625	6.39210566077963E-06
1	68	64.9928678359088	0.484771728515625	0.4847412109375	1.0400390625E-06	5.04149795688136E-07	466079.84375	6.49667708785273E-06
1	69	65.0935758356545	0.494842529296875	0.494842529296875	1.0430908203125E-06	5.16165698627447E-07	474400.21875	6.60157093079761E-06
1	70	65.1942838354003	0.504913330078125	0.504913330078125	1.04766845703125E-06	5.28981729530642E-07	481940	6.70684903525398E-06
1	71	65.294991835146	0.514984130859375	0.514984130859375	1.05377197265625E-06	5.4267582072498E-07	488705.5	6.81266510582645E-06
1	72	65.3956998348917	0.525054931640625	0.525054931640625	1.06109619140625E-06	5.5713377378197E-07	494823.125	6.91915693096234E-06
1	73	65.4964078346375	0.535125732421875	0.535186767578125	1.0711669921875E-06	5.73274348880659E-07	499629.65625	7.02652505424339E-06
1	74	65.5971158343832	0.545196533203125	0.545196533203125	1.08367919921875E-06	5.90818160617346E-07	503097.71875	7.13503004590166E-06
1	75	65.6978238341289	0.555267333984375	0.55523681640625	1.10107421875E-06	6.11356938406971E-07	504268.3125	7.24504116078606E-06
1	76	65.7985318338747	0.565338134765625	0.56536865234375	1.12335205078125E-06	6.35108051483257E-07	503287.15625	7.3570499807829E-06
1	77	65.8992398336204	0.575408935546875	0.57537841796875	1.15447998046875E-06	6.64262870486709E-07	498387.53125	7.47174772186554E-06
1	78	65.9999478333662	0.585479736328125	0.58551025390625	1.197509765625E-06	7.01154249327374E-07	488939.875	7.59017984819366E-06
1	79	66.1006558331119	0.595550537109375	0.59552001953125	1.25885009765625E-06	7.49670391542168E-07	473066.6875	7.71386748965597E-06
1	80	66.2013638328576	0.605621337890625	0.605621337890625	1.343994140625E-06	8.13951487543818E-07	450613.09375	7.84493113314966E-06
1	81	66.3020718326034	0.615692138671875	0.615631103515625	1.461181640625E-06	8.99548808774853E-07	421324.15625	7.98618293629261E-06
1	82	66.4027798323491	0.625762939453125	0.625762939453125	1.6162109375E-06	1.01136481589492E-06	387179.03125	8.14114173408598E-06
1	83	66.5034878320948	0.635833740234375	0.63580322265625	1.81427001953125E-06	1.15351861040836E-06	350445.78125	8.31388024380431E-06
1	84	66.6041958318406	0.645904541015625	0.645904541015625	2.05322265625E-06	1.32618583847943E-06	314580.84375	8.50862397783203E-06
1	85	66.7049038315863	0.655975341796875	0.6558837890625	2.32330322265625E-06	1.52381687712477E-06	282306.59375	8.72900000103982E-06
1	86	66.805611831332	0.666046142578125	0.666015625	2.60833740234375E-06	1.73719342910772E-06	255341.0625	8.9773275249172E-06
1	87	66.9063198310778	0.676116943359375	0.67608642578125	2.8826904296875E-06	1.94894778360322E-06	234533.140625	9.25382300920319E-06
1	88	67.0070278308235	0.686187744140625	0.686187744140625	3.1207275390625E-06	2.14140504795068E-06	219880.6875	9.55611903918907E-06
1	89	67.1077358305693	0.696258544921875	0.696197509765625	3.3013916015625E-06	2.29842044063844E-06	210880.03125	9.87949806585675E-06
1	90	67.208443830315	0.706329345703125	0.706298828125	3.41705322265625E-06	2.41346060647629E-06	206698.21875	1.02177991720964E-05
1	91	67.3091518300607	0.716400146484375	0.716400146484375	3.4716796875E-06	2.48711171479954E-06	206355.5	1.05646740848897E-05
1	92	67.4098598298065	0.726470947265625	0.7264404296875	3.48114013671875E-06	2.52884092333261E-06	208678.890625	1.09147758848849E-05
1	93	67.5105678295522	0.736541748046875	0.736541748046875	3.465576171875E-06	2.55254144576611E-06	212530.828125	1.12645711851656E-05
1	94	67.6112758292979	0.746612548828125	0.7464599609375	3.44635009765625E-06	2.57256238000991E-06	216594.34375	1.16126147986506E-05
1	95	67.7119838290437	0.756683349609375	0.7568359375	3.44085693359375E-06	2.60416413766507E-06	219955.671875	1.19594124043942E-05
1	96	67.8126918287894	0.766754150390625	0.76690673828125	3.4674072265625E-06	2.65917788055958E-06	221175.859375	1.23072713904548E-05
1	97	67.9133998285351	0.776824951171875	0.7769775390625	3.53973388671875E-06	2.7502937882673E-06	219501.6875	1.26601089505129E-05
1	98	68.0141078282809	0.786895751953125	0.787353515625	3.67279052734375E-06	2.89178433376946E-06	214374.75	1.30232883748249E-05
1	99	68.1148158280266	0.796966552734375	0.797119140625	3.8751220703125E-06	3.08893368128338E-06	205701.703125	1.34033562062541E-05
1	100	68.2155238277724	0.807037353515625	0.8074951171875	4.15008544921875E-06	3.3511735182401E-06	194573.140625	1.38074574351776E-05
1	101	68.3162318275181	0.817108154296875	0.8172607421875	4.48760986328125E-06	3.66754716196738E-06	182114.9375	1.42423996294383E-05
1	102	68.4169398272638	0.827178955078125	0.8270263671875	4.87213134765625E-06	4.02938121624175E-06	169746.328125	1.47137006933917E-05
1	103	68.5176478270096	0.837249755859375	0.83740234375	5.267333984375E-06	4.41087786384742E-06	158980.296875	1.52242628246313E-05
1	104	68.6183558267553	0.847320556640625	0.84716796875	5.6396484375E-06	4.77772937301779E-06	150216.453125	1.57734739332227E-05
1	105	68.719063826501	0.857391357421875	0.85784912109375	5.950927734375E-06	5.1049978537776E-06	144153.84375	1.63571057782974E-05
1	106	68.8197718262468	0.867462158203125	0.8673095703125	6.170654296875E-06	5.35186745764804E-06	140553.90625	1.69674749486148E-05
1	107	68.9204798259925	0.877532958984375	0.8770751953125	6.28662109375E-06	5.51383936908678E-06	139514.5625	1.75947479874594E-05
1	108	69.0211878257383	0.887603759765625	0.8880615234375	6.304931640625E-06	5.59916725251242E-06	140851.890625	1.82287840289064E-05
1	109	69.121895825484	0.897674560546875	0.8978271484375	6.243896484375E-06	5.60593935006182E-06	143792.765625	1.88606682058889E-05
1	110	69.2226038252297	0.907745361328125	0.90789794921875	6.1370849609375E-06	5.57184648641851E-06	147936.359375	1.94840995391132E-05
1	111	69.3233118249755	0.917816162109375	0.91796875	6.0089111328125E-06	5.51599259779323E-06	152767.90625	2.00956983462675E-05
1	112	69.4240198247212	0.927886962890625	0.92742919921875	5.8868408203125E-06	5.4596280278929E-06	157542.765625	2.06946970138233E-05
1	113	69.5247278244669	0.937957763671875	0.93780517578125	5.7861328125E-06	5.42626503374777E-06	162078.0625	2.12824779737275E-05
1	114	69.6254358242127	0.948028564453125	0.94818115234375	5.718994140625E-06	5.42264251635061E-06	165795.09375	2.18618079088628E-05
1	115	69.7261438239584	0.958099365234375	0.95794677734375	5.694580078125E-06	5.45510465599364E-06	168220.796875	2.24365267058602E-05
1	116	69.8268518237041	0.968170166015625	0.96893310546875	5.718994140625E-06	5.54132247998496E-06	169423.6875	2.30112455028575E-05
1	117	69.9275598234499	0.978240966796875	0.9783935546875	5.7952880859375E-06	5.67007236895734E-06	168825.703125	2.35910356423119E-05
1	118	70.0282678231956	0.988311767578125	0.98846435546875	5.9112548828125E-06	5.84306462769746E-06	167217.34375	2.4180506443372E-05
1	119	70.1289758229414	0.998382568359375	0.99822998046875	6.0516357421875E-06	6.04092383582611E-06	164952.109375	2.4782886612229E-05
1	120	70.2296838226871	1.00845336914063	1.00860595703125	6.1920166015625E-06	6.24530457571382E-06	162888.125	2.53994039667305E-05
1	121	70.3303918224328	1.01852416992188	1.0186767578125	6.3079833984375E-06	6.42579607301741E-06	161490.078125	2.60288288700394E-05
1	122	70.4310998221786	1.02859497070313	1.0284423828125	6.378173828125E-06	6.55958410789026E-06	161244.03125	2.66676270257449E-05
1	123	70.5318078219243	1.03866577148438	1.03851318359375	6.396484375E-06	6.64283334117499E-06	162356.875	2.7310881705489E-05
1	124	70.63251582167	1.04873657226563	1.04888916015625	6.3629150390625E-06	6.67399262965773E-06	164844.125	2.79533687717048E-05
1	125	70.7332238214158	1.05880737304688	1.05865478515625	6.28662109375E-06	6.65536163069191E-06	168398.0625	2.85903242911445E-05
1	126	70.8339318211615	1.06887817382813	1.0687255859375	6.182861328125E-06	6.60778232486336E-06	172852.90625	2.92182121484075E-05
1	127	70.9346398209073	1.07894897460938	1.07879638671875	6.0699462890625E-06	6.54823588774889E-06	177727.5	2.9835189707228E-05
1	128	71.035347820653	1.08901977539063	1.0888671875	5.950927734375E-06	6.47976958134677E-06	182974.359375	3.04404893540777E-05
1	129	71.1360558203987	1.09909057617188	1.0992431640625	5.8349609375E-06	6.41404039924964E-06	188389.140625	3.10339564748574E-05
1	130	71.2367638201445	1.10916137695313	1.1090087890625	5.72509765625E-06	6.34918387731886E-06	193710.015625	3.16160512738861E-05
1	131	71.3374718198902	1.11923217773438	1.11907958984375	5.6243896484375E-06	6.29413943897816E-06	198969.078125	3.21875413646922E-05
1	132	71.4381798196359	1.12930297851563	1.129150390625	5.5328369140625E-06	6.24740505372756E-06	204081.640625	3.27493544318713E-05
1	133	71.5388878193817	1.13937377929688	1.13922119140625	5.450439453125E-06	6.20925584371435E-06	209014.5625	3.3302407246083E-05
1	134	71.6395958191274	1.14944458007813	1.14898681640625	5.3741455078125E-06	6.17482237430522E-06	213798.984375	3.38474674208555E-05
1	135	71.7403038188731	1.15951538085938	1.15936279296875	5.3070068359375E-06	6.15274620940909E-06	218458.890625	3.4385306207696E-05
1	136	71.8410118186189	1.16958618164063	1.16973876953125	5.2459716796875E-06	6.13641623203875E-06	222978.484375	3.49166912201326E-05
1	137	71.9417198183646	1.17965698242188	1.17950439453125	5.1910400390625E-06	6.12285430179327E-06	227219.296875	3.54422372765839E-05
1	138	72.0424278181104	1.18972778320313	1.1895751953125	5.13916015625E-06	6.11341693002032E-06	231472.703125	3.59624027623795E-05
1	139	72.1431358178561	1.19979858398438	1.20025634765625	5.096435546875E-06	6.11702898822841E-06	235508.984375	3.64778061339166E-05
1	140	72.2438438176018	1.20986938476563	1.21002197265625	5.0537109375E-06	6.115101314208E-06	239432.359375	3.69889057765249E-05
1	141	72.3445518173476	1.21994018554688	1.2200927734375	5.01708984375E-06	6.12131498201052E-06	243187.359375	3.7496010918403E-05
1	142	72.4452598170933	1.23001098632813	1.23016357421875	4.986572265625E-06	6.13429938312038E-06	246695.234375	3.79997363779694E-05
1	143	72.545967816839	1.24008178710938	1.23992919921875	4.9542236328125E-06	6.14288637734717E-06	250277.203125	3.85002931579947E-05
1	144	72.6466758165848	1.25015258789063	1.25030517578125	4.92889404296875E-06	6.16262150288094E-06	253668.515625	3.89979504689109E-05
1	145	72.7473838163305	1.26022338867188	1.2603759765625	4.90692138671875E-06	6.18456579104532E-06	256856.78125	3.94932212657295E-05
1	146	72.8480918160762	1.27029418945313	1.27044677734375	4.88861083984375E-06	6.2107201301842E-06	259878.890625	3.99864657083526E-05
1	147	72.948799815822	1.28036499023438	1.2799072265625	4.874267578125E-06	6.23860978521407E-06	262584.53125	4.04780657845549E-05
1	148	73.0495078155677	1.29043579101563	1.29058837890625	4.86328125E-06	6.27649387752172E-06	265374	4.09683889301959E-05
1	149	73.1502158153135	1.30050659179688	1.3006591796875	4.85595703125E-06	6.31594502920052E-06	267848.1875	4.14577916671988E-05
1	150	73.2509238150592	1.31057739257813	1.3104248046875	4.8516845703125E-06	6.3577676883142E-06	270096.875	4.19466123275924E-05
1	151	73.3516318148049	1.32064819335938	1.32080078125	4.85076904296875E-06	6.40689950159867E-06	272286.875	4.24351674155332E-05
1	152	73.4523398145507	1.33071899414063	1.33056640625	4.852294921875E-06	6.45630052531487E-06	274213.84375	4.29237552452832E-05
1	153	73.5530478142964	1.34078979492188	1.3409423828125	4.8565673828125E-06	6.51237678539474E-06	276109.09375	4.34126377513167E-05
1	154	73.6537558140421	1.35086059570313	1.3507080078125	4.864501953125E-06	6.57052169117378E-06	277666.25	4.39021314377896E-05
1	155	73.7544638137879	1.36093139648438	1.36077880859375	4.87518310546875E-06	6.63404580336646E-06	279123.625	4.43925637227949E-05
1	156	73.8551718135336	1.37100219726563	1.370849609375	4.88861083984375E-06	6.70155031912145E-06	280417	4.48842110927217E-05
1	157	73.9558798132794	1.38107299804688	1.3812255859375	4.90509033203125E-06	6.7750356720353E-06	281590.25	4.53773609478958E-05
1	158	74.0565878130251	1.39114379882813	1.3909912109375	4.92401123046875E-06	6.84925635141553E-06	282491.46875	4.58722970506642E-05
1	159	74.1572958127708	1.40121459960938	1.4007568359375	4.9456787109375E-06	6.92769299348583E-06	283228.4375	4.63692740595434E-05
1	160	74.2580038125166	1.41128540039063	1.41143798828125	4.9713134765625E-06	7.01670069247484E-06	283916.5	4.68686339445412E-05
1	161	74.3587118122623	1.42135620117188	1.42181396484375	5.0018310546875E-06	7.11167331246543E-06	284258.6875	4.7370824177051E-05
1	162	74.459419812008	1.43142700195313	1.4312744140625	5.0323486328125E-06	7.20267144060927E-06	284414.8125	4.78760848636739E-05
1	163	74.5601278117538	1.44149780273438	1.44134521484375	5.072021484375E-06	7.31053387426073E-06	284175.6875	4.83848780277185E-05
1	164	74.6608358114995	1.45156860351563	1.4520263671875	5.1177978515625E-06	7.43117698220885E-06	283720.9375	4.88979785586707E-05
1	165	74.7615438112452	1.46163940429688	1.46148681640625	5.1666259765625E-06	7.55095516069559E-06	282870.65625	4.94158375659026E-05
1	166	74.862251810991	1.47171020507813	1.4715576171875	5.2276611328125E-06	7.69280450185761E-06	281494.46875	4.99392335768789E-05
1	167	74.9629598107367	1.48178100585938	1.48193359375	5.2947998046875E-06	7.8465418482665E-06	279884.71875	5.04690797242802E-05
1	168	75.0636678104825	1.49185180664063	1.49200439453125	5.3741455078125E-06	8.01824899099302E-06	277626.34375	5.10063036927022E-05
1	169	75.1643758102282	1.50192260742188	1.50177001953125	5.4656982421875E-06	8.20822151581524E-06	274762.71875	5.15521351189818E-05
1	170	75.2650838099739	1.49185180664063	1.49200439453125	5.181884765625E-06	7.73139436205383E-06	287926.96875	5.2088282245677E-05
1	171	75.3657918097197	1.48178100585938	1.48162841796875	4.9774169921875E-06	7.37468189981882E-06	297670.15625	5.25998439115938E-05
1	172	75.4664998094654	1.47171020507813	1.4715576171875	4.813232421875E-06	7.08294874129933E-06	305731.6875	5.3092840971658E-05
1	173	75.5672078092111	1.46163940429688	1.46148681640625	4.68017578125E-06	6.84001497575082E-06	312271.78125	5.35708750248887E-05
1	174	75.6679158089569	1.45156860351563	1.451416015625	4.56878662109375E-06	6.63120999888633E-06	317680.84375	5.40365945198573E-05
1	175	75.7686238087026	1.44149780273438	1.441650390625	4.47357177734375E-06	6.44932606519433E-06	322259.375	5.44919166713953E-05
1	176	75.8693318084484	1.43142700195313	1.43157958984375	4.3914794921875E-06	6.28675206826301E-06	325990.28125	5.49383039469831E-05
1	177	75.9700398081941	1.42135620117188	1.42181396484375	4.31915283203125E-06	6.1410314629029E-06	329188.1875	5.53769204998389E-05
1	178	76.0707478079398	1.41128540039063	1.41143798828125	4.25506591796875E-06	6.00576186116086E-06	331707.65625	5.58086685487069E-05
1	179	76.1714558076856	1.40121459960938	1.40106201171875	4.19891357421875E-06	5.88293778491789E-06	333672.53125	5.62343593628611E-05
1	180	76.2721638074313	1.39114379882813	1.39068603515625	4.14703369140625E-06	5.76722140976926E-06	335344.78125	5.66546113986988E-05
1	181	76.372871807177	1.38107299804688	1.38092041015625	4.100341796875E-06	5.66224571230123E-06	336781.78125	5.70698975934647E-05
1	182	76.4735798069228	1.37100219726563	1.37054443359375	4.0570068359375E-06	5.56030772713711E-06	337821.59375	5.74806545046158E-05
1	183	76.5742878066685	1.36093139648438	1.36077880859375	4.01702880859375E-06	5.46628780284664E-06	338752.5625	5.78872131882235E-05
1	184	76.6749958064142	1.35086059570313	1.35101318359375	3.97979736328125E-06	5.37675850864616E-06	339467.84375	5.82898865104653E-05
1	185	76.77570380616	1.34078979492188	1.3409423828125	3.9447021484375E-06	5.28961845702725E-06	339935	5.86889145779423E-05
1	186	76.8764118059057	1.33071899414063	1.33087158203125	3.9111328125E-06	5.20521552971331E-06	340277.78125	5.90844902035315E-05
1	187	76.9771198056515	1.32064819335938	1.32110595703125	3.87939453125E-06	5.12509132022387E-06	340544.34375	5.94767734583002E-05
1	188	77.0778278053972	1.31057739257813	1.31103515625	3.84918212890625E-06	5.04641320731025E-06	340600.96875	5.98659389652312E-05
1	189	77.1785358051429	1.30050659179688	1.3006591796875	3.81927490234375E-06	4.96757456858177E-06	340551.34375	6.02520740358159E-05
1	190	77.2792438048887	1.29043579101563	1.290283203125	3.79119873046875E-06	4.8917199819698E-06	340336.46875	6.06352950853761E-05
1	191	77.3799518046344	1.28036499023438	1.2799072265625	3.7640380859375E-06	4.8176193558902E-06	340035.6875	6.10157294431701E-05
1	192	77.4806598043801	1.27029418945313	1.27105712890625	3.73809814453125E-06	4.75133629151969E-06	340027.78125	6.13934898865409E-05
1	193	77.5813678041259	1.26022338867188	1.26007080078125	3.7127685546875E-06	4.67835116069182E-06	339388.46875	6.17686746409163E-05
1	194	77.6820758038716	1.25015258789063	1.25	3.6883544921875E-06	4.61044282928924E-06	338904.53125	6.21413491899148E-05
1	195	77.7827838036173	1.24008178710938	1.240234375	3.66485595703125E-06	4.54528026239132E-06	338412.84375	6.25116153969429E-05
1	196	77.8834918033631	1.23001098632813	1.2298583984375	3.64227294921875E-06	4.4794796849601E-06	337662.34375	6.28795532975346E-05
1	197	77.9841998031088	1.21994018554688	1.220703125	3.6199951171875E-06	4.41893917013658E-06	337211.28125	6.32452429272234E-05
1	198	78.0849078028546	1.20986938476563	1.21002197265625	3.5986328125E-06	4.35442461821367E-06	336244.9375	6.36087279417552E-05
1	199	78.1856158026003	1.19979858398438	1.19964599609375	3.5772705078125E-06	4.29145802627318E-06	335352.34375	6.39700592728332E-05
1	200	78.286323802346	1.18972778320313	1.1895751953125	3.55682373046875E-06	4.23110941483174E-06	334448.75	6.43292951281182E-05
1	201	78.3870318020918	1.17965698242188	1.18011474609375	3.53607177734375E-06	4.17297042076825E-06	333736.09375	6.46864500595257E-05
1	202	78.4877398018375	1.16958618164063	1.16912841796875	3.51531982421875E-06	4.10986012866488E-06	332580.96875	6.50415167910978E-05
1	203	78.5884478015832	1.15951538085938	1.15936279296875	3.49365234375E-06	4.05041055273614E-06	331848.375	6.53944443911314E-05
1	204	78.689155801329	1.14944458007813	1.14959716796875	3.4710693359375E-06	3.99033115172642E-06	331193.96875	6.5745145548135E-05
1	205	78.7898638010747	1.13937377929688	1.14013671875	3.44635009765625E-06	3.92931042370037E-06	330824.40625	6.60934674669988E-05
1	206	78.8905718008205	1.12930297851563	1.12945556640625	3.4197998046875E-06	3.86251167583396E-06	330269.5	6.64392064209096E-05
1	207	78.9912798005662	1.11923217773438	1.119384765625	3.3880615234375E-06	3.79254447580024E-06	330390.9375	6.67820058879443E-05
1	208	79.0919878003119	1.10916137695313	1.109619140625	3.35113525390625E-06	3.71848364011385E-06	331117.40625	6.71213492751122E-05
1	209	79.1926958000577	1.09909057617188	1.0992431640625	3.30596923828125E-06	3.63406388714793E-06	332502.5625	6.74565671943128E-05
1	210	79.2934037998034	1.08901977539063	1.08917236328125	3.24920654296875E-06	3.53894574800506E-06	335211.8125	6.77866410114802E-05
1	211	79.3941117995491	1.07894897460938	1.0791015625	3.1756591796875E-06	3.42685848409019E-06	339803.96875	6.81101591908373E-05
1	212	79.4948197992949	1.06887817382813	1.06903076171875	3.0810546875E-06	3.2937421110546E-06	346969.125	6.84252081555314E-05
1	213	79.5955277990406	1.05880737304688	1.05865478515625	2.95806884765625E-06	3.13157374876027E-06	357887.15625	6.87293068040162E-05
1	214	79.6962357987863	1.04873657226563	1.048583984375	2.80181884765625E-06	2.93794232675282E-06	374251.1875	6.90193410264328E-05
1	215	79.7969437985321	1.03866577148438	1.03851318359375	2.60986328125E-06	2.71037743004854E-06	397918.625	6.92918401909992E-05
1	216	79.8976517982778	1.02859497070313	1.02874755859375	2.38433837890625E-06	2.45288219957729E-06	431460.375	6.95433191140182E-05
1	217	79.9983597980236	1.01852416992188	1.0186767578125	2.1356201171875E-06	2.17550632441998E-06	476993.46875	6.97709110681899E-05
1	218	80.0990677977693	1.00845336914063	1.00830078125	1.881103515625E-06	1.89671811767766E-06	536015.5625	6.99731754139066E-05
1	219	80.199775797515	0.998382568359375	0.99822998046875	1.6448974609375E-06	1.6419859321104E-06	606864.5625	7.01507233316079E-05
1	220	80.3004837972608	0.988311767578125	0.98846435546875	1.4459228515625E-06	1.42924318424775E-06	683621.75	7.03063560649753E-05
1	221	80.4011917970065	0.978240966796875	0.9783935546875	1.30126953125E-06	1.27315377085324E-06	751876.1875	7.04446865711361E-05
1	222	80.5018997967522	0.968170166015625	0.96832275390625	1.21307373046875E-06	1.17464685445157E-06	798239	7.05712955095805E-05
1	223	80.602607796498	0.958099365234375	0.958251953125	1.17645263671875E-06	1.12733800960996E-06	814526.5625	7.06916180206463E-05
1	224	80.7033157962437	0.948028564453125	0.94818115234375	1.17095947265625E-06	1.11028168703342E-06	809747.25	7.08098159520887E-05
1	225	80.8040237959895	0.937957763671875	0.9381103515625	1.17584228515625E-06	1.10306984879571E-06	797819.875	7.09279920556583E-05
1	226	80.9047317957352	0.927886962890625	0.92803955078125	1.171875E-06	1.08754625216534E-06	791927.125	7.10462045390159E-05
1	227	81.0054397954809	0.917816162109375	0.9173583984375	1.14593505859375E-06	1.05123308458133E-06	800532.625	7.1162918175105E-05
1	228	81.1061477952267	0.907745361328125	0.9075927734375	1.08367919921875E-06	9.83539393928368E-07	837510.5625	7.12751862010919E-05
1	229	81.2068557949724	0.897674560546875	0.89813232421875	9.74426269531251E-07	8.75163721048011E-07	921703.75	7.13788249413483E-05
1	230	81.3075637947181	0.887603759765625	0.88775634765625	8.087158203125E-07	7.179426120274E-07	1097735.875	7.14686102583073E-05
1	231	81.4082717944639	0.877532958984375	0.8782958984375	5.8013916015625E-07	5.09533833792375E-07	1513940	7.15385467628948E-05
1	232	81.5089797942096	0.867462158203125	0.86761474609375	2.90527343749999E-07	2.5206580289705E-07	2986344.5	7.15823844075203E-05
1	233	81.6096877939553	0.857391357421875	0.8575439453125	-4.94384765624994E-08	-4.23956656447899E-08	-17345680	7.15945279807784E-05
1	234	81.7103957937011	0.847320556640625	0.8477783203125	-4.12597656249999E-07	-3.49791349663064E-07	-2054733.75	7.15712594683282E-05
1	235	81.8111037934468	0.837249755859375	0.83709716796875	-7.7178955078125E-07	-6.46062801479275E-07	-1084618.5	7.15116184437647E-05
1	236	81.9118117931926	0.827178955078125	0.82763671875	-1.09100341796875E-06	-9.02954411685641E-07	-758601.4375	7.14178240741603E-05
1	237	82.0125197929383	0.817108154296875	0.8172607421875	-1.34552001953125E-06	-1.09964071270952E-06	-607394	7.12951368768699E-05
1	238	82.113227792684	0.807037353515625	0.806884765625	-1.514892578125E-06	-1.22234371247032E-06	-532635	7.11511020199396E-05
1	239	82.2139357924298	0.796966552734375	0.79681396484375	-1.60125732421875E-06	-1.27590419651824E-06	-497617.6875	7.09941887180321E-05
1	240	82.3146437921755	0.786895751953125	0.78704833984375	-1.61712646484375E-06	-1.27275666272908E-06	-486695.625	7.08321313140914E-05
1	241	82.4153517919212	0.776824951171875	0.7763671875	-1.5826416015625E-06	-1.22871097119059E-06	-490551.5	7.06710125086829E-05
1	242	82.516059791667	0.766754150390625	0.7666015625	-1.5216064453125E-06	-1.16646583592228E-06	-503810.6875	7.05146958352998E-05
1	243	82.6167677914127	0.756683349609375	0.7568359375	-1.45477294921875E-06	-1.10102439521143E-06	-520243.34375	7.03648256603628E-05
1	244	82.7174757911584	0.746612548828125	0.74658203125	-1.39892578125E-06	-1.04441278381273E-06	-533682.375	7.02211327734403E-05
1	245	82.8181837909042	0.736541748046875	0.73651123046875	-1.3665771484375E-06	-1.00649936030095E-06	-538946	7.00818782206625E-05
1	246	82.9188917906499	0.726470947265625	0.7264404296875	-1.36871337890625E-06	-9.94288711808622E-07	-530746.9375	6.9944144343026E-05
1	247	83.0195997903957	0.716400146484375	0.716400146484375	-1.41265869140625E-06	-1.01202886071405E-06	-507128.96875	6.98040894349106E-05
1	248	83.1203077901414	0.706329345703125	0.706298828125	-1.5020751953125E-06	-1.06091397356067E-06	-470215.375	6.96573260938749E-05
1	249	83.2210157898871	0.696258544921875	0.6961669921875	-1.63421630859375E-06	-1.13768737719511E-06	-425994.40625	6.9499401433859E-05
1	250	83.3217237896329	0.686187744140625	0.6861572265625	-1.79840087890625E-06	-1.23398569940036E-06	-381537.4375	6.93265537847765E-05
1	251	83.4224317893786	0.676116943359375	0.676055908203125	-1.978759765625E-06	-1.33775210997555E-06	-341656.40625	6.91363602527417E-05
1	252	83.5231397891243	0.666046142578125	0.665985107421875	-2.14996337890625E-06	-1.4318436569738E-06	-309765.78125	6.8928457039874E-05
1	253	83.6238477888701	0.655975341796875	0.65594482421875	-2.2900390625E-06	-1.50213918459485E-06	-286433.90625	6.8704888690263E-05
1	254	83.7245557886158	0.645904541015625	0.645904541015625	-2.3785400390625E-06	-1.53630969634833E-06	-271555.0625	6.84698024997488E-05
1	255	83.8252637883616	0.635833740234375	0.635894775390625	-2.410888671875E-06	-1.53307144046266E-06	-263759.5	6.82286408846267E-05
1	256	83.9259717881073	0.625762939453125	0.625732421875	-2.3895263671875E-06	-1.49520406012016E-06	-261864.625	6.79869190207683E-05
1	257	84.026679787853	0.615692138671875	0.615692138671875	-2.3272705078125E-06	-1.43288218623638E-06	-264555.46875	6.77494099363685E-05
1	258	84.1273877875988	0.605621337890625	0.605682373046875	-2.23663330078125E-06	-1.35468928874616E-06	-270800.9375	6.75195988151245E-05
1	259	84.2280957873445	0.595550537109375	0.595550537109375	-2.13226318359375E-06	-1.269870381293E-06	-279304.4375	6.72996102366596E-05
1	260	84.3288037870902	0.585479736328125	0.585479736328125	-2.02301025390625E-06	-1.18443153951375E-06	-289410.1875	6.70903755235486E-05
1	261	84.429511786836	0.575408935546875	0.575347900390625	-1.9146728515625E-06	-1.10160294752859E-06	-300494.125	6.68920911266468E-05
1	262	84.5302197865817	0.565338134765625	0.565338134765625	-1.81182861328125E-06	-1.02429578419105E-06	-312026.28125	6.67044514557347E-05
1	263	84.6309277863274	0.555267333984375	0.55535888671875	-1.71661376953125E-06	-9.53336666498217E-07	-323520	6.65267798467539E-05
1	264	84.7316357860732	0.545196533203125	0.545196533203125	-1.62872314453125E-06	-8.87974181296158E-07	-334738.625	6.63583268760704E-05
1	265	84.8323437858189	0.535125732421875	0.53515625	-1.54815673828125E-06	-8.28505733352358E-07	-345673.1875	6.61983576719649E-05
1	266	84.9330517855647	0.525054931640625	0.52508544921875	-1.4752197265625E-06	-7.74616410126328E-07	-355937.125	6.60461228108034E-05
1	267	85.0337597853104	0.514984130859375	0.515045166015625	-1.40869140625E-06	-7.25539678114728E-07	-365619.59375	6.59009019727819E-05
1	268	85.1344677850561	0.504913330078125	0.504852294921875	-1.348876953125E-06	-6.80983589518291E-07	-374276.03125	6.57620475976728E-05
1	269	85.2351757848019	0.494842529296875	0.49481201171875	-1.29486083984375E-06	-6.40712698896095E-07	-382135.28125	6.56289266771637E-05
1	270	85.3358837845476	0.484771728515625	0.4847412109375	-1.24481201171875E-06	-6.03411649535701E-07	-389409.1875	6.55010444461368E-05
1	271	85.4365917842933	0.474700927734375	0.4747314453125	-1.19903564453125E-06	-5.69219935186993E-07	-395927.71875	6.53779861750081E-05
1	272	85.5372997840391	0.464630126953125	0.464630126953125	-1.15753173828125E-06	-5.37824121238373E-07	-401397.3125	6.52593225822784E-05
1	273	85.6380077837848	0.454559326171875	0.454559326171875	-1.11846923828125E-06	-5.08410607835685E-07	-406412.03125	6.51447189738974E-05
1	274	85.7387157835306	0.444488525390625	0.4444580078125	-1.0833740234375E-06	-4.81514234706992E-07	-410253.5625	6.50338479317725E-05
1	275	85.8394237832763	0.434417724609375	0.4344482421875	-1.0504150390625E-06	-4.56350960575946E-07	-413596.75	6.49264038656838E-05
1	276	85.940131783022	0.424346923828125	0.42431640625	-1.0205078125E-06	-4.33018186640766E-07	-415789.5	6.48221248411573E-05
1	277	86.0408397827678	0.414276123046875	0.414276123046875	-9.92431640625E-07	-4.11140717915259E-07	-417435.4375	6.47207634756342E-05
1	278	86.1415477825135	0.404205322265625	0.404205322265625	-9.6710205078125E-07	-3.90907757719106E-07	-417955.21875	6.46220942144282E-05
1	279	86.2422557822592	0.394134521484375	0.394134521484375	-9.4329833984375E-07	-3.71786427422194E-07	-417825.96875	6.45258987788111E-05
1	280	86.342963782005	0.384063720703125	0.384033203125	-9.21020507812501E-07	-3.53702461097782E-07	-416964.875	6.44320170977153E-05
1	281	86.4436717817507	0.373992919921875	0.374053955078125	-9.002685546875E-07	-3.36749025109384E-07	-415491.53125	6.43403109279461E-05
1	282	86.5443797814964	0.363922119140625	0.364013671875	-8.807373046875E-07	-3.20600406666927E-07	-413305.625	6.42506274743937E-05
1	283	86.6450877812422	0.353851318359375	0.35382080078125	-8.6212158203125E-07	-3.0503653647429E-07	-410407.09375	6.4162872149609E-05
1	284	86.7457957809879	0.343780517578125	0.343841552734375	-8.4381103515625E-07	-2.90137279534974E-07	-407486.46875	6.4076972194016E-05
1	285	86.8465037807337	0.333709716796875	0.333740234375	-8.2763671875E-07	-2.76215672556646E-07	-403244.84375	6.39928039163351E-05
1	286	86.9472117804794	0.323638916015625	0.323638916015625	-8.10852050781249E-07	-2.62423270669387E-07	-399134.375	6.39103018329479E-05
1	287	87.0479197802251	0.313568115234375	0.3135986328125	-7.95898437500001E-07	-2.49592659429254E-07	-394018.40625	6.38293931842782E-05
1	288	87.1486277799709	0.303497314453125	0.30352783203125	-7.8125E-07	-2.37131118296929E-07	-388515.625	6.37499761069193E-05
1	289	87.2493357797166	0.293426513671875	0.293426513671875	-7.6751708984375E-07	-2.25209859650022E-07	-382306.1875	6.36719923932105E-05
1	290	87.3500437794623	0.283355712890625	0.283416748046875	-7.550048828125E-07	-2.13981024899113E-07	-375384	6.35953256278299E-05
1	291	87.4507517792081	0.273284912109375	0.273284912109375	-7.42492675781251E-07	-2.02912048052895E-07	-368064.125	6.35199248790741E-05
1	292	87.5514597789538	0.263214111328125	0.263275146484375	-7.305908203125E-07	-1.9234639125898E-07	-360359.25	6.34457464911975E-05
1	293	87.6521677786995	0.253143310546875	0.253082275390625	-7.2021484375E-07	-1.82273609539152E-07	-351398.3125	6.33726958767511E-05
1	294	87.7528757784453	0.243072509765625	0.24310302734375	-7.098388671875E-07	-1.72563972000717E-07	-342476.375	6.33006857242435E-05
1	295	87.853583778191	0.233001708984375	0.23297119140625	-7.0159912109375E-07	-1.63452384072116E-07	-332057.4375	6.32296141702682E-05
1	296	87.9542917779368	0.222930908203125	0.22296142578125	-6.93664550781251E-07	-1.54660440898624E-07	-321425.4375	6.31593575235456E-05
1	297	88.0549997776825	0.212860107421875	0.212860107421875	-6.86035156250001E-07	-1.4602952091991E-07	-310275.8125	6.30898794042878E-05
1	298	88.1557077774282	0.202789306640625	0.202789306640625	-6.79931640625001E-07	-1.37882864237326E-07	-298249.5625	6.30210997769609E-05
1	299	88.256415777174	0.192718505859375	0.1927490234375	-6.756591796875E-07	-1.30232649553363E-07	-285275.53125	6.29528440185823E-05
1	300	88.3571237769197	0.182647705078125	0.18267822265625	-6.72607421875E-07	-1.22870730479008E-07	-271597.09375	6.28849520580843E-05
1	301	88.4578317766654	0.172576904296875	0.172576904296875	-6.7108154296875E-07	-1.15813172385515E-07	-257162.359375	6.281729292823E-05
1	302	88.5585397764112	0.162506103515625	0.162567138671875	-6.72607421875E-07	-1.09343865517531E-07	-241696.90625	6.27496265224181E-05
1	303	88.6592477761569	0.152435302734375	0.152496337890625	-6.76574707031249E-07	-1.03175160859337E-07	-225394.6875	6.26816909061745E-05
1	304	88.7599557759027	0.142364501953125	0.14239501953125	-6.84509277343751E-07	-9.74707106138339E-08	-208024.96875	6.26131586614065E-05
1	305	88.8606637756484	0.132293701171875	0.132354736328125	-6.96716308593751E-07	-9.2213703339894E-08	-189969.34375	6.25436077825725E-05
1	306	88.9613717753941	0.122222900390625	0.122314453125	-7.159423828125E-07	-8.7570093398881E-08	-170844	6.24724707449786E-05
1	307	89.0620797751399	0.112152099609375	0.112213134765625	-7.44018554687501E-07	-8.34886577649741E-08	-150820.34375	6.23989617452025E-05
1	308	89.1627877748856	0.102081298828125	0.1021728515625	-7.8277587890625E-07	-7.99784416471994E-08	-130526.3125	6.23220767010935E-05
1	309	89.2634957746313	0.092010498046875	0.092071533203125	-8.3526611328125E-07	-7.69042287629418E-08	-110230.1875	6.22406005277298E-05
1	310	89.3642037743771	0.081939697265625	0.082000732421875	-9.06982421874999E-07	-7.43732186947454E-08	-90410.5	6.21528743067756E-05
1	311	89.4649117741228	0.071868896484375	0.07196044921875	-1.00250244140625E-06	-7.2140529994158E-08	-71780.8203125	6.20567225269042E-05
1	312	89.5656197738685	0.061798095703125	0.061798095703125	-1.12518310546875E-06	-6.95341739742616E-08	-54922.703125	6.19495840510353E-05
1	313	89.6663277736143	0.051727294921875	0.05181884765625	-1.280517578125E-06	-6.63549428736587E-08	-40467.11328125	6.18284466327168E-05
1	314	89.76703577336	0.041656494140625	0.0417572021484375	-1.46820068359375E-06	-6.13079507161274E-08	-28441.076171875	6.16900433669798E-05
1	315	89.8677437731058	0.031585693359375	0.031683349609375	-1.683349609375E-06	-5.33341477648719E-08	-18821.609375	6.15313474554569E-05
1	316	89.9684517728515	0.021514892578125	0.021649169921875	-1.91192626953125E-06	-4.13916154684557E-08	-11323.2255859375	6.13503143540584E-05
1	317	90.0691597725972	0.011444091796875	0.0115264892578125	-2.13409423828125E-06	-2.45986129243647E-08	-5401.1162109375	6.11465802649036E-05
1	318	90.169867772343	0.001373291015625	0.00145263671875	-2.3284912109375E-06	-3.38245143005622E-09	-623.853210449219	6.09218695899472E-05
1	319	90.2705757720887	-0.008697509765625	-0.00855102539062499	-2.47406005859375E-06	2.11557509288696E-08	3456.2724609375	6.06800422247034E-05
1	320	90.3712837718344	-0.018768310546875	-0.01865234375	-2.56378173828125E-06	4.78205386400532E-08	7275.32470703125	6.04263659624849E-05
1	321	90.4719917715802	-0.028839111328125	-0.02869873046875	-2.59857177734375E-06	7.45757091635824E-08	11044.041015625	6.01664214627817E-05
1	322	90.5726997713259	-0.038909912109375	-0.0387542724609375	-2.58880615234375E-06	1.0032730557441E-07	14969.9404296875	5.99052145844325E-05
1	323	90.6734077710717	-0.048980712890625	-0.048858642578125	-2.54852294921875E-06	1.24517370636568E-07	19171.357421875	5.96465288253967E-05
1	324	90.7741157708174	-0.059051513671875	-0.0589599609375	-2.48992919921875E-06	1.46806115708387E-07	23679.373046875	5.93928234593477E-05
1	325	90.8748237705631	-0.069122314453125	-0.069061279296875	-2.4237060546875E-06	1.67384243354718E-07	28494.08203125	5.91454045206774E-05
1	326	90.9755317703089	-0.079193115234375	-0.0791015625	-2.35565185546875E-06	1.86335739726928E-07	33579.48046875	5.89047449466307E-05
1	327	91.0762397700546	-0.089263916015625	-0.089202880859375	-2.29156494140625E-06	2.0441419223971E-07	38926.62109375	5.86707392358221E-05
1	328	91.1769477698003	-0.099334716796875	-0.099273681640625	-2.23114013671875E-06	2.21493493768321E-07	44494.59765625	5.84430017624982E-05
1	329	91.2776557695461	-0.109405517578125	-0.10931396484375	-2.17742919921875E-06	2.38023417864497E-07	50203.22265625	5.82210122956894E-05
1	330	91.3783637692918	-0.119476318359375	-0.119384765625	-2.12982177734375E-06	2.54268258004231E-07	56053.87890625	5.80041232751682E-05
1	331	91.4790717690375	-0.129547119140625	-0.129425048828125	-2.0880126953125E-06	2.7024114501728E-07	61984.80078125	5.7791741710389E-05
1	332	91.5797797687833	-0.139617919921875	-0.13946533203125	-2.05169677734375E-06	2.86140590333162E-07	67975.6015625	5.75832891627215E-05
1	333	91.680487768529	-0.149688720703125	-0.149566650390625	-2.02056884765625E-06	3.02209713254342E-07	74022.046875	5.73782344872598E-05
1	334	91.7811957682748	-0.159759521484375	-0.15966796875	-1.99493408203125E-06	3.18527071385688E-07	80036.7109375	5.71760392631404E-05
1	335	91.8819037680205	-0.169830322265625	-0.169708251953125	-1.97265625E-06	3.34776046884144E-07	86030.3203125	5.69762523809914E-05
1	336	91.9826117677662	-0.179901123046875	-0.17974853515625	-1.95648193359375E-06	3.5167474266018E-07	91873.3515625	5.67784045415465E-05
1	337	92.083319767512	-0.189971923828125	-0.189788818359375	-1.94366455078125E-06	3.68885793022855E-07	97644.84375	5.65820191695821E-05
1	338	92.1840277672577	-0.200042724609375	-0.19989013671875	-1.93511962890625E-06	3.86811308317192E-07	103296.0078125	5.63867070013657E-05
1	339	92.2847357670034	-0.189971923828125	-0.18975830078125	-1.71661376953125E-06	3.25741694950921E-07	110542.2265625	5.62028253625613E-05
2	340	92.3854437667492	-0.179901123046875	-0.1796875	-1.5594482421875E-06	2.80213328096579E-07	115225.0546875	5.60378648515325E-05
2	341	92.4861517664949	-0.169830322265625	-0.169647216796875	-1.431884765625E-06	2.42915263015675E-07	118478.265625	5.58872379770037E-05
2	342	92.5868597662407	-0.159759521484375	-0.159576416015625	-1.32354736328125E-06	2.11206938161013E-07	120567.21875	5.574848910328E-05
2	343	92.6875677659864	-0.149688720703125	-0.149566650390625	-1.22802734375E-06	1.83671929221418E-07	121794.2421875	5.56200102437288E-05
2	344	92.7882757657321	-0.139617919921875	-0.139495849609375	-1.14288330078125E-06	1.59427486323693E-07	122056.0703125	5.55006226932164E-05
2	345	92.8889837654779	-0.129547119140625	-0.12939453125	-1.06414794921875E-06	1.37694925683718E-07	121594.5	5.53894897166174E-05
2	346	92.9896917652236	-0.119476318359375	-0.119415283203125	-9.918212890625E-07	1.18438613583294E-07	120400.0078125	5.5285963753704E-05
2	347	93.0903997649693	-0.109405517578125	-0.109283447265625	-9.22546386718751E-07	1.0081904378012E-07	118458.4921875	5.51895682292525E-05
2	348	93.1911077647151	-0.099334716796875	-0.099151611328125	-8.53881835937501E-07	8.46637604468015E-08	116118.65625	5.51001176063437E-05
2	349	93.2918157644608	-0.089263916015625	-0.089141845703125	-7.8399658203125E-07	6.98869015991477E-08	113701.8359375	5.50176446267869E-05
2	350	93.3925237642065	-0.079193115234375	-0.07916259765625	-7.098388671875E-07	5.61926860598305E-08	111521.9296875	5.49424257769715E-05
2	351	93.4932317639523	-0.069122314453125	-0.069061279296875	-6.2713623046875E-07	4.33108304775942E-08	110121.65625	5.48751013411675E-05
2	352	93.593939763698	-0.059051513671875	-0.0589599609375	-5.31005859375E-07	3.13080867897497E-08	111034.484375	5.48167845408898E-05
2	353	93.6946477634438	-0.048980712890625	-0.0488555908203125	-4.17175292968749E-07	2.03813446120193E-08	117110.46875	5.47690397070255E-05
2	354	93.7953557631895	-0.038909912109375	-0.0387481689453125	-2.777099609375E-07	1.0760751401051E-08	139527.46875	5.47340496268589E-05
2	355	93.8960637629352	-0.028839111328125	-0.0286895751953125	-1.07727050781251E-07	3.090643074799E-09	266317.28125	5.47146410099231E-05
2	356	93.996771762681	-0.018768310546875	-0.018658447265625	9.46044921875E-08	-1.76517289673939E-09	-197225.828125	5.4713982535759E-05
2	357	94.0974797624267	-0.008697509765625	-0.00856933593750001	3.25927734375001E-07	-2.79298406624662E-09	-26292.134765625	5.47351555724163E-05
2	358	94.1981877621724	0.001373291015625	0.0014373779296875	5.76171875000001E-07	8.28176749401166E-10	2494.70336914063	5.47805793758016E-05
2	359	94.2988957619182	0.011444091796875	0.0115203857421875	8.270263671875E-07	9.52766221473667E-09	13929.8896484375	5.48512362001929E-05
2	360	94.3996037616639	0.021514892578125	0.021636962890625	1.05377197265625E-06	2.28004246594082E-08	20532.87109375	5.4945943702478E-05
2	361	94.5003117614096	0.031585693359375	0.0316741943359375	1.23779296875E-06	3.92060961473817E-08	25589.251953125	5.50613331142813E-05
2	362	94.6010197611554	0.041656494140625	0.04176025390625	1.3653564453125E-06	5.70176297287617E-08	30585.607421875	5.51924131286796E-05
2	363	94.7017277609011	0.051727294921875	0.051788330078125	1.43524169921875E-06	7.43287671411963E-08	36083.3515625	5.53334321011789E-05
2	364	94.8024357606469	0.061798095703125	0.06182861328125	1.45477294921875E-06	8.99465959491863E-08	42500.5234375	5.54789548914414E-05
2	365	94.9031437603926	0.071868896484375	0.071868896484375	1.43890380859375E-06	1.03412425289662E-07	49946.98046875	5.5624663218623E-05
2	366	95.0038517601383	0.081939697265625	0.08197021484375	1.39923095703125E-06	1.14695254183061E-07	58582.3359375	5.57675775780808E-05
2	367	95.1045597598841	0.092010498046875	0.092041015625	1.34857177734375E-06	1.24123914702068E-07	68250.734375	5.59059408260509E-05
2	368	95.2052677596298	0.102081298828125	0.1021728515625	1.2939453125E-06	1.32206082525954E-07	78962.265625	5.60389999009203E-05
2	369	95.3059757593755	0.112152099609375	0.1121826171875	1.23992919921875E-06	1.39098489171374E-07	90475.0234375	5.61665910936426E-05
2	370	95.4066837591213	0.122222900390625	0.12225341796875	1.190185546875E-06	1.45504259307927E-07	102717.9453125	5.6288958148798E-05
2	371	95.507391758867	0.132293701171875	0.13238525390625	1.14501953125E-06	1.515836913768E-07	115618.34375	5.64065448998008E-05
2	372	95.6080997586128	0.142364501953125	0.1424560546875	1.10504150390625E-06	1.57419862034658E-07	128914.6640625	5.651984247379E-05
2	373	95.7088077583585	0.152435302734375	0.152435302734375	1.0699462890625E-06	1.63097581662441E-07	142470.046875	5.66293638257775E-05
2	374	95.8095157581042	0.162506103515625	0.162567138671875	1.0394287109375E-06	1.68976939107779E-07	156400.484375	5.67355782550294E-05
2	375	95.91022375785	0.172576904296875	0.172637939453125	1.01287841796875E-06	1.74861241930557E-07	170442.90625	5.68389186810236E-05
2	376	96.0109317575957	0.182647705078125	0.1826171875	9.89685058593751E-07	1.80733508159392E-07	184520.5	5.69397561775986E-05
2	377	96.1116397573414	0.192718505859375	0.192779541015625	9.6923828125E-07	1.86849305805481E-07	198897.984375	5.70383963349741E-05
2	378	96.2123477570872	0.202789306640625	0.20281982421875	9.527587890625E-07	1.93238363976889E-07	212876.375	5.71351774851792E-05
2	379	96.3130557568329	0.212860107421875	0.212860107421875	9.368896484375E-07	1.99426438030059E-07	227198.703125	5.72303288208786E-05
2	380	96.4137637565786	0.222930908203125	0.222991943359375	9.24072265625001E-07	2.06060661867014E-07	241314.40625	5.73240358789917E-05
2	381	96.5144717563244	0.233001708984375	0.233001708984375	9.124755859375E-07	2.12608370020462E-07	255351.171875	5.7416513300268E-05
2	382	96.6151797560701	0.243072509765625	0.243072509765625	9.0301513671875E-07	2.1949814765776E-07	269178.78125	5.75079284317326E-05
2	383	96.7158877558159	0.253143310546875	0.253173828125	8.941650390625E-07	2.26379171408553E-07	283139.9375	5.75984267925378E-05
2	384	96.8165957555616	0.263214111328125	0.26324462890625	8.868408203125E-07	2.3345607758074E-07	296834.15625	5.76881066081114E-05
2	385	96.9173037553073	0.273284912109375	0.273284912109375	8.80126953125E-07	2.40525423578219E-07	310506.25	5.77770806557965E-05
2	386	97.0180117550531	0.283355712890625	0.283416748046875	8.746337890625E-07	2.4788585051283E-07	324040.46875	5.78654398850631E-05
2	387	97.1187197547988	0.293426513671875	0.29345703125	8.7005615234375E-07	2.55324096087861E-07	337285.1875	5.79532897972967E-05
2	388	97.2194277545445	0.303497314453125	0.303558349609375	8.65478515625E-07	2.62723233390716E-07	350740.46875	5.80406813242007E-05
2	389	97.3201357542903	0.313568115234375	0.3135986328125	8.6181640625E-07	2.70264450819013E-07	363881.03125	5.81276581215207E-05
2	390	97.420843754036	0.323638916015625	0.323638916015625	8.5906982421875E-07	2.78028437605826E-07	376731.8125	5.82143111387268E-05
2	391	97.5215517537818	0.333709716796875	0.333740234375	8.56933593750001E-07	2.85993223769765E-07	389458.6875	5.83007204113528E-05
2	392	97.6222597535275	0.343780517578125	0.343780517578125	8.55102539062499E-07	2.93967588049782E-07	402034.25	5.83869259571657E-05
2	393	97.7229677532732	0.353851318359375	0.353912353515625	8.544921875E-07	3.02415344322071E-07	414178.59375	5.84730114496779E-05
2	394	97.823675753019	0.363922119140625	0.363922119140625	8.53881835937501E-07	3.10746486320568E-07	426197.28125	5.85590350965504E-05
2	395	97.9243837527647	0.373992919921875	0.37396240234375	8.53881835937501E-07	3.19319696018283E-07	437955.6875	5.86450296395924E-05
2	396	98.0250917525104	0.384063720703125	0.384063720703125	8.544921875E-07	3.28179424968766E-07	449464.3125	5.87310532864649E-05
2	397	98.1257997522562	0.394134521484375	0.394134521484375	8.55712890625E-07	3.37265987582214E-07	460592.03125	5.88171678828076E-05
2	398	98.2265077520019	0.404205322265625	0.40423583984375	8.56933593750001E-07	3.46403254525285E-07	471723.65625	5.89034061704297E-05
2	399	98.3272157517476	0.414276123046875	0.414276123046875	8.58459472656251E-07	3.55639258486917E-07	482580.90625	5.89897827012464E-05
2	400	98.4279237514934	0.424346923828125	0.42437744140625	8.6090087890625E-07	3.65346892294838E-07	492945.78125	5.90763593208976E-05
2	401	98.5286317512391	0.434417724609375	0.434417724609375	8.63037109375001E-07	3.74918613488262E-07	503359.28125	5.91631687711924E-05
2	402	98.6293397509849	0.444488525390625	0.44451904296875	8.6517333984375E-07	3.84586002155629E-07	513791.90625	5.92501892242581E-05
2	403	98.7300477507306	0.454559326171875	0.45458984375	8.6822509765625E-07	3.9468631030104E-07	523585.25	5.93374716117978E-05
2	404	98.8307557504763	0.464630126953125	0.464630126953125	8.70666503906251E-07	4.04537871645516E-07	533648.8125	5.94250341237057E-05
2	405	98.9314637502221	0.474700927734375	0.474761962890625	8.73413085937499E-07	4.14663304582064E-07	543570.9375	5.95128549321089E-05
2	406	99.0321717499678	0.484771728515625	0.4847412109375	8.77990722656249E-07	4.25598273068317E-07	552102.875	5.96010431763716E-05
2	407	99.1328797497135	0.494842529296875	0.49481201171875	8.82873535156251E-07	4.36856424812504E-07	560456.3125	5.96897116338369E-05
2	408	99.2335877494593	0.504913330078125	0.504852294921875	8.8836669921875E-07	4.48493949534168E-07	568292.6875	5.97789003222715E-05
2	409	99.334295749205	0.514984130859375	0.515045166015625	8.94775390624999E-07	4.60849747696557E-07	575613.9375	5.98686892772093E-05
2	410	99.4350037489507	0.525054931640625	0.525054931640625	9.0362548828125E-07	4.74453003107556E-07	581053.75	5.99592458456755E-05
2	411	99.5357117486965	0.535125732421875	0.53515625	9.1400146484375E-07	4.89133583414514E-07	585509.1875	6.00507701165043E-05
2	412	99.6364197484422	0.545196533203125	0.545196533203125	9.2742919921875E-07	5.05631192027067E-07	587857.875	6.01434949203394E-05
2	413	99.737127748188	0.555267333984375	0.555267333984375	9.4512939453125E-07	5.24799474987958E-07	587504.0625	6.02377840550616E-05
2	414	99.8378357479337	0.565338134765625	0.565338134765625	9.6893310546875E-07	5.47774845927052E-07	583464.5625	6.03341650275979E-05
2	415	99.9385437476794	0.575408935546875	0.575347900390625	1.002197265625E-06	5.76612080749328E-07	574086.5	6.04334200033918E-05
2	416	100.039251747425	0.585479736328125	0.585418701171875	1.0479736328125E-06	6.13503345903155E-07	558619.75	6.05366549280006E-05
2	417	100.139959747171	0.595550537109375	0.5955810546875	1.11236572265625E-06	6.6250390773348E-07	535418.375	6.06454341323115E-05
2	418	100.240667746917	0.605621337890625	0.605621337890625	1.20147705078125E-06	7.27640156128473E-07	504064	6.07619476795662E-05
2	419	100.341375746662	0.615692138671875	0.61566162109375	1.3232421875E-06	8.1466941992403E-07	465267.53125	6.088907684898E-05
2	420	100.442083746408	0.625762939453125	0.625732421875	1.4837646484375E-06	9.28439646941115E-07	421719.4375	6.10304196015932E-05
2	421	100.542791746154	0.635833740234375	0.635833740234375	1.68609619140625E-06	1.07207688415656E-06	377104.0625	6.11900322837755E-05
2	422	100.6434997459	0.645904541015625	0.645904541015625	1.9293212890625E-06	1.24615746699419E-06	334783.28125	6.137208401924E-05
2	423	100.744207745645	0.655975341796875	0.65594482421875	2.20489501953125E-06	1.44628950238257E-06	297494.8125	6.1580263718497E-05
2	424	100.844915745391	0.666046142578125	0.665985107421875	2.49298095703125E-06	1.66028814874153E-06	267144.09375	6.18168196524493E-05
2	425	100.945623745137	0.676116943359375	0.676055908203125	2.77008056640625E-06	1.8727292854237E-06	244056.40625	6.20818318566307E-05
2	426	101.046331744883	0.686187744140625	0.6861572265625	3.00872802734375E-06	2.06446043193864E-06	228055.59375	6.23728192294948E-05
2	427	101.147039744628	0.696258544921875	0.696197509765625	3.1915283203125E-06	2.22193398258241E-06	218139.21875	6.26850305707194E-05
2	428	101.247747744374	0.706329345703125	0.70623779296875	3.30963134765625E-06	2.33738660426752E-06	213388.671875	6.30123904556967E-05
2	429	101.34845574412	0.716400146484375	0.716400146484375	3.36700439453125E-06	2.41212251239631E-06	212770.78125	6.33485833532177E-05
2	430	101.449163743865	0.726470947265625	0.726470947265625	3.380126953125E-06	2.45556384470547E-06	214924.171875	6.36883269180544E-05
2	431	101.549871743611	0.736541748046875	0.736419677734375	3.36944580078125E-06	2.48132619162789E-06	218558.109375	6.40281941741705E-05
2	432	101.650579743357	0.746612548828125	0.746551513671875	3.35540771484375E-06	2.50498464993143E-06	222492.046875	6.43668172415346E-05
2	433	101.751287743103	0.756683349609375	0.75714111328125	3.35601806640625E-06	2.54097926699615E-06	225606.984375	6.47047636448406E-05
2	434	101.851995742848	0.766754150390625	0.7672119140625	3.387451171875E-06	2.59889270637359E-06	226486.5	6.50443253107369E-05
2	435	101.952703742594	0.776824951171875	0.77728271484375	3.4649658203125E-06	2.69325778390339E-06	224326.234375	6.53893730486743E-05
2	436	102.05341174234	0.786895751953125	0.787353515625	3.60107421875E-06	2.83531835520989E-06	218644.0625	6.57451746519655E-05
2	437	102.154119742086	0.796966552734375	0.797119140625	3.80523681640625E-06	3.03322690342611E-06	209479.515625	6.61181111354381E-05
2	438	102.254827741831	0.807037353515625	0.80718994140625	4.0789794921875E-06	3.29251133734942E-06	197890.15625	6.65151164866984E-05
2	439	102.355535741577	0.817108154296875	0.81756591796875	4.41375732421875E-06	3.60853755410062E-06	185231.28125	6.6942760895472E-05
2	440	102.456243741323	0.827178955078125	0.82733154296875	4.79095458984375E-06	3.96370751332142E-06	172686.171875	6.74062539474107E-05
2	441	102.556951741069	0.837249755859375	0.8380126953125	5.1788330078125E-06	4.33992772741476E-06	161814.96875	6.79082731949165E-05
2	442	102.657659740814	0.847320556640625	0.84808349609375	5.5389404296875E-06	4.69748420073302E-06	153112.953125	6.84479527990334E-05
2	443	102.75836774056	0.857391357421875	0.858154296875	5.8380126953125E-06	5.00991563967546E-06	146994.25	6.90208325977437E-05
2	444	102.859075740306	0.867462158203125	0.8673095703125	6.0516357421875E-06	5.24864117323887E-06	143318.21875	6.96195202181116E-05
2	445	102.959783740052	0.877532958984375	0.87738037109375	6.158447265625E-06	5.403300292528E-06	142467.796875	7.02343459124677E-05
2	446	103.060491739797	0.887603759765625	0.88775634765625	6.170654296875E-06	5.47803756489884E-06	143867.46875	7.08551669958979E-05
2	447	103.161199739543	0.897674560546875	0.8978271484375	6.1126708984375E-06	5.48812158740475E-06	146879.6875	7.14736816007644E-05
2	448	103.261907739289	0.907745361328125	0.90789794921875	6.0089111328125E-06	5.45547800356871E-06	151091.921875	7.20840544090606E-05
2	449	103.362615739034	0.917816162109375	0.91796875	5.8868408203125E-06	5.40393602932454E-06	155935.71875	7.26830476196483E-05
2	450	103.46332373878	0.927886962890625	0.927734375	5.767822265625E-06	5.35100707566016E-06	160846.5625	7.32699118088931E-05
2	451	103.564031738526	0.937957763671875	0.93780517578125	5.6732177734375E-06	5.3203730203677E-06	165303.921875	7.38460075808689E-05
2	452	103.664739738272	0.948028564453125	0.94818115234375	5.6121826171875E-06	5.32136573383468E-06	168950.515625	7.44142744224519E-05
2	453	103.765447738017	0.958099365234375	0.958251953125	5.596923828125E-06	5.3632629715139E-06	171210.484375	7.49786995584145E-05
2	454	103.866155737763	0.968170166015625	0.968017578125	5.6304931640625E-06	5.450416210806E-06	171924.125	7.55440414650366E-05
2	455	103.966863737509	0.978240966796875	0.97808837890625	5.712890625E-06	5.58771171199623E-06	171207.265625	7.61152259656228E-05
2	456	104.067571737255	0.988311767578125	0.9881591796875	5.8380126953125E-06	5.76888533032616E-06	169262.953125	7.66968660173006E-05
2	457	104.168279737	0.998382568359375	0.99853515625	5.987548828125E-06	5.97877806285396E-06	166768.609375	7.72923303884454E-05
2	458	104.268987736746	1.00845336914063	1.00830078125	6.134033203125E-06	6.18495005255681E-06	164378.125	7.7902695920784E-05
2	459	104.369695736492	1.01852416992188	1.01837158203125	6.256103515625E-06	6.37103812550777E-06	162780.484375	7.85265874583274E-05
2	460	104.470403736238	1.02859497070313	1.02813720703125	6.329345703125E-06	6.50743550068E-06	162439.734375	7.91603160905652E-05
2	461	104.571111735983	1.03866577148438	1.03851318359375	6.3507080078125E-06	6.59529359836597E-06	163527.15625	7.97988104750402E-05
2	462	104.671819735729	1.04873657226563	1.048583984375	6.317138671875E-06	6.62405000184663E-06	165990.34375	8.04366864031181E-05
2	463	104.772527735475	1.05880737304688	1.0589599609375	6.243896484375E-06	6.61203603158356E-06	169599.21875	8.1069185398519E-05
2	464	104.873235735221	1.06887817382813	1.0687255859375	6.1431884765625E-06	6.56538259136141E-06	173969.203125	8.16929241409525E-05
2	465	104.973943734966	1.07894897460938	1.07879638671875	6.0302734375E-06	6.50543688607286E-06	178896.765625	8.23059090180323E-05
2	466	105.074651734712	1.08901977539063	1.0888671875	5.914306640625E-06	6.43989460513694E-06	184107.328125	8.29073615022935E-05
2	467	105.175359734458	1.09909057617188	1.09954833984375	5.804443359375E-06	6.3822662923485E-06	189432.171875	8.34974489407614E-05
2	468	105.276067734203	1.10916137695313	1.1083984375	5.6976318359375E-06	6.31524608252221E-06	194536.6875	8.4076622442808E-05
2	469	105.376775733949	1.11923217773438	1.11907958984375	5.60302734375E-06	6.27023337074206E-06	199727.671875	8.46456605358981E-05
2	470	105.477483733695	1.12930297851563	1.12884521484375	5.517578125E-06	6.22849120190949E-06	204590.71875	8.52056255098432E-05
2	471	105.578191733441	1.13937377929688	1.13922119140625	5.4412841796875E-06	6.19882621322176E-06	209366.25	8.57574486872181E-05
2	472	105.678899733186	1.14944458007813	1.1492919921875	5.3741455078125E-06	6.17646264799987E-06	213855.765625	8.63020468386821E-05
2	473	105.779607732932	1.15951538085938	1.15936279296875	5.3131103515625E-06	6.15982253293623E-06	218207.9375	8.68401912157424E-05
2	474	105.880315732678	1.16958618164063	1.16973876953125	5.26123046875E-06	6.15426506556105E-06	222331.796875	8.73726530699059E-05
2	475	105.981023732424	1.17965698242188	1.1798095703125	5.2154541015625E-06	6.15324279351626E-06	226214.15625	8.79001963767223E-05
2	476	106.081731732169	1.18972778320313	1.1895751953125	5.1727294921875E-06	6.15335056863842E-06	229970.515625	8.84232867974788E-05
2	477	106.182439731915	1.19979858398438	1.19964599609375	5.1361083984375E-06	6.16151191934478E-06	233571	8.89423754415475E-05
2	478	106.283147731661	1.20986938476563	1.21002197265625	5.1025390625E-06	6.17418436377193E-06	237141.15625	8.94579352461733E-05
2	479	106.383855731407	1.21994018554688	1.21978759765625	5.072021484375E-06	6.18678859609645E-06	240493.390625	8.99702645256184E-05
2	480	106.484563731152	1.23001098632813	1.2298583984375	5.0445556640625E-06	6.20408900431357E-06	243799.15625	9.04796761460602E-05
2	481	106.585271730898	1.24008178710938	1.24053955078125	5.01708984375E-06	6.22389825366554E-06	247262.78125	9.0986315626651E-05
2	482	106.685979730644	1.25015258789063	1.25030517578125	4.99267578125E-06	6.24236827206914E-06	250427.875	9.1490350314416E-05
2	483	106.78668773039	1.26022338867188	1.2603759765625	4.9664306640625E-06	6.25956954536377E-06	253779.046875	9.19918311410584E-05
2	484	106.887395730135	1.27029418945313	1.2701416015625	4.9444580078125E-06	6.28016186965397E-06	256881.875	9.24908817978576E-05
2	485	106.988103729881	1.28036499023438	1.28021240234375	4.92401123046875E-06	6.30378008281696E-06	259993.8125	9.29878005990759E-05
2	486	107.088811729627	1.29043579101563	1.290283203125	4.9053955078125E-06	6.3293496168626E-06	263033.46875	9.34827476157807E-05
2	487	107.189519729372	1.30050659179688	1.3006591796875	4.88861083984375E-06	6.35841661278391E-06	266059.0625	9.39759192988276E-05
2	488	107.290227729118	1.31057739257813	1.31072998046875	4.87213134765625E-06	6.38604842606583E-06	269026	9.44674102356657E-05
2	489	107.390935728864	1.32064819335938	1.32110595703125	4.8577880859375E-06	6.41765291220509E-06	271956.28125	9.4957351393532E-05
2	490	107.49164372861	1.33071899414063	1.33087158203125	4.84375E-06	6.44640931568574E-06	274760.59375	9.54458591877483E-05
2	491	107.592351728355	1.34078979492188	1.34124755859375	4.83123779296875E-06	6.47988554192125E-06	277619.875	9.59330354817212E-05
2	492	107.693059728101	1.35086059570313	1.35101318359375	4.82086181640625E-06	6.51304753773729E-06	280243.09375	9.64190548984334E-05
2	493	107.793767727847	1.36093139648438	1.3604736328125	4.81231689453125E-06	6.54702989777434E-06	282706.59375	9.69041284406558E-05
2	494	107.894475727593	1.37100219726563	1.37115478515625	4.805908203125E-06	6.58964427202591E-06	285306.0625	9.73884452832863E-05
2	495	107.995183727338	1.38107299804688	1.38092041015625	4.80194091796875E-06	6.63109767629066E-06	287575.5	9.78722382569686E-05
2	496	108.095891727084	1.39114379882813	1.39068603515625	4.80224609375E-06	6.67841686663451E-06	289590.75	9.83558420557529E-05
2	497	108.19659972683	1.40121459960938	1.4007568359375	4.8046875E-06	6.7301984927326E-06	291539.65625	9.88395913736895E-05
2	498	108.297307726576	1.41128540039063	1.4111328125	4.81109619140625E-06	6.78909555063001E-06	293307.96875	9.93237845250405E-05
2	499	108.398015726321	1.42135620117188	1.4215087890625	4.8211669921875E-06	6.85333088767948E-06	294847.46875	9.98088071355596E-05
2	500	108.498723726067	1.43142700195313	1.431884765625	4.83551025390625E-06	6.92389312462183E-06	296118.65625	0.000100295059382915
2	501	108.599431725813	1.44149780273438	1.44134521484375	4.854736328125E-06	6.99735073794727E-06	296894.65625	0.000100782999652438
2	502	108.700139725559	1.45156860351563	1.45172119140625	4.87945556640625E-06	7.08360903445282E-06	297517.0625	0.000101273159089033
2	503	108.800847725304	1.46163940429688	1.46209716796875	4.910888671875E-06	7.18019600753905E-06	297725.59375	0.000101766141597182
2	504	108.90155572505	1.47171020507813	1.4715576171875	4.9493408203125E-06	7.28323993826052E-06	297323.96875	0.000102262645668816
2	505	109.002263724796	1.48178100585938	1.48162841796875	4.998779296875E-06	7.40633367968258E-06	296398.03125	0.00010276357352268
2	506	109.102971724541	1.49185180664063	1.49169921875	5.0567626953125E-06	7.54316852180636E-06	294990.96875	0.000103269907413051
2	507	109.203679724287	1.50192260742188	1.50177001953125	5.126953125E-06	7.69950474932557E-06	292916.65625	0.000103782702353783
2	508	109.304387724033	1.49185180664063	1.49200439453125	4.89044189453125E-06	7.29656039766269E-06	305085.8125	0.000104287115391344
2	509	109.405095723779	1.48178100585938	1.48162841796875	4.71588134765625E-06	6.98718349667615E-06	314178.5	0.000104770828329492
2	510	109.505803723524	1.47171020507813	1.4715576171875	4.5782470703125E-06	6.73715430821176E-06	321423.8125	0.000105238825199194
2	511	109.60651172327	1.46163940429688	1.4617919921875	4.46380615234375E-06	6.525155640702E-06	327476.59375	0.000105694132798817
2	512	109.707219723016	1.45156860351563	1.451416015625	4.3670654296875E-06	6.3384281929757E-06	332355	0.000106138802948408
2	513	109.807927722762	1.44149780273438	1.441650390625	4.2840576171875E-06	6.17611294728704E-06	336515.1875	0.000106574421806727
2	514	109.908635722507	1.43142700195313	1.43157958984375	4.21142578125E-06	6.02899126533885E-06	339927.53125	0.000107002204458695
2	515	110.009343722253	1.42135620117188	1.42181396484375	4.1473388671875E-06	5.8967439144908E-06	342825.625	0.000107423096778803
2	516	110.110051721999	1.41128540039063	1.41143798828125	4.09027099609375E-06	5.77316404815065E-06	345072	0.00010783789184643
2	517	110.210759721745	1.40121459960938	1.4013671875	4.03839111328125E-06	5.65926893614233E-06	347011.25	0.000108247208117973
2	518	110.31146772149	1.39114379882813	1.3916015625	3.9923095703125E-06	5.55570386495674E-06	348570.59375	0.000108651584014297
2	519	110.412175721236	1.38107299804688	1.380615234375	3.9495849609375E-06	5.4528568398382E-06	349559.59375	0.000109051492472645
2	520	110.512883720982	1.37100219726563	1.370849609375	3.90960693359375E-06	5.35948265678599E-06	350636.1875	0.00010944723180728
2	521	110.613591720728	1.36093139648438	1.361083984375	3.87298583984375E-06	5.2714590310643E-06	351430.15625	0.00010983911488438
2	522	110.714299720473	1.35086059570313	1.35101318359375	3.83819580078125E-06	5.18545311933849E-06	351991.71875	0.000110227403638419
2	523	110.815007720219	1.34078979492188	1.34063720703125	3.80584716796875E-06	5.10226027472527E-06	352257.25	0.000110612316348124
2	524	110.915715719965	1.33071899414063	1.33056640625	3.77410888671875E-06	5.02170223626308E-06	352551.15625	0.000110993991256692
2	525	111.01642371971	1.32064819335938	1.32110595703125	3.743896484375E-06	4.94608366352622E-06	352869.28125	0.000111372559331357
2	526	111.117131719456	1.31057739257813	1.31072998046875	3.7152099609375E-06	4.8696369958634E-06	352801.0625	0.000111748151539359
2	527	111.217839719202	1.30050659179688	1.30035400390625	3.6871337890625E-06	4.79457912661019E-06	352673.40625	0.000112120891571976
2	528	111.318547718948	1.29043579101563	1.29058837890625	3.6602783203125E-06	4.72391275252448E-06	352592.96875	0.000112490859464742
2	529	111.419255718693	1.28036499023438	1.280517578125	3.63433837890625E-06	4.65383391201613E-06	352338.5625	0.000112858171632979
2	530	111.519963718439	1.27029418945313	1.270751953125	3.6090087890625E-06	4.58615477327839E-06	352105.53125	0.00011322290811222
2	531	111.620671718185	1.26022338867188	1.2603759765625	3.585205078125E-06	4.51870619144756E-06	351549.21875	0.000113585163489915
2	532	111.721379717931	1.25015258789063	1.24969482421875	3.56201171875E-06	4.45142768512596E-06	350839.625	0.000113945054181386
2	533	111.822087717676	1.24008178710938	1.2408447265625	3.5394287109375E-06	4.39188124801149E-06	350577.6875	0.000114302638394292
2	534	111.922795717422	1.23001098632813	1.2298583984375	3.5174560546875E-06	4.32597289545811E-06	349644.28125	0.000114657981612254
2	535	112.023503717168	1.21994018554688	1.21978759765625	3.49609375E-06	4.26449196311296E-06	348900.125	0.000115011142042931
2	536	112.124211716914	1.20986938476563	1.209716796875	3.475341796875E-06	4.20417927671224E-06	348085.71875	0.000115362185169943
2	537	112.224919716659	1.19979858398438	1.1993408203125	3.45458984375E-06	4.14323039876763E-06	347173.15625	0.000115711132821161
2	538	112.325627716405	1.18972778320313	1.18988037109375	3.4344482421875E-06	4.0865825212677E-06	346454.59375	0.000116058021376375
2	539	112.426335716151	1.17965698242188	1.17950439453125	3.4136962890625E-06	4.02646992370137E-06	345521.1875	0.000116402850835584
2	540	112.527043715897	1.16958618164063	1.16943359375	3.3935546875E-06	3.96853693018784E-06	344604.3125	0.000116745628474746
2	541	112.627751715642	1.15951538085938	1.15966796875	3.37188720703125E-06	3.91026924262405E-06	343922.53125	0.0001170862960862
2	542	112.728459715388	1.14944458007813	1.14959716796875	3.34930419921875E-06	3.8503503674292E-06	343234.625	0.000117424729978666
2	543	112.829167715134	1.13937377929688	1.138916015625	3.323974609375E-06	3.78572804038413E-06	342636.78125	0.000117760755529162
2	544	112.929875714879	1.12930297851563	1.129150390625	3.29681396484375E-06	3.72259864889202E-06	342497.46875	0.000118094139907043
2	545	113.030583714625	1.11923217773438	1.11968994140625	3.26446533203125E-06	3.65518894795969E-06	342993.375	0.000118424526590388
2	546	113.131291714371	1.10916137695313	1.1090087890625	3.22723388671875E-06	3.57903059011733E-06	343640.6875	0.000118751413538121
2	547	113.231999714117	1.09909057617188	1.09954833984375	3.18145751953125E-06	3.49816627931432E-06	345611.5	0.000119074116810225
2	548	113.332707713862	1.08901977539063	1.0888671875	3.12347412109375E-06	3.40104838869593E-06	348607.71875	0.000119391595944762
2	549	113.433415713608	1.07894897460938	1.0797119140625	3.04962158203125E-06	3.29271256305219E-06	354047.84375	0.000119702432129998
2	550	113.534123713354	1.06887817382813	1.0687255859375	2.9541015625E-06	3.15712395604351E-06	361776.875	0.000120004748168867
2	551	113.6348317131	1.05880737304688	1.05865478515625	2.83111572265625E-06	2.99717407870048E-06	373935.5625	0.000120296055683866
2	552	113.735539712845	1.04873657226563	1.048583984375	2.67425537109375E-06	2.80418112197367E-06	392103.1875	0.000120573269668967
2	553	113.836247712591	1.03866577148438	1.03851318359375	2.48199462890625E-06	2.57758415500575E-06	418418.78125	0.000120832912216429
2	554	113.936955712337	1.02859497070313	1.02874755859375	2.25555419921875E-06	2.32039587899635E-06	456095.25	0.000121071461762767
2	555	114.037663712083	1.01852416992188	1.0186767578125	2.00469970703125E-06	2.04214097720978E-06	508144.34375	0.000121285986097064
2	556	114.138371711828	1.00845336914063	1.00830078125	1.74713134765625E-06	1.76163382548111E-06	577117.9375	0.000121474906336516
2	557	114.239079711574	0.998382568359375	0.99822998046875	1.5069580078125E-06	1.5042905943119E-06	662414	0.000121638760901988
2	558	114.33978771132	0.988311767578125	0.98846435546875	1.30462646484375E-06	1.28957663036999E-06	757660.875	0.000121780336485244
2	559	114.440495711066	0.978240966796875	0.97869873046875	1.15478515625E-06	1.13018666070275E-06	847515.9375	0.000121904173283838
2	560	114.541203710811	0.968170166015625	0.9686279296875	1.06414794921875E-06	1.03076342838904E-06	910238.0625	0.000122015910164919
2	561	114.641911710557	0.958099365234375	0.95855712890625	1.02508544921875E-06	9.82602955446055E-07	935099.75	0.000122121113236062
2	562	114.742619710303	0.948028564453125	0.94879150390625	1.019287109375E-06	9.67090954873129E-07	930838.375	0.000122224053484388
2	563	114.843327710048	0.937957763671875	0.93780517578125	1.0260009765625E-06	9.62189005804248E-07	914039.25	0.000122327037388459
2	564	114.944035709794	0.927886962890625	0.927734375	1.02447509765625E-06	9.50440721680934E-07	905570.5	0.000122430283227004
2	565	115.04474370954	0.917816162109375	0.91827392578125	1.0009765625E-06	9.19170702218253E-07	917378.0625	0.00012253227760084
2	566	115.145451709286	0.907745361328125	0.90789794921875	9.4268798828125E-07	8.55864470850065E-07	963094.875	0.000122630153782666
2	567	115.246159709031	0.897674560546875	0.8978271484375	8.3740234375E-07	7.51842492263677E-07	1072157.5	0.000122719779028557
2	568	115.346867708777	0.887603759765625	0.88775634765625	6.76574707031249E-07	6.00633484282298E-07	1312133.5	0.000122796016512439
2	569	115.447575708523	0.877532958984375	0.87799072265625	4.54101562500001E-07	3.98696954562183E-07	1933467.75	0.000122852958156727
2	570	115.548283708269	0.867462158203125	0.8673095703125	1.7120361328125E-07	1.48486535067605E-07	5065954	0.000122884433949366
2	571	115.648991708014	0.857391357421875	0.85784912109375	-1.62658691406251E-07	-1.39536624033099E-07	-5273921	0.000122884870506823
2	572	115.74969970776	0.847320556640625	0.8477783203125	-5.206298828125E-07	-4.41378745108523E-07	-1628370.375	0.000122850469779223
2	573	115.850407707506	0.837249755859375	0.83740234375	-8.76464843749999E-07	-7.33953697817924E-07	-955431.8125	0.000122780111269094
2	574	115.951115707252	0.827178955078125	0.82794189453125	-1.19476318359375E-06	-9.89194518297154E-07	-692975.75	0.000122675817692652
2	575	116.051823706997	0.817108154296875	0.8172607421875	-1.4495849609375E-06	-1.18468881282752E-06	-563789.5	0.000122542667668313
2	576	116.152531706743	0.807037353515625	0.80718994140625	-1.62109375E-06	-1.30853049995494E-06	-497929.21875	0.000122388053569011
2	577	116.253239706489	0.796966552734375	0.79681396484375	-1.71112060546875E-06	-1.36344476686645E-06	-465667.90625	0.000122220255434513
2	578	116.353947706235	0.786895751953125	0.78704833984375	-1.73004150390625E-06	-1.36162634589709E-06	-454930.3125	0.000122046978503931
2	579	116.45465570598	0.776824951171875	0.77728271484375	-1.69921875E-06	-1.32077332182234E-06	-457435.34375	0.000121874305477832
2	580	116.555363705726	0.766754150390625	0.7666015625	-1.641845703125E-06	-1.2586414186444E-06	-466914.5	0.000121706063509919
2	581	116.656071705472	0.756683349609375	0.75714111328125	-1.57806396484375E-06	-1.1948170595133E-06	-479791.15625	0.000121543933346402
2	582	116.756779705217	0.746612548828125	0.746551513671875	-1.524658203125E-06	-1.13823580250028E-06	-489651.75	0.000121387696708553
2	583	116.857487704963	0.736541748046875	0.73651123046875	-1.49444580078125E-06	-1.10067605874065E-06	-492832.34375	0.000121235672850162
2	584	116.958195704709	0.726470947265625	0.72637939453125	-1.4971923828125E-06	-1.08752965388703E-06	-485161.03125	0.000121085031423718
2	585	117.058903704455	0.716400146484375	0.7164306640625	-1.54205322265625E-06	-1.10477412818E-06	-464595.3125	0.000120931996207219
2	586	117.1596117042	0.706329345703125	0.706329345703125	-1.629638671875E-06	-1.15106161047152E-06	-433426.96875	0.000120772288937587
2	587	117.260319703946	0.696258544921875	0.69622802734375	-1.75933837890625E-06	-1.22490064313752E-06	-395732.875	0.000120601638627704
2	588	117.361027703692	0.686187744140625	0.6861572265625	-1.92108154296875E-06	-1.31816398152296E-06	-357172.34375	0.000120416312711313
2	589	117.461735703438	0.676116943359375	0.676025390625	-2.09930419921875E-06	-1.41918280860409E-06	-322023.5625	0.000120213873742614
2	590	117.562443703183	0.666046142578125	0.665985107421875	-2.26837158203125E-06	-1.51070162246469E-06	-293596.15625	0.00011999394337181
2	591	117.663151702929	0.655975341796875	0.655914306640625	-2.40692138671875E-06	-1.57873409989406E-06	-272511.71875	0.000119758522487246
2	592	117.763859702675	0.645904541015625	0.6458740234375	-2.4957275390625E-06	-1.61192565428792E-06	-258791.875	0.000119511656521354
2	593	117.864567702421	0.635833740234375	0.635833740234375	-2.528076171875E-06	-1.60743604737945E-06	-251508.953125	0.000119258686027024
2	594	117.965275702166	0.625762939453125	0.625732421875	-2.5079345703125E-06	-1.56929593231325E-06	-249501.09375	0.000119005104352254
2	595	118.065983701912	0.615692138671875	0.615692138671875	-2.4462890625E-06	-1.50616097016609E-06	-251684.140625	0.000118755640869495
2	596	118.166691701658	0.605621337890625	0.605560302734375	-2.35809326171875E-06	-1.42796773161535E-06	-256800.828125	0.000118513715278823
2	597	118.267399701404	0.595550537109375	0.5955810546875	-2.254638671875E-06	-1.34281992814067E-06	-264158.125	0.000118281444883905
2	598	118.368107701149	0.585479736328125	0.585479736328125	-2.14752197265625E-06	-1.25733049571863E-06	-272630.40625	0.000118059782835189
2	599	118.468815700895	0.575408935546875	0.57537841796875	-2.041015625E-06	-1.17435627089435E-06	-281907.90625	0.000117848874651827
2	600	118.569523700641	0.565338134765625	0.565338134765625	-1.93939208984375E-06	-1.0964122338919E-06	-291502.78125	0.000117648443847429
2	601	118.670231700386	0.555267333984375	0.5552978515625	-1.84417724609375E-06	-1.02406761470775E-06	-301108.71875	0.000117457922897302
2	602	118.770939700132	0.545196533203125	0.545166015625	-1.7578125E-06	-9.58299665398954E-07	-310138.90625	0.000117276547825895
2	603	118.871647699878	0.535125732421875	0.53509521484375	-1.67816162109375E-06	-8.97976235592068E-07	-318858	0.000117103532829788
2	604	118.972355699624	0.525054931640625	0.52508544921875	-1.60675048828125E-06	-8.43681277729047E-07	-326799.625	0.000116938128485344
2	605	119.073063699369	0.514984130859375	0.5150146484375	-1.541748046875E-06	-7.94022810168826E-07	-334045.9375	0.000116779585368931
2	606	119.173771699115	0.504913330078125	0.504913330078125	-1.48284912109375E-06	-7.4871024935419E-07	-340502.1875	0.000116627285024151
2	607	119.274479698861	0.494842529296875	0.494781494140625	-1.42974853515625E-06	-7.07413107647881E-07	-346061.90625	0.000116480623546522
2	608	119.375187698607	0.484771728515625	0.484771728515625	-1.38092041015625E-06	-6.69431130972953E-07	-351049.75	0.000116339098894969
2	609	119.475895698352	0.474700927734375	0.4747314453125	-1.336669921875E-06	-6.34559228274156E-07	-355159.8125	0.000116202252684161
2	610	119.576603698098	0.464630126953125	0.464599609375	-1.29547119140625E-06	-6.01875399297569E-07	-358633.6875	0.000116069713840261
2	611	119.677311697844	0.454559326171875	0.454620361328125	-1.25823974609375E-06	-5.72021406242129E-07	-361314.5625	0.000115941125841346
2	612	119.77801969759	0.444488525390625	0.444549560546875	-1.22406005859375E-06	-5.4415534123109E-07	-363176.28125	0.000115816132165492
2	613	119.878727697335	0.434417724609375	0.4344482421875	-1.19232177734375E-06	-5.18002082117164E-07	-364371.65625	0.00011569445632631
2	614	119.979435697081	0.424346923828125	0.42431640625	-1.163330078125E-06	-4.93620007091522E-07	-364742.9375	0.000115575843665283
2	615	120.080143696827	0.414276123046875	0.414337158203125	-1.13677978515625E-06	-4.71010082492285E-07	-364483.25	0.000115460024971981
2	616	120.180851696573	0.404205322265625	0.404205322265625	-1.11236572265625E-06	-4.49624138809668E-07	-363374.5	0.000115346767415758
2	617	120.281559696318	0.394134521484375	0.3941650390625	-1.08917236328125E-06	-4.29313644190188E-07	-361894.09375	0.000115235910925549
2	618	120.382267696064	0.384063720703125	0.384063720703125	-1.068115234375E-06	-4.10224316738095E-07	-359571.4375	0.000115127288154326
2	619	120.48297569581	0.373992919921875	0.37396240234375	-1.0491943359375E-06	-3.92359225998007E-07	-356428.15625	0.000115020673547406
2	620	120.583683695555	0.363922119140625	0.363922119140625	-1.02996826171875E-06	-3.74828204030564E-07	-353333.34375	0.000114915972517338
2	621	120.684391695301	0.353851318359375	0.353912353515625	-1.01318359375E-06	-3.58578176928859E-07	-349307.21875	0.000114813097752631
2	622	120.785099695047	0.343780517578125	0.34381103515625	-9.9700927734375E-07	-3.42782783491202E-07	-344842.375	0.000114711874630302
2	623	120.885807694793	0.333709716796875	0.333740234375	-9.8114013671875E-07	-3.27445945913496E-07	-340155.53125	0.000114612266770564
2	624	120.986515694538	0.323638916015625	0.32366943359375	-9.66796875000001E-07	-3.12922594503107E-07	-334785.375	0.000114514179585967
2	625	121.087223694284	0.313568115234375	0.3135986328125	-9.527587890625E-07	-2.9878384566473E-07	-329148	0.00011441752576502
2	626	121.18793169403	0.303497314453125	0.303497314453125	-9.4024658203125E-07	-2.85362290242119E-07	-322784.8125	0.000114322203444317
2	627	121.288639693776	0.293426513671875	0.293426513671875	-9.28344726562499E-07	-2.72400967560316E-07	-316074.96875	0.00011422811076045
2	628	121.389347693521	0.283355712890625	0.283416748046875	-9.1705322265625E-07	-2.59908233601891E-07	-309051.59375	0.00011413518950576
2	629	121.490055693267	0.273284912109375	0.273284912109375	-9.0606689453125E-07	-2.4761439476606E-07	-301616.71875	0.000114043388748541
2	630	121.590763693013	0.263214111328125	0.263214111328125	-8.96301269531249E-07	-2.35919131341689E-07	-293667.03125	0.000113952628453262
2	631	121.691471692759	0.253143310546875	0.25311279296875	-8.87451171875001E-07	-2.24625239297893E-07	-285213.21875	0.000113862814032473
2	632	121.792179692504	0.243072509765625	0.243072509765625	-8.795166015625E-07	-2.1378629355695E-07	-276370.59375	0.000113773836346809
2	633	121.89288769225	0.233001708984375	0.2330322265625	-8.72802734375E-07	-2.03391167019618E-07	-266993	0.000113685600808822
2	634	121.993595691996	0.222930908203125	0.222991943359375	-8.6669921875E-07	-1.93266942005721E-07	-257288.734375	0.000113598012831062
2	635	122.094303691742	0.212860107421875	0.212860107421875	-8.6181640625E-07	-1.83446331902815E-07	-246990.09375	0.000113510970550124
2	636	122.195011691487	0.202789306640625	0.202789306640625	-8.58154296874999E-07	-1.74024521015781E-07	-236308.671875	0.000113424364826642
2	637	122.295719691233	0.192718505859375	0.192779541015625	-8.5601806640625E-07	-1.65022768783274E-07	-225205	0.000113338050141465
2	638	122.396427690979	0.182647705078125	0.182647705078125	-8.55712890625E-07	-1.56293992858991E-07	-213445.078125	0.000113251859147567
2	639	122.497135690724	0.172576904296875	0.172637939453125	-8.58459472656251E-07	-1.48202673244668E-07	-201102.03125	0.00011316554446239
2	640	122.59784369047	0.162506103515625	0.1624755859375	-8.6334228515625E-07	-1.4027203576461E-07	-188193.703125	0.00011307884415146
2	641	122.698551690216	0.152435302734375	0.1524658203125	-8.709716796875E-07	-1.32793402940479E-07	-175052.5625	0.000112991510832217
2	642	122.799259689962	0.142364501953125	0.142333984375	-8.837890625E-07	-1.25793206962044E-07	-161049.734375	0.00011290315160295
2	643	122.899967689707	0.132293701171875	0.13238525390625	-9.014892578125E-07	-1.19343880555789E-07	-146851.734375	0.000112813257146627
2	644	123.000675689453	0.122222900390625	0.122283935546875	-9.2620849609375E-07	-1.13260419709604E-07	-132026.359375	0.000112721223558765
2	645	123.101383689199	0.112152099609375	0.112152099609375	-9.6038818359375E-07	-1.07709553276436E-07	-116777.8828125	0.000112626228656154
2	646	123.202091688945	0.102081298828125	0.10211181640625	-1.005859375E-06	-1.02710117744209E-07	-101517	0.00011252721742494
2	647	123.30279968869	0.092010498046875	0.092041015625	-1.0662841796875E-06	-9.81418821766056E-08	-86319.40625	0.000112422880192753
2	648	123.403507688436	0.081939697265625	0.082000732421875	-1.1456298828125E-06	-9.39424893431351E-08	-71576.984375	0.000112311499833595
2	649	123.504215688182	0.071868896484375	0.0718994140625	-1.2469482421875E-06	-8.96548399964558E-08	-57660.30859375	0.000112191024527419
2	650	123.604923687928	0.061798095703125	0.061920166015625	-1.3739013671875E-06	-8.50722017275984E-08	-45068.859375	0.000112059053208213
2	651	123.705631687673	0.051727294921875	0.051788330078125	-1.5313720703125E-06	-7.93071990301542E-08	-33818.25390625	0.000111912762804423
2	652	123.806339687419	0.041656494140625	0.0417999267578125	-1.71966552734375E-06	-7.18818924383413E-08	-24307.009765625	0.000111749061034061
2	653	123.907047687165	0.031585693359375	0.0317108154296875	-1.9342041015625E-06	-6.13351858191891E-08	-16394.76171875	0.000111565073893871
2	654	124.007755686911	0.021514892578125	0.021636962890625	-2.1612548828125E-06	-4.67629881484299E-08	-10011.296875	0.000111358851427212
2	655	124.108463686656	0.011444091796875	0.011517333984375	-2.3834228515625E-06	-2.74506746222869E-08	-4832.2666015625	0.000111130008008331
2	656	124.209171686402	0.001373291015625	0.00147705078125	-2.5775146484375E-06	-3.80711995262573E-09	-573.052368164063	0.000110880202555563
2	657	124.309879686148	-0.008697509765625	-0.00856628417968749	-2.7252197265625E-06	2.33450077047337E-08	3143.33715820313	0.000110613189463038
2	658	124.410587685893	-0.018768310546875	-0.018603515625	-2.81646728515625E-06	5.23961922738181E-08	6605.265625	0.000110334141936619
2	659	124.511295685639	-0.028839111328125	-0.028692626953125	-2.85430908203125E-06	8.18976246819147E-08	10052.3896484375	0.00011004859698005
2	660	124.612003685385	-0.038909912109375	-0.0387542724609375	-2.8466796875E-06	1.1032099678232E-07	13613.8515625	0.00010976153134834
2	661	124.712711685131	-0.048980712890625	-0.04886474609375	-2.8082275390625E-06	1.37223324259139E-07	17400.564453125	0.000109476779471152
2	662	124.813419684876	-0.059051513671875	-0.058990478515625	-2.7508544921875E-06	1.62274218951097E-07	21444.419921875	0.000109196858829819
2	663	124.914127684622	-0.069122314453125	-0.069000244140625	-2.685546875E-06	1.85303392186142E-07	25693.181640625	0.0001089231154765
2	664	125.014835684368	-0.079193115234375	-0.079193115234375	-2.61749267578125E-06	2.07287385478594E-07	30255.3359375	0.00010865608783206
2	665	125.115543684114	-0.089263916015625	-0.089141845703125	-2.55218505859375E-06	2.27506475880546E-07	34927.66015625	0.000108395775896497
2	666	125.216251683859	-0.099334716796875	-0.099273681640625	-2.4920654296875E-06	2.47396485519857E-07	39835.90625	0.000108141772216186
2	667	125.316959683605	-0.109405517578125	-0.10931396484375	-2.4371337890625E-06	2.66412740757005E-07	44853.49609375	0.000107893567474093
2	668	125.417667683351	-0.119476318359375	-0.11932373046875	-2.38800048828125E-06	2.849451163911E-07	49968.05078125	0.000107650601421483
2	669	125.518375683097	-0.129547119140625	-0.1295166015625	-2.344970703125E-06	3.03712624827313E-07	55231.65234375	0.00010741227742983
2	670	125.619083682842	-0.139617919921875	-0.1395263671875	-2.30712890625E-06	3.21905304190295E-07	60476.19140625	0.000107178027974442
2	671	125.719791682588	-0.149688720703125	-0.14959716796875	-2.27386474609375E-06	3.40163722967191E-07	65789.828125	0.000106947358290199
2	672	125.820499682334	-0.159759521484375	-0.15966796875	-2.24639892578125E-06	3.58677965550669E-07	71077.296875	0.000106719744508155
2	673	125.92120768208	-0.169830322265625	-0.16961669921875	-2.22320556640625E-06	3.7709276057285E-07	76293.7578125	0.000106494684587233
2	674	126.021915681825	-0.179901123046875	-0.179656982421875	-2.20428466796875E-06	3.9601511048204E-07	81503.53125	0.000106271741969977
2	675	126.122623681571	-0.189971923828125	-0.18975830078125	-2.18963623046875E-06	4.15501659745132E-07	86662.0234375	0.000106050487374887
2	676	126.223331681317	-0.200042724609375	-0.199920654296875	-2.17926025390625E-06	4.35679140764478E-07	91737.8515625	0.000105830498796422
2	677	126.324039681062	-0.189971923828125	-0.189788818359375	-1.9439697265625E-06	3.68943716466674E-07	97629.515625	0.000105622872069944
