Potential,Current,Normalized_Potential,Normalized_Current
-0.200042724609375,7.7850341796875e-07,-0.23162841796875,0.1144305387341318
-0.19500732421875,1.12518310546875e-06,-0.226593017578125,0.1653882384605033
-0.189971923828125,1.126708984375e-06,-0.2215576171875,0.1656125241107074
-0.1849365234375,1.12274169921875e-06,-0.216522216796875,0.16502938142017676
-0.179901123046875,1.11968994140625e-06,-0.21148681640625,0.16458081011976855
-0.17486572265625,1.1151123046875e-06,-0.206451416015625,0.16390795316915627
-0.169830322265625,1.11236572265625e-06,-0.201416015625,0.16350423899878888
-0.164794921875,1.1102294921875e-06,-0.196380615234375,0.16319023908850314
-0.159759521484375,1.1102294921875e-06,-0.19134521484375,0.16319023908850314
-0.15472412109375,1.11083984375e-06,-0.186309814453125,0.16327995334858478
-0.149688720703125,1.112060546875e-06,-0.1812744140625,0.16345938186874803
-0.1446533203125,1.11572265625e-06,-0.176239013671875,0.1639976674292379
-0.139617919921875,1.121826171875e-06,-0.17120361328125,0.1648948100300543
-0.13458251953125,1.13006591796875e-06,-0.166168212890625,0.16610595254115643
-0.129547119140625,1.1407470703125e-06,-0.1611328125,0.1676759520925851
-0.12451171875,1.15509033203125e-06,-0.156097412109375,0.16978423720450367
-0.119476318359375,1.17401123046875e-06,-0.15106201171875,0.1725653792670345
-0.11444091796875,1.19781494140625e-06,-0.146026611328125,0.17606423541021846
-0.109405517578125,1.22650146484375e-06,-0.1409912109375,0.18028080563405552
-0.1043701171875,1.2640380859375e-06,-0.135955810546875,0.18579823262907638
-0.099334716796875,1.3055419921875e-06,-0.13092041015625,0.19189880231462791
-0.09429931640625,1.36199951171875e-06,-0.125885009765625,0.20019737137217963
-0.089263916015625,1.42852783203125e-06,-0.120849609375,0.20997622572107835
-0.084228515625,1.5081787109375e-06,-0.115814208984375,0.2216839366617324
-0.079193115234375,1.60247802734375e-06,-0.11077880859375,0.23554478984434576
-0.07415771484375,1.7144775390625e-06,-0.105743408203125,0.2520073565693267
-0.069122314453125,1.845703125e-06,-0.1007080078125,0.2712959224868793
-0.0640869140625,1.9976806640625e-06,-0.095672607421875,0.29363477324720766
-0.059051513671875,2.174072265625e-06,-0.09063720703125,0.3195621944108016
-0.05401611328125,2.3748779296875e-06,-0.085601806640625,0.34907818597766116
-0.048980712890625,2.5982666015625e-06,-0.08056640625,0.38191360516754136
-0.0439453125,2.852783203125e-06,-0.075531005859375,0.41932445162158527
-0.038909912109375,3.1298828125e-06,-0.07049560546875,0.4600547256986498
-0.03387451171875,3.43109130859375e-06,-0.065460205078125,0.5043287130489391
-0.028839111328125,3.75335693359375e-06,-0.0604248046875,0.5516978423720451
-0.0238037109375,4.09088134765625e-06,-0.055389404296875,0.601309828197192
-0.018768310546875,4.43878173828125e-06,-0.05035400390625,0.6524469564437267
-0.01373291015625,4.79034423828125e-06,-0.045318603515625,0.7041223702507514
-0.008697509765625,5.13946533203125e-06,-0.040283203125,0.7554389270174495
-0.003662109375,5.47576904296875e-06,-0.035247802734375,0.8048714843224332
0.001373291015625,5.79315185546875e-06,-0.03021240234375,0.8515228995648859
0.00640869140625,6.06903076171875e-06,-0.025177001953125,0.8920737451217872
0.011444091796875,6.31744384765625e-06,-0.0201416015625,0.9285874489750147
0.0164794921875,6.5167236328125e-06,-0.015106201171875,0.9578791548916701
0.021514892578125,6.66839599609375e-06,-0.01007080078125,0.9801731485219577
0.02655029296875,6.76116943359375e-06,-0.005035400390625,0.9938097160543669
0.031585693359375,6.80328369140625e-06,0.0,1.0
0.03662109375,6.7840576171875e-06,0.005035400390625,0.9971740008074284
0.041656494140625,6.7034912109375e-06,0.01007080078125,0.9853317184766519
0.04669189453125,6.56097412109375e-06,0.015106201171875,0.9643834387475889
0.051727294921875,6.36474609375e-06,0.0201416015625,0.9355403041313417
0.0567626953125,6.11175537109375e-06,0.025177001953125,0.898353743327502
0.061798095703125,5.810546875e-06,0.03021240234375,0.8540797559772126
0.06683349609375,5.4730224609375e-06,0.035247802734375,0.8044677701520657
0.071868896484375,5.107421875e-06,0.040283203125,0.7507289283631634
0.076904296875,4.72259521484375e-06,0.045318603515625,0.6941640873816893
0.081939697265625,4.327392578125e-06,0.05035400390625,0.6360741039788275
0.08697509765625,3.94134521484375e-06,0.055389404296875,0.5793298344771901
0.092010498046875,3.565673828125e-06,0.0604248046875,0.5241107073969408
0.0970458984375,3.209228515625e-06,0.065460205078125,0.471717579509263
0.102081298828125,2.8778076171875e-06,0.07049560546875,0.4230027362849325
0.10711669921875,2.574462890625e-06,0.075531005859375,0.37841474902435746
0.112152099609375,2.30072021484375e-06,0.08056640625,0.3381779033777419
0.1171875,2.05596923828125e-06,0.085601806640625,0.30220248508500425
0.122222900390625,1.8408203125e-06,0.09063720703125,0.27057820840622615
0.12725830078125,1.65252685546875e-06,0.095672607421875,0.24290135917104022
0.132293701171875,1.4892578125e-06,0.1007080078125,0.21890279459920156
0.1373291015625,1.34918212890625e-06,0.105743408203125,0.19831337191046516
0.142364501953125,1.22802734375e-06,0.11077880859375,0.18050509128425962
0.14739990234375,1.12640380859375e-06,0.115814208984375,0.16556766698066658
0.152435302734375,1.038818359375e-06,0.120849609375,0.15269367065895126
0.157470703125,9.63745117187501e-07,0.125885009765625,0.14165881666890967
0.162506103515625,9.0057373046875e-07,0.13092041015625,0.13237339075045979
0.16754150390625,8.47778320312501e-07,0.135955810546875,0.12461310725339808
0.172576904296875,8.0108642578125e-07,0.1409912109375,0.11774996635715247
0.1776123046875,7.60803222656249e-07,0.146026611328125,0.11182882519176408
0.182647705078125,7.275390625e-07,0.15106201171875,0.10693939801731486
0.18768310546875,6.9915771484375e-07,0.156097412109375,0.10276768492351859
0.192718505859375,6.7474365234375e-07,0.1611328125,0.099179114520253
0.19775390625,6.53686523437501e-07,0.166168212890625,0.09608397254743657
0.202789306640625,6.34765625e-07,0.17120361328125,0.09330283048490558
0.20782470703125,6.18591308593751e-07,0.176239013671875,0.09092540259274226
0.212860107421875,6.04248046875e-07,0.1812744140625,0.08881711748082359
0.2178955078125,5.92041015625e-07,0.186309814453125,0.08702283227919079
0.222930908203125,5.7952880859375e-07,0.19134521484375,0.08518368994751715
0.22796630859375,5.70068359375e-07,0.196380615234375,0.08379311891625174
0.233001708984375,5.60913085937501e-07,0.201416015625,0.08244740501502729
0.238037109375,5.523681640625e-07,0.206451416015625,0.0811914053738842
0.243072509765625,5.4443359375e-07,0.21148681640625,0.08002511999282287
0.24810791015625,5.38330078125e-07,0.216522216796875,0.07912797739200646
0.253143310546875,5.316162109375e-07,0.2215576171875,0.07814112053110843
0.2581787109375,5.25817871093751e-07,0.226593017578125,0.07728883506033299
0.263214111328125,5.2032470703125e-07,0.23162841796875,0.07648140671959808
0.26824951171875,5.16357421875001e-07,0.236663818359375,0.07589826402906757
0.273284912109375,5.11474609375e-07,0.24169921875,0.0751805499484143
0.2783203125,5.078125e-07,0.246734619140625,0.07464226438792446
0.283355712890625,5.0384521484375e-07,0.25177001953125,0.0740591216973938
0.28839111328125,5.0048828125e-07,0.256805419921875,0.07356569326694479
0.293426513671875,4.98352050781251e-07,0.2618408203125,0.0732516933566592
0.2984619140625,4.962158203125e-07,0.266876220703125,0.07293769344637331
0.303497314453125,4.94079589843749e-07,0.27191162109375,0.07262369353608743
0.30853271484375,4.9163818359375e-07,0.276947021484375,0.072264836495761
0.313568115234375,4.901123046875e-07,0.281982421875,0.07204055084555691
0.318603515625,4.89501953125e-07,0.287017822265625,0.07195083658547526
0.323638916015625,4.89501953125e-07,0.29205322265625,0.07195083658547526
0.32867431640625,4.89501953125e-07,0.297088623046875,0.07195083658547526
0.333709716796875,4.8828125e-07,0.3021240234375,0.07177140806531199
0.3387451171875,4.89501953125e-07,0.307159423828125,0.07195083658547526
0.343780517578125,4.90417480468749e-07,0.31219482421875,0.07208540797559758
0.34881591796875,4.9163818359375e-07,0.317230224609375,0.072264836495761
0.353851318359375,4.93469238281251e-07,0.322265625,0.07253397927600606
0.35888671875,4.949951171875e-07,0.327301025390625,0.07275826492621001
0.363922119140625,4.98352050781249e-07,0.33233642578125,0.07325169335665889
0.36895751953125,5.0048828125e-07,0.337371826171875,0.07356569326694479
0.373992919921875,5.04150390625001e-07,0.3424072265625,0.07410397882743476
0.3790283203125,5.0811767578125e-07,0.347442626953125,0.07468712151796529
0.384063720703125,5.11474609375001e-07,0.35247802734375,0.07518054994841444
0.38909912109375,5.15136718750001e-07,0.357513427734375,0.07571883550890429
0.394134521484375,5.18798828125e-07,0.362548828125,0.07625712106939399
0.399169921875,5.218505859375e-07,0.367584228515625,0.07670569236980218
0.404205322265625,5.2642822265625e-07,0.37261962890625,0.07737854932041449
0.40924072265625,5.30090332031249e-07,0.377655029296875,0.07791683488090419
0.414276123046875,5.33752441406249e-07,0.3826904296875,0.07845512044139402
0.4193115234375,5.38024902343751e-07,0.387725830078125,0.07908312026196579
0.424346923828125,5.413818359375e-07,0.39276123046875,0.07957654869241466
0.42938232421875,5.4473876953125e-07,0.397796630859375,0.08006997712286369
0.434417724609375,5.48706054687501e-07,0.40283203125,0.0806531198133945
0.439453125,5.52062988281249e-07,0.407867431640625,0.08114654824384322
0.444488525390625,5.56030273437499e-07,0.41290283203125,0.08172969093437388
0.44952392578125,5.60607910156249e-07,0.417938232421875,0.08240254788498617
0.454559326171875,5.65490722656251e-07,0.4229736328125,0.08312026196563958
0.4595947265625,5.706787109375e-07,0.428009033203125,0.08388283317633338
0.464630126953125,5.76477050781249e-07,0.43304443359375,0.08473511864710881
0.46966552734375,5.8319091796875e-07,0.438079833984375,0.08572197550800699
0.474700927734375,5.902099609375e-07,0.443115234375,0.08675368949894587
0.479736328125,5.9783935546875e-07,0.448150634765625,0.08787511774996636
0.484771728515625,6.06079101562501e-07,0.45318603515625,0.08908626026106865
0.48980712890625,6.15539550781249e-07,0.458221435546875,0.09047683129233376
0.494842529296875,6.25305175781249e-07,0.4632568359375,0.09191225945364001
0.4998779296875,6.3629150390625e-07,0.468292236328125,0.09352711613510968
0.504913330078125,6.47888183593749e-07,0.47332763671875,0.0952316870766607
0.50994873046875,6.60095214843751e-07,0.478363037109375,0.09702597227829378
0.514984130859375,6.74743652343751e-07,0.4833984375,0.09917911452025314
0.52001953125,6.903076171875e-07,0.488433837890625,0.10146682815233482
0.525054931640625,7.06787109375e-07,0.49346923828125,0.1038891131745391
0.53009033203125,7.25708007812499e-07,0.498504638671875,0.1066702552370698
0.535125732421875,7.464599609375e-07,0.5035400390625,0.10972054007984569
0.5401611328125,7.6904296875e-07,0.508575439453125,0.11303996770286638
0.545196533203125,7.9498291015625e-07,0.51361083984375,0.11685282375633607
0.55023193359375,8.2366943359375e-07,0.518646240234375,0.12106939398017315
0.555267333984375,8.5601806640625e-07,0.523681640625,0.12582424976450007
0.560302734375,8.941650390625e-07,0.528717041015625,0.13143139101960258
0.565338134765625,9.36279296874999e-07,0.53375244140625,0.13762167496523559
0.57037353515625,9.844970703125e-07,0.538787841796875,0.14470910151168528
0.575408935546875,1.04034423828125e-06,0.5438232421875,0.15291795630915536
0.5804443359375,1.104736328125e-06,0.548858642578125,0.1623828107477684
0.585479736328125,1.17919921875e-06,0.55389404296875,0.17332795047772845
0.59051513671875,1.26373291015625e-06,0.558929443359375,0.1857533754990356
0.595550537109375,1.36077880859375e-06,0.56396484375,0.20001794285201632
0.6005859375,1.47247314453125e-06,0.569000244140625,0.21643565244695645
0.605621337890625,1.59881591796875e-06,0.57403564453125,0.23500650428385592
0.61065673828125,1.741943359375e-06,0.579071044921875,0.2560444982730005
0.615692138671875,1.89971923828125e-06,0.5841064453125,0.27923563450410444
0.6207275390625,2.07244873046875e-06,0.589141845703125,0.30462477010720856
0.625762939453125,2.25616455078125e-06,0.59417724609375,0.3316287623917822
0.63079833984375,2.44903564453125e-06,0.599212646484375,0.3599784685775804
0.635833740234375,2.6507568359375e-06,0.604248046875,0.38962903153456246
0.640869140625,2.85736083984375e-06,0.609283447265625,0.4199973085721976
0.645904541015625,3.065185546875e-06,0.61431884765625,0.450545014129996
0.65093994140625,3.2720947265625e-06,0.619354248046875,0.4809581482976719
0.655975341796875,3.4735107421875e-06,0.6243896484375,0.5105638541246131
0.6610107421875,3.66241455078125e-06,0.629425048828125,0.5383304176198808
0.666046142578125,3.831787109375e-06,0.63446044921875,0.5632261247925359
0.67108154296875,3.97705078125e-06,0.639495849609375,0.5845781186919661
0.676116943359375,4.0924072265625e-06,0.64453125,0.6015341138473961
0.68115234375,4.17327880859375e-06,0.649566650390625,0.6134212533082134
0.686187744140625,4.215087890625e-06,0.65460205078125,0.6195666801238057
0.69122314453125,4.21630859375e-06,0.659637451171875,0.6197461086439691
0.696258544921875,4.18121337890625e-06,0.6646728515625,0.6145875386892746
0.7012939453125,4.100341796875e-06,0.669708251953125,0.6027003992284574
0.706329345703125,3.9910888671875e-06,0.67474365234375,0.5866415466738438
0.71136474609375,3.8494873046875e-06,0.679779052734375,0.5658278383349034
0.716400146484375,3.68499755859375e-06,0.684814453125,0.5416498452429014
0.721435546875,3.50372314453125e-06,0.689849853515625,0.5150047099986543
0.726470947265625,3.3135986328125e-06,0.69488525390625,0.4870587179832234
0.73150634765625,3.1195068359375e-06,0.699920654296875,0.45852958327726195
0.736541748046875,2.930908203125e-06,0.7049560546875,0.4308078769120352
0.7415771484375,2.7520751953125e-06,0.709991455078125,0.40452159870811466
0.746612548828125,2.58453369140625e-06,0.71502685546875,0.3798950343157045
0.75164794921875,2.43377685546875e-06,0.720062255859375,0.35773561207553944
0.756683349609375,2.3052978515625e-06,0.72509765625,0.3388507603283542
0.76171875,2.19482421875e-06,0.730133056640625,0.3226124792535774
0.766754150390625,2.1044921875e-06,0.73516845703125,0.3093347687614946
0.77178955078125,2.03399658203125e-06,0.740203857421875,0.29897277172206527
0.776824951171875,1.9818115234375e-06,0.7452392578125,0.291302202485085
0.7818603515625,1.947021484375e-06,0.750274658203125,0.28618848966043153
0.786895751953125,1.927490234375e-06,0.75531005859375,0.283317633337819
0.79193115234375,1.92291259765625e-06,0.760345458984375,0.28264477638720675
0.796966552734375,1.9305419921875e-06,0.765380859375,0.28376620463822727
0.802001953125,1.94732666015625e-06,0.770416259765625,0.2862333467904724
0.807037353515625,1.97296142578125e-06,0.77545166015625,0.29000134571390124
0.81207275390625,2.00531005859375e-06,0.780487060546875,0.2947562014982282
0.817108154296875,2.04132080078125e-06,0.7855224609375,0.30004934284304496
0.8221435546875,2.0770263671875e-06,0.790557861328125,0.3052976270578208
0.827178955078125,2.11273193359375e-06,0.79559326171875,0.3105459112725968
0.83221435546875,2.1441650390625e-06,0.800628662109375,0.31516619566680126
0.837249755859375,2.1697998046875e-06,0.8056640625,0.3189341945902301
0.84228515625,2.18658447265625e-06,0.810699462890625,0.32140133674247523
0.847320556640625,2.19268798828125e-06,0.81573486328125,0.32229847934329164
0.85235595703125,2.1881103515625e-06,0.820770263671875,0.32162562239267933
0.857391357421875,2.17010498046875e-06,0.8258056640625,0.31897905172027097
0.8624267578125,2.13897705078125e-06,0.830841064453125,0.3144036244561073
0.867462158203125,2.09503173828125e-06,0.83587646484375,0.30794419773022924
0.87249755859375,2.04315185546875e-06,0.840911865234375,0.30031848562328983
0.877532958984375,1.97998046875e-06,0.845947265625,0.29103305970484006
0.882568359375,1.91131591796875e-06,0.850982666015625,0.2809402054456556
0.887603759765625,1.83990478515625e-06,0.85601806640625,0.27044363701610374
0.89263916015625,1.7657470703125e-06,0.861053466796875,0.2595433544161845
0.897674560546875,1.6937255859375e-06,0.8660888671875,0.24895707172655096
0.9027099609375,1.62445068359375e-06,0.871124267578125,0.2387745032072848
0.907745361328125,1.56005859375e-06,0.87615966796875,0.2293096487686718
0.91278076171875,1.5020751953125e-06,0.881195068359375,0.220786794060916
0.917816162109375,1.45233154296875e-06,0.88623046875,0.21347508186426234
0.9228515625,1.4105224609375e-06,0.891265869140625,0.20732965504867
0.927886962890625,1.378173828125e-06,0.89630126953125,0.20257479926434308
0.93292236328125,1.3525390625e-06,0.901336669921875,0.1988068003409142
0.937957763671875,1.334228515625e-06,0.9063720703125,0.196115372538465
0.9429931640625,1.32568359375e-06,0.911407470703125,0.19485937289732203
0.948028564453125,1.32232666015625e-06,0.91644287109375,0.19436594446687303
0.95306396484375,1.3262939453125e-06,0.921478271484375,0.19494908715740367
0.958099365234375,1.3348388671875e-06,0.926513671875,0.19620508679854665
0.963134765625,1.34765625e-06,0.931549072265625,0.19808908626026106
0.968170166015625,1.3641357421875e-06,0.93658447265625,0.20051137128246535
0.97320556640625,1.38214111328125e-06,0.941619873046875,0.20315794195487372
0.978240966796875,1.40167236328125e-06,0.9466552734375,0.2060287982774862
0.9832763671875,1.419677734375e-06,0.951690673828125,0.20867536894989458
0.988311767578125,1.4373779296875e-06,0.95672607421875,0.21127708249226218
0.99334716796875,1.4520263671875e-06,0.961761474609375,0.2134302247342215
0.998382568359375,1.4630126953125e-06,0.966796875,0.21504508141569104
1.00341796875,1.4691162109375e-06,0.971832275390625,0.21594222401650745
1.00845336914063,1.46942138671875e-06,0.9768676757812551,0.21598708114654824
1.01348876953125,1.4630126953125e-06,0.981903076171875,0.21504508141569104
1.01852416992188,1.4501953125e-06,0.9869384765625051,0.2131610819539766
1.0235595703125,1.43096923828125e-06,0.991973876953125,0.21033508276140495
1.02859497070313,1.405029296875e-06,0.9970092773437551,0.2065222267079352
1.03363037109375,1.373291015625e-06,1.002044677734375,0.20185708518368994
1.03866577148438,1.33636474609375e-06,1.007080078125005,0.19642937244875075
1.043701171875,1.29638671875e-06,1.012115478515625,0.1905530884134033
1.04873657226563,1.25396728515625e-06,1.017150878906255,0.18431794733772935
1.05377197265625,1.21002197265625e-06,1.022186279296875,0.17785852061185126
1.05880737304688,1.16485595703125e-06,1.027221679687505,0.1712196653658099
1.0638427734375,1.12213134765625e-06,1.032257080078125,0.1649396671600951
1.06887817382813,1.08062744140625e-06,1.037292480468755,0.15883909747454358
1.07391357421875,1.041259765625e-06,1.042327880859375,0.1530525276992778
1.07894897460938,1.004638671875e-06,1.047363281250005,0.1476696720943794
1.083984375,9.722900390625e-07,1.052398681640625,0.14291481631005248
1.08901977539063,9.42382812500001e-07,1.057434082031255,0.13851881756605228
1.09405517578125,9.1522216796875e-07,1.062469482421875,0.13452653299241915
1.09909057617188,8.9111328125e-07,1.067504882812505,0.13098281971919437
1.1041259765625,8.69140625000001e-07,1.072540283203125,0.12775310635625547
1.10916137695313,8.502197265625e-07,1.077575683593755,0.1249719642937245
1.11419677734375,8.34350585937499e-07,1.082611083984375,0.1226393935316017
1.11923217773438,8.20007324218749e-07,1.087646484375005,0.12053110841968316
1.124267578125,8.08105468750001e-07,1.092681884765625,0.11878168034809147
1.12930297851563,7.97424316406249e-07,1.097717285156255,0.11721168079666248
1.13433837890625,7.8826904296875e-07,1.102752685546875,0.11586596689543803
1.13937377929688,7.80334472656251e-07,1.107788085937505,0.11469968151437687
1.1444091796875,7.745361328125e-07,1.112823486328125,0.11384739604360114
1.14944458007813,7.68737792968749e-07,1.117858886718755,0.11299511057282541
1.15447998046875,7.6446533203125e-07,1.122894287109375,0.11236711075225407
