Potential - Start -0.2 V, Upper Vertex 1.5 V, Lower Vertex -0.2 V, Stop -0.19 V; Scan - # end cross 5, Rate 0.1 Vps, Step 0.01 V 
Scan	Index	Time (s)	Potential applied (V)	WE(1).Potential (V)	WE(1).Current (A)	WE(1).Power (W)	WE(1).Resistance (Ω)	WE(1).Charge (C)
1	1	59.1564538506443	-0.189971923828125	-0.1898193359375	-2.11486816406251E-07	4.01442861175383E-08	897546.9375	0
1	2	59.25716185039	-0.179901123046875	-0.179718017578125	-1.788330078125E-07	3.21395141611447E-08	1004948.8125	-1.96541645181014E-08
1	3	59.3578698501358	-0.169830322265625	-0.169708251953125	-1.53503417968751E-07	2.60507952987155E-08	1105566.625	-3.63886307752637E-08
1	4	59.4585778498815	-0.159759521484375	-0.15966796875	-1.3092041015625E-07	2.09037960274827E-08	1219580.375	-5.07105077929282E-08
1	5	59.5592858496273	-0.149688720703125	-0.149566650390625	-1.0986328125E-07	1.64318834094956E-08	1361388.875	-6.28349283715579E-08
1	6	59.659993849373	-0.139617919921875	-0.139495849609375	-9.06372070312494E-08	1.26435146796666E-08	1539057.25	-7.29309306279902E-08
1	7	59.7607018491187	-0.129547119140625	-0.129425048828125	-7.04956054687497E-08	9.12389719331941E-09	1835930.875	-8.10446110222074E-08
1	8	59.8614098488645	-0.119476318359375	-0.119415283203125	-5.06591796874997E-08	6.0494800280253E-09	2357229	-8.7145238580888E-08
1	9	59.9621178486102	-0.109405517578125	-0.109283447265625	-2.92968749999997E-08	3.20166337886008E-09	3730208.5	-9.11713513573886E-08
1	10	60.0628258483559	-0.099334716796875	-0.099212646484375	-4.88281249999972E-09	4.84436712966385E-10	20318750	-9.28924350773741E-08
1	11	60.1635338481017	-0.089263916015625	-0.089202880859375	2.50244140624994E-08	-2.23224971840352E-09	-3564634.25	-9.18782205872049E-08
1	12	60.2642418478474	-0.079193115234375	-0.0791015625	6.16455078124994E-08	-4.87625584355555E-09	-1283168.25	-8.75140457878842E-08
1	13	60.3649498475932	-0.069122314453125	-0.069000244140625	1.1016845703125E-07	-7.60165086433062E-09	-626315.8125	-7.88625271752608E-08
1	14	60.4656578473389	-0.059051513671875	-0.05902099609375	1.73339843750001E-07	-1.02306900728877E-08	-340492.96875	-6.45867501702924E-08
1	15	60.5663658470846	-0.048980712890625	-0.04881591796875	2.58483886718749E-07	-1.26181278758963E-08	-188854.78125	-4.2842696501566E-08
1	16	60.6670738468304	-0.038909912109375	-0.0387969970703125	3.7261962890625E-07	-1.44565222015558E-08	-104119.5859375	-1.10641105166565E-08
1	17	60.7677818465761	-0.028839111328125	-0.0287445068359375	5.22460937499999E-07	-1.5017882049051E-08	-55017.5234375	3.40067742854444E-08
1	18	60.8684898463218	-0.018768310546875	-0.0186248779296875	7.14111328125E-07	-1.33002355795497E-08	-26081.197265625	9.62731334652744E-08
1	19	60.9691978460676	-0.008697509765625	-0.0085784912109375	9.46044921875E-07	-8.11563793945425E-09	-9067.7421875	1.79868635541425E-07
1	20	61.0699058458133	0.001373291015625	0.00145874023437501	1.21063232421875E-06	1.76599801449129E-09	1204.94079589844	2.88465969333629E-07
1	21	61.170613845559	0.011444091796875	0.011572265625	1.49200439453125E-06	1.72658705110962E-08	7756.18798828125	4.24554514211195E-07
1	22	61.2713218453048	0.021514892578125	0.0216339111328125	1.7626953125E-06	3.81339937405301E-08	12273.2001953125	5.88441650961613E-07
1	23	61.3720298450505	0.031585693359375	0.031671142578125	1.99554443359375E-06	6.32011705192781E-08	15870.9296875	7.77684078911989E-07
1	24	61.4727378447963	0.041656494140625	0.041778564453125	2.16766357421875E-06	9.05618691149357E-08	19273.546875	9.87318230727396E-07
1	25	61.573445844542	0.051727294921875	0.051788330078125	2.27020263671875E-06	1.17570003510536E-07	22812.205078125	1.2107825568819E-06
1	26	61.6741538442877	0.061798095703125	0.061859130859375	2.30560302734375E-06	1.42622596399633E-07	26829.9140625	1.44119269407383E-06
1	27	61.7748618440335	0.071868896484375	0.0718994140625	2.28729248046875E-06	1.64454974083128E-07	31434.291015625	1.67246332694049E-06
1	28	61.8755698437792	0.081939697265625	0.08197021484375	2.23419189453125E-06	1.8313718896934E-07	36688.9765625	1.90013815881684E-06
1	29	61.9762778435249	0.092010498046875	0.092071533203125	2.159423828125E-06	1.98821453523124E-07	42637.0859375	2.12137433663884E-06
1	30	62.0769858432707	0.102081298828125	0.102081298828125	2.0770263671875E-06	2.12025540236027E-07	49147.8125	2.33469654631335E-06
1	31	62.1776938430164	0.112152099609375	0.11224365234375	1.99371337890625E-06	2.23781668751144E-07	56298.79296875	2.53967459684645E-06
1	32	62.2784018427622	0.122222900390625	0.122222900390625	1.9140625E-06	2.33942273553112E-07	63855.23046875	2.73644673143281E-06
1	33	62.3791098425079	0.132293701171875	0.13232421875	1.84051513671875E-06	2.4354471861443E-07	71895.2109375	2.92550453195872E-06
1	34	62.4798178422536	0.142364501953125	0.142425537109375	1.77398681640625E-06	2.52661010335942E-07	80285.5703125	3.10750920107239E-06
1	35	62.5805258419994	0.152435302734375	0.1524658203125	1.71478271484375E-06	2.61445734395238E-07	88912.6171875	3.28318265019334E-06
1	36	62.6812338417451	0.162506103515625	0.162567138671875	1.6607666015625E-06	2.69986060175142E-07	97886.8125	3.4531551591499E-06
1	37	62.7819418414908	0.172576904296875	0.172607421875	1.6131591796875E-06	2.78443252454963E-07	106999.625	3.61801039616694E-06
1	38	62.8826498412366	0.182647705078125	0.18267822265625	1.5716552734375E-06	2.8710718424918E-07	116233.0078125	3.77837864107278E-06
1	39	62.9833578409823	0.192718505859375	0.1927490234375	1.53350830078125E-06	2.95582225362523E-07	125691.546875	3.9347360143438E-06
1	40	63.084065840728	0.202789306640625	0.202850341796875	1.4996337890625E-06	3.04201222434131E-07	135266.59375	4.08746700486518E-06
1	41	63.1847738404738	0.212860107421875	0.212860107421875	1.4691162109375E-06	3.12716224470933E-07	144889.90625	4.23695519202738E-06
1	42	63.2854818402195	0.222930908203125	0.22296142578125	1.44195556640625E-06	3.21500465361169E-07	154624.34375	4.38353936260683E-06
1	43	63.3861898399653	0.233001708984375	0.233062744140625	1.417236328125E-06	3.30304970930229E-07	164448.765625	4.52751100965543E-06
1	44	63.486897839711	0.243072509765625	0.243072509765625	1.3946533203125E-06	3.39001871907385E-07	174288.84375	4.66910114482744E-06
1	45	63.5876058394567	0.253143310546875	0.253143310546875	1.37420654296875E-06	3.47871178973946E-07	184210.53125	4.80852395412512E-06
1	46	63.6883138392025	0.263214111328125	0.26318359375	1.35528564453125E-06	3.56688929059601E-07	194190.5	4.94596497446764E-06
1	47	63.7890218389482	0.273284912109375	0.2733154296875	1.337890625E-06	3.6566612493516E-07	204288.328125	5.0815770009649E-06
1	48	63.8897298386939	0.283355712890625	0.283355712890625	1.32293701171875E-06	3.74861770069401E-07	214186.84375	5.21556057719863E-06
1	49	63.9904378384397	0.293426513671875	0.29345703125	1.30859375E-06	3.84016033194712E-07	224253.734375	5.34806849827874E-06
1	50	64.0911458381854	0.303497314453125	0.303497314453125	1.29486083984375E-06	3.9298677734223E-07	234386.0625	5.47916306459229E-06
1	51	64.1918538379311	0.313568115234375	0.313690185546875	1.2835693359375E-06	4.02643081542919E-07	244388.96875	5.60899707124918E-06
1	52	64.2925618376769	0.323638916015625	0.323638916015625	1.27227783203125E-06	4.11758605878276E-07	254377.546875	5.73769420952885E-06
1	53	64.3932698374226	0.333709716796875	0.333770751953125	1.26251220703125E-06	4.21389643179282E-07	264370.3125	5.86533133173361E-06
1	54	64.4939778371684	0.343780517578125	0.34381103515625	1.25335693359375E-06	4.30917936000696E-07	274312.15625	5.99201530349092E-06
1	55	64.5946858369141	0.353851318359375	0.3538818359375	1.24481201171875E-06	4.40516345179276E-07	284285.375	6.11780797044048E-06
1	56	64.6953938366598	0.363922119140625	0.36395263671875	1.23779296875E-06	4.50498021109524E-07	294033.53125	6.24281710770447E-06
1	57	64.7961018364056	0.373992919921875	0.3740234375	1.2310791015625E-06	4.6045241219872E-07	303817.5625	6.36713457424776E-06
1	58	64.8968098361513	0.384063720703125	0.384124755859375	1.2255859375E-06	4.70777905547948E-07	313421.3125	6.49083767712E-06
1	59	64.997517835897	0.394134521484375	0.3941650390625	1.22039794921875E-06	4.81038227917452E-07	322980.75	6.61400281387614E-06
1	60	65.0982258356428	0.404205322265625	0.404205322265625	1.21673583984375E-06	4.91811078973114E-07	332204.6875	6.73672229822841E-06
1	61	65.1989338353885	0.414276123046875	0.414306640625	1.21246337890625E-06	5.02331602092454E-07	341706.53125	6.85904205965926E-06
1	62	65.2996418351343	0.424346923828125	0.42437744140625	1.2091064453125E-06	5.13117470291036E-07	350984.375	6.9809775595786E-06
1	63	65.40034983488	0.434417724609375	0.43450927734375	1.20574951171875E-06	5.23909363892017E-07	360364.46875	7.10257518221624E-06
1	64	65.5010578346257	0.444488525390625	0.444549560546875	1.20391845703125E-06	5.35201365892135E-07	369252.25	7.22391177987447E-06
1	65	65.6017658343715	0.454559326171875	0.454620361328125	1.2017822265625E-06	5.46354669950233E-07	378288.46875	7.34504828869831E-06
1	66	65.7024738341172	0.464630126953125	0.464599609375	1.20025634765625E-06	5.57638600184873E-07	387083.65625	7.46600062484504E-06
1	67	65.8031818338629	0.474700927734375	0.47467041015625	1.19964599609375E-06	5.69436451769434E-07	395675.40625	7.58684518586961E-06
1	68	65.9038898336087	0.484771728515625	0.48480224609375	1.19964599609375E-06	5.81591109494184E-07	404121.09375	7.70765927882167E-06
1	69	66.0045978333544	0.494842529296875	0.494873046875	1.1993408203125E-06	5.9352140624469E-07	412620.875	7.82845745561644E-06
1	70	66.1053058331001	0.504913330078125	0.5048828125	1.2005615234375E-06	6.06142862125125E-07	420538.875	7.94930292613572E-06
1	71	66.2060138328459	0.514984130859375	0.51495361328125	1.202392578125E-06	6.19176432792301E-07	428274.125	8.07030119176488E-06
1	72	66.3067218325916	0.525054931640625	0.5250244140625	1.2042236328125E-06	6.3224678115148E-07	435985.8125	8.19148408481851E-06
1	73	66.4074298323374	0.535125732421875	0.53509521484375	1.207275390625E-06	6.46007265459048E-07	443225.5	8.31291254144162E-06
1	74	66.5081378320831	0.545196533203125	0.545196533203125	1.21124267578125E-06	6.6036528778568E-07	450113.375	8.43469479150372E-06
1	75	66.6088458318288	0.555267333984375	0.555267333984375	1.217041015625E-06	6.75783098813554E-07	456243.71875	8.55696816870477E-06
1	76	66.7095538315746	0.565338134765625	0.5653076171875	1.224365234375E-06	6.92142975822208E-07	461714.875	8.67990274855401E-06
1	77	66.8102618313203	0.575408935546875	0.575408935546875	1.2335205078125E-06	7.09778703367192E-07	466477	8.80366678757127E-06
1	78	66.910969831066	0.585479736328125	0.58551025390625	1.24603271484375E-06	7.295648742911E-07	469899.625	8.92852222023066E-06
1	79	67.0116778308118	0.595550537109375	0.5955810546875	1.26251220703125E-06	7.51928382669576E-07	471742.8125	9.05483739188639E-06
1	80	67.1123858305575	0.605621337890625	0.6055908203125	1.28509521484375E-06	7.7824188338127E-07	471242	9.18311980058206E-06
1	81	67.2130938303033	0.615692138671875	0.615692138671875	1.31500244140625E-06	8.09636674148351E-07	468206.0625	9.31404520088108E-06
1	82	67.313801830049	0.625762939453125	0.625732421875	1.3555908203125E-06	8.48237107220484E-07	461593.875	9.44852035900112E-06
1	83	67.4145098297947	0.635833740234375	0.635833740234375	1.4093017578125E-06	8.96081587598019E-07	451169.34375	9.58774398895912E-06
1	84	67.5152178295405	0.645904541015625	0.645843505859375	1.4788818359375E-06	9.55126211010793E-07	436710.6875	9.73317492025672E-06
1	85	67.6159258292862	0.655975341796875	0.655975341796875	1.5618896484375E-06	1.02456101558346E-06	419988.28125	9.88629017228959E-06
1	86	67.7166338290319	0.666046142578125	0.66595458984375	1.6546630859375E-06	1.10193047930807E-06	402471.4375	1.00482566267601E-05
1	87	67.8173418287777	0.676116943359375	0.676055908203125	1.74774169921875E-06	1.18157106498984E-06	386816.84375	1.02195817817119E-05
1	88	67.9180498285234	0.686187744140625	0.686126708984375	1.8316650390625E-06	1.25675433082506E-06	374591.8125	1.03998190752463E-05
1	89	68.0187578282691	0.696258544921875	0.696197509765625	1.89727783203125E-06	1.32088007376296E-06	366945.46875	1.05875860754168E-05
1	90	68.1194658280149	0.706329345703125	0.706207275390625	1.9403076171875E-06	1.37025938329316E-06	363966.65625	1.07808236862184E-05
1	91	68.2201738277606	0.716400146484375	0.71630859375	1.96014404296875E-06	1.40406791615533E-06	365436.75	1.09772272480768E-05
1	92	68.3208818275064	0.726470947265625	0.72637939453125	1.961669921875E-06	1.42491649057774E-06	370286.28125	1.11747058326728E-05
1	93	68.4215898272521	0.736541748046875	0.736480712890625	1.9500732421875E-06	1.43619138270878E-06	377668.21875	1.13716778287198E-05
1	94	68.5222978269978	0.746612548828125	0.746551513671875	1.9305419921875E-06	1.44124896905851E-06	386705.6875	1.15670827653958E-05
1	95	68.6230058267436	0.756683349609375	0.75714111328125	1.907958984375E-06	1.44459409057163E-06	396833.03125	1.17603667604271E-05
1	96	68.7237138264893	0.766754150390625	0.7666015625	1.8853759765625E-06	1.44533214552212E-06	406604.09375	1.19513761092094E-05
1	97	68.824421826235	0.776824951171875	0.7769775390625	1.864013671875E-06	1.44829664350254E-06	416830.40625	1.21401726573822E-05
1	98	68.9251298259808	0.786895751953125	0.78704833984375	1.84600830078125E-06	1.45289766351198E-06	426351.46875	1.23269874165999E-05
1	99	69.0258378257265	0.796966552734375	0.797119140625	1.8316650390625E-06	1.46005527312809E-06	435188.28125	1.2512172361312E-05
1	100	69.1265458254722	0.807037353515625	0.8074951171875	1.82098388671875E-06	1.4704355635331E-06	443438.9375	1.26960985653568E-05
1	101	69.227253825218	0.817108154296875	0.81756591796875	1.81365966796875E-06	1.4827862742095E-06	450782.4375	1.28791170936893E-05
1	102	69.3279618249637	0.827178955078125	0.82763671875	1.81060791015625E-06	1.49852553477103E-06	457104.34375	1.30616135720629E-05
1	103	69.4286698247095	0.837249755859375	0.83740234375	1.8096923828125E-06	1.51544054460828E-06	462731.875	1.32439099616022E-05
1	104	69.5293778244552	0.847320556640625	0.8477783203125	1.8109130859375E-06	1.53525286350487E-06	468149.65625	1.34262218125514E-05
1	105	69.6300858242009	0.857391357421875	0.85723876953125	1.81243896484375E-06	1.55369286858331E-06	472975.28125	1.36086719066952E-05
1	106	69.7307938239467	0.867462158203125	0.86822509765625	1.81365966796875E-06	1.57466479322466E-06	478714.46875	1.37912611535285E-05
1	107	69.8315018236924	0.877532958984375	0.877685546875	1.81427001953125E-06	1.59235844421346E-06	483767.90625	1.39739413498319E-05
1	108	69.9322098234381	0.887603759765625	0.887451171875	1.81427001953125E-06	1.61007596943818E-06	489150.5625	1.41566533784498E-05
1	109	70.0329178231839	0.897674560546875	0.89752197265625	1.81365966796875E-06	1.62779940637847E-06	494867.90625	1.43393335747533E-05
1	110	70.1336258229296	0.907745361328125	0.9075927734375	1.81365966796875E-06	1.64606444741366E-06	500420.65625	1.45219837577315E-05
1	111	70.2343338226754	0.917816162109375	0.91766357421875	1.815185546875E-06	1.66572965554224E-06	505548.09375	1.47047103382647E-05
1	112	70.3350418224211	0.927886962890625	0.92803955078125	1.81793212890625E-06	1.68711289916246E-06	510491.875	1.48876524690422E-05
1	113	70.4357498221668	0.937957763671875	0.93780517578125	1.82373046875E-06	1.71030376350245E-06	514223.59375	1.50710247908137E-05
1	114	70.5364578219126	0.948028564453125	0.9478759765625	1.832275390625E-06	1.73676971826353E-06	517321.8125	1.52551192513783E-05
1	115	70.6371658216583	0.958099365234375	0.95855712890625	1.845703125E-06	1.76921184902312E-06	519345.25	1.54403205669951E-05
1	116	70.737873821404	0.968170166015625	0.968017578125	1.86309814453125E-06	1.80351173639792E-06	519574.125	1.56270725710783E-05
1	117	70.8385818211498	0.978240966796875	0.9783935546875	1.88568115234375E-06	1.84493819688214E-06	518854.21875	1.58158400154207E-05
1	118	70.9392898208955	0.988311767578125	0.98846435546875	1.91192626953125E-06	1.88987087312853E-06	516999.25	1.60070649144473E-05
1	119	71.0399978206412	0.998382568359375	0.99853515625	1.9403076171875E-06	1.93746541299333E-06	514627.25	1.6201040125452E-05
1	120	71.140705820387	1.00845336914063	1.00860595703125	1.96807861328125E-06	1.9850158423651E-06	512482.5625	1.63978420459898E-05
1	121	71.2414138201327	1.01852416992188	1.01806640625	1.9921875E-06	2.02817909666919E-06	511029.4375	1.65972578543006E-05
1	122	71.3421218198785	1.02859497070313	1.0284423828125	2.0098876953125E-06	2.06705362870707E-06	511691.5	1.67987782333512E-05
1	123	71.4428298196242	1.03866577148438	1.03851318359375	2.02056884765625E-06	2.09838754017255E-06	513970.6875	1.7001728338073E-05
1	124	71.5435378193699	1.04873657226563	1.04888916015625	2.0257568359375E-06	2.12479449146485E-06	517776.4375	1.7205476979143E-05
1	125	71.6442458191157	1.05880737304688	1.0589599609375	2.0257568359375E-06	2.14519536712032E-06	522747.8125	1.74094857356977E-05
1	126	71.7449538188614	1.06887817382813	1.06842041015625	2.02301025390625E-06	2.16142530007346E-06	528133.9375	1.76133580680471E-05
1	127	71.8456618186071	1.07894897460938	1.0791015625	2.0184326171875E-06	2.17809360947285E-06	534623.5625	1.78168611455476E-05
1	128	71.9463698183529	1.08901977539063	1.08856201171875	2.01263427734375E-06	2.1908772396273E-06	540864.3125	1.80198403540999E-05
1	129	72.0470778180986	1.09909057617188	1.0992431640625	2.008056640625E-06	2.20734250433452E-06	547416.4375	1.82222993316827E-05
1	130	72.1477858178444	1.10916137695313	1.1090087890625	2.0037841796875E-06	2.22221433432424E-06	553457.1875	1.84243108378723E-05
1	131	72.2484938175901	1.11923217773438	1.119384765625	2.000732421875E-06	2.23958932110691E-06	559487.5	1.86259549082024E-05
1	132	72.3492018173358	1.12930297851563	1.12945556640625	1.9989013671875E-06	2.25767030315183E-06	565038.1875	1.88273515959736E-05
1	133	72.4499098170816	1.13937377929688	1.138916015625	1.99798583984375E-06	2.27553800868918E-06	570032.125	1.90286118595395E-05
1	134	72.5506178168273	1.14944458007813	1.1492919921875	1.998291015625E-06	2.2966198685026E-06	575137.4375	1.92298393812962E-05
1	135	72.651325816573	1.15951538085938	1.15936279296875	2.0001220703125E-06	2.31886724577635E-06	579646	1.94311760424171E-05
1	136	72.7520338163188	1.16958618164063	1.16912841796875	2.001953125E-06	2.34054027714592E-06	583993.875	1.96326964214677E-05
1	137	72.8527418160645	1.17965698242188	1.1798095703125	2.0050048828125E-06	2.36552409660362E-06	588432.25	1.98344623640878E-05
1	138	72.9534498158102	1.18972778320313	1.1895751953125	2.00897216796875E-06	2.38982352129824E-06	592131.25	2.00365830096416E-05
1	139	73.054157815556	1.19979858398438	1.19964599609375	2.01446533203125E-06	2.41664520217455E-06	595515.875	2.02391784114297E-05
1	140	73.1548658153017	1.20986938476563	1.209716796875	2.020263671875E-06	2.44394664150605E-06	598791.5625	2.04423431569012E-05
1	141	73.2555738150475	1.21994018554688	1.2200927734375	2.027587890625E-06	2.47384537033213E-06	601745.9375	2.06461681955261E-05
1	142	73.3562818147932	1.23001098632813	1.23016357421875	2.03582763671875E-06	2.50440075433289E-06	604257.25	2.08507790375734E-05
1	143	73.4569898145389	1.24008178710938	1.240234375	2.0440673828125E-06	2.53512257586408E-06	606748.3125	2.10562175197992E-05
1	144	73.5576978142847	1.25015258789063	1.25030517578125	2.0538330078125E-06	2.56791804531531E-06	608766.75	2.12625636777375E-05
1	145	73.6584058140304	1.26022338867188	1.26007080078125	2.064208984375E-06	2.60104934568517E-06	610437.625	2.14699230127735E-05
1	146	73.7591138137761	1.27029418945313	1.27044677734375	2.07550048828125E-06	2.63681272372196E-06	612115.9375	2.16783737414517E-05
1	147	73.8598218135219	1.28036499023438	1.27960205078125	2.08740234375E-06	2.67104405793361E-06	613011.75	2.18879922613269E-05
1	148	73.9605298132676	1.29043579101563	1.29058837890625	2.10113525390625E-06	2.71170051746594E-06	614233.875	2.20989022636786E-05
1	149	74.0612378130133	1.30050659179688	1.3006591796875	2.11517333984375E-06	2.75111938208283E-06	614918.5	2.23112110688817E-05
1	150	74.1619458127591	1.31057739257813	1.3104248046875	2.13043212890625E-06	2.7917708393943E-06	615098.1875	2.25249932555016E-05
1	151	74.2626538125048	1.32064819335938	1.32049560546875	2.1466064453125E-06	2.83458439298556E-06	615154.9375	2.2740359781892E-05
1	152	74.3633618122506	1.33071899414063	1.3311767578125	2.1636962890625E-06	2.88026217276638E-06	615232.6875	2.29573997785337E-05
1	153	74.4640698119963	1.34078979492188	1.34063720703125	2.1820068359375E-06	2.92527943202003E-06	614405.625	2.31762242037803E-05
1	154	74.564777811742	1.35086059570313	1.35101318359375	2.20062255859375E-06	2.97306996799307E-06	613923.1875	2.33969076361973E-05
1	155	74.6654858114878	1.36093139648438	1.36077880859375	2.22015380859375E-06	3.02113812722382E-06	612921	2.3619510102435E-05
1	156	74.7661938112335	1.37100219726563	1.370849609375	2.2412109375E-06	3.07236314256443E-06	611655.75	2.38441589317517E-05
1	157	74.8669018109792	1.38107299804688	1.38153076171875	2.26318359375E-06	3.12665747514984E-06	610436.9375	2.40709723584587E-05
1	158	74.967609810725	1.39114379882813	1.3909912109375	2.28759765625E-06	3.1820281947148E-06	608057.625	2.43001231865492E-05
1	159	75.0683178104707	1.40121459960938	1.40167236328125	2.3150634765625E-06	3.24496045323031E-06	605457.4375	2.45318842644338E-05
1	160	75.1690258102165	1.41128540039063	1.41143798828125	2.34771728515625E-06	3.31365731653932E-06	601195.875	2.47666739596752E-05
1	161	75.2697338099622	1.42135620117188	1.4215087890625	2.3858642578125E-06	3.39152711603674E-06	595804.5625	2.50050288741477E-05
1	162	75.3704418097079	1.43142700195313	1.43157958984375	2.43194580078125E-06	3.48152366314025E-06	588656.0625	2.52476256719092E-05
1	163	75.4711498094537	1.44149780273438	1.441650390625	2.48748779296875E-06	3.58608781425573E-06	579560.8125	2.54953392868629E-05
1	164	75.5718578091994	1.45156860351563	1.451416015625	2.554931640625E-06	3.70826865037088E-06	568084.125	2.57492447417462E-05
1	165	75.6725658089451	1.46163940429688	1.4617919921875	2.63641357421875E-06	3.8538883018191E-06	554462.375	2.60106498899404E-05
1	166	75.7732738086909	1.47171020507813	1.47186279296875	2.7362060546875E-06	4.02731984650018E-06	537921.0625	2.62811827269616E-05
1	167	75.8739818084366	1.48178100585938	1.48162841796875	2.85491943359375E-06	4.22992980020354E-06	518973.84375	2.65627186308848E-05
1	168	75.9746898081823	1.49185180664063	1.49200439453125	2.9937744140625E-06	4.46672447651508E-06	498369.03125	2.68572221102659E-05
1	169	76.0753978079281	1.50192260742188	1.50177001953125	3.1475830078125E-06	4.72694546260755E-06	477118.5	2.71664648607839E-05
1	170	76.1761058076738	1.49185180664063	1.49169921875	2.78045654296875E-06	4.1476046135358E-06	536494.375	2.74649646598846E-05
1	171	76.2768138074196	1.48178100585938	1.4813232421875	2.510986328125E-06	3.71958208233991E-06	589936.8125	2.7731410227716E-05
1	172	76.3775218071653	1.47171020507813	1.4715576171875	2.2998046875E-06	3.38429504154192E-06	639862	2.79736523225438E-05
1	173	76.478229806911	1.46163940429688	1.46148681640625	2.12738037109375E-06	3.10913833345694E-06	686988.9375	2.81965803878848E-05
1	174	76.5789378066568	1.45156860351563	1.451416015625	1.9854736328125E-06	2.8817480597354E-06	731017.5625	2.84036777884467E-05
1	175	76.6796458064025	1.44149780273438	1.441650390625	1.86737060546875E-06	2.69209544967453E-06	772021.625	2.85976839222712E-05
1	176	76.7803538061482	1.43142700195313	1.43157958984375	1.76727294921875E-06	2.5299918888777E-06	810050.0625	2.87807033600984E-05
1	177	76.881061805894	1.42135620117188	1.42120361328125	1.68365478515625E-06	2.39281621361442E-06	844118.1875	2.89544714178191E-05
1	178	76.9817698056397	1.41128540039063	1.4111328125	1.612548828125E-06	2.27552050091617E-06	875094.625	2.91204487439245E-05
1	179	77.0824778053855	1.40121459960938	1.40106201171875	1.55181884765625E-06	2.17419437831268E-06	902851.5	2.92797867587069E-05
1	180	77.1831858051312	1.39114379882813	1.3909912109375	1.49993896484375E-06	2.08640176424524E-06	927365.25	2.94334549835185E-05
1	181	77.2838938048769	1.38107299804688	1.380615234375	1.45538330078125E-06	2.00932436200674E-06	948626.5625	2.95822665066225E-05
1	182	77.3846018046227	1.37100219726563	1.37115478515625	1.4166259765625E-06	1.94241351891833E-06	967901.75	2.97268852591515E-05
1	183	77.4853098043684	1.36093139648438	1.36077880859375	1.38214111328125E-06	1.88078820428927E-06	984544.125	2.98678132821806E-05
1	184	77.5860178041141	1.35086059570313	1.35101318359375	1.35223388671875E-06	1.82688575023349E-06	999097.25	3.00054998660926E-05
1	185	77.6867258038599	1.34078979492188	1.3409423828125	1.32537841796875E-06	1.77725610228663E-06	1011743	3.01403288176516E-05
1	186	77.7874338036056	1.33071899414063	1.33056640625	1.30126953125E-06	1.73142552739591E-06	1022514.0625	3.02725911751622E-05
1	187	77.8881418033513	1.32064819335938	1.32080078125	1.27960205078125E-06	1.69009933870257E-06	1032196.5625	3.04025488730986E-05
1	188	77.9888498030971	1.31057739257813	1.31072998046875	1.2591552734375E-06	1.650412627896E-06	1040959.75	3.0530383810401E-05
1	189	78.0895578028428	1.30050659179688	1.30035400390625	1.24053955078125E-06	1.61314051183581E-06	1048216.5	3.06562542391475E-05
1	190	78.1902658025886	1.29043579101563	1.29058837890625	1.22314453125E-06	1.57857607518963E-06	1055139.75	3.07803093164694E-05
1	191	78.2909738023343	1.28036499023438	1.280517578125	1.207275390625E-06	1.54593726620078E-06	1060667.375	3.09026909235399E-05
1	192	78.39168180208	1.27029418945313	1.270751953125	1.1920166015625E-06	1.51475740040041E-06	1066052.25	3.10235045617446E-05
1	193	78.4923898018258	1.26022338867188	1.26068115234375	1.1773681640625E-06	1.48428591728589E-06	1070762	3.1142815714702E-05
1	194	78.5930978015715	1.25015258789063	1.25	1.163330078125E-06	1.45416254326847E-06	1074501.625	3.12606789520942E-05
1	195	78.6938058013172	1.24008178710938	1.23992919921875	1.15020751953125E-06	1.42617579967919E-06	1078004.75	3.13771743094549E-05
1	196	78.794513801063	1.23001098632813	1.23016357421875	1.1383056640625E-06	1.4003020396558E-06	1080697.125	3.14924109261483E-05
1	197	78.8952218008087	1.21994018554688	1.219482421875	1.12579345703125E-06	1.37288532187085E-06	1083220.375	3.16064142680261E-05
1	198	78.9959298005544	1.20986938476563	1.20941162109375	1.11419677734375E-06	1.34752247049619E-06	1085456.125	3.171920980094E-05
1	199	79.0966378003002	1.19979858398438	1.19964599609375	1.1029052734375E-06	1.32309583023016E-06	1087714.5	3.18308484565932E-05
1	200	79.1973458000459	1.18972778320313	1.18988037109375	1.092529296875E-06	1.29997908970836E-06	1089106.125	3.19413957186043E-05
1	201	79.2980537997917	1.17965698242188	1.17950439453125	1.08184814453125E-06	1.27604459976283E-06	1090268	3.20508843287826E-05
1	202	79.3987617995374	1.16958618164063	1.16973876953125	1.0711669921875E-06	1.25298549846775E-06	1092022.875	3.21592997352127E-05
1	203	79.4994697992831	1.15951538085938	1.15997314453125	1.0614013671875E-06	1.23119707495789E-06	1092869.5	3.22666819556616E-05
1	204	79.6001777990289	1.14944458007813	1.14959716796875	1.051025390625E-06	1.20825575322669E-06	1093786.25	3.23730528180022E-05
1	205	79.7008857987746	1.13937377929688	1.13922119140625	1.041259765625E-06	1.18622517675249E-06	1094079.75	3.24784050462767E-05
1	206	79.8015937985203	1.12930297851563	1.12945556640625	1.0308837890625E-06	1.16433739094646E-06	1095618.75	3.25827459164429E-05
1	207	79.9023017982661	1.11923217773438	1.1187744140625	1.0205078125E-06	1.14171791665285E-06	1096292	3.26860426866915E-05
1	208	80.0030097980118	1.10916137695313	1.10931396484375	1.009521484375E-06	1.11987628770294E-06	1098851.25	3.27882626152132E-05
1	209	80.1037177977576	1.09909057617188	1.09893798828125	9.979248046875E-07	1.09665745640086E-06	1101223.25	3.28893438563682E-05
1	210	80.2044257975033	1.08901977539063	1.08917236328125	9.844970703125E-07	1.07228697743267E-06	1106323.625	3.29891699948348E-05
1	211	80.305133797249	1.07894897460938	1.07879638671875	9.69848632812501E-07	1.04626917618589E-06	1112334.75	3.30875773215666E-05
1	212	80.4058417969948	1.06887817382813	1.0687255859375	9.521484375E-07	1.01758541859454E-06	1122435.875	3.31843584717717E-05
1	213	80.5065497967405	1.05880737304688	1.05865478515625	9.320068359375E-07	9.86673512670677E-07	1135887.375	3.32792333210818E-05
1	214	80.6072577964862	1.04873657226563	1.048583984375	9.07287597656251E-07	9.51367212564946E-07	1155735	3.33718489855528E-05
1	215	80.707965796232	1.03866577148438	1.038818359375	8.7921142578125E-07	9.13340954866726E-07	1181534.25	3.34618052875157E-05
1	216	80.8086737959777	1.02859497070313	1.02813720703125	8.465576171875E-07	8.70377391493093E-07	1214491.75	3.35487056872807E-05
1	217	80.9093817957234	1.01852416992188	1.01898193359375	8.123779296875E-07	8.27798373848054E-07	1254320.125	3.36322409566492E-05
1	218	81.0100897954692	1.00845336914063	1.00860595703125	7.7850341796875E-07	7.85203212672059E-07	1295570.375	3.37123456120025E-05
1	219	81.1107977952149	0.998382568359375	0.99853515625	7.489013671875E-07	7.47804335787805E-07	1333333.375	3.37892561219633E-05
1	220	81.2115057949607	0.988311767578125	0.98846435546875	7.2357177734375E-07	7.15224871328246E-07	1366090.25	3.38634017680306E-05
1	221	81.3122137947064	0.978240966796875	0.9783935546875	7.061767578125E-07	6.90918795953621E-07	1385479.625	3.39353973686229E-05
1	222	81.4129217944521	0.968170166015625	0.96832275390625	6.94580078125E-07	6.72577698423993E-07	1394112.5	3.40059305017348E-05
1	223	81.5136297941979	0.958099365234375	0.95855712890625	6.8817138671875E-07	6.59651561818464E-07	1392904.625	3.40755577781238E-05
1	224	81.6143377939436	0.948028564453125	0.94818115234375	6.84509277343751E-07	6.49038781830313E-07	1385198.5	3.41446757374797E-05
1	225	81.7150457936893	0.937957763671875	0.9375	6.8359375E-07	6.408691319848E-07	1371428.625	3.42135645041708E-05
1	226	81.8157537934351	0.927886962890625	0.927734375	6.8328857421875E-07	6.33910246961022E-07	1357749.125	3.4282395063201E-05
1	227	81.9164617931808	0.917816162109375	0.91796875	6.8267822265625E-07	6.26677262971498E-07	1344658	3.43511746905278E-05
1	228	82.0171697929266	0.907745361328125	0.90789794921875	6.8206787109375E-07	6.19248055500066E-07	1331096.125	3.44198961101938E-05
1	229	82.1178777926723	0.897674560546875	0.89752197265625	6.7901611328125E-07	6.09431822340412E-07	1321797.875	3.44884319929406E-05
1	230	82.218585792418	0.887603759765625	0.8880615234375	6.7413330078125E-07	5.98671817897412E-07	1317338.25	3.45565676980186E-05
1	231	82.3192937921638	0.877532958984375	0.87738037109375	6.6802978515625E-07	5.86116186696017E-07	1313385.125	3.4624150430318E-05
1	232	82.4200017919095	0.867462158203125	0.86700439453125	6.59790039062499E-07	5.7204084669138E-07	1314061.125	3.46910128428135E-05
1	233	82.5207097916552	0.857391357421875	0.85784912109375	6.4971923828125E-07	5.57361033770576E-07	1320338.25	3.4756951208692E-05
1	234	82.621417791401	0.847320556640625	0.84747314453125	6.3934326171875E-07	5.41826238986687E-07	1325537.125	3.48218600265682E-05
1	235	82.7221257911467	0.837249755859375	0.83709716796875	6.29577636718751E-07	5.27017675722163E-07	1329617	3.48857574863359E-05
1	236	82.8228337908924	0.827178955078125	0.82763671875	6.20422363281251E-07	5.13484280872945E-07	1333989.25	3.49486981576774E-05
1	237	82.9235417906382	0.817108154296875	0.81787109375	6.134033203125E-07	5.01684837672656E-07	1333333.375	3.50108275597449E-05
1	238	83.0242497903839	0.807037353515625	0.80718994140625	6.072998046875E-07	4.90206275571836E-07	1329145.75	3.50722948496696E-05
1	239	83.1249577901297	0.796966552734375	0.79742431640625	6.0150146484375E-07	4.79651873774856E-07	1325723.125	3.5133161873091E-05
1	240	83.2256657898754	0.786895751953125	0.78643798828125	5.950927734375E-07	4.68003577225318E-07	1321538.375	3.51934177160729E-05
1	241	83.3263737896211	0.776824951171875	0.77728271484375	5.86853027343751E-07	4.5615067278959E-07	1324493	3.52529314113781E-05
1	242	83.4270817893669	0.766754150390625	0.76690673828125	5.74645996093751E-07	4.40699864157068E-07	1334572.5	3.53114191966597E-05
1	243	83.5277897891126	0.756683349609375	0.7568359375	5.56030273437499E-07	4.20823681679394E-07	1361141.625	3.53683535649907E-05
1	244	83.6284977888583	0.746612548828125	0.74652099609375	5.3070068359375E-07	3.96179189010581E-07	1406670.5	3.54230724042282E-05
1	245	83.7292057886041	0.736541748046875	0.736419677734375	4.94384765625E-07	3.64074679737314E-07	1489567.875	3.5474691685522E-05
1	246	83.8299137883498	0.726470947265625	0.7264404296875	4.4525146484375E-07	3.23448659855785E-07	1631528.5	3.55220035999082E-05
1	247	83.9306217880956	0.716400146484375	0.716278076171875	3.7994384765625E-07	2.72145427970827E-07	1885221	3.55635565938428E-05
1	248	84.0313297878413	0.706329345703125	0.706298828125	2.9876708984375E-07	2.11018843288002E-07	2364045	3.55977317667566E-05
1	249	84.132037787587	0.696258544921875	0.6961669921875	2.05078124999999E-07	1.42768627142686E-07	3394643	3.56231030309573E-05
1	250	84.2327457873328	0.686187744140625	0.68609619140625	1.0406494140625E-07	7.13985599531952E-08	6592962	3.56386699422728E-05
1	251	84.3334537870785	0.676116943359375	0.676116943359375	6.40869140624972E-09	4.33302460578489E-09	105500000	3.56442324118689E-05
1	252	84.4341617868242	0.666046142578125	0.66595458984375	-7.69042968749994E-08	-5.12147657616424E-08	-8659524	3.56406817445531E-05
1	253	84.53486978657	0.655975341796875	0.65594482421875	-1.385498046875E-07	-9.08810307009844E-08	-4734361	3.56298332917504E-05
1	254	84.6355777863157	0.645904541015625	0.64581298828125	-1.73339843750001E-07	-1.11945119840584E-07	-3725704.25	3.56141281372402E-05
1	255	84.7362857860614	0.635833740234375	0.635772705078125	-1.82495117187501E-07	-1.16025411500686E-07	-3483779.25	3.55962110916153E-05
1	256	84.8369937858072	0.625762939453125	0.625701904296875	-1.708984375E-07	-1.06931473453642E-07	-3661250.25	3.55784177372698E-05
1	257	84.9377017855529	0.615692138671875	0.61566162109375	-1.4312744140625E-07	-8.81180710621265E-08	-4301492.5	3.55626034433953E-05
1	258	85.0384097852987	0.605621337890625	0.605560302734375	-1.0223388671875E-07	-6.19087785480588E-08	-5923284	3.55502488673665E-05
1	259	85.1391177850444	0.595550537109375	0.59552001953125	-5.340576171875E-08	-3.18041983859985E-08	-11150858	3.5542412661016E-05
1	260	85.2398257847901	0.585479736328125	0.585479736328125	-5.79833984375028E-09	-3.39481043276635E-09	-100973688	3.55394295183942E-05
1	261	85.3405337845359	0.575408935546875	0.575408935546875	3.29589843750006E-08	1.89648936554931E-08	17458334	3.55407973984256E-05
1	262	85.4412417842816	0.565338134765625	0.5653076171875	6.256103515625E-08	3.53662308327785E-08	9036098	3.55456068064086E-05
1	263	85.5419497840273	0.555267333984375	0.55523681640625	8.78906250000006E-08	4.88001106191405E-08	6317361	3.55531847162638E-05
1	264	85.6426577837731	0.545196533203125	0.545196533203125	1.08642578125E-07	5.92315529956977E-08	5018258.5	3.55630800186191E-05
1	265	85.7433657835188	0.535125732421875	0.53509521484375	1.27258300781249E-07	6.80953107234927E-08	4204796	3.55749580194242E-05
1	266	85.8440737832645	0.525054931640625	0.525054931640625	1.4312744140625E-07	7.51497637452303E-08	3668443.5	3.55885749740992E-05
1	267	85.9447817830103	0.514984130859375	0.5150146484375	1.56555175781251E-07	8.06282045573425E-08	3289668.75	3.5603665310191E-05
1	268	86.045489782756	0.504913330078125	0.504913330078125	1.6815185546875E-07	8.49021120075122E-08	3002722.25	3.56200143869501E-05
1	269	86.1461977825018	0.494842529296875	0.49481201171875	1.788330078125E-07	8.84887185748084E-08	2766894.25	3.56374875991605E-05
1	270	86.2469057822475	0.484771728515625	0.48480224609375	1.88293457031249E-07	9.12850879331017E-08	2574716.5	3.56559721694794E-05
1	271	86.3476137819932	0.474700927734375	0.474700927734375	1.96533203125E-07	9.32944885789766E-08	2415372.75	3.56753516825847E-05
1	272	86.448321781739	0.464630126953125	0.464569091796875	2.03552246093749E-07	9.45640792338054E-08	2282308.75	3.56954951712396E-05
1	273	86.5490297814847	0.454559326171875	0.45458984375	2.09960937500001E-07	9.54461043534138E-08	2165116.25	3.57163189619314E-05
1	274	86.6497377812304	0.444488525390625	0.44451904296875	2.15759277343749E-07	9.59091082108898E-08	2060254.625	3.57377539330628E-05
1	275	86.7504457809762	0.434417724609375	0.43450927734375	2.20947265625E-07	9.6003631711028E-08	1966574.625	3.57597455149516E-05
1	276	86.8511537807219	0.424346923828125	0.424346923828125	2.2552490234375E-07	9.5700798397047E-08	1881596.75	3.57822282239795E-05
1	277	86.9518617804677	0.414276123046875	0.414306640625	2.288818359375E-07	9.48272642631309E-08	1810133.375	3.58051074726973E-05
1	278	87.0525697802134	0.404205322265625	0.404205322265625	2.3193359375E-07	9.37487882879395E-08	1742763.25	3.58283105015289E-05
1	279	87.1532777799591	0.394134521484375	0.394134521484375	2.3529052734375E-07	9.27361227809342E-08	1675097.25	3.58518373104744E-05
1	280	87.2539857797049	0.384063720703125	0.38409423828125	2.38037109375E-07	9.14286815145715E-08	1613589.75	3.58756733476184E-05
1	281	87.3546937794506	0.373992919921875	0.3740234375	2.40478515625001E-07	8.99445922186715E-08	1555330	3.58997676812578E-05
1	282	87.4554017791963	0.363922119140625	0.363983154296875	2.43225097656249E-07	8.85298376829269E-08	1496486.875	3.59241239493713E-05
1	283	87.5561097789421	0.353851318359375	0.35394287109375	2.45361328125E-07	8.68438903012247E-08	1442537.375	3.59487276000436E-05
1	284	87.6568177786878	0.343780517578125	0.343780517578125	2.4688720703125E-07	8.48750048021429E-08	1392459.875	3.59735131496564E-05
1	285	87.7575257784335	0.333709716796875	0.333709716796875	2.484130859375E-07	8.28978556910442E-08	1343366.125	3.5998451494379E-05
1	286	87.8582337781793	0.323638916015625	0.323638916015625	2.4993896484375E-07	8.08899685011966E-08	1294871.875	3.60235462721903E-05
1	287	87.958941777925	0.313568115234375	0.313568115234375	2.50854492187499E-07	7.86599727575776E-08	1250000	3.6048764741281E-05
1	288	88.0596497776708	0.303497314453125	0.303466796875	2.5146484375E-07	7.63112240065311E-08	1206796.25	3.60740559699479E-05
1	289	88.1603577774165	0.293426513671875	0.29345703125	2.520751953125E-07	7.3973232872504E-08	1164164.75	3.60994126822334E-05
1	290	88.2610657771622	0.283355712890625	0.2833251953125	2.5146484375E-07	7.12463190666313E-08	1126699.125	3.61247693945188E-05
1	291	88.361773776908	0.273284912109375	0.273284912109375	2.50854492187499E-07	6.85547476564352E-08	1089416	3.61500606231857E-05
1	292	88.4624817766537	0.263214111328125	0.263214111328125	2.5054931640625E-07	6.59481145248719E-08	1050548.125	3.61753081961069E-05
1	293	88.5631897763994	0.253143310546875	0.253143310546875	2.49328613281249E-07	6.31158627584227E-08	1015299.9375	3.62004793714732E-05
1	294	88.6638977761452	0.243072509765625	0.243133544921875	2.47802734374999E-07	6.02491496692892E-08	981157.6875	3.62255123036448E-05
1	295	88.7646057758909	0.233001708984375	0.233062744140625	2.46276855468749E-07	5.73979548335046E-08	946344.5625	3.62503924407065E-05
1	296	88.8653137756367	0.222930908203125	0.2230224609375	2.43530273437501E-07	5.43127214314154E-08	915789.4375	3.62750542990398E-05
1	297	88.9660217753824	0.212860107421875	0.212890625	2.41699218749999E-07	5.14554976405179E-08	880808.125	3.6299490602687E-05
1	298	89.0667297751281	0.202789306640625	0.202850341796875	2.38037109375E-07	4.82859086048393E-08	852179.5	3.63236467819661E-05
1	299	89.1674377748739	0.192718505859375	0.1927490234375	2.34069824218749E-07	4.51167281312337E-08	823468.0625	3.63474173354916E-05
1	300	89.2681457746196	0.182647705078125	0.182647705078125	2.2918701171875E-07	4.18604813035017E-08	796937.4375	3.63707440556027E-05
1	301	89.3688537743653	0.172576904296875	0.172607421875	2.227783203125E-07	3.84531908537156E-08	774794.5625	3.63935032510199E-05
1	302	89.4695617741111	0.162506103515625	0.1624755859375	2.1484375E-07	3.49068649541096E-08	756250	3.64155384886544E-05
1	303	89.5702697738568	0.152435302734375	0.152435302734375	2.03552246093749E-07	3.10285486193607E-08	748875.5625	3.64366060239263E-05
1	304	89.6709777736025	0.142364501953125	0.1424560546875	1.8890380859375E-07	2.69104898364958E-08	754119.5625	3.64563675248064E-05
1	305	89.7716857733483	0.132293701171875	0.13238525390625	1.69677734375E-07	2.24628298184371E-08	780215.8125	3.64744264516048E-05
1	306	89.872393773094	0.122222900390625	0.122314453125	1.42517089843749E-07	1.74318994794476E-08	858244.1875	3.64901461580303E-05
1	307	89.9731017728398	0.112152099609375	0.1121826171875	1.04675292968751E-07	1.17427472190457E-08	1071720.125	3.65025916835293E-05
1	308	90.0738097725855	0.102081298828125	0.102142333984375	5.27954101562506E-08	5.39264632948289E-09	1934682.25	3.65105224773288E-05
1	309	90.1745177723312	0.092010498046875	0.092071533203125	-2.01416015624997E-08	-1.85446802358769E-09	-4571212.5	3.65121668437496E-05
1	310	90.275225772077	0.081939697265625	0.08203125	-1.1871337890625E-07	-9.73820668548342E-09	-691002.625	3.65051746484824E-05
1	311	90.3759337718227	0.071868896484375	0.071868896484375	-2.5177001953125E-07	-1.80944326189092E-08	-285454.5625	3.64865190931596E-05
1	312	90.4766417715684	0.061798095703125	0.061859130859375	-4.241943359375E-07	-2.62402917172722E-08	-145827.34375	3.64524821634404E-05
1	313	90.5773497713142	0.051727294921875	0.05169677734375	-6.40869140625E-07	-3.31308704915045E-08	-80666.6640625	3.63988510798663E-05
1	314	90.6780577710599	0.041656494140625	0.041748046875	-8.9691162109375E-07	-3.74443089867782E-08	-46546.4453125	3.63214167009573E-05
1	315	90.7787657708056	0.031585693359375	0.031689453125	-1.180419921875E-06	-3.740685983189E-08	-26845.916015625	3.6216813896317E-05
1	316	90.8794737705514	0.021514892578125	0.02159423828125	-1.46575927734375E-06	-3.16519539467208E-08	-14732.4580078125	3.60835692845285E-05
1	317	90.9801817702971	0.011444091796875	0.0115692138671875	-1.72637939453125E-06	-1.9972851816874E-08	-6701.43212890625	3.59228324668948E-05
1	318	91.0808897700429	0.001373291015625	0.00150146484374999	-1.93450927734375E-06	-2.90459789553665E-09	-776.147644042969	3.57384924427606E-05
1	319	91.1815977697886	-0.008697509765625	-0.00859375	-2.07183837890625E-06	1.78048598087344E-08	4147.88671875	3.5536755603971E-05
1	320	91.2823057695343	-0.018768310546875	-0.01865234375	-2.13592529296875E-06	3.98400139545174E-08	8732.67578125	3.53248797182459E-05
1	321	91.3830137692801	-0.028839111328125	-0.02867431640625	-2.13775634765625E-06	6.12986994497078E-08	13413.275390625	3.510968235787E-05
1	322	91.4837217690258	-0.038909912109375	-0.03878173828125	-2.09259033203125E-06	8.11542903988993E-08	18532.888671875	3.48966677847784E-05
1	323	91.5844297687715	-0.048980712890625	-0.0488128662109375	-2.01995849609375E-06	9.85999619729228E-08	24165.283203125	3.46895831171423E-05
1	324	91.6851377685173	-0.059051513671875	-0.0589599609375	-1.93328857421875E-06	1.13986615701833E-07	30497.23828125	3.44905238307547E-05
1	325	91.785845768263	-0.069122314453125	-0.069091796875	-1.84417724609375E-06	1.27417521866846E-07	37464.8359375	3.43003121088259E-05
1	326	91.8865537680088	-0.079193115234375	-0.0791015625	-1.7578125E-06	1.39045710056962E-07	45000	3.41189370374195E-05
1	327	91.9872617677545	-0.089263916015625	-0.0892333984375	-1.6778564453125E-06	1.49720833064748E-07	53182.9765625	3.39459365932271E-05
1	328	92.0879697675002	-0.099334716796875	-0.099273681640625	-1.60614013671875E-06	1.59447438363713E-07	61808.85546875	3.37805759045295E-05
1	329	92.188677767246	-0.109405517578125	-0.1092529296875	-1.5423583984375E-06	1.68507170883458E-07	70834.984375	3.36220364260953E-05
1	330	92.2893857669917	-0.119476318359375	-0.119384765625	-1.48681640625E-06	1.77503224563225E-07	80295.5703125	3.34695032506716E-05
1	331	92.3900937667374	-0.129547119140625	-0.129425048828125	-1.43798828125E-06	1.86111691391488E-07	90004.25	3.33222305926029E-05
1	332	92.4908017664832	-0.139617919921875	-0.139556884765625	-1.39495849609375E-06	1.94676047726716E-07	100043.7578125	3.31795781676192E-05
1	333	92.5915097662289	-0.149688720703125	-0.149566650390625	-1.3580322265625E-06	2.03116314878571E-07	110134.8359375	3.3040952985175E-05
1	334	92.6922177659746	-0.159759521484375	-0.15966796875	-1.32598876953125E-06	2.11717917864007E-07	120414.2734375	3.29058020724915E-05
1	335	92.7929257657204	-0.169830322265625	-0.169677734375	-1.29913330078125E-06	2.20433989284174E-07	130608.4140625	3.27736197505146E-05
1	336	92.8936337654661	-0.179901123046875	-0.179718017578125	-1.2762451171875E-06	2.29364232495755E-07	140817.796875	3.26439367199782E-05
1	337	92.9943417652119	-0.189971923828125	-0.1898193359375	-1.256103515625E-06	2.38432733112859E-07	151117.59375	3.25164219248109E-05
1	338	93.0950497649576	-0.200042724609375	-0.199920654296875	-1.23931884765625E-06	2.47765427729973E-07	161314.9375	3.23907697747927E-05
1	339	93.1957577647033	-0.189971923828125	-0.1898193359375	-1.08612060546875E-06	2.06166689054044E-07	174768.1875	3.22736741509289E-05
2	340	93.2964657644491	-0.179901123046875	-0.1796875	-9.80529785156251E-07	1.76188947875744E-07	183255.53125	3.2169609767152E-05
2	341	93.3971737641948	-0.169830322265625	-0.169708251953125	-8.9599609375E-07	1.52057936020356E-07	189407.359375	3.20751205435954E-05
2	342	93.4978817639405	-0.159759521484375	-0.159698486328125	-8.251953125E-07	1.31782442736039E-07	193528.109375	3.19884493364953E-05
2	343	93.5985897636863	-0.149688720703125	-0.14959716796875	-7.62023925781249E-07	1.13996613038125E-07	196315.59375	3.19085265800823E-05
2	344	93.699297763432	-0.139617919921875	-0.1395263671875	-7.0526123046875E-07	9.84025305683645E-08	197836.453125	3.1834642868489E-05
2	345	93.8000057631778	-0.129547119140625	-0.129425048828125	-6.5277099609375E-07	8.44849168402106E-08	198270.21875	3.17662597808521E-05
2	346	93.9007137629235	-0.119476318359375	-0.119415283203125	-6.0272216796875E-07	7.19742345722807E-08	198126.59375	3.17030426231213E-05
2	347	94.0014217626692	-0.109405517578125	-0.10931396484375	-5.5419921875E-07	6.05817120913343E-08	197246.6875	3.16447876684833E-05
2	348	94.102129762415	-0.099334716796875	-0.09918212890625	-5.0506591796875E-07	5.00935080083309E-08	196374.640625	3.15914476232138E-05
2	349	94.2028377621607	-0.089263916015625	-0.089202880859375	-4.52575683593751E-07	4.03710558316561E-08	197100.46875	3.15432262141258E-05
2	350	94.3035457619064	-0.079193115234375	-0.07916259765625	-3.94287109374999E-07	3.12127923507433E-08	200774	3.15005854645278E-05
2	351	94.4042537616522	-0.069122314453125	-0.06903076171875	-3.2623291015625E-07	2.25201066683667E-08	211599.625	3.14643039018847E-05
2	352	94.5049617613979	-0.059051513671875	-0.058990478515625	-2.42919921875E-07	1.43299629939975E-08	242839.1875	3.14356439048424E-05
2	353	94.6056697611436	-0.048980712890625	-0.048797607421875	-1.4007568359375E-07	6.83535805734437E-09	348366	3.1416358979186E-05
2	354	94.7063777608894	-0.038909912109375	-0.038787841796875	-7.32421875000028E-09	2.84090639901535E-10	5295833.5	3.14089375024196E-05
2	355	94.8070857606351	-0.028839111328125	-0.028717041015625	1.6021728515625E-07	-4.60096627463713E-09	-179238.09375	3.14166354655754E-05
2	356	94.9077937603809	-0.018768310546875	-0.0186492919921875	3.692626953125E-07	-6.88648738034203E-09	-50504.12890625	3.14432982122526E-05
2	357	95.0085017601266	-0.008697509765625	-0.00860595703125	6.195068359375E-07	-5.33144906000871E-09	-13891.6259765625	3.14930839522276E-05
2	358	95.1092097598723	0.001373291015625	0.00147705078125	9.0301513671875E-07	1.33379918221266E-09	1635.68786621094	3.15697507176083E-05
2	359	95.2099177596181	0.011444091796875	0.0115570068359375	1.20208740234375E-06	1.38925315695815E-08	9614.1162109375	3.16757505061105E-05
2	360	95.3106257593638	0.021514892578125	0.0216400146484375	1.49078369140625E-06	3.22605799851772E-08	14515.8642578125	3.18113488901872E-05
2	361	95.4113337591095	0.031585693359375	0.03170166015625	1.73980712890625E-06	5.51547749694237E-08	18221.365234375	3.19740211125463E-05
2	362	95.5120417588553	0.041656494140625	0.0417449951171875	1.9281005859375E-06	8.04885473826289E-08	21650.83984375	3.21587140206248E-05
2	363	95.612749758601	0.051727294921875	0.051788330078125	2.04254150390625E-06	1.0577980447124E-07	25354.849609375	3.23586536978837E-05
2	364	95.7134577583467	0.061798095703125	0.061798095703125	2.08709716796875E-06	1.28978626889875E-07	29609.59375	3.25665969285183E-05
2	365	95.8141657580925	0.071868896484375	0.071929931640625	2.0770263671875E-06	1.49400349869211E-07	34631.2109375	3.27762754750438E-05
2	366	95.9148737578382	0.081939697265625	0.082000732421875	2.0281982421875E-06	1.66313739669022E-07	40430.3359375	3.29829927068204E-05
2	367	96.015581757584	0.092010498046875	0.092010498046875	1.95892333984375E-06	1.80241514158297E-07	46969.93359375	3.31837582052685E-05
2	368	96.1162897573297	0.102081298828125	0.10205078125	1.88018798828125E-06	1.91874647725854E-07	54276.90625	3.33770731231198E-05
2	369	96.2169977570754	0.112152099609375	0.112152099609375	1.7999267578125E-06	2.01865560711667E-07	62309.2578125	3.35623808496166E-05
2	370	96.3177057568212	0.122222900390625	0.122283935546875	1.7236328125E-06	2.10772597597497E-07	70945.46875	3.37398050760385E-05
2	371	96.4184137565669	0.132293701171875	0.132354736328125	1.65374755859375E-06	2.18881311297991E-07	80033.21875	3.39098733093124E-05
2	372	96.5191217563126	0.142364501953125	0.14239501953125	1.59088134765625E-06	2.26533572345033E-07	89507	3.40732512995601E-05
2	373	96.6198297560584	0.152435302734375	0.1524658203125	1.534423828125E-06	2.33947176297988E-07	99363.5703125	3.42306229867972E-05
2	374	96.7205377558041	0.162506103515625	0.16253662109375	1.4849853515625E-06	2.41364489284024E-07	109453.3515625	3.43826613971032E-05
2	375	96.8212457555499	0.172576904296875	0.17254638671875	1.44073486328125E-06	2.48593607921066E-07	119762.7578125	3.45299849868752E-05
2	376	96.9219537552956	0.182647705078125	0.182647705078125	1.4019775390625E-06	2.56067977488783E-07	130278.625	3.4673124901019E-05
2	377	97.0226617550413	0.192718505859375	0.192779541015625	1.3677978515625E-06	2.63683432422113E-07	140941.546875	3.48125940945465E-05
2	378	97.1233697547871	0.202789306640625	0.20281982421875	1.33697509765625E-06	2.71165049525735E-07	151700.53125	3.49487927451264E-05
2	379	97.2240777545328	0.212860107421875	0.212860107421875	1.31011962890625E-06	2.78872192893687E-07	162473.796875	3.50820846506394E-05
2	380	97.3247857542785	0.222930908203125	0.222930908203125	1.28570556640625E-06	2.86623503598094E-07	173391.890625	3.52127935911994E-05
2	381	97.4254937540243	0.233001708984375	0.2330322265625	1.263427734375E-06	2.94419379542887E-07	184444.4375	3.53411523974501E-05
2	382	97.52620175377	0.243072509765625	0.243072509765625	1.243896484375E-06	3.0235702297432E-07	195412.171875	3.54674048139714E-05
2	383	97.6269097535157	0.253143310546875	0.253143310546875	1.22650146484375E-06	3.10480629650556E-07	206394.625	3.55918018613011E-05
2	384	97.7276177532615	0.263214111328125	0.263275146484375	1.2103271484375E-06	3.18649057362563E-07	217523.953125	3.57145036105067E-05
2	385	97.8283257530072	0.273284912109375	0.273284912109375	1.1956787109375E-06	3.26760954294514E-07	228560.5	3.58356555807404E-05
2	386	97.929033752753	0.283355712890625	0.2833251953125	1.1822509765625E-06	3.34961470116468E-07	239648.953125	3.5955396015197E-05
2	387	98.0297417524987	0.293426513671875	0.29339599609375	1.17034912109375E-06	3.43375717193339E-07	250691.015625	3.60738595190924E-05
2	388	98.1304497522444	0.303497314453125	0.303466796875	1.15936279296875E-06	3.51828106204266E-07	261753.09375	3.61911697837058E-05
2	389	98.2311577519902	0.313568115234375	0.3135986328125	1.14990234375E-06	3.60607799620993E-07	272717.625	3.63074505003169E-05
2	390	98.3318657517359	0.323638916015625	0.32366943359375	1.14105224609375E-06	3.69323714721759E-07	283658.75	3.6422807170311E-05
2	391	98.4325737514816	0.333709716796875	0.333770751953125	1.1328125E-06	3.78099684894551E-07	294639	3.65373052773066E-05
2	392	98.5332817512274	0.343780517578125	0.34381103515625	1.12548828125E-06	3.86955264275457E-07	305477.25	3.66510212188587E-05
2	393	98.6339897509731	0.353851318359375	0.3538818359375	1.11968994140625E-06	3.96237936683974E-07	316053.40625	3.67640750482678E-05
2	394	98.7346977507189	0.363922119140625	0.363983154296875	1.11419677734375E-06	4.05548831849956E-07	326677.625	3.68765577150043E-05
2	395	98.8354057504646	0.373992919921875	0.3740234375	1.1090087890625E-06	4.14795266578949E-07	337259.25	3.69885055988561E-05
2	396	98.9361137502103	0.384063720703125	0.384033203125	1.10504150390625E-06	4.2437264369255E-07	347528.3125	3.70999914593995E-05
2	397	99.0368217499561	0.394134521484375	0.39410400390625	1.1016845703125E-06	4.34178303976296E-07	357728.53125	3.72111098840833E-05
2	398	99.1375297497018	0.404205322265625	0.40423583984375	1.09893798828125E-06	4.44230124685419E-07	367842.25	3.73219190805685E-05
2	399	99.2382377494475	0.414276123046875	0.414306640625	1.09649658203125E-06	4.54285810747024E-07	377845.8125	3.74324699805584E-05
2	400	99.3389457491933	0.424346923828125	0.42431640625	1.0943603515625E-06	4.64355025542318E-07	387730.09375	3.75427880499046E-05
2	401	99.439653748939	0.434417724609375	0.434356689453125	1.09283447265625E-06	4.74679922035648E-07	397458.84375	3.76529205823317E-05
2	402	99.5403617486847	0.444488525390625	0.444580078125	1.09130859375E-06	4.85174041386927E-07	407382.53125	3.77629003196489E-05
2	403	99.6410697484305	0.454559326171875	0.454498291015625	1.09039306640625E-06	4.95581787163246E-07	416820.59375	3.78727600036655E-05
2	404	99.7417777481762	0.464630126953125	0.464599609375	1.0894775390625E-06	5.06170863445732E-07	426442.5625	3.7982525100233E-05
2	405	99.842485747922	0.474700927734375	0.474700927734375	1.0894775390625E-06	5.17176033554279E-07	435714.28125	3.80922429030761E-05
2	406	99.9431937476677	0.484771728515625	0.48480224609375	1.08978271484375E-06	5.28329110238701E-07	444861.375	3.82019788958132E-05
2	407	100.043901747413	0.494842529296875	0.494781494140625	1.09100341796875E-06	5.39808297617128E-07	453510.5	3.83117912861053E-05
2	408	100.144609747159	0.504913330078125	0.5048828125	1.09222412109375E-06	5.51445168639475E-07	462252.03125	3.8421723729698E-05
2	409	100.245317746905	0.514984130859375	0.51495361328125	1.0943603515625E-06	5.63544801934768E-07	470552.15625	3.85318271582946E-05
2	410	100.346025746651	0.525054931640625	0.525054931640625	1.09710693359375E-06	5.76041372823966E-07	478581.40625	3.86421779694501E-05
2	411	100.446733746396	0.535125732421875	0.535125732421875	1.10076904296875E-06	5.89049818700005E-07	486138.0625	3.87528489227407E-05
2	412	100.547441746142	0.545196533203125	0.545166015625	1.1053466796875E-06	6.02597424403939E-07	493208.1875	3.88639346056152E-05
2	413	100.648149745888	0.555267333984375	0.55523681640625	1.1114501953125E-06	6.17118075751932E-07	499560.6875	3.89755587093532E-05
2	414	100.748857745634	0.565338134765625	0.565338134765625	1.119384765625E-06	6.32830847280275E-07	505043.65625	3.90878922189586E-05
2	415	100.849565745379	0.575408935546875	0.575408935546875	1.12945556640625E-06	6.49898822757677E-07	509456.90625	3.92011279473081E-05
2	416	100.950273745125	0.585479736328125	0.585479736328125	1.1431884765625E-06	6.69313692469586E-07	512146.3125	3.9315564208664E-05
2	417	101.050981744871	0.595550537109375	0.59552001953125	1.160888671875E-06	6.91332388669252E-07	512986.375	3.94315866287798E-05
2	418	101.151689744617	0.605621337890625	0.605621337890625	1.18499755859375E-06	7.17659759175149E-07	511073.9375	3.95497081626672E-05
2	419	101.252397744362	0.615692138671875	0.6156005859375	1.21734619140625E-06	7.49399021060526E-07	505690.65625	3.96706782339606E-05
2	420	101.353105744108	0.625762939453125	0.62567138671875	1.259765625E-06	7.88199258749955E-07	496657	3.97954099753406E-05
2	421	101.453813743854	0.635833740234375	0.635772705078125	1.31591796875E-06	8.36624735711666E-07	483140.0625	3.99251075577922E-05
2	422	101.554521743599	0.645904541015625	0.6458740234375	1.38671875E-06	8.95645598575356E-07	465757.03125	4.00611934310291E-05
2	423	101.655229743345	0.655975341796875	0.6558837890625	1.470947265625E-06	9.64770492828393E-07	445892.125	4.02050900447648E-05
2	424	101.755937743091	0.666046142578125	0.665985107421875	1.5643310546875E-06	1.04182117866003E-06	425731.59375	4.03579288104083E-05
2	425	101.856645742837	0.676116943359375	0.67608642578125	1.65771484375E-06	1.12075849756366E-06	407842.40625	4.05201717512682E-05
2	426	101.957353742582	0.686187744140625	0.6861572265625	1.74163818359375E-06	1.19503761197848E-06	393972.3125	4.06913422921207E-05
2	427	102.058061742328	0.696258544921875	0.6961669921875	1.807861328125E-06	1.25857332022861E-06	385077.65625	4.08700725529343E-05
2	428	102.158769742074	0.706329345703125	0.70623779296875	1.85028076171875E-06	1.30673811327142E-06	381692.25	4.10542743338738E-05
2	429	102.25947774182	0.716400146484375	0.716339111328125	1.871337890625E-06	1.34051254008227E-06	382795.1875	4.12416738981847E-05
2	430	102.360185741565	0.726470947265625	0.726409912109375	1.87347412109375E-06	1.36091011881945E-06	387734.1875	4.14302412536927E-05
2	431	102.460893741311	0.736541748046875	0.736480712890625	1.86279296875E-06	1.37191102567158E-06	395363.6875	4.16183756897226E-05
2	432	102.561601741057	0.746612548828125	0.74658203125	1.84478759765625E-06	1.37728522986436E-06	404698.09375	4.18050658481661E-05
2	433	102.662309740803	0.756683349609375	0.75653076171875	1.822509765625E-06	1.37878464556707E-06	415103.84375	4.19897296524141E-05
2	434	102.763017740548	0.766754150390625	0.7672119140625	1.79962158203125E-06	1.38069106014882E-06	426318.5	4.21721197199076E-05
2	435	102.863725740294	0.776824951171875	0.7769775390625	1.77947998046875E-06	1.38261589199828E-06	436631.8125	4.23523415520322E-05
2	436	102.96443374004	0.786895751953125	0.78704833984375	1.76116943359375E-06	1.38612551836559E-06	446889.625	4.25306279794313E-05
2	437	103.065141739786	0.796966552734375	0.797119140625	1.7462158203125E-06	1.3919419643571E-06	456483.78125	4.27072372986004E-05
2	438	103.165849739531	0.807037353515625	0.80657958984375	1.734619140625E-06	1.39910832785972E-06	464989.46875	4.28825114795472E-05
2	439	103.266557739277	0.817108154296875	0.8172607421875	1.72607421875E-06	1.41065265779616E-06	473479.5	4.30567706644069E-05
2	440	103.367265739023	0.827178955078125	0.82763671875	1.719970703125E-06	1.42351086651615E-06	481192.34375	4.32302949775476E-05
2	441	103.467973738768	0.837249755859375	0.83740234375	1.71600341796875E-06	1.43698525789659E-06	487995.75	4.34033099736553E-05
2	442	103.568681738514	0.847320556640625	0.8477783203125	1.7138671875E-06	1.4529794043483E-06	494658.125	4.35760157415643E-05
2	443	103.66938973826	0.857391357421875	0.8575439453125	1.71234130859375E-06	1.4684078450955E-06	500802	4.3748539610533E-05
2	444	103.770097738006	0.867462158203125	0.86700439453125	1.71112060546875E-06	1.48354911289061E-06	506688.0625	4.39209252363071E-05
2	445	103.870805737751	0.877532958984375	0.877685546875	1.70867919921875E-06	1.49968298046588E-06	513663.15625	4.4093125325162E-05
2	446	103.971513737497	0.887603759765625	0.88775634765625	1.70684814453125E-06	1.51526523950452E-06	520114.4375	4.42651107732672E-05
2	447	104.072221737243	0.897674560546875	0.89813232421875	1.70562744140625E-06	1.53187909290864E-06	526570.0625	4.44369434262626E-05
2	448	104.172929736989	0.907745361328125	0.9075927734375	1.70501708984375E-06	1.54746123826044E-06	532307.125	4.4608681491809E-05
2	449	104.273637736734	0.917816162109375	0.9173583984375	1.70562744140625E-06	1.56467160650209E-06	537842.1875	4.47804231953342E-05
2	450	104.37434573648	0.927886962890625	0.9283447265625	1.70806884765625E-06	1.58567661401321E-06	543505.4375	4.49523140559904E-05
2	451	104.475053736226	0.937957763671875	0.9381103515625	1.71356201171875E-06	1.60751017119765E-06	547462.1875	4.51246087322943E-05
2	452	104.575761735972	0.948028564453125	0.94818115234375	1.7218017578125E-06	1.63257993790467E-06	550691.25	4.52975909865927E-05
2	453	104.676469735717	0.958099365234375	0.95855712890625	1.7340087890625E-06	1.66214647379093E-06	552798.3125	4.54716064268723E-05
2	454	104.777177735463	0.968170166015625	0.96832275390625	1.7510986328125E-06	1.69562861174199E-06	552980.125	4.56470952485688E-05
2	455	104.877885735209	0.978240966796875	0.97869873046875	1.77215576171875E-06	1.73440662365465E-06	552264.5	4.58245049230754E-05
2	456	104.978593734955	0.988311767578125	0.98876953125	1.79656982421875E-06	1.776393446562E-06	550365.25	4.60042065242305E-05
2	457	105.0793017347	0.998382568359375	0.9979248046875	1.82281494140625E-06	1.81903214979684E-06	547463.625	4.61864547105506E-05
2	458	105.180009734446	1.00845336914063	1.00830078125	1.8475341796875E-06	1.86287013548281E-06	545754.875	4.63712713099085E-05
2	459	105.280717734192	1.01852416992188	1.01898193359375	1.8695068359375E-06	1.90499372365593E-06	545053.875	4.65584416815545E-05
2	460	105.381425733937	1.02859497070313	1.0284423828125	1.88507080078125E-06	1.93868663700414E-06	545572.3125	4.67474965262227E-05
2	461	105.482133733683	1.03866577148438	1.0382080078125	1.89361572265625E-06	1.96596693058382E-06	548267.5	4.69377700937912E-05
2	462	105.582841733429	1.04873657226563	1.04888916015625	1.89697265625E-06	1.98971406462078E-06	552927.9375	4.71286402898841E-05
2	463	105.683549733175	1.05880737304688	1.058349609375	1.89544677734375E-06	2.00604540623317E-06	558364.1875	4.73196050734259E-05
2	464	105.78425773292	1.06887817382813	1.0687255859375	1.89056396484375E-06	2.02049409381289E-06	565294.625	4.75102460768539E-05
2	465	105.884965732666	1.07894897460938	1.07879638671875	1.88446044921875E-06	2.03294916900632E-06	572469.625	4.77003341075033E-05
2	466	105.985673732412	1.08901977539063	1.0894775390625	1.87744140625E-06	2.04543016479874E-06	580299.125	4.78897600260098E-05
2	467	106.086381732158	1.09909057617188	1.09893798828125	1.87103271484375E-06	2.05614878723281E-06	587343.0625	4.80785092804581E-05
2	468	106.187089731903	1.10916137695313	1.10931396484375	1.86492919921875E-06	2.06879190045584E-06	594829	4.82666328025516E-05
2	469	106.287797731649	1.11923217773438	1.11907958984375	1.8597412109375E-06	2.08119831768272E-06	601739.4375	4.84541815239936E-05
2	470	106.388505731395	1.12930297851563	1.12945556640625	1.85577392578125E-06	2.09601421374828E-06	608617	4.86412754980847E-05
2	471	106.489213731141	1.13937377929688	1.1395263671875	1.85302734375E-06	2.11157339435886E-06	614953.9375	4.8828027502168E-05
2	472	106.589921730886	1.14944458007813	1.14990234375	1.8505859375E-06	2.12799318433099E-06	621372.0625	4.90145175717771E-05
2	473	106.690629730632	1.15951538085938	1.1590576171875	1.84906005859375E-06	2.14316719393537E-06	626836.125	4.92008111905307E-05
2	474	106.791337730378	1.16958618164063	1.16943359375	1.8487548828125E-06	2.16199600799882E-06	632552	4.93870102218352E-05
2	475	106.892045730124	1.17965698242188	1.1798095703125	1.8499755859375E-06	2.18261880036152E-06	637743.3125	4.95732565468643E-05
2	476	106.992753729869	1.18972778320313	1.18927001953125	1.85211181640625E-06	2.20266088035714E-06	642115.6875	4.97596702189185E-05
2	477	107.093461729615	1.19979858398438	1.1993408203125	1.85455322265625E-06	2.22424137064081E-06	646700.6875	4.99463167216163E-05
2	478	107.194169729361	1.20986938476563	1.21002197265625	1.85791015625E-06	2.24811196858354E-06	651281.25	5.01332542626187E-05
2	479	107.294877729106	1.21994018554688	1.2200927734375	1.86279296875E-06	2.27278019337973E-06	654980.375	5.03206065332051E-05
2	480	107.395585728852	1.23001098632813	1.2298583984375	1.86859130859375E-06	2.29810279961384E-06	658174.125	5.0508497224655E-05
2	481	107.496293728598	1.24008178710938	1.2396240234375	1.8756103515625E-06	2.32505158237473E-06	660917.6875	5.06970318383537E-05
2	482	107.597001728344	1.25015258789063	1.25	1.88385009765625E-06	2.35481252275349E-06	663534.75	5.08863377035595E-05
2	483	107.697709728089	1.26022338867188	1.2603759765625	1.89361572265625E-06	2.38666780205676E-06	665592.25	5.10765457875095E-05
2	484	107.798417727835	1.27029418945313	1.27044677734375	1.90399169921875E-06	2.41892007579736E-06	667254.375	5.12677725055255E-05
2	485	107.899125727581	1.28036499023438	1.280517578125	1.9158935546875E-06	2.45333535531245E-06	668365.6875	5.14601197210141E-05
2	486	107.999833727327	1.29043579101563	1.29058837890625	1.92962646484375E-06	2.49035360866401E-06	668828.0625	5.16537547810003E-05
2	487	108.100541727072	1.30050659179688	1.30096435546875	1.944580078125E-06	2.52982908932609E-06	669020.75	5.18488377565518E-05
2	488	108.201249726818	1.31057739257813	1.3104248046875	1.9610595703125E-06	2.56982093560509E-06	668222.875	5.20455032528844E-05
2	489	108.301957726564	1.32064819335938	1.32080078125	1.978759765625E-06	2.61354739450326E-06	667489.25	5.22438858752139E-05
2	490	108.40266572631	1.33071899414063	1.33056640625	1.998291015625E-06	2.65885887529294E-06	665852.125	5.24441493325867E-05
2	491	108.503373726055	1.34078979492188	1.34033203125	2.01934814453125E-06	2.70659688794694E-06	663744.875	5.26464500580914E-05
2	492	108.604081725801	1.35086059570313	1.35040283203125	2.04132080078125E-06	2.75660545412393E-06	661533.875	5.2850922656944E-05
2	493	108.704789725547	1.36093139648438	1.36077880859375	2.064208984375E-06	2.80893186754838E-06	659225.3125	5.30576544406358E-05
2	494	108.805497725293	1.37100219726563	1.37115478515625	2.0880126953125E-06	2.86298859464296E-06	656679.3125	5.32667327206582E-05
2	495	108.906205725038	1.38107299804688	1.3812255859375	2.11334228515625E-06	2.91900232696207E-06	653574.0625	5.34782884642482E-05
2	496	109.006913724784	1.39114379882813	1.3916015625	2.14080810546875E-06	2.97915175906383E-06	650035.6875	5.36925035703462E-05
2	497	109.10762172453	1.40121459960938	1.4013671875	2.17071533203125E-06	3.04196919387323E-06	645578.5	5.39096035936382E-05
2	498	109.208329724275	1.41128540039063	1.4111328125	2.205810546875E-06	3.11269150188309E-06	639734.375	5.41299814358354E-05
2	499	109.309037724021	1.42135620117188	1.4215087890625	2.24761962890625E-06	3.19501077683526E-06	632450.8125	5.43542264495045E-05
2	500	109.409745723767	1.43142700195313	1.4312744140625	2.2967529296875E-06	3.28728356180363E-06	623173	5.45830553164706E-05
2	501	109.510453723513	1.44149780273438	1.441650390625	2.35565185546875E-06	3.39602638632641E-06	611996.375	5.48173229617532E-05
2	502	109.611161723258	1.45156860351563	1.45172119140625	2.42462158203125E-06	3.51987432622991E-06	598741.375	5.50580298295245E-05
2	503	109.711869723004	1.46163940429688	1.46148681640625	2.50701904296875E-06	3.66397512152616E-06	582958	5.53063546249177E-05
2	504	109.81257772275	1.47171020507813	1.47186279296875	2.60589599609375E-06	3.83552151106414E-06	564820.25	5.55638107471168E-05
2	505	109.913285722496	1.48178100585938	1.4813232421875	2.7227783203125E-06	4.03331478082691E-06	544048.4375	5.58321335120127E-05
2	506	110.013993722241	1.49185180664063	1.49200439453125	2.8582763671875E-06	4.26456062996294E-06	521994.46875	5.61131600989029E-05
2	507	110.114701721987	1.50192260742188	1.50146484375	3.009033203125E-06	4.517957677308E-06	498985.8125	5.64086039958056E-05
2	508	110.215409721733	1.49185180664063	1.49139404296875	2.664794921875E-06	3.97425947085139E-06	559665.625	5.66943017474841E-05
2	509	110.316117721479	1.48178100585938	1.48223876953125	2.41363525390625E-06	3.57758381142048E-06	614110.5	5.69500225537922E-05
2	510	110.416825721224	1.47171020507813	1.47186279296875	2.21710205078125E-06	3.26326994581905E-06	663867.875	5.71831988054328E-05
2	511	110.51753372097	1.46163940429688	1.4617919921875	2.0574951171875E-06	3.00762985716574E-06	710471.6875	5.73984398215543E-05
2	512	110.618241720716	1.45156860351563	1.45172119140625	1.92657470703125E-06	2.79684923043533E-06	753524.5	5.75990561628714E-05
2	513	110.718949720462	1.44149780273438	1.441650390625	1.81671142578125E-06	2.61906257037481E-06	793549.5	5.77875434828456E-05
2	514	110.819657720207	1.43142700195313	1.43157958984375	1.72515869140625E-06	2.46970193984453E-06	829824.875	5.79658917558845E-05
2	515	110.920365719953	1.42135620117188	1.4215087890625	1.64825439453125E-06	2.34300819101918E-06	862432.875	5.81357562623452E-05
2	516	111.021073719699	1.41128540039063	1.4117431640625	1.583251953125E-06	2.23514507524669E-06	891673.125	5.82984757784288E-05
2	517	111.121781719444	1.40121459960938	1.40106201171875	1.5277099609375E-06	2.14041642720986E-06	917099.5	5.84551271458622E-05
2	518	111.22248971919	1.39114379882813	1.39129638671875	1.48040771484375E-06	2.05968581212801E-06	939806.25	5.86065980314743E-05
2	519	111.323197718936	1.38107299804688	1.38153076171875	1.439208984375E-06	1.98831139641698E-06	959923.6875	5.87536123930477E-05
2	520	111.423905718682	1.37100219726563	1.37115478515625	1.40350341796875E-06	1.92442030311213E-06	976951.5625	5.88967523071915E-05
2	521	111.524613718427	1.36093139648438	1.361083984375	1.37237548828125E-06	1.86791817213816E-06	991772.3125	5.90365307289176E-05
2	522	111.625321718173	1.35086059570313	1.35101318359375	1.3446044921875E-06	1.81657833309146E-06	1004766.25	5.91733405599371E-05
2	523	111.726029717919	1.34078979492188	1.34063720703125	1.31927490234375E-06	1.76866888068616E-06	1016192.5	5.93074764765333E-05
2	524	111.826737717665	1.33071899414063	1.33056640625	1.29669189453125E-06	1.72533464137814E-06	1026123.8125	5.94392004131805E-05
2	525	111.92744571741	1.32064819335938	1.32049560546875	1.275634765625E-06	1.68447013493278E-06	1035167.5	5.95687270106282E-05
2	526	112.028153717156	1.31057739257813	1.31103515625	1.25640869140625E-06	1.64719585882267E-06	1043478.3125	5.96962272538804E-05
2	527	112.128861716902	1.30050659179688	1.3006591796875	1.23809814453125E-06	1.61034370194102E-06	1050530	5.98218357481528E-05
2	528	112.229569716648	1.29043579101563	1.28997802734375	1.220703125E-06	1.57468014094775E-06	1056750	5.99456470808946E-05
2	529	112.330277716393	1.28036499023438	1.2799072265625	1.2042236328125E-06	1.54129452312191E-06	1062848.5	6.00677522015758E-05
2	530	112.430985716139	1.27029418945313	1.2701416015625	1.1895751953125E-06	1.5109288824533E-06	1067727	6.01882893533912E-05
2	531	112.531693715885	1.26022338867188	1.2603759765625	1.17462158203125E-06	1.48046467529639E-06	1073006	6.03073349338956E-05
2	532	112.632401715631	1.25015258789063	1.25	1.1614990234375E-06	1.45187368616462E-06	1076195.5	6.04249689786229E-05
2	533	112.733109715376	1.24008178710938	1.2396240234375	1.1480712890625E-06	1.42317674090009E-06	1079744.75	6.05412642471492E-05
2	534	112.833817715122	1.23001098632813	1.2298583984375	1.13525390625E-06	1.39620158279286E-06	1083333.375	6.06562389293686E-05
2	535	112.934525714868	1.21994018554688	1.219482421875	1.123046875E-06	1.36953599394474E-06	1085869.5	6.07699512329418E-05
2	536	113.035233714613	1.20986938476563	1.209716796875	1.11053466796875E-06	1.34343235913548E-06	1089310.25	6.08824229857419E-05
2	537	113.135941714359	1.19979858398438	1.19964599609375	1.09954833984375E-06	1.31906870137755E-06	1091035.25	6.09937087574508E-05
2	538	113.236649714105	1.18972778320313	1.18927001953125	1.087646484375E-06	1.29350530642114E-06	1093434.375	6.11038412898779E-05
2	539	113.337357713851	1.17965698242188	1.17889404296875	1.07635498046875E-06	1.2689083632722E-06	1095265.125	6.12128060311079E-05
2	540	113.438065713596	1.16958618164063	1.16973876953125	1.0650634765625E-06	1.24584596505883E-06	1098280.875	6.13206357229501E-05
2	541	113.538773713342	1.15951538085938	1.15936279296875	1.05377197265625E-06	1.22170399663446E-06	1100202.75	6.14273303654045E-05
2	542	113.639481713088	1.14944458007813	1.1492919921875	1.04278564453125E-06	1.19846515644895E-06	1102136.5	6.15328972344287E-05
2	543	113.740189712834	1.13937377929688	1.13983154296875	1.031494140625E-06	1.17572949420719E-06	1105029.625	6.16373508819379E-05
2	544	113.840897712579	1.12930297851563	1.12945556640625	1.0198974609375E-06	1.15192892735649E-06	1107420.75	6.17406476521865E-05
2	545	113.941605712325	1.11923217773438	1.11907958984375	1.00738525390625E-06	1.12734426238603E-06	1110875.5	6.18427293375134E-05
2	546	114.042313712071	1.10916137695313	1.10931396484375	9.9456787109375E-07	1.1032880138373E-06	1115372.875	6.19435304543003E-05
2	547	114.143021711817	1.09909057617188	1.0986328125	9.8114013671875E-07	1.07791277059732E-06	1119751.125	6.20430146227591E-05
2	548	114.243729711562	1.08901977539063	1.08917236328125	9.65576171875E-07	1.05167885067203E-06	1128002.5	6.2141043599695E-05
2	549	114.344437711308	1.07894897460938	1.0791015625	9.490966796875E-07	1.02417163816426E-06	1136977.5	6.22374500380829E-05
2	550	114.445145711054	1.06887817382813	1.0687255859375	9.30175781250001E-07	9.94102606455272E-07	1148950.125	6.2332081142813E-05
2	551	114.5458537108	1.05880737304688	1.05865478515625	9.08203125E-07	9.61473574534466E-07	1165658.625	6.24246531515382E-05
2	552	114.646561710545	1.04873657226563	1.0491943359375	8.819580078125E-07	9.25345318592008E-07	1189619.375	6.25147949904203E-05
2	553	114.747269710291	1.03866577148438	1.0382080078125	8.52050781249999E-07	8.84605867668142E-07	1218481.5	6.26021064817905E-05
2	554	114.847977710037	1.02859497070313	1.0284423828125	8.19091796875E-07	8.42388715227571E-07	1255588.75	6.26862602075562E-05
2	555	114.948685709782	1.01852416992188	1.01837158203125	7.83691406250001E-07	7.98089047293615E-07	1299454.875	6.27669651294127E-05
2	556	115.049393709528	1.00845336914063	1.00860595703125	7.489013671875E-07	7.55346377445676E-07	1346780.75	6.28441339358687E-05
2	557	115.150101709274	0.998382568359375	0.99853515625	7.17773437499999E-07	7.16722013294202E-07	1391156.5	6.29179849056527E-05
2	558	115.25080970902	0.988311767578125	0.98785400390625	6.9122314453125E-07	6.82827533182717E-07	1429139.125	6.29889400443062E-05
2	559	115.351517708765	0.978240966796875	0.97808837890625	6.7108154296875E-07	6.56377039831568E-07	1457480.75	6.30575377726927E-05
2	560	115.452225708511	0.968170166015625	0.96832275390625	6.57958984375E-07	6.37116670532123E-07	1471706.875	6.31244547548704E-05
2	561	115.552933708257	0.958099365234375	0.958251953125	6.4971923828125E-07	6.22594711785496E-07	1474870.875	6.31903021712787E-05
2	562	115.653641708003	0.948028564453125	0.948486328125	6.4544677734375E-07	6.12197482041665E-07	1469503.5	6.32555238553323E-05
2	563	115.754349707748	0.937957763671875	0.9381103515625	6.43310546875001E-07	6.03496289386385E-07	1458254.25	6.33204181212932E-05
2	564	115.855057707494	0.927886962890625	0.92803955078125	6.41784667968751E-07	5.95601534314483E-07	1446029.5	6.33851232123561E-05
2	565	115.95576570724	0.917816162109375	0.91766357421875	6.40869140625E-07	5.88102238907595E-07	1431904.75	6.34497118880972E-05
2	566	116.056473706986	0.907745361328125	0.90789794921875	6.3812255859375E-07	5.79350114549015E-07	1422764.375	6.35141113889404E-05
2	567	116.157181706731	0.897674560546875	0.89813232421875	6.3507080078125E-07	5.70377551412093E-07	1414224	6.35782271274365E-05
2	568	116.257889706477	0.887603759765625	0.88775634765625	6.304931640625E-07	5.59724298909714E-07	1408034.875	6.36419499642216E-05
2	569	116.358597706223	0.877532958984375	0.87799072265625	6.25000000000001E-07	5.48744196748885E-07	1404785.25	6.37051707599312E-05
2	570	116.459305705969	0.867462158203125	0.86761474609375	6.170654296875E-07	5.35375079380174E-07	1406033.625	6.37677148915827E-05
2	571	116.560013705714	0.857391357421875	0.8575439453125	6.085205078125E-07	5.21833101174707E-07	1409227.625	6.38294222881086E-05
2	572	116.66072170546	0.847320556640625	0.8477783203125	5.9967041015625E-07	5.08387529407628E-07	1413740.5	6.38902638456784E-05
2	573	116.761429705206	0.837249755859375	0.83740234375	5.902099609375E-07	4.94243181492493E-07	1418821.125	6.39501813566312E-05
2	574	116.862137704951	0.827178955078125	0.82763671875	5.816650390625E-07	4.81407312236115E-07	1422875.25	6.40091893728822E-05
2	575	116.962845704697	0.817108154296875	0.8172607421875	5.73120117187501E-07	4.68388549279553E-07	1425985.25	6.40673315501772E-05
2	576	117.063553704443	0.807037353515625	0.806884765625	5.65490722656251E-07	4.56285846439641E-07	1426875.375	6.4124666096177E-05
2	577	117.164261704189	0.796966552734375	0.797119140625	5.572509765625E-07	4.44195421778204E-07	1430449	6.41812002868392E-05
2	578	117.264969703934	0.786895751953125	0.78704833984375	5.48400878906249E-07	4.31617991125677E-07	1435169.75	6.42368759145029E-05
2	579	117.36567770368	0.776824951171875	0.7769775390625	5.36499023437501E-07	4.16847655060337E-07	1448236.75	6.42915038042702E-05
2	580	117.466385703426	0.766754150390625	0.76690673828125	5.2215576171875E-07	4.00444747583606E-07	1468731.75	6.43448147457093E-05
2	581	117.567093703172	0.756683349609375	0.75653076171875	5.023193359375E-07	3.80020026113925E-07	1506075.375	6.43964012851939E-05
2	582	117.667801702917	0.746612548828125	0.74658203125	4.74853515625E-07	3.54517084133477E-07	1572236.625	6.4445601310581E-05
2	583	117.768509702663	0.736541748046875	0.7364501953125	4.364013671875E-07	3.21387858548405E-07	1687552.5	6.44914907752536E-05
2	584	117.869217702409	0.726470947265625	0.726470947265625	3.86962890625001E-07	2.81117280565013E-07	1877366	6.45329491817392E-05
2	585	117.969925702155	0.716400146484375	0.71630859375	3.2196044921875E-07	2.30623030006427E-07	2224834.25	6.45686450297944E-05
2	586	118.0706337019	0.706329345703125	0.706268310546875	2.4139404296875E-07	1.70488959838622E-07	2925790	6.45970139885321E-05
2	587	118.171341701646	0.696258544921875	0.6961669921875	1.4801025390625E-07	1.03039845100739E-07	4703505.5	6.46166226943024E-05
2	588	118.272049701392	0.686187744140625	0.6861572265625	4.82177734375006E-08	3.30849729834881E-08	14230380	6.46265034447424E-05
2	589	118.372757701138	0.676116943359375	0.675994873046875	-4.97436523437506E-08	-3.36264527334151E-08	-13589571	6.46264234092087E-05
2	590	118.473465700883	0.666046142578125	0.666046142578125	-1.3458251953125E-07	-8.96381706638749E-08	-4948979.5	6.46171465632506E-05
2	591	118.574173700629	0.655975341796875	0.655914306640625	-1.98974609374999E-07	-1.30510287021934E-07	-3296472.5	6.46003463771194E-05
2	592	118.674881700375	0.645904541015625	0.645904541015625	-2.37426757812501E-07	-1.53355017573631E-07	-2720437.25	6.45783729851246E-05
2	593	118.77558970012	0.635833740234375	0.635833740234375	-2.50244140625E-07	-1.59113668019017E-07	-2540853.75	6.45538166281767E-05
2	594	118.876297699866	0.625762939453125	0.625762939453125	-2.43225097656249E-07	-1.52201252490158E-07	-2572773	6.45289692329243E-05
2	595	118.977005699612	0.615692138671875	0.615692138671875	-2.19116210937501E-07	-1.34908120230648E-07	-2809888.75	6.45056861685589E-05
2	596	119.077713699358	0.605621337890625	0.605621337890625	-1.82495117187501E-07	-1.10522933027823E-07	-3318562	6.44854662823491E-05
2	597	119.178421699103	0.595550537109375	0.59552001953125	-1.3763427734375E-07	-8.19639680571527E-08	-4326829.5	6.4469342760276E-05
2	598	119.279129698849	0.585479736328125	0.585418701171875	-9.1552734375E-08	-5.35966826475942E-08	-6394333.5	6.44578030915E-05
2	599	119.379837698595	0.575408935546875	0.575408935546875	-5.18798828125E-08	-2.98521456443268E-08	-11091177	6.44505853415467E-05
2	600	119.480545698341	0.565338134765625	0.56536865234375	-1.983642578125E-08	-1.12148930142553E-08	-28501538	6.44469691906124E-05
2	601	119.581253698086	0.555267333984375	0.5552978515625	7.32421875000028E-09	4.06712263867348E-09	75816672	6.44463434582576E-05
2	602	119.681961697832	0.545196533203125	0.545166015625	3.02124023437503E-08	1.64707749661375E-08	18044444	6.44482352072373E-05
2	603	119.782669697578	0.535125732421875	0.535125732421875	5.00488281250003E-08	2.6782414508375E-08	10692074	6.44522733637132E-05
2	604	119.883377697324	0.525054931640625	0.525054931640625	6.7138671875E-08	3.52514888390942E-08	7820454.5	6.44581741653383E-05
2	605	119.984085697069	0.514984130859375	0.51495361328125	8.17871093750006E-08	4.21165644581833E-08	6296269	6.44656756776385E-05
2	606	120.084793696815	0.504913330078125	0.504913330078125	9.52148437499995E-08	4.80752433418274E-08	5302884.5	6.44745887257159E-05
2	607	120.185501696561	0.494842529296875	0.494842529296875	1.068115234375E-07	5.2854883136888E-08	4632857.5	6.44847605144605E-05
2	608	120.286209696307	0.484771728515625	0.4847412109375	1.171875E-07	5.68056108818382E-08	4136458.5	6.44960382487625E-05
2	609	120.386917696052	0.474700927734375	0.47467041015625	1.263427734375E-07	5.99711711402051E-08	3757005	6.45082982373424E-05
2	610	120.487625695798	0.464630126953125	0.464630126953125	1.3458251953125E-07	6.25310931923195E-08	3452381	6.45214386167936E-05
2	611	120.588333695544	0.454559326171875	0.454559326171875	1.422119140625E-07	6.4643749908555E-08	3196351.75	6.45353793515824E-05
2	612	120.689041695289	0.444488525390625	0.444488525390625	1.48620605468749E-07	6.60601529034466E-08	2990759.75	6.45500185783021E-05
2	613	120.789749695035	0.434417724609375	0.4344482421875	1.544189453125E-07	6.70870363705944E-08	2813438.75	6.45652835373767E-05
2	614	120.890457694781	0.424346923828125	0.42431640625	1.59301757812499E-07	6.75943425676451E-08	2663601.75	6.45810796413571E-05
2	615	120.991165694527	0.414276123046875	0.414337158203125	1.63879394531249E-07	6.79013183457755E-08	2528305.5	6.45973486825824E-05
2	616	121.091873694272	0.404205322265625	0.404266357421875	1.6754150390625E-07	6.77313920505185E-08	2412932.75	6.46140397293493E-05
2	617	121.192581694018	0.394134521484375	0.3941650390625	1.7120361328125E-07	6.7482474719327E-08	2302317.25	6.4631094573997E-05
2	618	121.293289693764	0.384063720703125	0.384063720703125	1.74865722656251E-07	6.71595756784882E-08	2196335.25	6.46485204924829E-05
2	619	121.39399769351	0.373992919921875	0.373992919921875	1.77612304687499E-07	6.64257484572772E-08	2105670	6.46662738290615E-05
2	620	121.494705693255	0.363922119140625	0.36395263671875	1.80664062499999E-07	6.57531629144614E-08	2014527	6.46843109279871E-05
2	621	121.595413693001	0.353851318359375	0.353851318359375	1.8341064453125E-07	6.49000924113352E-08	1929284.625	6.47026463411748E-05
2	622	121.696121692747	0.343780517578125	0.34375	1.8585205078125E-07	6.38866382018932E-08	1849589.5	6.47212364128791E-05
2	623	121.796829692493	0.333709716796875	0.333770751953125	1.8768310546875E-07	6.26431315708942E-08	1778374	6.47400447633117E-05
2	624	121.897537692238	0.323638916015625	0.323638916015625	1.90124511718751E-07	6.15316935181909E-08	1702247.25	6.47590713924728E-05
2	625	121.998245691984	0.313568115234375	0.313568115234375	1.91650390625001E-07	6.00954521701169E-08	1636146.5	6.47782944724895E-05
2	626	122.09895369173	0.303497314453125	0.303497314453125	1.9195556640625E-07	5.82579993135823E-08	1581081.125	6.47976121399552E-05
2	627	122.199661691476	0.293426513671875	0.29345703125	1.934814453125E-07	5.67784894656143E-08	1516719.25	6.48170171189122E-05
2	628	122.300369691221	0.283355712890625	0.283355712890625	1.9378662109375E-07	5.49105472202882E-08	1462204.75	6.48365239612758E-05
2	629	122.401077690967	0.273284912109375	0.2733154296875	1.9500732421875E-07	5.32985069412462E-08	1401565	6.4856096287258E-05
2	630	122.501785690713	0.263214111328125	0.26324462890625	1.9500732421875E-07	5.13346272157378E-08	1349921.75	6.48757340968587E-05
2	631	122.602493690458	0.253143310546875	0.253204345703125	1.94702148437501E-07	4.92994267631275E-08	1300470.25	6.48953573545441E-05
2	632	122.703201690204	0.243072509765625	0.243072509765625	1.94091796875E-07	4.71783785371827E-08	1252358.5	6.49149369564839E-05
2	633	122.80390968995	0.233001708984375	0.232940673828125	1.92871093749999E-07	4.49275212588418E-08	1207753.25	6.49344219709747E-05
2	634	122.904617689696	0.222930908203125	0.222900390625	1.9073486328125E-07	4.25148733995684E-08	1168640.125	6.49537396384403E-05
2	635	123.005325689441	0.212860107421875	0.212860107421875	1.8890380859375E-07	4.02100823748697E-08	1126817.5	6.49728535790928E-05
2	636	123.106033689187	0.202789306640625	0.202789306640625	1.861572265625E-07	3.7750695014438E-08	1089344.25	6.49917419650592E-05
2	637	123.206741688933	0.192718505859375	0.1927490234375	1.82189941406249E-07	3.51169333612233E-08	1057956.5	6.50102883810177E-05
2	638	123.307449688679	0.182647705078125	0.18267822265625	1.77001953125E-07	3.2334401822709E-08	1032069	6.50283764116466E-05
2	639	123.408157688424	0.172576904296875	0.172607421875	1.708984375E-07	2.94983379944824E-08	1010000.0625	6.50458969175816E-05
2	640	123.50886568817	0.162506103515625	0.16259765625	1.62658691406251E-07	2.64479229628023E-08	999624.75	6.50626898277551E-05
2	641	123.609573687916	0.152435302734375	0.152435302734375	1.513671875E-07	2.30737029482952E-08	1007056.4375	6.50785004836507E-05
2	642	123.710281687662	0.142364501953125	0.142333984375	1.36413574218749E-07	1.94162872446668E-08	1043400.4375	6.50929941912182E-05
2	643	123.810989687407	0.132293701171875	0.13238525390625	1.1627197265625E-07	1.53926951185213E-08	1138582.75	6.51057198410854E-05
2	644	123.911697687153	0.122222900390625	0.12225341796875	8.88061523437497E-08	1.08568558587763E-08	1376632.25	6.51160444249399E-05
2	645	124.012405686899	0.112152099609375	0.112213134765625	5.06591796874997E-08	5.68462521499669E-09	2215060.25	6.51230657240376E-05
2	646	124.113113686645	0.102081298828125	0.10211181640625	-2.74658203125028E-09	-2.80458489765323E-10	-37177776	6.51254813419655E-05
2	647	124.21382168639	0.092010498046875	0.092010498046875	-7.69042968749994E-08	-7.07600245064555E-09	-1196428.625	6.51214650133625E-05
2	648	124.314529686136	0.081939697265625	0.08197021484375	-1.77612304687499E-07	-1.45589194033846E-08	-461512.03125	6.51086520520039E-05
2	649	124.415237685882	0.071868896484375	0.071990966796875	-3.131103515625E-07	-2.25411174170631E-08	-229922.03125	6.50839428999461E-05
2	650	124.515945685627	0.061798095703125	0.061798095703125	-4.8980712890625E-07	-3.02691489650897E-08	-126168.2265625	6.50435104034841E-05
2	651	124.616653685373	0.051727294921875	0.0517578125	-7.098388671875E-07	-3.67397063882891E-08	-72914.875	6.49831054033712E-05
2	652	124.717361685119	0.041656494140625	0.0417572021484375	-9.68322753906251E-07	-4.04344504545406E-08	-43123.23046875	6.489860243164E-05
2	653	124.818069684865	0.031585693359375	0.0317108154296875	-1.253662109375E-06	-3.97546457975295E-08	-25294.548828125	6.47867200314067E-05
2	654	124.91877768461	0.021514892578125	0.0216156005859375	-1.5399169921875E-06	-3.32862306606785E-08	-14036.8603515625	6.46460466668941E-05
2	655	125.019485684356	0.011444091796875	0.011566162109375	-1.7974853515625E-06	-2.07900061610644E-08	-6434.63525390625	6.44779938738793E-05
2	656	125.120193684102	0.001373291015625	0.0014617919921875	-2.00164794921875E-06	-2.9259930034442E-09	-730.294250488281	6.42866943962872E-05
2	657	125.220901683848	-0.008697509765625	-0.00861206054687499	-2.13409423828125E-06	1.83789481411623E-08	4035.46459960938	6.4078441937454E-05
2	658	125.321609683593	-0.018768310546875	-0.0186126708984375	-2.19390869140625E-06	4.08345002256283E-08	8483.7958984375	6.3860512454994E-05
2	659	125.422317683339	-0.028839111328125	-0.0287017822265625	-2.19146728515625E-06	6.28990193263235E-08	13097.0615234375	6.36396944173612E-05
2	660	125.523025683085	-0.038909912109375	-0.0387847900390625	-2.14385986328125E-06	8.31491533404005E-08	18091.103515625	6.34213865851052E-05
2	661	125.623733682831	-0.048980712890625	-0.0488189697265625	-2.0703125E-06	1.01070511959733E-07	23580.484375	6.32091905572452E-05
2	662	125.724441682576	-0.059051513671875	-0.058990478515625	-1.98455810546875E-06	1.17070037219946E-07	29724.7421875	6.30050126346759E-05
2	663	125.825149682322	-0.069122314453125	-0.069091796875	-1.8951416015625E-06	1.30938730080743E-07	36457.328125	6.28096531727351E-05
2	664	125.925857682068	-0.079193115234375	-0.079193115234375	-1.8109130859375E-06	1.43411853059661E-07	43731.04296875	6.26230394118465E-05
2	665	126.026565681814	-0.089263916015625	-0.0892333984375	-1.732177734375E-06	1.54568098764685E-07	51515.15234375	6.24446256551892E-05
2	666	126.127273681559	-0.099334716796875	-0.09918212890625	-1.66168212890625E-06	1.6480916542605E-07	59687.7890625	6.22737352387048E-05
2	667	126.227981681305	-0.109405517578125	-0.10931396484375	-1.59912109375E-06	1.74806274344519E-07	68358.78125	6.21095387032256E-05
2	668	126.328689681051	-0.119476318359375	-0.119415283203125	-1.54541015625E-06	1.845455841476E-07	77270.9375	6.19511993136257E-05
2	669	126.429397680796	-0.129547119140625	-0.129486083984375	-1.49871826171875E-06	1.94063161984559E-07	86397.8828125	6.17979167145677E-05
2	670	126.530105680542	-0.139617919921875	-0.139495849609375	-1.4569091796875E-06	2.03232772832962E-07	95747.8046875	6.16490870015696E-05
2	671	126.630813680288	-0.149688720703125	-0.1495361328125	-1.42242431640625E-06	2.12703824331584E-07	105127.65625	6.15040989941917E-05
2	672	126.731521680034	-0.159759521484375	-0.15960693359375	-1.392822265625E-06	2.22304080921276E-07	114592.4609375	6.13623415119946E-05
2	673	126.832229679779	-0.169830322265625	-0.16973876953125	-1.3671875E-06	2.32064721217284E-07	124151.7890625	6.12233634456061E-05
2	674	126.932937679525	-0.179901123046875	-0.1796875	-1.346435546875E-06	2.41937641476397E-07	133454.21875	6.10867209616117E-05
2	675	127.033645679271	-0.189971923828125	-0.189788818359375	-1.3287353515625E-06	2.5217909183084E-07	142834.1875	6.09520175203215E-05
2	676	127.134353679017	-0.200042724609375	-0.19989013671875	-1.3153076171875E-06	2.62917012605612E-07	151972.15625	6.08188820478972E-05
2	677	127.235061678762	-0.189971923828125	-0.189910888671875	-1.1566162109375E-06	2.19654012312276E-07	164195.25	6.06944086030126E-05
