Potential - Start -0.2 V, Upper Vertex 1.5 V, Lower Vertex -0.2 V, Stop -0.19 V; Scan - # end cross 5, Rate 0.1 Vps, Step 0.01 V 
Scan	Index	Time (s)	Potential applied (V)	WE(1).Potential (V)	WE(1).Current (A)	WE(1).Power (W)	WE(1).Resistance (Ω)	WE(1).Charge (C)
1	1	65.2655498352203	-0.189971923828125	-0.189849853515625	-1.97753906250001E-07	3.75435504906818E-08	960030.875	0
1	2	65.3662578349661	-0.179901123046875	-0.179718017578125	-1.6815185546875E-07	3.02199190116426E-08	1068784	-1.84248190038261E-08
1	3	65.4669658347118	-0.169830322265625	-0.16973876953125	-1.44042968749999E-07	2.4449676061522E-08	1178389.75	-3.41450778762464E-08
1	4	65.5676738344575	-0.159759521484375	-0.15966796875	-1.24206542968749E-07	1.9831805531112E-08	1285503.75	-4.76525130466143E-08
1	5	65.6683818342033	-0.149688720703125	-0.149566650390625	-1.06201171875001E-07	1.58841526598508E-08	1408333.375	-5.92544608934986E-08
1	6	65.769089833949	-0.139617919921875	-0.1395263671875	-8.91113281249995E-08	1.24333796591714E-08	1565753.5	-6.90892250077013E-08
1	7	65.8697978336947	-0.129547119140625	-0.129425048828125	-7.41577148437506E-08	9.5978656133866E-09	1745267.625	-7.73104744666853E-08
1	8	65.9705058334405	-0.119476318359375	-0.119384765625	-5.98144531249997E-08	7.14093451037456E-09	1995918.375	-8.40565093085388E-08
1	9	66.0712138331862	-0.109405517578125	-0.10931396484375	-4.54711914062503E-08	4.97063590287894E-09	2404027	-8.93580676120109E-08
1	10	66.171921832932	-0.099334716796875	-0.099273681640625	-3.0517578125E-08	3.02959213271947E-09	3253000.25	-9.31844041929253E-08
1	11	66.2726298326777	-0.089263916015625	-0.089202880859375	-1.52587890625E-08	1.36112787707532E-09	5846000.5	-9.54894261440131E-08
1	12	66.3733378324234	-0.079193115234375	-0.07916259765625	1.22070312500028E-09	-9.66340271690846E-11	-64850000	-9.61963024792567E-08
1	13	66.4740458321692	-0.069122314453125	-0.069061279296875	2.01416015624997E-08	-1.3910046448018E-09	-3428788	-9.51206189370168E-08
1	14	66.5747538319149	-0.059051513671875	-0.05902099609375	4.15039062499997E-08	-2.44960185469267E-09	-1422058.875	-9.20165277307206E-08
1	15	66.6754618316606	-0.048980712890625	-0.0488494873046875	6.98852539062503E-08	-3.41385875124445E-09	-698995.625	-8.64076312723228E-08
1	16	66.7761698314064	-0.038909912109375	-0.0387481689453125	1.04675292968751E-07	-4.05597555541704E-09	-370174.9375	-7.76178126216109E-08
1	17	66.8768778311521	-0.028839111328125	-0.0286956787109375	1.51672363281249E-07	-4.35234115414573E-09	-189195.1875	-6.47096811690062E-08
1	18	66.9775858308979	-0.018768310546875	-0.018634033203125	2.1484375E-07	-4.00340560702261E-09	-86732.953125	-4.62541329682153E-08
1	19	67.0782938306436	-0.008697509765625	-0.008624267578125	2.99987792968751E-07	-2.58717491874449E-09	-28748.728515625	-2.03303045509529E-08
1	20	67.1790018303893	0.001373291015625	0.001495361328125	4.12597656249999E-07	6.16982576140401E-10	3624.26049804688	1.55512225319399E-08
1	21	67.2797098301351	0.011444091796875	0.0115692138671875	5.59387207031251E-07	6.47167031075924E-09	20681.94140625	6.44945501449001E-08
1	22	67.3804178298808	0.021514892578125	0.0216033935546875	7.42492675781251E-07	1.60403619275939E-08	29095.767578125	1.30049400581811E-07
1	23	67.4811258296265	0.031585693359375	0.0316558837890625	9.57641601562501E-07	3.03149896296873E-08	33056.08984375	2.15657962598925E-07
1	24	67.5818338293723	0.041656494140625	0.0417266845703125	1.1956787109375E-06	4.98917103186614E-08	34897.91015625	3.24086244063437E-07
1	25	67.682541829118	0.051727294921875	0.051788330078125	1.43585205078125E-06	7.43603791875103E-08	36068.01171875	4.56594335673799E-07
1	26	67.7832498288637	0.061798095703125	0.061798095703125	1.6552734375E-06	1.02292744941224E-07	37334.0703125	6.12244889452995E-07
1	27	67.8839578286095	0.071868896484375	0.071868896484375	1.8304443359375E-06	1.31552013726832E-07	39263.08984375	7.87764690812764E-07
1	28	67.9846658283552	0.081939697265625	0.08197021484375	1.94976806640625E-06	1.59822889145289E-07	42041.01171875	9.78113462224428E-07
1	29	68.085373828101	0.092010498046875	0.092041015625	2.0086669921875E-06	1.84879752396228E-07	45821.9375	1.17743650207558E-06
1	30	68.1860818278467	0.102081298828125	0.102081298828125	2.01446533203125E-06	2.05639238970434E-07	50674.140625	1.38001735194848E-06
1	31	68.2867898275924	0.112152099609375	0.112213134765625	1.98272705078125E-06	2.2248802622471E-07	56595.3515625	1.58129194005596E-06
1	32	68.3874978273382	0.122222900390625	0.12225341796875	1.9268798828125E-06	2.35567640061163E-07	63446.3125	1.77815627466771E-06
1	33	68.4882058270839	0.132293701171875	0.13232421875	1.859130859375E-06	2.46008028170763E-07	71175.3125	1.96879705072206E-06
1	34	68.5889138268296	0.142364501953125	0.142425537109375	1.78680419921875E-06	2.54486536732657E-07	79709.6484375	2.15238446799049E-06
1	35	68.6896218265754	0.152435302734375	0.1524658203125	1.71630859375E-06	2.61678394508635E-07	88833.5703125	2.32878028327832E-06
1	36	68.7903298263211	0.162506103515625	0.162506103515625	1.65130615234375E-06	2.68347321252804E-07	98410.6484375	2.49835306931345E-06
1	37	68.8910378260668	0.172576904296875	0.172607421875	1.590576171875E-06	2.74545243428292E-07	108518.8046875	2.66159486272954E-06
1	38	68.9917458258126	0.182647705078125	0.182647705078125	1.53594970703125E-06	2.80537676644599E-07	118915.1640625	2.81902794085909E-06
1	39	69.0924538255583	0.192718505859375	0.1927490234375	1.48712158203125E-06	2.86641210323069E-07	129612.15625	2.97125166071055E-06
1	40	69.1931618253041	0.202789306640625	0.20281982421875	1.4434814453125E-06	2.92766657139509E-07	140507.40625	3.11881922243629E-06
1	41	69.2938698250498	0.212860107421875	0.212860107421875	1.40411376953125E-06	2.98879797355767E-07	151597.484375	3.26220697388635E-06
1	42	69.3945778247955	0.222930908203125	0.222930908203125	1.36962890625E-06	3.05332605421427E-07	162767.390625	3.40187602887454E-06
1	43	69.4952858245413	0.233001708984375	0.233001708984375	1.33819580078125E-06	3.11801898078556E-07	174116.3125	3.53822588294861E-06
1	44	69.595993824287	0.243072509765625	0.2430419921875	1.309814453125E-06	3.18339886007379E-07	185554.53125	3.67156371794408E-06
1	45	69.6967018240327	0.253143310546875	0.25311279296875	1.285400390625E-06	3.25351265928475E-07	196913.59375	3.80224332729995E-06
1	46	69.7974098237785	0.263214111328125	0.263153076171875	1.26251220703125E-06	3.3223398077098E-07	208436.0625	3.93054097003187E-06
1	47	69.8981178235242	0.273284912109375	0.27325439453125	1.24176025390625E-06	3.39316414965651E-07	220054.078125	4.05664104619063E-06
1	48	69.99882582327	0.283355712890625	0.28338623046875	1.22314453125E-06	3.46622329061574E-07	231686.625	4.18075887864688E-06
1	49	70.0995338230157	0.293426513671875	0.29339599609375	1.2060546875E-06	3.53851618228873E-07	243269.234375	4.30307864007773E-06
1	50	70.2002418227614	0.303497314453125	0.30340576171875	1.1907958984375E-06	3.61294326012285E-07	254792.421875	4.4237694964977E-06
1	51	70.3009498225072	0.313568115234375	0.31353759765625	1.17706298828125E-06	3.69053481108494E-07	266372.84375	4.54300061392132E-06
1	52	70.4016578222529	0.323638916015625	0.323638916015625	1.16485595703125E-06	3.76992716155655E-07	277836	4.6609256969532E-06
1	53	70.5023658219986	0.333709716796875	0.333709716796875	1.153564453125E-06	3.84955654908481E-07	289285.71875	4.77766752737807E-06
1	54	70.6030738217444	0.343780517578125	0.343780517578125	1.14349365234375E-06	3.93110809682184E-07	300640.53125	4.89333342557075E-06
1	55	70.7037818214901	0.353851318359375	0.353790283203125	1.13433837890625E-06	4.01317890919017E-07	311891.3125	5.00803162140073E-06
1	56	70.8044898212358	0.363922119140625	0.363922119140625	1.12640380859375E-06	4.09923245570099E-07	323083.1875	5.12186898049549E-06
1	57	70.9051978209816	0.373992919921875	0.373992919921875	1.11907958984375E-06	4.18527832835025E-07	334196.90625	5.23493781656725E-06
1	58	71.0059058207273	0.384063720703125	0.384063720703125	1.11297607421875E-06	4.27453727525062E-07	345078.15625	5.3473308980756E-06
1	59	71.1066138204731	0.394134521484375	0.3941650390625	1.1083984375E-06	4.36891923527583E-07	355616.71875	5.45918601346784E-06
1	60	71.2073218202188	0.404205322265625	0.4041748046875	1.10443115234375E-06	4.46383239705028E-07	365957.4375	5.57061093786615E-06
1	61	71.3080298199645	0.414276123046875	0.414276123046875	1.10107421875E-06	4.56148740113349E-07	376247.25	5.68166706216289E-06
1	62	71.4087378197103	0.424346923828125	0.42425537109375	1.09893798828125E-06	4.66230346773955E-07	386059.40625	5.79244624532294E-06
1	63	71.509445819456	0.434417724609375	0.43438720703125	1.097412109375E-06	4.76701785601108E-07	395828.6875	5.90304125580587E-06
1	64	71.6101538192017	0.444488525390625	0.4444580078125	1.0968017578125E-06	4.87482282096607E-07	405230.9375	6.013528945914E-06
1	65	71.7108618189475	0.454559326171875	0.454559326171875	1.09710693359375E-06	4.98700160278531E-07	414325.46875	6.12400071986485E-06
1	66	71.8115698186932	0.464630126953125	0.464569091796875	1.09649658203125E-06	5.09398432768648E-07	423684.9375	6.23445748715312E-06
1	67	71.912277818439	0.474700927734375	0.4747314453125	1.0968017578125E-06	5.2068628519919E-07	432832.5	6.34489879303146E-06
1	68	72.0129858181847	0.484771728515625	0.484710693359375	1.0980224609375E-06	5.32223168647761E-07	441439.71875	6.4554169512121E-06
1	69	72.1136938179304	0.494842529296875	0.494781494140625	1.0992431640625E-06	5.43885164461244E-07	450111.0625	6.56605834592483E-06
1	70	72.2144018176762	0.504913330078125	0.50482177734375	1.10076904296875E-06	5.55692167836241E-07	458608.25	6.67683752908488E-06
1	71	72.3151098174219	0.514984130859375	0.5150146484375	1.10321044921875E-06	5.68169525649864E-07	466832.6875	6.78781680107932E-06
1	72	72.4158178171676	0.525054931640625	0.524993896484375	1.10626220703125E-06	5.80780863401742E-07	474565.53125	6.89907255946309E-06
1	73	72.5165258169134	0.535125732421875	0.535125732421875	1.109619140625E-06	5.93785728142393E-07	482260.75	7.010651188466E-06
1	74	72.6172338166591	0.545196533203125	0.54510498046875	1.11328125E-06	6.06855110163451E-07	489638.1875	7.12258315616054E-06
1	75	72.7179418164048	0.555267333984375	0.55517578125	1.1163330078125E-06	6.19761067355284E-07	497320.9375	7.2348530011368E-06
1	76	72.8186498161506	0.565338134765625	0.5653076171875	1.12060546875E-06	6.33486820333928E-07	504466.21875	7.34749164621462E-06
1	77	72.9193578158963	0.575408935546875	0.57537841796875	1.12396240234375E-06	6.4670371102693E-07	511919.625	7.46051455280394E-06
1	78	73.0200658156421	0.585479736328125	0.58544921875	1.12823486328125E-06	6.60524221984815E-07	518907.21875	7.57392172090476E-06
1	79	73.1207738153878	0.595550537109375	0.595458984375	1.13250732421875E-06	6.7436167228152E-07	525788.1875	7.68775953474687E-06
1	80	73.2214818151335	0.605621337890625	0.6055908203125	1.1370849609375E-06	6.88608224663767E-07	532581.875	7.80204209149815E-06
1	81	73.3221898148793	0.615692138671875	0.61572265625	1.141357421875E-06	7.02759621162841E-07	539465.25	7.916771210148E-06
1	82	73.422897814625	0.625762939453125	0.625701904296875	1.1456298828125E-06	7.16822796675842E-07	546164.0625	8.03192961029708E-06
1	83	73.5236058143707	0.635833740234375	0.6357421875	1.15020751953125E-06	7.31235445528E-07	552719.5625	8.14753457234474E-06
1	84	73.6243138141165	0.645904541015625	0.64581298828125	1.153564453125E-06	7.44986891731969E-07	559841.3125	8.26353880256647E-06
1	85	73.7250218138622	0.655975341796875	0.655853271484375	1.15692138671875E-06	7.5877068184127E-07	566895.3125	8.37988045532256E-06
1	86	73.8257298136079	0.666046142578125	0.66595458984375	1.1602783203125E-06	7.72692658301821E-07	573961.0625	8.49656134960242E-06
1	87	73.9264378133537	0.676116943359375	0.676055908203125	1.16363525390625E-06	7.86682505804492E-07	580986.125	8.61357966641663E-06
1	88	74.0271458130994	0.686187744140625	0.686065673828125	1.16668701171875E-06	8.00423890723323E-07	588046.0625	8.73092085384997E-06
1	89	74.1278538128452	0.696258544921875	0.69622802734375	1.16973876953125E-06	8.14404927496071E-07	595199.5625	8.8485685409978E-06
1	90	74.2285618125909	0.706329345703125	0.706268310546875	1.17156982421875E-06	8.27442647732823E-07	602839.3125	8.96646361070452E-06
1	91	74.3292698123366	0.716400146484375	0.71630859375	1.1737060546875E-06	8.40735708607099E-07	610296.4375	9.08455695025623E-06
1	92	74.4299778120824	0.726470947265625	0.72637939453125	1.1761474609375E-06	8.54329243793472E-07	617592.125	9.20288130146218E-06
1	93	74.5306858118281	0.736541748046875	0.736419677734375	1.17767333984375E-06	8.67261803705333E-07	625317.4375	9.32140574150253E-06
1	94	74.6313938115738	0.746612548828125	0.746490478515625	1.17950439453125E-06	8.80488755683473E-07	632884.875	9.44009934755741E-06
1	95	74.7321018113196	0.756683349609375	0.7568359375	1.180419921875E-06	8.93384196842817E-07	641158.25	9.55893119680695E-06
1	96	74.8328098110653	0.766754150390625	0.76690673828125	1.181640625E-06	9.06208185824653E-07	649018.5625	9.67787036643131E-06
1	97	74.9335178108111	0.776824951171875	0.77728271484375	1.18255615234375E-06	9.19180479286297E-07	657290.3125	9.79691685643047E-06
1	98	75.0342258105568	0.786895751953125	0.787353515625	1.1846923828125E-06	9.32771683892497E-07	664605.875	9.91611705103423E-06
1	99	75.1349338103025	0.796966552734375	0.79681396484375	1.18621826171875E-06	9.45195267831878E-07	671726.25	1.00355018730625E-05
1	100	75.2356418100483	0.807037353515625	0.80718994140625	1.18865966796875E-06	9.59474164119456E-07	679075.75	1.01550867839251E-05
1	101	75.336349809794	0.817108154296875	0.81756591796875	1.19110107421875E-06	9.73803707893239E-07	686395.0625	1.02749172583572E-05
1	102	75.4370578095397	0.827178955078125	0.8270263671875	1.19415283203125E-06	9.87595853985113E-07	692563.25	1.03950242191786E-05
1	103	75.5377658092855	0.837249755859375	0.83740234375	1.19781494140625E-06	1.00305294381542E-06	699108.3125	1.05154695120291E-05
1	104	75.6384738090312	0.847320556640625	0.8477783203125	1.20147705078125E-06	1.018586203827E-06	705613.375	1.06362831502338E-05
1	105	75.7391818087769	0.857391357421875	0.8575439453125	1.20452880859375E-06	1.03293632491841E-06	711933.125	1.07574351204676E-05
1	106	75.8398898085227	0.867462158203125	0.8673095703125	1.20819091796875E-06	1.04787545751606E-06	717858.0625	1.08789254227304E-05
1	107	75.9405978082684	0.877532958984375	0.87799072265625	1.21185302734375E-06	1.06399568267079E-06	724502.625	1.10007840703474E-05
1	108	76.0413058080142	0.887603759765625	0.88714599609375	1.21612548828125E-06	1.07888081402052E-06	729485.5625	1.11230428956333E-05
1	109	76.1420138077599	0.897674560546875	0.8978271484375	1.2200927734375E-06	1.09543236703757E-06	735868	1.12457164505031E-05
1	110	76.2427218075056	0.907745361328125	0.9075927734375	1.23565673828125E-06	1.12147301933874E-06	734502.375	1.13693731691455E-05
1	111	76.3434298072514	0.917816162109375	0.91766357421875	1.24664306640625E-06	1.1439989293649E-06	736107.75	1.14943668449996E-05
1	112	76.4441378069971	0.927886962890625	0.92742919921875	1.25457763671875E-06	1.1635319197012E-06	739236.25	1.16203127618064E-05
1	113	76.5448458067428	0.937957763671875	0.9381103515625	1.2615966796875E-06	1.18351681521744E-06	743589.8125	1.1747012649721E-05
1	114	76.6455538064886	0.948028564453125	0.94818115234375	1.26739501953125E-06	1.20172001061292E-06	748133.9375	1.18743573693791E-05
1	115	76.7462618062343	0.958099365234375	0.95855712890625	1.27349853515625E-06	1.22072106023552E-06	752695.9375	1.20023014460457E-05
1	116	76.8469698059801	0.968170166015625	0.9686279296875	1.27960205078125E-06	1.23945824270777E-06	756975.9375	1.21308603411308E-05
1	117	76.9476778057258	0.978240966796875	0.97808837890625	1.285400390625E-06	1.25723511246179E-06	760921.1875	1.22600185932242E-05
1	118	77.0483858054715	0.988311767578125	0.987548828125	1.29180908203125E-06	1.27572457131464E-06	764469.625	1.23897916637361E-05
1	119	77.1490938052173	0.998382568359375	0.99853515625	1.2994384765625E-06	1.29753493638418E-06	768435.9375	1.25202714116313E-05
1	120	77.249801804963	1.00845336914063	1.00799560546875	1.30767822265625E-06	1.31813385451096E-06	770828.5	1.26515496958746E-05
1	121	77.3505098047087	1.01852416992188	1.01806640625	1.317138671875E-06	1.3409345456239E-06	772937.9375	1.27837201944203E-05
1	122	77.4512178044545	1.02859497070313	1.02813720703125	1.326904296875E-06	1.36423955154896E-06	774839.0625	1.2916857485834E-05
1	123	77.5519258042002	1.03866577148438	1.038818359375	1.336669921875E-06	1.38855727982445E-06	777168.9375	1.30509797600098E-05
1	124	77.6526338039459	1.04873657226563	1.04888916015625	1.3458251953125E-06	1.41162138334039E-06	779365.125	1.31860542751383E-05
1	125	77.7533418036917	1.05880737304688	1.05865478515625	1.35406494140625E-06	1.43348734127358E-06	781834.5625	1.33220037241699E-05
1	126	77.8540498034374	1.06887817382813	1.06903076171875	1.35986328125E-06	1.45373564919282E-06	786131.0625	1.34586616695742E-05
1	127	77.9547578031832	1.07894897460938	1.07940673828125	1.36383056640625E-06	1.47212779211259E-06	791452.25	1.35958098326228E-05
1	128	78.0554658029289	1.08901977539063	1.08917236328125	1.36566162109375E-06	1.4874408407195E-06	797541.9375	1.37332508529653E-05
1	129	78.1561738026746	1.09909057617188	1.09893798828125	1.3665771484375E-06	1.50178345847962E-06	804153.6875	1.38708301165025E-05
1	130	78.2568818024204	1.10916137695313	1.1090087890625	1.3677978515625E-06	1.51689982885728E-06	810798.75	1.40085167004145E-05
1	131	78.3575898021661	1.11923217773438	1.11907958984375	1.36749267578125E-06	1.53033306560246E-06	818344.1875	1.41462496685563E-05
1	132	78.4582978019118	1.12930297851563	1.12884521484375	1.3677978515625E-06	1.5440319884874E-06	825301.1875	1.42839826366981E-05
1	133	78.5590058016576	1.13937377929688	1.1395263671875	1.3690185546875E-06	1.56003261508886E-06	832367.375	1.44217920023948E-05
1	134	78.6597138014033	1.14944458007813	1.14898681640625	1.36993408203125E-06	1.57403610501206E-06	838716.9375	1.4559709597961E-05
1	135	78.7604218011491	1.15951538085938	1.15966796875	1.37176513671875E-06	1.59079195327649E-06	845383.8125	1.46977645272273E-05
1	136	78.8611298008948	1.16958618164063	1.16943359375	1.37451171875E-06	1.60740023602557E-06	850799.3125	1.48360504681477E-05
1	137	78.9618378006405	1.17965698242188	1.1798095703125	1.3775634765625E-06	1.62526248459471E-06	856446.625	1.49746292663622E-05
1	138	79.0625458003863	1.18972778320313	1.1895751953125	1.3818359375E-06	1.64379764555633E-06	860865.75	1.51135755004361E-05
1	139	79.163253800132	1.19979858398438	1.1993408203125	1.38702392578125E-06	1.66351435382239E-06	864686.5	1.52529992192285E-05
1	140	79.2639617998777	1.20986938476563	1.2103271484375	1.39312744140625E-06	1.6861398535184E-06	868784.25	1.53929904627148E-05
1	141	79.3646697996235	1.21994018554688	1.2200927734375	1.39984130859375E-06	1.7079362351069E-06	871593.6875	1.55336274474394E-05
1	142	79.4653777993692	1.23001098632813	1.2298583984375	1.40716552734375E-06	1.73061437180877E-06	873996.9375	1.56749720190419E-05
1	143	79.5660857991149	1.24008178710938	1.240234375	1.4154052734375E-06	1.75543425484648E-06	876239.8125	1.58170987560879E-05
1	144	79.6667937988607	1.25015258789063	1.25	1.42547607421875E-06	1.78184507149126E-06	876900.0625	1.5960149539751E-05
1	145	79.7675017986064	1.26022338867188	1.25946044921875	1.43585205078125E-06	1.80839879249106E-06	877152	1.61042280524271E-05
1	146	79.8682097983522	1.27029418945313	1.2701416015625	1.44683837890625E-06	1.83768963779585E-06	877873.875	1.624938340683E-05
1	147	79.9689177980979	1.28036499023438	1.28021240234375	1.458740234375E-06	1.86749718977808E-06	877615.125	1.63956901815254E-05
1	148	80.0696257978436	1.29043579101563	1.29058837890625	1.47186279296875E-06	1.89956904250721E-06	876840.125	1.65432593348669E-05
1	149	80.1703337975894	1.30050659179688	1.30035400390625	1.4862060546875E-06	1.93259393199696E-06	874948.6875	1.66922091011656E-05
1	150	80.2710417973351	1.31057739257813	1.31103515625	1.50054931640625E-06	1.96727296497556E-06	873703.5	1.68426049640402E-05
1	151	80.3717497970808	1.32064819335938	1.3201904296875	1.51611328125E-06	2.0015581867483E-06	870773	1.69945051311515E-05
1	152	80.4724577968266	1.33071899414063	1.33087158203125	1.531982421875E-06	2.03887179850426E-06	868725.0625	1.71479896380333E-05
1	153	80.5731657965723	1.34078979492188	1.3409423828125	1.54876708984375E-06	2.07680727726256E-06	865812.8125	1.73031166923465E-05
1	154	80.673873796318	1.35086059570313	1.35101318359375	1.56646728515625E-06	2.11631800084433E-06	862458.625	1.74599808815401E-05
1	155	80.7745817960638	1.36093139648438	1.36016845703125	1.585693359375E-06	2.15681006920931E-06	857775.25	1.76187058968935E-05
1	156	80.8752897958095	1.37100219726563	1.3714599609375	1.60491943359375E-06	2.20108267967589E-06	854535.125	1.77793663169723E-05
1	157	80.9759977955553	1.38107299804688	1.380615234375	1.624755859375E-06	2.2431624984165E-06	849737.0625	1.79419930645963E-05
1	158	81.076705795301	1.39114379882813	1.3909912109375	1.64459228515625E-06	2.28761336984462E-06	845797.0625	1.81066170625854E-05
1	159	81.1774137950467	1.40121459960938	1.4013671875	1.6656494140625E-06	2.33418631978566E-06	841333.8125	1.82733019755688E-05
1	160	81.2781217947925	1.41128540039063	1.4111328125	1.6876220703125E-06	2.38145867115236E-06	836166.375	1.84421514859423E-05
1	161	81.3788297945382	1.42135620117188	1.4215087890625	1.71051025390625E-06	2.43150520873314E-06	831043.75	1.86132620001445E-05
1	162	81.4795377942839	1.43142700195313	1.4312744140625	1.73614501953125E-06	2.48489982368483E-06	824397.9375	1.87868135981262E-05
1	163	81.5802457940297	1.44149780273438	1.44134521484375	1.76544189453125E-06	2.544611106714E-06	816421.8125	1.89631336979801E-05
1	164	81.6809537937754	1.45156860351563	1.4508056640625	1.80145263671875E-06	2.61355762631865E-06	805353.1875	1.91427407116862E-05
1	165	81.7816617935212	1.46163940429688	1.461181640625	1.8475341796875E-06	2.69958286480687E-06	790882.0625	1.93264822883066E-05
1	166	81.8823697932669	1.47171020507813	1.47125244140625	1.907958984375E-06	2.80708923128259E-06	771113.25	1.95155862456886E-05
1	167	81.9830777930126	1.48178100585938	1.48162841796875	1.98516845703125E-06	2.94128199129773E-06	746349	1.97116205526982E-05
1	168	82.0837857927584	1.49185180664063	1.49200439453125	2.0806884765625E-06	3.1043962280819E-06	717072.5	1.99163532670354E-05
1	169	82.1844937925041	1.50192260742188	1.50177001953125	2.191162109375E-06	3.29062163473282E-06	685376.0625	2.01314578589518E-05
1	170	82.2852017922498	1.49185180664063	1.49200439453125	1.92474365234375E-06	2.87172588286921E-06	775170.4375	2.0338709873613E-05
1	171	82.3859097919956	1.48178100585938	1.48162841796875	1.7333984375E-06	2.56825251199189E-06	854753.5	2.05229116545524E-05
1	172	82.4866177917413	1.47171020507813	1.4715576171875	1.58477783203125E-06	2.33209175348748E-06	928557.6875	2.06899949262151E-05
1	173	82.587325791487	1.46163940429688	1.46148681640625	1.46697998046875E-06	2.14397186937276E-06	996255.5	2.08436631510267E-05
1	174	82.6880337912328	1.45156860351563	1.45172119140625	1.37054443359375E-06	1.98964835362858E-06	1059229.625	2.09865447686752E-05
1	175	82.7887417909785	1.44149780273438	1.44134521484375	1.29241943359375E-06	1.8628225006978E-06	1115230.25	2.11206352105364E-05
1	176	82.8894497907243	1.43142700195313	1.4312744140625	1.22894287109375E-06	1.75895456777653E-06	1164638.625	2.12475952139357E-05
1	177	82.99015779047	1.42135620117188	1.42120361328125	1.17523193359375E-06	1.67024381880765E-06	1209296.375	2.13686562346993E-05
1	178	83.0908657902157	1.41128540039063	1.41143798828125	1.131591796875E-06	1.59717149017524E-06	1247303.25	2.14848132600309E-05
1	179	83.1915737899615	1.40121459960938	1.40106201171875	1.09527587890625E-06	1.53454936935304E-06	1279186.5	2.15969448618125E-05
1	180	83.2922817897072	1.39114379882813	1.39129638671875	1.06536865234375E-06	1.48224364693306E-06	1305929.5	2.17057422560174E-05
1	181	83.3929897894529	1.38107299804688	1.3812255859375	1.0394287109375E-06	1.43568547628092E-06	1328831.625	2.18117274926044E-05
1	182	83.4936977891987	1.37100219726563	1.3714599609375	1.0174560546875E-06	1.39540020427376E-06	1347930.375	2.19152989302529E-05
1	183	83.5944057889444	1.36093139648438	1.3604736328125	9.9761962890625E-07	1.3572351917901E-06	1363719.75	2.20167657971615E-05
1	184	83.6951137886902	1.35086059570313	1.3507080078125	9.796142578125E-07	1.3231727962193E-06	1378816.25	2.21163281821646E-05
1	185	83.7958217884359	1.34078979492188	1.3409423828125	9.63134765625E-07	1.29150828342972E-06	1392268.75	2.22141534322873E-05
1	186	83.8965297881816	1.33071899414063	1.33087158203125	9.478759765625E-07	1.26150121104729E-06	1404056.75	2.23103797907243E-05
1	187	83.9972377879274	1.32064819335938	1.32049560546875	9.33837890625E-07	1.23312872801762E-06	1414052.375	2.24051327677444E-05
1	188	84.0979457876731	1.31057739257813	1.31072998046875	9.197998046875E-07	1.20560912364454E-06	1425016.625	2.24984705710085E-05
1	189	84.1986537874188	1.30050659179688	1.300048828125	9.0606689453125E-07	1.17793115350651E-06	1434826.625	2.25904095714213E-05
1	190	84.2993617871646	1.29043579101563	1.290283203125	8.9385986328125E-07	1.15333239136817E-06	1443496.125	2.26810443564318E-05
1	191	84.4000697869103	1.28036499023438	1.280517578125	8.819580078125E-07	1.12936265850294E-06	1451903.125	2.27704622375313E-05
1	192	84.500777786656	1.27029418945313	1.2701416015625	8.70666503906251E-07	1.10586972823512E-06	1458815.25	2.28587141464232E-05
1	193	84.6014857864018	1.26022338867188	1.26007080078125	8.587646484375E-07	1.08210417693044E-06	1467306.375	2.29457982641179E-05
1	194	84.7021937861475	1.25015258789063	1.25030517578125	8.49304199218751E-07	1.06188940662832E-06	1472152.375	2.30318073590752E-05
1	195	84.8029017858933	1.24008178710938	1.24053955078125	8.38623046875001E-07	1.04034495507221E-06	1479257.75	2.31167996389559E-05
1	196	84.903609785639	1.23001098632813	1.2298583984375	8.2855224609375E-07	1.01900195659255E-06	1484346.25	2.32007496379083E-05
1	197	85.0043177853847	1.21994018554688	1.219482421875	8.1939697265625E-07	9.99240228338749E-07	1488268.125	2.32837301155087E-05
1	198	85.1050257851305	1.20986938476563	1.209716796875	8.099365234375E-07	9.79793867372791E-07	1493594.625	2.33657738135662E-05
1	199	85.2057337848762	1.19979858398438	1.19964599609375	8.00476074218751E-07	9.60287934503867E-07	1498665.625	2.34468643611763E-05
1	200	85.3064417846219	1.18972778320313	1.1895751953125	7.91015625E-07	9.40972540774965E-07	1503858	2.35270017583389E-05
1	201	85.4071497843677	1.17965698242188	1.1798095703125	7.82165527343751E-07	9.22806350445171E-07	1508388.625	2.36062187468633E-05
1	202	85.5078577841134	1.16958618164063	1.16973876953125	7.73010253906251E-07	9.04220030406577E-07	1513225.5	2.36845280596754E-05
1	203	85.6085657838591	1.15951538085938	1.1590576171875	7.6324462890625E-07	8.84644464349549E-07	1518592.625	2.376188422204E-05
1	204	85.7092737836049	1.14944458007813	1.1492919921875	7.537841796875E-07	8.66318089265405E-07	1524696.375	2.38382726820419E-05
1	205	85.8099817833506	1.13937377929688	1.138916015625	7.4462890625E-07	8.48069760195358E-07	1529508.25	2.39137243625009E-05
1	206	85.9106897830964	1.12930297851563	1.129150390625	7.3394775390625E-07	8.28737370284216E-07	1538461.625	2.39881755987881E-05
1	207	86.0113977828421	1.11923217773438	1.11907958984375	7.2357177734375E-07	8.09734387985372E-07	1546604.875	2.40615681832423E-05
1	208	86.1121057825878	1.10916137695313	1.10931396484375	7.122802734375E-07	7.90142451023712E-07	1557412.125	2.41338693740545E-05
1	209	86.2128137823336	1.09909057617188	1.0992431640625	7.0068359375E-07	7.70221618040523E-07	1568815.375	2.42050173255848E-05
1	210	86.3135217820793	1.08901977539063	1.0888671875	6.87561035156251E-07	7.48662614569184E-07	1583666.25	2.4274921088363E-05
1	211	86.414229781825	1.07894897460938	1.07879638671875	6.72607421875E-07	7.2560646913189E-07	1603902	2.43434114963748E-05
1	212	86.5149377815708	1.06887817382813	1.0687255859375	6.56738281249999E-07	7.0187297751545E-07	1627323.375	2.44103484874358E-05
1	213	86.6156457813165	1.05880737304688	1.05926513671875	6.40869140625E-07	6.78850312851864E-07	1652857.125	2.44756884058006E-05
1	214	86.7163537810623	1.04873657226563	1.04888916015625	6.243896484375E-07	6.54915538689238E-07	1679863.125	2.45393985096598E-05
1	215	86.817061780808	1.03866577148438	1.0382080078125	6.0882568359375E-07	6.32087676422088E-07	1705263.25	2.46014969889075E-05
1	216	86.9177697805537	1.02859497070313	1.0284423828125	5.9417724609375E-07	6.110770414125E-07	1730868.125	2.46620729740243E-05
1	217	87.0184777802995	1.01852416992188	1.01806640625	5.8135986328125E-07	5.91862942656007E-07	1751181.125	2.47212647082051E-05
1	218	87.1191857800452	1.00845336914063	1.0089111328125	5.7098388671875E-07	5.76072011426731E-07	1766969.5	2.47792904701782E-05
1	219	87.2198937797909	0.998382568359375	0.99853515625	5.6182861328125E-07	5.61005606414255E-07	1777295	2.4836332158884E-05
1	220	87.3206017795367	0.988311767578125	0.98846435546875	5.52978515624999E-07	5.46599551398685E-07	1787527.625	2.48924679908669E-05
1	221	87.4213097792824	0.978240966796875	0.9783935546875	5.4595947265625E-07	5.34163177690061E-07	1792062.75	2.49478034675121E-05
1	222	87.5220177790281	0.968170166015625	0.96832275390625	5.39550781250001E-07	5.22459231433459E-07	1794683.375	2.50024622800993E-05
1	223	87.6227257787739	0.958099365234375	0.9588623046875	5.340576171875E-07	5.12087694914953E-07	1795428.625	2.50565226451727E-05
1	224	87.7234337785196	0.948028564453125	0.94818115234375	5.27343750000001E-07	5.00017392823793E-07	1798032.5	2.51099700108171E-05
1	225	87.8241417782654	0.937957763671875	0.9375	5.2154541015625E-07	4.88948842303216E-07	1797542.375	2.5162784368149E-05
1	226	87.9248497780111	0.927886962890625	0.92803955078125	5.1605224609375E-07	4.78916888368985E-07	1798344.25	2.52150330197765E-05
1	227	88.0255577777568	0.917816162109375	0.91796875	5.10559082031251E-07	4.68677257003947E-07	1797967.75	2.52667268796358E-05
1	228	88.1262657775026	0.907745361328125	0.9075927734375	5.047607421875E-07	4.58117199286789E-07	1798065.25	2.53178513958119E-05
1	229	88.2269737772483	0.897674560546875	0.8984375	4.9896240234375E-07	4.48286499477035E-07	1800611.75	2.53683938353788E-05
1	230	88.327681776994	0.887603759765625	0.8880615234375	4.93774414062501E-07	4.38502041788524E-07	1798516.75	2.54183814831777E-05
1	231	88.4283897767398	0.877532958984375	0.87738037109375	4.8858642578125E-07	4.28676116825955E-07	1795752.75	2.54678470810177E-05
1	232	88.5290977764855	0.867462158203125	0.86700439453125	4.833984375E-07	4.19108545202107E-07	1793560.625	2.55167906288989E-05
1	233	88.6298057762313	0.857391357421875	0.8575439453125	4.78515625000001E-07	4.10348178547792E-07	1792091.875	2.55652266787365E-05
1	234	88.730513775977	0.847320556640625	0.84747314453125	4.7271728515625E-07	4.0061519257506E-07	1792769.625	2.56131243077107E-05
1	235	88.8312217757227	0.837249755859375	0.83770751953125	4.67834472656251E-07	3.91908457686441E-07	1790606.625	2.56604853348108E-05
1	236	88.9319297754685	0.827178955078125	0.8270263671875	4.6234130859375E-07	3.82368426699031E-07	1788779	2.57073243119521E-05
1	237	89.0326377752142	0.817108154296875	0.816650390625	4.57153320312501E-07	3.73334415826321E-07	1786381.875	2.575362486823E-05
1	238	89.1333457749599	0.807037353515625	0.80718994140625	4.5135498046875E-07	3.64329196145263E-07	1788370.625	2.57993706327397E-05
1	239	89.2340537747057	0.796966552734375	0.797119140625	4.45556640625E-07	3.55161716925068E-07	1789041.125	2.58445343206404E-05
1	240	89.3347617744514	0.786895751953125	0.7867431640625	4.38842773437501E-07	3.45256552236606E-07	1792767.75	2.5889066819218E-05
1	241	89.4354697741971	0.776824951171875	0.77606201171875	4.3182373046875E-07	3.35121967509622E-07	1797173.25	2.59329081018222E-05
1	242	89.5361777739429	0.766754150390625	0.7666015625	4.241943359375E-07	3.25188040051216E-07	1807194.25	2.59760126937181E-05
1	243	89.6368857736886	0.756683349609375	0.75714111328125	4.1656494140625E-07	3.15398438033299E-07	1817582.375	2.60183478530962E-05
1	244	89.7375937734344	0.746612548828125	0.7464599609375	4.08325195312501E-07	3.04798390970973E-07	1828101.75	2.60598844761262E-05
1	245	89.8383017731801	0.736541748046875	0.73638916015625	4.0008544921875E-07	2.94618587304285E-07	1840579.75	2.61005916399881E-05
1	246	89.9390097729258	0.726470947265625	0.726348876953125	3.91540527343751E-07	2.84395014205074E-07	1855105.25	2.61404529737774E-05
1	247	90.0397177726716	0.716400146484375	0.71630859375	3.8330078125E-07	2.74561642754634E-07	1868789.875	2.61794684774941E-05
1	248	90.1404257724173	0.706329345703125	0.70623779296875	3.753662109375E-07	2.65097781948498E-07	1881463.5	2.62176708929474E-05
1	249	90.241133772163	0.696258544921875	0.6961669921875	3.67431640625E-07	2.55793764836199E-07	1894684.5	2.62550747720525E-05
1	250	90.3418417719088	0.686187744140625	0.68609619140625	3.59191894531249E-07	2.46440180262653E-07	1910110.5	2.62916619249154E-05
1	251	90.4425497716545	0.676116943359375	0.676025390625	3.5247802734375E-07	2.38284101783393E-07	1917922.125	2.63274978351546E-05
1	252	90.5432577714002	0.666046142578125	0.666015625	3.45764160156251E-07	2.30284342706E-07	1926213.625	2.63626570813358E-05
1	253	90.643965771146	0.655975341796875	0.655914306640625	3.39660644531251E-07	2.22788273163133E-07	1931087.25	2.63971705862787E-05
1	254	90.7446737708917	0.645904541015625	0.64581298828125	3.338623046875E-07	2.15612601550674E-07	1934369.375	2.64310856437078E-05
1	255	90.8453817706375	0.635833740234375	0.635833740234375	3.28369140625E-07	2.08788179634212E-07	1936338.25	2.64644313574536E-05
1	256	90.9460897703832	0.625762939453125	0.625701904296875	3.23486328125E-07	2.02405999516486E-07	1934245.375	2.64972550212406E-05
1	257	91.0467977701289	0.615692138671875	0.6156005859375	3.1890869140625E-07	1.96320371514958E-07	1930335	2.65296021098038E-05
1	258	91.1475057698747	0.605621337890625	0.6055908203125	3.1463623046875E-07	1.9054080269143E-07	1924733.25	2.65615035459632E-05
1	259	91.2482137696204	0.595550537109375	0.595489501953125	3.10668945312501E-07	1.85000075703101E-07	1916797.75	2.65929902525386E-05
1	260	91.3489217693661	0.585479736328125	0.585418701171875	3.0670166015625E-07	1.79548877099478E-07	1908756.25	2.66240767814452E-05
1	261	91.4496297691119	0.575408935546875	0.57537841796875	3.033447265625E-07	1.74538001829205E-07	1896780.875	2.66547958744923E-05
1	262	91.5503377688576	0.565338134765625	0.565277099609375	3.0029296875E-07	1.69748730627362E-07	1882418.75	2.66851911874255E-05
1	263	91.6510457686034	0.555267333984375	0.555267333984375	2.9754638671875E-07	1.65217798553385E-07	1866153.75	2.67152954620542E-05
1	264	91.7517537683491	0.545196533203125	0.545135498046875	2.94189453125E-07	1.60373105018152E-07	1853008.375	2.67450905084843E-05
1	265	91.8524617680948	0.535125732421875	0.535064697265625	2.911376953125E-07	1.55777499344367E-07	1837840.625	2.67745654127793E-05
1	266	91.9531697678406	0.525054931640625	0.5250244140625	2.8839111328125E-07	1.51412365312353E-07	1820529.125	2.6803745640791E-05
1	267	92.0538777675863	0.514984130859375	0.514984130859375	2.8564453125E-07	1.47102397818344E-07	1802884.75	2.68326512014028E-05
1	268	92.154585767332	0.504913330078125	0.50482177734375	2.82897949218749E-07	1.42813036063671E-07	1784466.125	2.68612802756252E-05
1	269	92.2552937670778	0.494842529296875	0.49481201171875	2.8045654296875E-07	1.38773259550362E-07	1764309.125	2.68896474153735E-05
1	270	92.3560017668235	0.484771728515625	0.4847412109375	2.777099609375E-07	1.34617451408303E-07	1745494.625	2.69177526206477E-05
1	271	92.4567097665692	0.474700927734375	0.474639892578125	2.74658203125E-07	1.30363730477256E-07	1728111.125	2.69455667876173E-05
1	272	92.557417766315	0.464630126953125	0.464630126953125	2.716064453125E-07	1.26196539440571E-07	1710674.25	2.69730735453777E-05
1	273	92.6581257660607	0.454559326171875	0.454559326171875	2.685546875E-07	1.22074041541964E-07	1692613.625	2.70002728939289E-05
1	274	92.7588337658065	0.444488525390625	0.4444580078125	2.6519775390625E-07	1.17869262794557E-07	1675949.5	2.70271484623663E-05
1	275	92.8595417655522	0.434417724609375	0.434417724609375	2.61840820312501E-07	1.13748292562832E-07	1659090.875	2.7053687517764E-05
1	276	92.9602497652979	0.424346923828125	0.42437744140625	2.5909423828125E-07	1.09953745663915E-07	1637927	2.70799191639526E-05
1	277	93.0609577650437	0.414276123046875	0.41424560546875	2.5665283203125E-07	1.0631730873456E-07	1614030.875	2.7105888875667E-05
1	278	93.1616657647894	0.404205322265625	0.404205322265625	2.545166015625E-07	1.0287696738942E-07	1588129.5	2.71316275757272E-05
1	279	93.2623737645351	0.394134521484375	0.394134521484375	2.5146484375E-07	9.91109700976267E-08	1567354.5	2.71571061603026E-05
1	280	93.3630817642809	0.384063720703125	0.384063720703125	2.4993896484375E-07	9.59924832955039E-08	1536630.125	2.71823537332239E-05
1	281	93.4637897640266	0.373992919921875	0.373992919921875	2.47802734374999E-07	9.26764585074125E-08	1509236.5	2.72074175882153E-05
1	282	93.5644977637724	0.363922119140625	0.363922119140625	2.459716796875E-07	8.95145362278527E-08	1479528.5	2.72322813543724E-05
1	283	93.6652057635181	0.353851318359375	0.353790283203125	2.4383544921875E-07	8.62666098555565E-08	1450938.75	2.72569450316951E-05
1	284	93.7659137632638	0.343780517578125	0.34375	2.41699218749999E-07	8.30841031529417E-08	1422222.25	2.72813940682681E-05
1	285	93.8666217630096	0.333709716796875	0.3336181640625	2.3956298828125E-07	7.99225645664592E-08	1392611.5	2.73056266451022E-05
1	286	93.9673297627553	0.323638916015625	0.3236083984375	2.3681640625E-07	7.66357786119443E-08	1366494.875	2.73296136583667E-05
1	287	94.068037762501	0.313568115234375	0.3135986328125	2.34375000000001E-07	7.3499677455402E-08	1338020.875	2.73533405561466E-05
1	288	94.1687457622468	0.303497314453125	0.303558349609375	2.31323242187501E-07	7.0220103509655E-08	1312269.125	2.73767909675371E-05
1	289	94.2694537619925	0.293426513671875	0.29339599609375	2.28271484375001E-07	6.69739392833435E-08	1285294.125	2.7399932150729E-05
1	290	94.3701617617382	0.283355712890625	0.283355712890625	2.25219726562501E-07	6.38172963363104E-08	1258130.125	2.74227677437011E-05
1	291	94.470869761484	0.273284912109375	0.273284912109375	2.215576171875E-07	6.05483521098904E-08	1233471.125	2.74452650046442E-05
1	292	94.5715777612297	0.263214111328125	0.263214111328125	2.17590332031251E-07	5.72728460213057E-08	1209677.5	2.74673784588231E-05
1	293	94.6722857609755	0.253143310546875	0.253173828125	2.12707519531249E-07	5.38519770998391E-08	1190243.875	2.74890444416087E-05
1	294	94.7729937607212	0.243072509765625	0.24310302734375	2.08435058593751E-07	5.06711934633586E-08	1166325	2.75102520390647E-05
1	295	94.8737017604669	0.233001708984375	0.233001708984375	2.02331542968751E-07	4.71435939175535E-08	1151583.75	2.75309357675724E-05
1	296	94.9744097602127	0.222930908203125	0.222900390625	1.96533203125E-07	4.38073257669203E-08	1134161.5	2.75510192295769E-05
1	297	95.0751177599584	0.212860107421875	0.212890625	1.89208984375E-07	4.02808169042146E-08	1125161.375	2.7570442398428E-05
1	298	95.1758257597041	0.202789306640625	0.2027587890625	1.8035888671875E-07	3.65693466619632E-08	1124196.25	2.75890524790157E-05
1	299	95.2765337594499	0.192718505859375	0.192657470703125	1.69982910156249E-07	3.27484777074005E-08	1133393.125	2.76066930382513E-05
1	300	95.3772417591956	0.182647705078125	0.182647705078125	1.5716552734375E-07	2.87059229719944E-08	1162135.875	2.76231676252792E-05
1	301	95.4779497589413	0.172576904296875	0.172607421875	1.4007568359375E-07	2.41781030752009E-08	1232244	2.76381342700915E-05
1	302	95.5786577586871	0.162506103515625	0.162506103515625	1.18408203125001E-07	1.92420550604311E-08	1372422.75	2.76511491392739E-05
1	303	95.6793657584328	0.152435302734375	0.152435302734375	8.88061523437497E-08	1.35371927001415E-08	1716494.875	2.76615846814821E-05
1	304	95.7800737581786	0.142364501953125	0.142364501953125	4.91333007812497E-08	6.99483759802888E-09	2897515.75	2.76685295830248E-05
1	305	95.8807817579243	0.132293701171875	0.132354736328125	-6.40869140624972E-09	-8.48220660376597E-10	-20652382	2.76706814474892E-05
1	306	95.98148975767	0.122222900390625	0.122314453125	-8.087158203125E-08	-9.89176296428695E-09	-1512452.875	2.76662867690902E-05
1	307	96.0821977574158	0.112152099609375	0.112274169921875	-1.80664062499999E-07	-2.02839078866646E-08	-621452.6875	2.76531172858085E-05
1	308	96.1829057571615	0.102081298828125	0.1021728515625	-3.12194824218751E-07	-3.18978372604306E-08	-327272.71875	2.76282989943866E-05
1	309	96.2836137569072	0.092010498046875	0.092071533203125	-4.803466796875E-07	-4.42262546584971E-08	-191677.265625	2.75883921858622E-05
1	310	96.384321756653	0.081939697265625	0.082000732421875	-6.84509277343751E-07	-5.61302577750666E-08	-119794.921875	2.75297370535554E-05
1	311	96.4850297563987	0.071868896484375	0.0718994140625	-9.19189453124999E-07	-6.60891785742024E-08	-78220.453125	2.7448983018985E-05
1	312	96.5857377561445	0.061798095703125	0.06182861328125	-1.1669921875E-06	-7.21535116099403E-08	-52981.171875	2.73439363809302E-05
1	313	96.6864457558902	0.051727294921875	0.0517578125	-1.407470703125E-06	-7.28476052813676E-08	-36773.6328125	2.72143024631077E-05
1	314	96.7871537556359	0.041656494140625	0.0417724609375	-1.6131591796875E-06	-6.73856277444429E-08	-25894.818359375	2.70622003881726E-05
1	315	96.8878617553817	0.031585693359375	0.0316925048828125	-1.76727294921875E-06	-5.60093056378719E-08	-17933	2.68919829977676E-05
1	316	96.9885697551274	0.021514892578125	0.021575927734375	-1.856689453125E-06	-4.00597954808291E-08	-11620.64453125	2.67095019808039E-05
1	317	97.0892777548731	0.011444091796875	0.0115478515625	-1.885986328125E-06	-2.17790887546698E-08	-6122.9775390625	2.65210437646601E-05
1	318	97.1899857546189	0.001373291015625	0.00147705078125	-1.8670654296875E-06	-2.75775047242632E-09	-791.108215332031	2.63320616795681E-05
1	319	97.2906937543646	-0.008697509765625	-0.0086395263671875	-1.815185546875E-06	1.56823443120402E-08	4759.5830078125	2.61466466326965E-05
1	320	97.3914017541103	-0.018768310546875	-0.01864013671875	-1.74591064453125E-06	3.25440119297582E-08	10676.455078125	2.5967330657295E-05
1	321	97.4921097538561	-0.028839111328125	-0.028717041015625	-1.6680908203125E-06	4.79026311950292E-08	17215.513671875	2.57954216067446E-05
1	322	97.5928177536018	-0.038909912109375	-0.03875732421875	-1.590576171875E-06	6.16464745917256E-08	24366.845703125	2.56313342106296E-05
1	323	97.6935257533476	-0.048980712890625	-0.0488677978515625	-1.5167236328125E-06	7.41189438713263E-08	32219.31640625	2.54748701991048E-05
1	324	97.7942337530933	-0.059051513671875	-0.058990478515625	-1.4501953125E-06	8.55477182426512E-08	40677.609375	2.53254729614127E-05
1	325	97.894941752839	-0.069122314453125	-0.06903076171875	-1.3897705078125E-06	9.59369117481401E-08	49670.62109375	2.51824694714742E-05
1	326	97.9956497525848	-0.079193115234375	-0.079132080078125	-1.33636474609375E-06	1.05749315082448E-07	59214.4375	2.50451976171462E-05
1	327	98.0963577523305	-0.089263916015625	-0.08917236328125	-1.2890625E-06	1.14948740304044E-07	69176.140625	2.49129971052753E-05
1	328	98.1970657520762	-0.099334716796875	-0.09930419921875	-1.24725341796875E-06	1.23857503808722E-07	79618.3046875	2.47852840402629E-05
1	329	98.297773751822	-0.109405517578125	-0.109375	-1.21063232421875E-06	1.32412907305479E-07	90345.3515625	2.46615200012457E-05
1	330	98.3984817515677	-0.119476318359375	-0.119415283203125	-1.1785888671875E-06	1.40741519771836E-07	101320.5625	2.45412120420951E-05
1	331	98.4991897513135	-0.129547119140625	-0.12945556640625	-1.1505126953125E-06	1.48940259236952E-07	112519.8984375	2.44239327003015E-05
1	332	98.5998977510592	-0.139617919921875	-0.139495849609375	-1.1260986328125E-06	1.57086077479107E-07	123875.34375	2.43092963501113E-05
1	333	98.7006057508049	-0.149688720703125	-0.149627685546875	-1.104736328125E-06	1.6529912727492E-07	135442	2.41969646594953E-05
1	334	98.8013137505507	-0.159759521484375	-0.15966796875	-1.0858154296875E-06	1.73369940625889E-07	147048.90625	2.40866611420643E-05
1	335	98.9020217502964	-0.169830322265625	-0.169708251953125	-1.0699462890625E-06	1.81578712954433E-07	158613.8125	2.39781111304183E-05
1	336	99.0027297500421	-0.179901123046875	-0.1798095703125	-1.05682373046875E-06	1.90027023450057E-07	170141.5	2.38710199482739E-05
1	337	99.1034377497879	-0.189971923828125	-0.189910888671875	-1.0455322265625E-06	1.9855794164414E-07	181640.40625	2.37651565839769E-05
1	338	99.2041457495336	-0.200042724609375	-0.199920654296875	-1.03668212890625E-06	2.0725416050027E-07	192846.640625	2.36603100347565E-05
1	339	99.3048537492793	-0.189971923828125	-0.18988037109375	-9.02709960937501E-07	1.71406895788095E-07	210344.828125	2.35626539506484E-05
2	340	99.4055617490251	-0.179901123046875	-0.179840087890625	-8.1329345703125E-07	1.46262763678351E-07	221125.71875	2.34762464970117E-05
2	341	99.5062697487708	-0.169830322265625	-0.169677734375	-7.4310302734375E-07	1.26088025353965E-07	228336.765625	2.339787533856E-05
2	342	99.6069777485166	-0.159759521484375	-0.159637451171875	-6.8389892578125E-07	1.09175879003942E-07	233422.578125	2.33260198001517E-05
2	343	99.7076857482623	-0.149688720703125	-0.1495361328125	-6.3323974609375E-07	9.46922185107724E-08	236144.59375	2.32596958085196E-05
2	344	99.808393748008	-0.139617919921875	-0.139495849609375	-5.87158203125E-07	8.19061298784618E-08	237577.96875	2.31982448894996E-05
2	345	99.9091017477538	-0.129547119140625	-0.129425048828125	-5.462646484375E-07	7.07003238176185E-08	236927.375	2.3141172277974E-05
2	346	100.0098097475	-0.119476318359375	-0.119415283203125	-5.08728027343749E-07	6.07498975568888E-08	234733.0625	2.30880486924434E-05
2	347	100.110517747245	-0.109405517578125	-0.10931396484375	-4.7332763671875E-07	5.17413170086911E-08	230947.78125	2.3038599465508E-05
2	348	100.211225746991	-0.099334716796875	-0.0992431640625	-4.3975830078125E-07	4.36430021011347E-08	225676.625	2.29926208703546E-05
2	349	100.311933746737	-0.089263916015625	-0.089263916015625	-4.071044921875E-07	3.63397418823297E-08	219265.359375	2.29499783017673E-05
2	350	100.412641746482	-0.079193115234375	-0.07916259765625	-3.74755859375001E-07	2.96666460286588E-08	211237.796875	2.29106080951169E-05
2	351	100.513349746228	-0.069122314453125	-0.06903076171875	-3.40576171875E-07	2.351023020708E-08	202688.1875	2.28745884669479E-05
2	352	100.614057745974	-0.059051513671875	-0.058990478515625	-3.0364990234375E-07	1.791245196614E-08	194271.359375	2.28421486099251E-05
2	353	100.71476574572	-0.048980712890625	-0.048834228515625	-2.61840820312501E-07	1.27867938459758E-08	186503.484375	2.2813674149802E-05
2	354	100.815473745465	-0.038909912109375	-0.038763427734375	-2.12707519531249E-07	8.24527202070158E-09	182238.15625	2.2789779904997E-05
2	355	100.916181745211	-0.028839111328125	-0.0287322998046875	-1.51672363281249E-07	4.35789537789333E-09	189436.625	2.27714317588834E-05
2	356	101.016889744957	-0.018768310546875	-0.018646240234375	-7.44628906250003E-08	1.388452908202E-09	250409.84375	2.27600448852172E-05
2	357	101.117597744703	-0.008697509765625	-0.00861511230468751	2.53295898437506E-08	-2.18217249825514E-10	-340120.46875	2.27575710596284E-05
2	358	101.218305744448	0.001373291015625	0.0014678955078125	1.5411376953125E-07	2.26222887644845E-10	9524.7529296875	2.27666059799958E-05
2	359	101.319013744194	0.011444091796875	0.011517333984375	3.16467285156249E-07	3.64485908121992E-09	36393.4453125	2.27903019549558E-05
2	360	101.41972174394	0.021514892578125	0.021563720703125	5.157470703125E-07	1.11214246700797E-08	41810.65234375	2.28322060138453E-05
2	361	101.520429743686	0.031585693359375	0.031658935546875	7.4798583984375E-07	2.36804353903608E-08	42325.58203125	2.28958415391389E-05
2	362	101.621137743431	0.041656494140625	0.0417388916015625	1.002197265625E-06	4.18305994287493E-08	41647.3828125	2.29839697567513E-05
2	363	101.721845743177	0.051727294921875	0.051788330078125	1.25701904296875E-06	6.50989164796556E-08	41199.3203125	2.30977293540491E-05
2	364	101.822553742923	0.061798095703125	0.061859130859375	1.4886474609375E-06	9.20864309250646E-08	41553.91796875	2.32359852816444E-05
2	365	101.923261742669	0.071868896484375	0.0718994140625	1.6748046875E-06	1.20417467996958E-07	42930.03125	2.33952778216917E-05
2	366	102.023969742414	0.081939697265625	0.081939697265625	1.8011474609375E-06	1.47585467402678E-07	45493.0546875	2.35703064390691E-05
2	367	102.12467774216	0.092010498046875	0.092041015625	1.86431884765625E-06	1.7159379694931E-07	49369.78125	2.37548774748575E-05
2	368	102.225385741906	0.102081298828125	0.10211181640625	1.87469482421875E-06	1.9142849794207E-07	54468.5	2.39431519730715E-05
2	369	102.326093741651	0.112152099609375	0.1121826171875	1.84600830078125E-06	2.07090039339164E-07	60770.37890625	2.41305042436579E-05
2	370	102.426801741397	0.122222900390625	0.12225341796875	1.79229736328125E-06	2.19114468791304E-07	68210.453125	2.43137073994149E-05
2	371	102.527509741143	0.132293701171875	0.132354736328125	1.72698974609375E-06	2.28575260052821E-07	76638.984375	2.44909169850871E-05
2	372	102.628217740889	0.142364501953125	0.14239501953125	1.65863037109375E-06	2.36180710544431E-07	85850.96875	2.46613963099662E-05
2	373	102.728925740634	0.152435302734375	0.1524658203125	1.5911865234375E-06	2.42601544186982E-07	95818.953125	2.48250380536774E-05
2	374	102.82963374038	0.162506103515625	0.162567138671875	1.52862548828125E-06	2.48504278488326E-07	106348.5703125	2.49821332545253E-05
2	375	102.930341740126	0.172576904296875	0.172607421875	1.470947265625E-06	2.53896416779753E-07	117344.3984375	2.51331730396487E-05
2	376	103.031049739872	0.182647705078125	0.182647705078125	1.41937255859375E-06	2.5924512669917E-07	128682.0078125	2.52787122008158E-05
2	377	103.131757739617	0.192718505859375	0.1927490234375	1.3739013671875E-06	2.64818140749412E-07	140293.203125	2.5419365556445E-05
2	378	103.232465739363	0.202789306640625	0.202789306640625	1.33270263671875E-06	2.70257828560716E-07	152163.96875	2.55556533375056E-05
2	379	103.333173739109	0.212860107421875	0.212890625	1.2969970703125E-06	2.76118527153812E-07	164141.171875	2.56880684901262E-05
2	380	103.433881738855	0.222930908203125	0.222900390625	1.2652587890625E-06	2.82026690001658E-07	176169.796875	2.58170894085197E-05
2	381	103.5345897386	0.233001708984375	0.233062744140625	1.236572265625E-06	2.88198918951821E-07	188474.84375	2.59430653386516E-05
2	382	103.635297738346	0.243072509765625	0.243072509765625	1.21063232421875E-06	2.94271416123593E-07	200781.453125	2.60662927757949E-05
2	383	103.736005738092	0.253143310546875	0.253143310546875	1.1883544921875E-06	3.00823984389353E-07	213020.046875	2.61870918620843E-05
2	384	103.836713737837	0.263214111328125	0.263153076171875	1.168212890625E-06	3.07418815737037E-07	225261.234375	2.63057536358247E-05
2	385	103.937421737583	0.273284912109375	0.273284912109375	1.14959716796875E-06	3.14167550641287E-07	237722.34375	2.64224654529244E-05
2	386	104.038129737329	0.283355712890625	0.283294677734375	1.1328125E-06	3.20919752994087E-07	250080.828125	2.65373928414192E-05
2	387	104.138837737075	0.293426513671875	0.2933349609375	1.1187744140625E-06	3.28175644881412E-07	262193.125	2.66507704509422E-05
2	388	104.23954573682	0.303497314453125	0.303497314453125	1.1053466796875E-06	3.35469735546212E-07	274572.0625	2.67627638095291E-05
2	389	104.340253736566	0.313568115234375	0.31353759765625	1.0931396484375E-06	3.42740378300732E-07	286823	2.68734656856395E-05
2	390	104.440961736312	0.323638916015625	0.323638916015625	1.08245849609375E-06	3.50325677800356E-07	298985.0625	2.69830161414575E-05
2	391	104.541669736058	0.333709716796875	0.333770751953125	1.07208251953125E-06	3.57829776476137E-07	311329.375	2.70915061264532E-05
2	392	104.642377735803	0.343780517578125	0.343719482421875	1.06353759765625E-06	3.65558577186675E-07	323185.09375	2.71990429610014E-05
2	393	104.743085735549	0.353851318359375	0.35382080078125	1.0552978515625E-06	3.7338634228945E-07	335280.5	2.7305733965477E-05
2	394	104.843793735295	0.363922119140625	0.3638916015625	1.048583984375E-06	3.81570885110705E-07	347031.4375	2.74116737273289E-05
2	395	104.944501735041	0.373992919921875	0.373992919921875	1.04248046875E-06	3.89880312923196E-07	358752.9375	2.75169659289531E-05
2	396	105.045209734786	0.384063720703125	0.384063720703125	1.03729248046875E-06	3.98386390543237E-07	370255.96875	2.76216924248729E-05
2	397	105.145917734532	0.394134521484375	0.39410400390625	1.0333251953125E-06	4.07237564559182E-07	381394	2.77259550784947E-05
2	398	105.246625734278	0.404205322265625	0.4041748046875	1.02935791015625E-06	4.16040535355933E-07	392647.5	2.78298193734372E-05
2	399	105.347333734024	0.414276123046875	0.41424560546875	1.026611328125E-06	4.25269234938241E-07	403507.71875	2.79333453363506E-05
2	400	105.448041733769	0.424346923828125	0.424346923828125	1.025390625E-06	4.35121336295197E-07	413839.3125	2.8036673029419E-05
2	401	105.548749733515	0.434417724609375	0.434417724609375	1.02386474609375E-06	4.44784973296919E-07	424292.125	2.81398606603034E-05
2	402	105.649457733261	0.444488525390625	0.44451904296875	1.02294921875E-06	4.54720378684215E-07	434546.5625	2.82429264188977E-05
2	403	105.750165733006	0.454559326171875	0.454559326171875	1.02294921875E-06	4.64991074977661E-07	444361.59375	2.83459448837675E-05
2	404	105.850873732752	0.464630126953125	0.464569091796875	1.02294921875E-06	4.75230564234153E-07	454146.8125	2.84489651676267E-05
2	405	105.951581732498	0.474700927734375	0.474639892578125	1.02325439453125E-06	4.85677389860939E-07	463853.25	2.85519981844118E-05
2	406	106.052289732244	0.484771728515625	0.48468017578125	1.02264404296875E-06	4.95655285703833E-07	473948.09375	2.8655018468271E-05
2	407	106.152997731989	0.494842529296875	0.49481201171875	1.02386474609375E-06	5.0662055173234E-07	483278.71875	2.87580678559607E-05
2	408	106.253705731735	0.504913330078125	0.5048828125	1.0247802734375E-06	5.17393914378772E-07	492674.25	2.88612245640252E-05
2	409	106.354413731481	0.514984130859375	0.514984130859375	1.02630615234375E-06	5.28531359123008E-07	501784.15625	2.89645049633691E-05
2	410	106.455121731227	0.525054931640625	0.524993896484375	1.029052734375E-06	5.40246389846288E-07	510172.03125	2.90680018224521E-05
2	411	106.555829730972	0.535125732421875	0.535064697265625	1.031494140625E-06	5.51916059521318E-07	518727.84375	2.91717587970197E-05
2	412	106.656537730718	0.545196533203125	0.545166015625	1.0345458984375E-06	5.6399926506856E-07	526961.625	2.92757922579767E-05
2	413	106.757245730464	0.555267333984375	0.555267333984375	1.0382080078125E-06	5.76482989345095E-07	534832.4375	2.93801622319734E-05
2	414	106.85795373021	0.565338134765625	0.5653076171875	1.04156494140625E-06	5.88804596191039E-07	542748.3125	2.94848887278931E-05
2	415	106.958661729955	0.575408935546875	0.575347900390625	1.04583740234375E-06	6.01720330450917E-07	550131.3125	2.95899972115876E-05
2	416	107.059369729701	0.585479736328125	0.585418701171875	1.0498046875E-06	6.14575242252613E-07	557645.375	2.96955204248661E-05
2	417	107.160077729447	0.595550537109375	0.595489501953125	1.05438232421875E-06	6.27873589564842E-07	564775.6875	2.98014747386333E-05
2	418	107.260785729193	0.605621337890625	0.605560302734375	1.0595703125E-06	6.41633732811897E-07	571515	2.99079201795394E-05
2	419	107.361493728938	0.615692138671875	0.615631103515625	1.06536865234375E-06	6.55874089261488E-07	577857.3125	3.00149204122135E-05
2	420	107.462201728684	0.625762939453125	0.625732421875	1.07025146484375E-06	6.69691019083984E-07	584659.25	3.01224572467618E-05
2	421	107.56290972843	0.635833740234375	0.6357421875	1.0760498046875E-06	6.84090252889291E-07	590811.125	3.02305325021734E-05
2	422	107.663617728175	0.645904541015625	0.645904541015625	1.08184814453125E-06	6.98770634244283E-07	597038.0625	3.03391916531837E-05
2	423	107.764325727921	0.655975341796875	0.655914306640625	1.08795166015625E-06	7.13603071744728E-07	602889.1875	3.04484492517076E-05
2	424	107.865033727667	0.666046142578125	0.665985107421875	1.09344482421875E-06	7.28217912637774E-07	609070.625	3.05582907458302E-05
2	425	107.965741727413	0.676116943359375	0.67596435546875	1.09893798828125E-06	7.42842928502796E-07	615106.875	3.06686852127314E-05
2	426	108.066449727158	0.686187744140625	0.68609619140625	1.104736328125E-06	7.5795531984113E-07	621049.75	3.07796508423053E-05
2	427	108.167157726904	0.696258544921875	0.6961669921875	1.11053466796875E-06	7.73117562857806E-07	626875.5	3.08911985484883E-05
2	428	108.26786572665	0.706329345703125	0.706268310546875	1.11602783203125E-06	7.88215061220399E-07	632841.1875	3.10033137793653E-05
2	429	108.368573726396	0.716400146484375	0.71636962890625	1.1212158203125E-06	8.03204898147669E-07	638922.1875	3.11159674311057E-05
2	430	108.469281726141	0.726470947265625	0.726348876953125	1.12579345703125E-06	8.17718841972237E-07	645188.375	3.12291158479638E-05
2	431	108.569989725887	0.736541748046875	0.7364501953125	1.1297607421875E-06	8.320124607053E-07	651863.875	3.13426899083424E-05
2	432	108.670697725633	0.746612548828125	0.7464599609375	1.1334228515625E-06	8.4605477468358E-07	658589.125	3.14566495944746E-05
2	433	108.771405725379	0.756683349609375	0.7568359375	1.136474609375E-06	8.60124771406845E-07	665950.625	3.15709476126358E-05
2	434	108.872113725124	0.766754150390625	0.76690673828125	1.1395263671875E-06	8.73910437348968E-07	673004.8125	3.16855548589956E-05
2	435	108.97282172487	0.776824951171875	0.7769775390625	1.14166259765625E-06	8.87046155639837E-07	680566.75	3.18004204018507E-05
2	436	109.073529724616	0.786895751953125	0.7867431640625	1.143798828125E-06	8.99875942650397E-07	687833.5	3.19155042234343E-05
2	437	109.174237724362	0.796966552734375	0.79681396484375	1.1456298828125E-06	9.12853863610508E-07	695524.75	3.20307844958734E-05
2	438	109.274945724107	0.807037353515625	0.80718994140625	1.14776611328125E-06	9.26465190786985E-07	703270.4375	3.21462684951257E-05
2	439	109.375653723853	0.817108154296875	0.8172607421875	1.14990234375E-06	9.39770018248964E-07	710721.875	3.22619634971488E-05
2	440	109.476361723599	0.827178955078125	0.82672119140625	1.15234375E-06	9.52666994180618E-07	717425.8125	3.23778913298156E-05
2	441	109.577069723344	0.837249755859375	0.83740234375	1.15478515625E-06	9.67019786912715E-07	725158.625	3.24940665450413E-05
2	442	109.67777772309	0.847320556640625	0.84716796875	1.1572265625E-06	9.8036525741918E-07	732067.5625	3.2610485504847E-05
2	443	109.778485722836	0.857391357421875	0.8575439453125	1.1602783203125E-06	9.94989591163176E-07	739084.6875	3.27271809510421E-05
2	444	109.879193722582	0.867462158203125	0.86700439453125	1.16363525390625E-06	1.00887689313822E-06	745082.625	3.28441965393722E-05
2	445	109.979901722327	0.877532958984375	0.877685546875	1.1669921875E-06	1.02425224213221E-06	752092.0625	3.29615540977102E-05
2	446	110.080609722073	0.887603759765625	0.88714599609375	1.17156982421875E-06	1.03935349216044E-06	757228.4375	3.30793118337169E-05
2	447	110.181317721819	0.897674560546875	0.89752197265625	1.17584228515625E-06	1.05534422800702E-06	763301.3125	3.31975134031381E-05
2	448	110.282025721565	0.907745361328125	0.9075927734375	1.180419921875E-06	1.07134053450864E-06	768872.8125	3.33161588059738E-05
2	449	110.38273372131	0.917816162109375	0.91796875	1.18560791015625E-06	1.08835092760273E-06	774260	3.34352989739273E-05
2	450	110.483441721056	0.927886962890625	0.92803955078125	1.19049072265625E-06	1.10482244508603E-06	779543.6875	3.35549448209349E-05
2	451	110.584149720802	0.937957763671875	0.93780517578125	1.19659423828125E-06	1.12217219339072E-06	783728.6875	3.36751436407212E-05
2	452	110.684857720548	0.948028564453125	0.94818115234375	1.20269775390625E-06	1.14037527509936E-06	788378.625	3.37959572789259E-05
2	453	110.785565720293	0.958099365234375	0.958251953125	1.2091064453125E-06	1.15862849270343E-06	792529.0625	3.39174002874643E-05
2	454	110.886273720039	0.968170166015625	0.968017578125	1.21612548828125E-06	1.17723084258614E-06	795984.9375	3.40395199600607E-05
2	455	110.986981719785	0.978240966796875	0.9783935546875	1.224365234375E-06	1.19791104680189E-06	799102.75	3.41624108841643E-05
2	456	111.087689719531	0.988311767578125	0.98846435546875	1.23291015625E-06	1.21868765745603E-06	801732.6875	3.42861421813723E-05
2	457	111.188397719276	0.998382568359375	0.99884033203125	1.24237060546875E-06	1.24092980513524E-06	803979.375	3.4410782973282E-05
2	458	111.289105719022	1.00845336914063	1.00830078125	1.25244140625E-06	1.26283759982471E-06	805068.25	3.45364060194697E-05
2	459	111.389813718768	1.01852416992188	1.01837158203125	1.2640380859375E-06	1.28726037473825E-06	805649.5	3.46631240972783E-05
2	460	111.490521718513	1.02859497070313	1.02874755859375	1.27593994140625E-06	1.31262004288146E-06	806266.5	3.47910208802205E-05
2	461	111.591229718259	1.03866577148438	1.038818359375	1.28814697265625E-06	1.33815069602861E-06	806444	3.49201327480841E-05
2	462	111.691937718005	1.04873657226563	1.048583984375	1.29852294921875E-06	1.36161031605297E-06	807520.625	3.50503833033144E-05
2	463	111.792645717751	1.05880737304688	1.05865478515625	1.30706787109375E-06	1.38373354729993E-06	809946.3125	3.51815833710134E-05
2	464	111.893353717496	1.06887817382813	1.06903076171875	1.31439208984375E-06	1.40512554480665E-06	813327.125	3.53135837940499E-05
2	465	111.994061717242	1.07894897460938	1.07879638671875	1.31866455078125E-06	1.42257056268136E-06	818097.6875	3.54461699316744E-05
2	466	112.094769716988	1.08901977539063	1.08917236328125	1.32171630859375E-06	1.43957674936246E-06	824059.125	3.55791235051583E-05
2	467	112.195477716734	1.09909057617188	1.0986328125	1.32293701171875E-06	1.45342198720755E-06	830449.8125	3.57122917193919E-05
2	468	112.296185716479	1.10916137695313	1.10870361328125	1.3232421875E-06	1.46708339343604E-06	837869	3.58455363311805E-05
2	469	112.396893716225	1.11923217773438	1.1187744140625	1.32293701171875E-06	1.48006802191958E-06	845674.75	3.59787845809478E-05
2	470	112.497601715971	1.12930297851563	1.12945556640625	1.3232421875E-06	1.49454319853248E-06	853551.6875	3.61120291927364E-05
2	471	112.598309715717	1.13937377929688	1.13983154296875	1.3232421875E-06	1.50827315792412E-06	861393	3.62452919944189E-05
2	472	112.699017715462	1.14944458007813	1.1492919921875	1.3238525390625E-06	1.52149311816174E-06	868142	3.63785802619532E-05
2	473	112.799725715208	1.15951538085938	1.15997314453125	1.324462890625E-06	1.53634130128921E-06	875806.5	3.65119340131059E-05
2	474	112.900433714954	1.16958618164063	1.16973876953125	1.32568359375E-06	1.55070347318542E-06	882366.5	3.66453823517077E-05
2	475	113.0011417147	1.17965698242188	1.1798095703125	1.326904296875E-06	1.56549435814668E-06	889144.5	3.677895074361E-05
2	476	113.101849714445	1.18972778320313	1.18927001953125	1.32904052734375E-06	1.58058799115679E-06	894833.5625	3.69126864825375E-05
2	477	113.202557714191	1.19979858398438	1.19964599609375	1.33148193359375E-06	1.59730700488581E-06	900985.5625	3.70466550521087E-05
2	478	113.303265713937	1.20986938476563	1.209716796875	1.33453369140625E-06	1.61440777901589E-06	906471.5625	3.71809001080692E-05
2	479	113.403973713682	1.21994018554688	1.21978759765625	1.339111328125E-06	1.6334314523192E-06	910893.3125	3.73155271518044E-05
2	480	113.504681713428	1.23001098632813	1.2298583984375	1.34368896484375E-06	1.65254709827423E-06	915285.0625	3.74506162188482E-05
2	481	113.605389713174	1.24008178710938	1.23992919921875	1.3494873046875E-06	1.67326868449891E-06	918815	3.75862291548401E-05
2	482	113.70609771292	1.25015258789063	1.25030517578125	1.356201171875E-06	1.69566521890374E-06	921917.25	3.77224714611657E-05
2	483	113.806805712665	1.26022338867188	1.2603759765625	1.3641357421875E-06	1.71932390458096E-06	923937.375	3.78594522771891E-05
2	484	113.907513712411	1.27029418945313	1.270751953125	1.37359619140625E-06	1.74550007159269E-06	925127.75	3.79973062081262E-05
2	485	114.008221712157	1.28036499023438	1.28021240234375	1.38336181640625E-06	1.77099695974903E-06	925435.6875	3.81361314794049E-05
2	486	114.108929711903	1.29043579101563	1.2908935546875	1.395263671875E-06	1.80113681835792E-06	925196.875	3.82760445063468E-05
2	487	114.209637711648	1.30050659179688	1.30035400390625	1.4080810546875E-06	1.83100382855628E-06	923493.6875	3.84172053600196E-05
2	488	114.310345711394	1.31057739257813	1.31072998046875	1.42181396484375E-06	1.8636142158357E-06	921871.625	3.85597013519146E-05
2	489	114.41105371114	1.32064819335938	1.32080078125	1.436767578125E-06	1.89768365999043E-06	919286.3125	3.87036452593748E-05
2	490	114.511761710886	1.33071899414063	1.33026123046875	1.4532470703125E-06	1.93319806385261E-06	915371.75	3.88491680496372E-05
2	491	114.612469710631	1.34078979492188	1.34063720703125	1.47125244140625E-06	1.97241570276674E-06	911221.75	3.89964261557907E-05
2	492	114.713177710377	1.35086059570313	1.35040283203125	1.49017333984375E-06	2.01233433472225E-06	906205.25	3.91455469070934E-05
2	493	114.813885710123	1.36093139648438	1.36077880859375	1.51031494140625E-06	2.0552045043587E-06	900990.125	3.92966321669519E-05
2	494	114.914593709869	1.37100219726563	1.37115478515625	1.531982421875E-06	2.10058510674571E-06	895019.9375	3.94498238165397E-05
2	495	115.015301709614	1.38107299804688	1.38092041015625	1.55426025390625E-06	2.14630949812999E-06	888474.4375	3.96052309952211E-05
2	496	115.11600970936	1.39114379882813	1.39068603515625	1.57745361328125E-06	2.19374260268523E-06	881601.875	3.97629228245933E-05
2	497	115.216717709106	1.40121459960938	1.40106201171875	1.6015625E-06	2.24388827518851E-06	874809.5	3.99230011680629E-05
2	498	115.317425708851	1.41128540039063	1.41082763671875	1.6265869140625E-06	2.29483362090832E-06	867354.625	4.00855496991426E-05
2	499	115.418133708597	1.42135620117188	1.4208984375	1.651611328125E-06	2.34677190746879E-06	860310.4375	4.02506229875144E-05
2	500	115.518841708343	1.43142700195313	1.4312744140625	1.67877197265625E-06	2.40278336605115E-06	852572.3125	4.04183192586061E-05
2	501	115.619549708089	1.44149780273438	1.441650390625	1.707763671875E-06	2.46199806497316E-06	844174.4375	4.05888458772097E-05
2	502	115.720257707834	1.45156860351563	1.45172119140625	1.74072265625E-06	2.52704398917558E-06	833976.1875	4.0762490243651E-05
2	503	115.82096570758	1.46163940429688	1.46148681640625	1.78253173828125E-06	2.60514661931666E-06	819893.875	4.09398999181576E-05
2	504	115.921673707326	1.47171020507813	1.4715576171875	1.83837890625E-06	2.70528039436613E-06	800464.875	4.11222281400114E-05
2	505	116.022381707072	1.48178100585938	1.48193359375	1.9122314453125E-06	2.83380018117896E-06	774976.0625	4.1311086533824E-05
2	506	116.123089706817	1.49185180664063	1.4910888671875	2.0068359375E-06	2.99237080980674E-06	743004.875	4.15084250562359E-05
2	507	116.223797706563	1.50192260742188	1.5020751953125	2.11883544921875E-06	3.18265028909082E-06	708915.4375	4.17161718360148E-05
2	508	116.324505706309	1.49185180664063	1.49169921875	1.8585205078125E-06	2.7723535822588E-06	802627.25	4.1916446207324E-05
2	509	116.425213706055	1.48178100585938	1.48162841796875	1.67266845703125E-06	2.47827301791403E-06	885787.3125	4.20942560594995E-05
2	510	116.5259217058	1.47171020507813	1.47186279296875	1.5301513671875E-06	2.25217263505328E-06	961906.6875	4.22555312979966E-05
2	511	116.626629705546	1.46163940429688	1.461181640625	1.41754150390625E-06	2.0712857349281E-06	1030785.8125	4.24039571953472E-05
2	512	116.727337705292	1.45156860351563	1.45172119140625	1.32720947265625E-06	1.9267381503596E-06	1093814.625	4.25421676482074E-05
2	513	116.828045705038	1.44149780273438	1.441650390625	1.25396728515625E-06	1.80778249614377E-06	1149671.5	4.26721417170484E-05
2	514	116.928753704783	1.43142700195313	1.43096923828125	1.1944580078125E-06	1.7092324924306E-06	1198007.25	4.27954291808419E-05
2	515	117.029461704529	1.42135620117188	1.42120361328125	1.1468505859375E-06	1.62990806984453E-06	1239223	4.29133215220645E-05
2	516	117.130169704275	1.41128540039063	1.4111328125	1.1077880859375E-06	1.56323608280218E-06	1273829.25	4.30268519266974E-05
2	517	117.23087770402	1.40121459960938	1.4013671875	1.075439453125E-06	1.50708547153044E-06	1303064.75	4.31367880082689E-05
2	518	117.331585703766	1.39114379882813	1.3909912109375	1.048583984375E-06	1.45857109146164E-06	1326542.5	4.32437409472186E-05
2	519	117.432293703512	1.38107299804688	1.38092041015625	1.02569580078125E-06	1.41640418860334E-06	1346325.625	4.33481873187702E-05
2	520	117.533001703258	1.37100219726563	1.3714599609375	1.0052490234375E-06	1.37865879423771E-06	1364298.75	4.34504545410164E-05
2	521	117.633709703003	1.36093139648438	1.36077880859375	9.86328124999999E-07	1.34217441427609E-06	1379641.125	4.35507390648127E-05
2	522	117.734417702749	1.35086059570313	1.3507080078125	9.6893310546875E-07	1.30874570913875E-06	1394015.75	4.3649193685269E-05
2	523	117.835125702495	1.34078979492188	1.3409423828125	9.5245361328125E-07	1.27718544717936E-06	1407882.125	4.37459420936648E-05
2	524	117.935833702241	1.33071899414063	1.33026123046875	9.368896484375E-07	1.24630798836733E-06	1419869.75	4.3841078877449E-05
2	525	118.036541701986	1.32064819335938	1.32080078125	9.22241210937499E-07	1.21809694064723E-06	1432164.125	4.39346949860919E-05
2	526	118.137249701732	1.31057739257813	1.3104248046875	9.0789794921875E-07	1.18973196094885E-06	1443361.375	4.40268486272544E-05
2	527	118.237957701478	1.30050659179688	1.30035400390625	8.94775390624999E-07	1.16352475743042E-06	1453274.25	4.41176198364701E-05
2	528	118.338665701224	1.29043579101563	1.29058837890625	8.81042480468749E-07	1.13706312276918E-06	1464842.375	4.42070413555484E-05
2	529	118.439373700969	1.28036499023438	1.28021240234375	8.6883544921875E-07	1.11229383037426E-06	1473481	4.42951532022562E-05
2	530	118.540081700715	1.27029418945313	1.27044677734375	8.563232421875E-07	1.08791300590383E-06	1483606.625	4.43820208602119E-05
2	531	118.640789700461	1.26022338867188	1.26007080078125	8.44726562500001E-07	1.06441518710199E-06	1491690.875	4.44676770712249E-05
2	532	118.741497700207	1.25015258789063	1.25	8.3282470703125E-07	1.04103082776419E-06	1500916.125	4.45521473011468E-05
2	533	118.842205699952	1.24008178710938	1.240234375	8.21838378906251E-07	1.01927219020581E-06	1509097.75	4.46354679297656E-05
2	534	118.942913699698	1.23001098632813	1.23016357421875	8.10546875E-07	9.97105189526337E-07	1517695.875	4.4717664422933E-05
2	535	119.043621699444	1.21994018554688	1.219482421875	8.00170898437499E-07	9.75794364421745E-07	1524027.5	4.47987695224583E-05
2	536	119.144329699189	1.20986938476563	1.21002197265625	7.89794921875001E-07	9.55669179347751E-07	1532071.125	4.4878830522066E-05
2	537	119.245037698935	1.19979858398438	1.1993408203125	7.80029296875E-07	9.355209158457E-07	1537558.75	4.49578765255865E-05
2	538	119.345745698681	1.18972778320313	1.18927001953125	7.6934814453125E-07	9.14962640763406E-07	1545815.25	4.50358966190834E-05
2	539	119.446453698427	1.17965698242188	1.17919921875	7.586669921875E-07	8.946195180215E-07	1554304.125	4.51128362328745E-05
2	540	119.547161698172	1.16958618164063	1.16912841796875	7.48596191406251E-07	8.75205046213523E-07	1561761.125	4.51887353847269E-05
2	541	119.647869697918	1.15951538085938	1.15966796875	7.37609863281249E-07	8.55382552344963E-07	1572196.875	4.52635686087888E-05
2	542	119.748577697664	1.14944458007813	1.14990234375	7.26318359375E-07	8.35195123727317E-07	1583193.375	4.53372849733569E-05
2	543	119.84928569741	1.13937377929688	1.1395263671875	7.1563720703125E-07	8.15487453564856E-07	1592324.125	4.54098917543888E-05
2	544	119.949993697155	1.12930297851563	1.129150390625	7.0343017578125E-07	7.94278435023443E-07	1605206.125	4.54813489341177E-05
2	545	120.050701696901	1.11923217773438	1.11907958984375	6.9091796875E-07	7.73192141423351E-07	1619699.75	4.55515582871158E-05
2	546	120.151409696647	1.10916137695313	1.1090087890625	6.78100585937499E-07	7.52019445826591E-07	1635463.625	4.56204943475313E-05
2	547	120.252117696393	1.09909057617188	1.0986328125	6.640625E-07	7.29560838408361E-07	1654411.75	4.56880770798307E-05
2	548	120.352825696138	1.08901977539063	1.0888671875	6.488037109375E-07	7.06461037225381E-07	1678269.125	4.57541864307132E-05
2	549	120.453533695884	1.07894897460938	1.07879638671875	6.329345703125E-07	6.82807467455859E-07	1704436	4.58187278127298E-05
2	550	120.55424169563	1.06887817382813	1.06903076171875	6.15844726562501E-07	6.58356952953909E-07	1735877.125	4.58816102764104E-05
2	551	120.654949695376	1.05880737304688	1.05865478515625	5.9814453125E-07	6.33228580682044E-07	1769898	4.59427392343059E-05
2	552	120.755657695121	1.04873657226563	1.04827880859375	5.80444335937499E-07	6.08467473739438E-07	1805993.875	4.6002085582586E-05
2	553	120.856365694867	1.03866577148438	1.03851318359375	5.633544921875E-07	5.85051054713404E-07	1843445.25	4.60596784250811E-05
2	554	120.957073694613	1.02859497070313	1.0284423828125	5.4779052734375E-07	5.63370974759891E-07	1877437.25	4.61156305391341E-05
2	555	121.057781694358	1.01852416992188	1.01837158203125	5.34667968749999E-07	5.44490660558949E-07	1904680.5	4.6170134737622E-05
2	556	121.158489694104	1.00845336914063	1.0089111328125	5.2215576171875E-07	5.26808719314431E-07	1932203.5	4.62233510916121E-05
2	557	121.25919769385	0.998382568359375	0.99853515625	5.126953125E-07	5.11944278969167E-07	1947619.125	4.62754615000449E-05
2	558	121.359905693596	0.988311767578125	0.98846435546875	5.04150390624999E-07	4.98334657095256E-07	1960653.875	4.63266624137759E-05
2	559	121.460613693341	0.978240966796875	0.97869873046875	4.974365234375E-07	4.86840519897669E-07	1967484.625	4.63770957139786E-05
2	560	121.561321693087	0.968170166015625	0.96832275390625	4.913330078125E-07	4.75768899832474E-07	1970807.625	4.64268850919325E-05
2	561	121.662029692833	0.958099365234375	0.958251953125	4.8675537109375E-07	4.66434272539118E-07	1968652	4.64761360490229E-05
2	562	121.762737692579	0.948028564453125	0.94818115234375	4.81567382812501E-07	4.56613122423732E-07	1968948	4.65248958789743E-05
2	563	121.863445692324	0.937957763671875	0.93841552734375	4.7637939453125E-07	4.4704179913424E-07	1969891.25	4.65731318399776E-05
2	564	121.96415369207	0.927886962890625	0.927734375	4.7149658203125E-07	4.37423580024188E-07	1967637.5	4.66208584839478E-05
2	565	122.064861691816	0.917816162109375	0.91796875	4.6661376953125E-07	4.28336846880484E-07	1967299	4.66680976387579E-05
2	566	122.165569691562	0.907745361328125	0.908203125	4.61730957031251E-07	4.19345468571919E-07	1966953.125	4.67148420284502E-05
2	567	122.266277691307	0.897674560546875	0.897216796875	4.5654296875E-07	4.09617996410816E-07	1965240.75	4.67610807390884E-05
2	568	122.366985691053	0.887603759765625	0.8880615234375	4.50744628906249E-07	4.00288939772508E-07	1970210	4.68067664769478E-05
2	569	122.467693690799	0.877532958984375	0.87738037109375	4.4403076171875E-07	3.89583874493837E-07	1975945.125	4.68518228444736E-05
2	570	122.568401690545	0.867462158203125	0.8673095703125	4.3670654296875E-07	3.78759750674362E-07	1986023.875	4.68961734441109E-05
2	571	122.66910969029	0.857391357421875	0.85723876953125	4.29687500000001E-07	3.68344785783847E-07	1995028.375	4.69398000859655E-05
2	572	122.769817690036	0.847320556640625	0.84747314453125	4.21752929687499E-07	3.57424283947694E-07	2009406.625	4.69826736662071E-05
2	573	122.870525689782	0.837249755859375	0.83770751953125	4.12902832031251E-07	3.45891805864085E-07	2028824.875	4.70246995973866E-05
2	574	122.971233689527	0.827178955078125	0.8270263671875	4.05273437500001E-07	3.35171819187963E-07	2040662.75	4.7065899707377E-05
2	575	123.071941689273	0.817108154296875	0.8172607421875	3.9642333984375E-07	3.23981225847092E-07	2061585.875	4.71062667202204E-05
2	576	123.172649689019	0.807037353515625	0.8074951171875	3.8726806640625E-07	3.12717048700506E-07	2085106.5	4.7145727876341E-05
2	577	123.273357688765	0.796966552734375	0.797119140625	3.7872314453125E-07	3.0188746791282E-07	2104754.25	4.71843013656326E-05
2	578	123.37406568851	0.786895751953125	0.7867431640625	3.69873046874999E-07	2.90995103569003E-07	2127062.75	4.72219944640528E-05
2	579	123.474773688256	0.776824951171875	0.77728271484375	3.60717773437499E-07	2.80379680361875E-07	2154822.5	4.72587817057502E-05
2	580	123.575481688002	0.766754150390625	0.7672119140625	3.51867675781251E-07	2.69957070031523E-07	2180399	4.72946630907245E-05
2	581	123.676189687748	0.756683349609375	0.7562255859375	3.4332275390625E-07	2.59629445054088E-07	2202666.75	4.73296713607851E-05
2	582	123.776897687493	0.746612548828125	0.74652099609375	3.35083007812501E-07	2.50146484859215E-07	2227869	4.73638319817837E-05
2	583	123.877605687239	0.736541748046875	0.736419677734375	3.2684326171875E-07	2.40693822206595E-07	2253128	4.73971595056355E-05
2	584	123.978313686985	0.726470947265625	0.72637939453125	3.1890869140625E-07	2.31648698445497E-07	2277703.25	4.74296757602133E-05
2	585	124.079021686731	0.716400146484375	0.716217041015625	3.1097412109375E-07	2.22724963805376E-07	2303140.25	4.74613952974323E-05
2	586	124.179729686476	0.706329345703125	0.706298828125	3.03039550781251E-07	2.14036475654211E-07	2330715	4.7492310841335E-05
2	587	124.280437686222	0.696258544921875	0.696197509765625	2.9571533203125E-07	2.05876276027084E-07	2354282.75	4.75224624096882E-05
2	588	124.381145685968	0.686187744140625	0.68603515625	2.8839111328125E-07	1.97846432570259E-07	2378836	4.75518754683435E-05
2	589	124.481853685714	0.676116943359375	0.675994873046875	2.81982421875E-07	1.90618663964415E-07	2397294.5	4.75805936730467E-05
2	590	124.582561685459	0.666046142578125	0.665985107421875	2.7618408203125E-07	1.83934474762282E-07	2411381.25	4.76087006973103E-05
2	591	124.683269685205	0.655975341796875	0.65594482421875	2.70690917968749E-07	1.77558305836101E-07	2423224.25	4.76362365589011E-05
2	592	124.783977684951	0.645904541015625	0.645904541015625	2.6580810546875E-07	1.71686650674019E-07	2429965.75	4.76632521895226E-05
2	593	124.884685684696	0.635833740234375	0.635711669921875	2.6092529296875E-07	1.65873245805415E-07	2436374.5	4.76897766930051E-05
2	594	124.985393684442	0.625762939453125	0.625701904296875	2.57263183593751E-07	1.60970060392174E-07	2432147.25	4.77158682770096E-05
2	595	125.086101684188	0.615692138671875	0.615631103515625	2.5360107421875E-07	1.56124698946769E-07	2427557.25	4.77415924251545E-05
2	596	125.186809683934	0.605621337890625	0.6055908203125	2.50244140625E-07	1.51545549442744E-07	2420000	4.77669636893552E-05
2	597	125.287517683679	0.595550537109375	0.595428466796875	2.4749755859375E-07	1.47367089198269E-07	2405795.25	4.77920257253572E-05
2	598	125.388225683425	0.585479736328125	0.58544921875	2.44750976562499E-07	1.43289256016033E-07	2392020	4.78168149129488E-05
2	599	125.488933683171	0.575408935546875	0.575347900390625	2.423095703125E-07	1.3941230747605E-07	2374433.25	4.78413385280874E-05
2	600	125.589641682917	0.565338134765625	0.565216064453125	2.398681640625E-07	1.35577337800896E-07	2356361.25	4.78656183986459E-05
2	601	125.690349682662	0.555267333984375	0.555206298828125	2.38037109375E-07	1.32159698296164E-07	2332436	4.78896836284548E-05
2	602	125.791057682408	0.545196533203125	0.545135498046875	2.35900878906251E-07	1.2859793230291E-07	2310866.75	4.79135487694293E-05
2	603	125.891765682154	0.535125732421875	0.53509521484375	2.34069824218749E-07	1.25249641769187E-07	2286049.5	4.79372138215695E-05
2	604	125.9924736819	0.525054931640625	0.5250244140625	2.3223876953125E-07	1.2193102350011E-07	2260709.75	4.79606933367904E-05
2	605	126.093181681645	0.514984130859375	0.51495361328125	2.31018066406249E-07	1.18963583872755E-07	2229062	4.79840200569015E-05
2	606	126.193889681391	0.504913330078125	0.50482177734375	2.288818359375E-07	1.15544530387979E-07	2205600	4.80071794299874E-05
2	607	126.294597681137	0.494842529296875	0.4947509765625	2.2705078125E-07	1.12333594870506E-07	2179032.25	4.80301350762602E-05
2	608	126.395305680883	0.484771728515625	0.4847412109375	2.2552490234375E-07	1.09321213415114E-07	2149391	4.80529233755078E-05
2	609	126.496013680628	0.474700927734375	0.47467041015625	2.23388671874999E-07	1.06035990654618E-07	2124863.5	4.80755297758151E-05
2	610	126.596721680374	0.464630126953125	0.464569091796875	2.2125244140625E-07	1.02787041100783E-07	2099724.25	4.80979178973939E-05
2	611	126.69742968012	0.454559326171875	0.4544677734375	2.19116210937501E-07	9.95812499127169E-08	2074094.75	4.8120095016202E-05
2	612	126.798137679865	0.444488525390625	0.4444580078125	2.1636962890625E-07	9.61672128596547E-08	2054160.75	4.81420211144723E-05
2	613	126.898845679611	0.434417724609375	0.43438720703125	2.13623046875E-07	9.2795112038857E-08	2033428.625	4.81636743643321E-05
2	614	126.999553679357	0.424346923828125	0.42425537109375	2.11486816406251E-07	8.97244163411415E-08	2006060.75	4.8185080231633E-05
2	615	127.100261679103	0.414276123046875	0.414215087890625	2.093505859375E-07	8.67161631390445E-08	1978571.5	4.82062714581843E-05
2	616	127.200969678848	0.404205322265625	0.404144287109375	2.0721435546875E-07	8.37444957824118E-08	1950368.125	4.82272444060072E-05
2	617	127.301677678594	0.394134521484375	0.394073486328125	2.06298828125E-07	8.12968963259664E-08	1910207.125	4.8248068196699E-05
2	618	127.40238567834	0.384063720703125	0.384063720703125	2.0477294921875E-07	7.86458613788454E-08	1875558.875	4.82687682961114E-05
2	619	127.503093678086	0.373992919921875	0.37396240234375	2.03857421875001E-07	7.62350040872661E-08	1834431.25	4.82893447042443E-05
2	620	127.603801677831	0.363922119140625	0.3638916015625	2.032470703125E-07	7.39599030907812E-08	1790390.375	4.83098410768434E-05
2	621	127.704509677577	0.353851318359375	0.35382080078125	2.00805664062501E-07	7.10492216171588E-08	1762006.125	4.83301882923115E-05
2	622	127.805217677323	0.343780517578125	0.343780517578125	1.9989013671875E-07	6.87183359104893E-08	1719847.375	4.83503645227756E-05
2	623	127.905925677069	0.333709716796875	0.33380126953125	1.983642578125E-07	6.62142412011235E-08	1682769.375	4.83704170619603E-05
2	624	128.006633676814	0.323638916015625	0.323638916015625	1.96533203125E-07	6.36057890801567E-08	1646739.25	4.83903022541199E-05
2	625	128.10734167656	0.313568115234375	0.3135986328125	1.94396972656249E-07	6.09626198411206E-08	1613186.875	4.84099873574451E-05
2	626	128.208049676306	0.303497314453125	0.303497314453125	1.922607421875E-07	5.83506185591887E-08	1578571.375	4.84294578200206E-05
2	627	128.308757676052	0.293426513671875	0.293365478515625	1.90124511718751E-07	5.57759669561619E-08	1543017.625	4.84487136418466E-05
2	628	128.409465675797	0.283355712890625	0.28338623046875	1.8768310546875E-07	5.3186806070471E-08	1509918.75	4.84677366330288E-05
2	629	128.510173675543	0.273284912109375	0.27325439453125	1.84020996093751E-07	5.02845445282674E-08	1484908.875	4.84864540339913E-05
2	630	128.610881675289	0.263214111328125	0.26318359375	1.80969238281251E-07	4.76281343253504E-08	1454300.125	4.85048331029247E-05
2	631	128.711589675034	0.253143310546875	0.25311279296875	1.77612304687499E-07	4.49559465209859E-08	1425085.875	4.85228883917443E-05
2	632	128.81229767478	0.243072509765625	0.24310302734375	1.73034667968749E-07	4.20652490618068E-08	1404938.25	4.85405435028952E-05
2	633	128.913005674526	0.233001708984375	0.233001708984375	1.6754150390625E-07	3.90374559344764E-08	1390710.375	4.85576929349918E-05
2	634	129.013713674272	0.222930908203125	0.22296142578125	1.6204833984375E-07	3.61305296792125E-08	1375894.5	4.85742893943097E-05
2	635	129.114421674017	0.212860107421875	0.212921142578125	1.556396484375E-07	3.31389706786922E-08	1368039.25	4.85902855871245E-05
2	636	129.215129673763	0.202789306640625	0.202789306640625	1.47705078125E-07	2.99530107383816E-08	1372933.875	4.86055614601355E-05
2	637	129.315837673509	0.192718505859375	0.192657470703125	1.373291015625E-07	2.64574762098846E-08	1402889	4.86199132865295E-05
2	638	129.416545673255	0.182647705078125	0.18267822265625	1.239013671875E-07	2.26340794995394E-08	1474384.375	4.86330682178959E-05
2	639	129.517253673	0.172576904296875	0.17254638671875	1.080322265625E-07	1.86405699764691E-08	1597175.125	4.86447461298667E-05
2	640	129.617961672746	0.162506103515625	0.16253662109375	8.57543945312497E-08	1.39382292374535E-08	1895373.625	4.86545068270061E-05
2	641	129.718669672492	0.152435302734375	0.152435302734375	5.61523437500003E-08	8.55959925161187E-09	2714674	4.86616518173832E-05
2	642	129.819377672238	0.142364501953125	0.1424560546875	1.61743164062506E-08	2.30412910973143E-09	8807548	4.86652934341691E-05
2	643	129.920085671983	0.132293701171875	0.13232421875	-3.96728515625E-08	-5.24967891379902E-09	-3335384.5	4.86641110910568E-05
2	644	130.020793671729	0.122222900390625	0.122222900390625	-1.1322021484375E-07	-1.38381022196654E-08	-1079514.875	4.86564094899222E-05
2	645	130.121501671475	0.112152099609375	0.112152099609375	-2.14538574218751E-07	-2.40609523416424E-08	-522759.59375	4.86399076180533E-05
2	646	130.222209671221	0.102081298828125	0.10211181640625	-3.46984863281249E-07	-3.54312525985279E-08	-294283.21875	4.86116332467645E-05
2	647	130.322917670966	0.092010498046875	0.092071533203125	-5.157470703125E-07	-4.7485620768839E-08	-178520.71875	4.85681885038503E-05
2	648	130.423625670712	0.081939697265625	0.082000732421875	-7.2174072265625E-07	-5.91832680640891E-08	-113615.21875	4.85058772028424E-05
2	649	130.524333670458	0.071868896484375	0.0718994140625	-9.58251953125E-07	-6.88977479512687E-08	-75031.8515625	4.84212832816411E-05
2	650	130.625041670203	0.061798095703125	0.06182861328125	-1.20849609375E-06	-7.47196367001379E-08	-51161.6171875	4.83121802972164E-05
2	651	130.725749669949	0.051727294921875	0.05181884765625	-1.4520263671875E-06	-7.52423332528451E-08	-35687.26171875	4.81782117276452E-05
2	652	130.826457669695	0.041656494140625	0.041717529296875	-1.66107177734375E-06	-6.92958082026962E-08	-25114.826171875	4.80214548588265E-05
2	653	130.927165669441	0.031585693359375	0.0316558837890625	-1.817626953125E-06	-5.75385890044799E-08	-17416.052734375	4.7846286179265E-05
2	654	131.027873669186	0.021514892578125	0.021588134765625	-1.9085693359375E-06	-4.1202451228628E-08	-11311.162109375	4.76586574222893E-05
2	655	131.128581668932	0.011444091796875	0.0115203857421875	-1.93939208984375E-06	-2.23425438150571E-08	-5940.205078125	4.74648986710235E-05
2	656	131.229289668678	0.001373291015625	0.00145568847656249	-1.9207763671875E-06	-2.79605205655287E-09	-757.864624023438	4.72705214633606E-05
2	657	131.329997668424	-0.008697509765625	-0.00858154296874999	-1.86859130859375E-06	1.60353970102278E-08	4592.52001953125	4.70797131129075E-05
2	658	131.430705668169	-0.018768310546875	-0.01864013671875	-1.79718017578125E-06	3.34996848039282E-08	10371.8798828125	4.68951257062145E-05
2	659	131.531413667915	-0.028839111328125	-0.028717041015625	-1.71966552734375E-06	4.9383704237016E-08	16699.201171875	4.67180398118217E-05
2	660	131.632121667661	-0.038909912109375	-0.03876953125	-1.64154052734375E-06	6.36417567534409E-08	23617.7734375	4.65487901237793E-05
2	661	131.732829667407	-0.048980712890625	-0.0488311767578125	-1.56768798828125E-06	7.65520482559623E-08	31148.53125	4.63871911051683E-05
2	662	131.833537667152	-0.059051513671875	-0.05902099609375	-1.49993896484375E-06	8.85278907958309E-08	39348.93359375	4.6232726162998E-05
2	663	131.934245666898	-0.069122314453125	-0.06903076171875	-1.43890380859375E-06	9.93286235484447E-08	47974.55078125	4.60847440990619E-05
2	664	132.034953666644	-0.079193115234375	-0.079193115234375	-1.3848876953125E-06	1.09673571557778E-07	57183.78125	4.59425536973868E-05
2	665	132.13566166639	-0.089263916015625	-0.089141845703125	-1.33697509765625E-06	1.19180427304855E-07	66674.2734375	4.58054964838084E-05
2	666	132.236369666135	-0.099334716796875	-0.099273681640625	-1.29608154296875E-06	1.28666783894005E-07	76595.2421875	4.56729103461839E-05
2	667	132.337077665881	-0.109405517578125	-0.10931396484375	-1.2591552734375E-06	1.37643255015973E-07	86815.3203125	4.55442459497135E-05
2	668	132.437785665627	-0.119476318359375	-0.119384765625	-1.22833251953125E-06	1.46644183018907E-07	97192.546875	4.54189903393853E-05
2	669	132.538493665372	-0.129547119140625	-0.1295166015625	-1.199951171875E-06	1.55413601987675E-07	107934.890625	4.5296717871679E-05
2	670	132.639201665118	-0.139617919921875	-0.139495849609375	-1.1761474609375E-06	1.64067685659575E-07	118604.0546875	4.51770720246714E-05
2	671	132.739909664864	-0.149688720703125	-0.149566650390625	-1.1553955078125E-06	1.72808626075494E-07	129450.609375	4.50596671726089E-05
2	672	132.84061766461	-0.159759521484375	-0.159637451171875	-1.13800048828125E-06	1.81667488163839E-07	140278.890625	4.49441868113354E-05
2	673	132.941325664355	-0.169830322265625	-0.169708251953125	-1.12274169921875E-06	1.90538528954676E-07	151155.21875	4.48303471785039E-05
2	674	133.042033664101	-0.179901123046875	-0.179718017578125	-1.11083984375E-06	1.99637923969931E-07	161785.71875	4.47178790636826E-05
2	675	133.142741663847	-0.189971923828125	-0.18988037109375	-1.10076904296875E-06	2.09014430652132E-07	172497.921875	4.46065168944187E-05
2	676	133.243449663593	-0.200042724609375	-0.199951171875	-1.0931396484375E-06	2.18574555788109E-07	182914.578125	4.44960423919838E-05
2	677	133.344157663338	-0.189971923828125	-0.18988037109375	-9.53369140625E-07	1.81026081236269E-07	199167.734375	4.43929930042941E-05
