Potential - OCP 0.00241139729817708 V
Time (s)	WE(1).Potential (V)
6.56430798342672	0.00514831542968749
6.66430798317424	0.00513305664062499
6.76430798292176	0.00512084960937501
6.86430798266929	0.005108642578125
6.96430798241681	0.005096435546875
7.06430798216434	0.005084228515625
7.16430798191186	0.0050689697265625
7.26430798165939	0.00505676269531249
7.36430798140691	0.00504455566406251
7.46430798115443	0.0050323486328125
7.56430798090196	0.0050201416015625
7.66430798064948	0.0050079345703125
7.76430798039701	0.00499572753906249
7.86430798014453	0.00498352050781251
7.96430797989206	0.0049713134765625
8.06430797963958	0.0049560546875
8.1643079793871	0.00494384765625
8.26430797913463	0.004931640625
8.36430797888215	0.00492248535156251
8.46430797862968	0.0049102783203125
8.5643079783772	0.00489501953125
8.66430797812473	0.0048797607421875
8.76430797787225	0.0048675537109375
8.86430797761977	0.004852294921875
8.9643079773673	0.004840087890625
9.06430797711482	0.00482788085937499
9.16430797686235	0.00481567382812501
9.26430797660987	0.004803466796875
9.3643079763574	0.004791259765625
9.46430797610492	0.0047760009765625
9.56430797585244	0.0047637939453125
9.66430797559997	0.00475158691406249
9.76430797534749	0.00473632812499999
9.86430797509502	0.00472412109375001
9.96430797484254	0.00470886230468751
10.0643079745901	0.0046966552734375
10.1643079743376	0.0046844482421875
10.2643079740851	0.004669189453125
10.3643079738326	0.004656982421875
10.4643079735802	0.00464477539062499
10.5643079733277	0.00462951660156249
10.6643079730752	0.00461730957031251
10.7643079728227	0.0046051025390625
10.8643079725703	0.00458984375
10.9643079723178	0.00457763671875
11.0643079720653	0.0045654296875
11.1643079718128	0.00455322265624999
11.2643079715604	0.00453796386718749
11.3643079713079	0.00452575683593751
11.4643079710554	0.0045135498046875
11.5643079708029	0.0045013427734375
11.6643079705505	0.0044891357421875
11.764307970298	0.004473876953125
11.8643079700455	0.00446166992187499
11.964307969793	0.00444946289062501
12.0643079695406	0.004437255859375
12.1643079692881	0.0044219970703125
12.2643079690356	0.0044097900390625
12.3643079687831	0.0043975830078125
12.4643079685306	0.00438537597656249
12.5643079682782	0.00437316894531251
12.6643079680257	0.0043609619140625
12.7643079677732	0.004345703125
12.8643079675207	0.0043365478515625
12.9643079672683	0.0043212890625
13.0643079670158	0.00430908203124999
13.1643079667633	0.00429687500000001
13.2643079665108	0.00428466796875
13.3643079662584	0.0042724609375
13.4643079660059	0.00426025390625
13.5643079657534	0.00424804687499999
13.6643079655009	0.00423583984375001
13.7643079652485	0.0042236328125
13.864307964996	0.00421142578125
13.9643079647435	0.00419921875
14.064307964491	0.00418701171874999
14.1643079642386	0.00417175292968749
14.2643079639861	0.00415954589843751
14.3643079637336	0.0041473388671875
14.4643079634811	0.00413818359375
14.5643079632287	0.0041229248046875
14.6643079629762	0.00411071777343749
14.7643079627237	0.00409851074218751
14.8643079624712	0.0040863037109375
14.9643079622188	0.0040740966796875
15.0643079619663	0.0040618896484375
15.1643079617138	0.00404968261718749
15.2643079614613	0.00403747558593751
15.3643079612089	0.0040252685546875
15.4643079609564	0.0040130615234375
15.5643079607039	0.0040008544921875
15.6643079604514	0.00398864746093749
15.7643079601989	0.00397338867187499
15.8643079599465	0.00396118164062501
15.964307959694	0.003948974609375
16.0643079594415	0.003936767578125
16.164307959189	0.003924560546875
16.2643079589366	0.0039093017578125
16.3643079586841	0.00389709472656249
16.4643079584316	0.00388488769531251
16.5643079581791	0.0038726806640625
16.6643079579267	0.0038604736328125
16.7643079576742	0.0038482666015625
16.8643079574217	0.00383605957031249
16.9643079571692	0.00382385253906251
17.0643079569168	0.0038116455078125
17.1643079566643	0.0037994384765625
17.2643079564118	0.0037872314453125
17.3643079561593	0.00377502441406249
17.4643079559069	0.00375976562499999
17.5643079556544	0.0037506103515625
17.6643079554019	0.0037384033203125
17.7643079551494	0.0037261962890625
17.864307954897	0.00371398925781249
17.9643079546445	0.00370178222656251
18.064307954392	0.0036895751953125
18.1643079541395	0.0036773681640625
18.2643079538871	0.0036651611328125
18.3643079536346	0.00365295410156249
18.4643079533821	0.003643798828125
18.5643079531296	0.0036285400390625
18.6643079528772	0.003619384765625
18.7643079526247	0.00360717773437499
18.8643079523722	0.00359497070312501
18.9643079521197	0.003582763671875
19.0643079518672	0.0035736083984375
19.1643079516148	0.00356140136718749
19.2643079513623	0.00354919433593751
19.3643079511098	0.0035369873046875
19.4643079508573	0.00352783203125
19.5643079506049	0.00351562499999999
19.6643079503524	0.00350341796875001
19.7643079500999	0.0034942626953125
19.8643079498474	0.0034820556640625
19.964307949595	0.00347290039062501
20.0643079493425	0.003460693359375
20.16430794909	0.0034515380859375
20.2643079488375	0.00344238281250001
20.3643079485851	0.00343017578125
20.4643079483326	0.0034210205078125
20.5643079480801	0.00341186523437501
20.6643079478276	0.003399658203125
20.7643079475752	0.0033905029296875
20.8643079473227	0.00338134765625001
20.9643079470702	0.0033721923828125
21.0643079468177	0.00336303710937499
21.1643079465653	0.00335083007812501
21.2643079463128	0.0033416748046875
21.3643079460603	0.00333251953124999
21.4643079458078	0.0033233642578125
21.5643079455554	0.003314208984375
21.6643079453029	0.00330505371093751
21.7643079450504	0.0032958984375
21.8643079447979	0.00328674316406249
21.9643079445455	0.003277587890625
22.064307944293	0.0032684326171875
22.1643079440405	0.00325927734375001
22.264307943788	0.0032501220703125
22.3643079435356	0.00324096679687499
22.4643079432831	0.0032318115234375
22.5643079430306	0.00322265625
22.6643079427781	0.00321350097656251
22.7643079425256	0.003204345703125
22.8643079422732	0.00319824218750001
22.9643079420207	0.0031890869140625
23.0643079417682	0.00317993164062499
23.1643079415157	0.0031707763671875
23.2643079412633	0.00316162109375
23.3643079410108	0.00315246582031251
23.4643079407583	0.0031463623046875
23.5643079405058	0.00313720703125001
23.6643079402534	0.003131103515625
23.7643079400009	0.00312194824218751
23.8643079397484	0.00311279296875
23.9643079394959	0.00310363769531249
24.0643079392435	0.003094482421875
24.164307938991	0.00308837890624999
24.2643079387385	0.0030792236328125
24.364307938486	0.003070068359375
24.4643079382336	0.00306396484375
24.5643079379811	0.0030548095703125
24.6643079377286	0.00304565429687501
24.7643079374761	0.0030364990234375
24.8643079372237	0.00303039550781251
24.9643079369712	0.003021240234375
25.0643079367187	0.00301208496093749
25.1643079364662	0.0030029296875
25.2643079362138	0.00299682617187499
25.3643079359613	0.0029876708984375
25.4643079357088	0.002978515625
25.5643079354563	0.002972412109375
25.6643079352039	0.0029632568359375
25.7643079349514	0.0029571533203125
25.8643079346989	0.002947998046875
25.9643079344464	0.00294189453125
26.0643079341939	0.0029327392578125
26.1643079339415	0.00292358398437501
26.264307933689	0.00291748046875
26.3643079334365	0.002911376953125
26.464307933184	0.00290527343749999
26.5643079329316	0.002899169921875
26.6643079326791	0.00289306640625001
26.7643079324266	0.0028839111328125
26.8643079321741	0.00287780761718751
26.9643079319217	0.0028717041015625
27.0643079316692	0.0028656005859375
27.1643079314167	0.0028564453125
27.2643079311642	0.002850341796875
27.3643079309118	0.00284423828124999
27.4643079306593	0.002838134765625
27.5643079304068	0.00283203125000001
27.6643079301543	0.002825927734375
27.7643079299019	0.00281982421875
27.8643079296494	0.00281372070312499
27.9643079293969	0.0028045654296875
28.0643079291444	0.00279846191406249
28.164307928892	0.0027923583984375
28.2643079286395	0.00278625488281251
28.364307928387	0.0027801513671875
28.4643079281345	0.0027740478515625
28.5643079278821	0.00276794433593749
28.6643079276296	0.0027618408203125
28.7643079273771	0.00275573730468751
28.8643079271246	0.0027496337890625
28.9643079268722	0.0027435302734375
29.0643079266197	0.002734375
29.1643079263672	0.002728271484375
29.2643079261147	0.00272216796874999
29.3643079258622	0.002716064453125
29.4643079256098	0.00270996093750001
29.5643079253573	0.002703857421875
29.6643079251048	0.00269775390625
29.7643079248523	0.00269165039062499
29.8643079245999	0.002685546875
29.9643079243474	0.00267944335937501
30.0643079240949	0.00267333984375
30.1643079238424	0.00266418457031251
30.26430792359	0.0026580810546875
30.3643079233375	0.0026519775390625
30.464307923085	0.00264587402343749
30.5643079228325	0.0026397705078125
30.6643079225801	0.00263061523437499
30.7643079223276	0.00262451171875
30.8643079220751	0.00261840820312501
30.9643079218226	0.0026123046875
31.0643079215702	0.002606201171875
31.1643079213177	0.00260009765624999
31.2643079210652	0.0025909423828125
31.3643079208127	0.00258483886718749
31.4643079205603	0.0025787353515625
31.5643079203078	0.00256958007812499
31.6643079200553	0.0025634765625
31.7643079198028	0.00255737304687501
31.8643079195504	0.00255126953125
31.9643079192979	0.00254211425781251
32.0643079190454	0.0025360107421875
32.1643079187929	0.00252685546875001
32.2643079185405	0.002520751953125
32.364307918288	0.0025146484375
32.4643079180355	0.00250854492187499
32.564307917783	0.0024993896484375
32.6643079175306	0.00249328613281249
32.7643079172781	0.0024871826171875
32.8643079170256	0.00247802734374999
32.9643079167731	0.002471923828125
33.0643079165206	0.00246582031250001
33.1643079162682	0.002459716796875
33.2643079160157	0.00245361328125
33.3643079157632	0.00244750976562499
33.4643079155107	0.0024383544921875
33.5643079152583	0.00243225097656249
33.6643079150058	0.0024261474609375
33.7643079147533	0.00242004394531251
33.8643079145008	0.0024139404296875
33.9643079142484	0.00240478515625001
34.0643079139959	0.002398681640625
34.1643079137434	0.002392578125
34.2643079134909	0.00238647460937499
34.3643079132385	0.00238037109375
34.464307912986	0.00237426757812501
34.5643079127335	0.0023681640625
34.664307912481	0.00235900878906251
34.7643079122286	0.0023529052734375
34.8643079119761	0.0023468017578125
34.9643079117236	0.00234069824218749
35.0643079114711	0.0023345947265625
35.1643079112187	0.00232849121093751
35.2643079109662	0.0023223876953125
35.3643079107137	0.0023162841796875
35.4643079104612	0.00231018066406249
35.5643079102088	0.0023040771484375
35.6643079099563	0.00229492187499999
35.7643079097038	0.002288818359375
35.8643079094513	0.00228271484375001
35.9643079091989	0.002276611328125
36.0643079089464	0.0022705078125
36.1643079086939	0.00226440429687499
36.2643079084414	0.00225830078125
36.3643079081889	0.00225219726562501
36.4643079079365	0.00224609375
