Potential - Start -0.2 V, Upper Vertex 1.5 V, Lower Vertex -0.2 V, Stop -0.19 V; Scan - # end cross 5, Rate 0.1 Vps, Step 0.01 V 
Scan	Index	Time (s)	Potential applied (V)	WE(1).Potential (V)	WE(1).Current (A)	WE(1).Power (W)	WE(1).Resistance (Ω)	WE(1).Charge (C)
1	1	58.9354468512023	-0.189971923828125	-0.189849853515625	-2.42919921875E-07	4.61183127242748E-08	781532.625	0
1	2	59.036154850948	-0.179901123046875	-0.17974853515625	-2.09655761718749E-07	3.7685314424607E-08	857350.8125	-2.27889955795035E-08
1	3	59.1368628506938	-0.169830322265625	-0.16961669921875	-1.8310546875E-07	3.1057744820373E-08	926333.3125	-4.25660928726757E-08
1	4	59.2375708504395	-0.159759521484375	-0.159637451171875	-1.59606933593751E-07	2.54792436038542E-08	1000191.25	-5.98230371906538E-08
1	5	59.3382788501852	-0.149688720703125	-0.1495361328125	-1.39465332031249E-07	2.08551060865148E-08	1072210.125	-7.48825215168836E-08
1	6	59.438986849931	-0.139617919921875	-0.1395263671875	-1.19934082031251E-07	1.67339671008904E-08	1163358.75	-8.79443149415238E-08
1	7	59.5396948496767	-0.129547119140625	-0.129425048828125	-1.019287109375E-07	1.31921273904823E-08	1269760.5	-9.91159936347685E-08
1	8	59.6404028494225	-0.119476318359375	-0.119384765625	-8.33129882812506E-08	9.94630067197022E-09	1432967.125	-1.08443657609314E-07
1	9	59.7411108491682	-0.109405517578125	-0.10931396484375	-6.46972656249994E-08	7.07231428975774E-09	1689622.75	-1.15896561680984E-07
1	10	59.8418188489139	-0.099334716796875	-0.099273681640625	-4.425048828125E-08	4.39290870346554E-09	2243448.25	-1.21382512929813E-07
1	11	59.9425268486597	-0.089263916015625	-0.08917236328125	-2.13623046875E-08	1.90492710494539E-09	4174285.75	-1.24686380331696E-07
1	12	60.0432348484054	-0.079193115234375	-0.079193115234375	6.103515625E-09	-4.83356410452274E-10	-12975000	-1.25454732824437E-07
1	13	60.1439428481511	-0.069122314453125	-0.069091796875	4.05883789062506E-08	-2.80432410626474E-09	-1702255.625	-1.23103603755226E-07
1	14	60.2446508478969	-0.059051513671875	-0.0589599609375	8.45336914062495E-08	-4.98410290816764E-09	-697472.9375	-1.16803207106386E-07
1	15	60.3453588476426	-0.048980712890625	-0.0488555908203125	1.4312744140625E-07	-6.9925754075939E-09	-341343.3125	-1.0533955929759E-07
1	16	60.4460668473884	-0.038909912109375	-0.03876953125	2.2125244140625E-07	-8.57785309449355E-09	-175227.59375	-8.69915766088525E-08
1	17	60.5467748471341	-0.028839111328125	-0.0287078857421875	3.2470703125E-07	-9.3216527830009E-09	-88411.65625	-5.95003299963537E-08
1	18	60.6474828468798	-0.018768310546875	-0.0186248779296875	4.59899902343749E-07	-8.56557935691171E-09	-40497.67578125	-1.99922336463487E-08
1	19	60.7481908466256	-0.008697509765625	-0.0086395263671875	6.30798339843749E-07	-5.44979883443375E-09	-13696.1796875	3.49287851975078E-08
1	20	60.8488988463713	0.001373291015625	0.0014801025390625	8.36791992187499E-07	1.23853793887463E-09	1768.78198242188	1.08827826750257E-07
1	21	60.949606846117	0.011444091796875	0.0115234375	1.0711669921875E-06	1.23435253129855E-08	10757.8359375	2.04901184019946E-07
1	22	61.0503148458628	0.021514892578125	0.021600341796875	1.31500244140625E-06	2.84045018617007E-08	16426.083984375	3.25054372751765E-07
1	23	61.1510228456085	0.031585693359375	0.0317047119140625	1.54693603515625E-06	4.90451625978494E-08	20495.16796875	4.69164405103584E-07
1	24	61.2517308453542	0.041656494140625	0.0417327880859375	1.744384765625E-06	7.2798037820121E-08	23924.07421875	6.34895570783556E-07
1	25	61.3524388451	0.051727294921875	0.051788330078125	1.88751220703125E-06	9.77511049882196E-08	27437.34765625	8.1777608329503E-07
1	26	61.4531468448457	0.061798095703125	0.061859130859375	1.96929931640625E-06	1.21819141440938E-07	31411.74609375	1.01198202173691E-06
1	27	61.5538548445915	0.071868896484375	0.071929931640625	1.99493408203125E-06	1.43495469728805E-07	36056.29296875	1.21159700938733E-06
1	28	61.6545628443372	0.081939697265625	0.082000732421875	1.9769287109375E-06	1.62109600410076E-07	41478.8515625	1.41159614486241E-06
1	29	61.7552708440829	0.092010498046875	0.092010498046875	1.9293212890625E-06	1.77517819111017E-07	47690.6015625	1.60829154083331E-06
1	30	61.8559788438287	0.102081298828125	0.102142333984375	1.865234375E-06	1.90519386933374E-07	54761.125	1.7993625078816E-06
1	31	61.9566868435744	0.112152099609375	0.1121826171875	1.79443359375E-06	2.01304246161271E-07	62517.01171875	1.98364136849705E-06
1	32	62.0573948433201	0.122222900390625	0.12225341796875	1.7236328125E-06	2.10719989013342E-07	70927.765625	2.16079024539795E-06
1	33	62.1581028430659	0.132293701171875	0.132354736328125	1.6558837890625E-06	2.19164050463405E-07	79929.96875	2.33096238844155E-06
1	34	62.2588108428116	0.142364501953125	0.14239501953125	1.59423828125E-06	2.27011582865089E-07	89318.53125	2.49461891144165E-06
1	35	62.3595188425573	0.152435302734375	0.1524658203125	1.536865234375E-06	2.34319415426398E-07	99205.7265625	2.65228254647809E-06
1	36	62.4602268423031	0.162506103515625	0.162506103515625	1.4862060546875E-06	2.41517540189307E-07	109342.921875	2.80450626632955E-06
1	37	62.5609348420488	0.172576904296875	0.172576904296875	1.44012451171875E-06	2.48532217028696E-07	119834.7109375	2.95185873255832E-06
1	38	62.6616428417946	0.182647705078125	0.18267822265625	1.3995361328125E-06	2.55664787118803E-07	130527.6953125	3.09484698846063E-06
1	39	62.7623508415403	0.192718505859375	0.192718505859375	1.36260986328125E-06	2.62600138967173E-07	141433.375	3.23393214785028E-06
1	40	62.863058841286	0.202789306640625	0.202789306640625	1.3299560546875E-06	2.69700848321008E-07	152478.203125	3.36951347890135E-06
1	41	62.9637668410318	0.212860107421875	0.212860107421875	1.30096435546875E-06	2.76923401543172E-07	163617.171875	3.50199093190895E-06
1	42	63.0644748407775	0.222930908203125	0.22296142578125	1.27410888671875E-06	2.84077117385095E-07	174994.015625	3.63165622729866E-06
1	43	63.1651828405232	0.233001708984375	0.233001708984375	1.25E-06	2.91252121087382E-07	186401.375	3.75875515601365E-06
1	44	63.265890840269	0.243072509765625	0.243072509765625	1.22833251953125E-06	2.98573866075458E-07	197888.203125	3.88354919778067E-06
1	45	63.3665988400147	0.253143310546875	0.25311279296875	1.20880126953125E-06	3.05963055780012E-07	209391.578125	4.00626868213294E-06
1	46	63.4673068397605	0.263214111328125	0.263214111328125	1.19049072265625E-06	3.13353950787132E-07	221097.15625	4.12708232033765E-06
1	47	63.5680148395062	0.273284912109375	0.2733154296875	1.17431640625E-06	3.20958776001135E-07	232744.296875	4.24616018790402E-06
1	48	63.6687228392519	0.283355712890625	0.283416748046875	1.1590576171875E-06	3.28496327028915E-07	244523.453125	4.36365462519461E-06
1	49	63.7694308389977	0.293426513671875	0.293365478515625	1.146240234375E-06	3.36267277134539E-07	255937.1875	4.47973570771865E-06
1	50	63.8701388387434	0.303497314453125	0.303466796875	1.1334228515625E-06	3.43956202186746E-07	267743.65625	4.59452576251351E-06
1	51	63.9708468384891	0.313568115234375	0.31353759765625	1.12213134765625E-06	3.51830351519311E-07	279412.59375	4.70810209662886E-06
1	52	64.0715548382349	0.323638916015625	0.323638916015625	1.11236572265625E-06	3.60004833055427E-07	290946.5	4.82061795992195E-06
1	53	64.1722628379806	0.333709716796875	0.333740234375	1.10321044921875E-06	3.68185681054456E-07	302517.3125	4.93218112751492E-06
1	54	64.2729708377263	0.343780517578125	0.34381103515625	1.094970703125E-06	3.76462992335291E-07	313991.09375	5.04286799696274E-06
1	55	64.3736788374721	0.353851318359375	0.353790283203125	1.0882568359375E-06	3.85014686798968E-07	325098.15625	5.15280225954484E-06
1	56	64.4743868372178	0.363922119140625	0.3638916015625	1.08245849609375E-06	3.93897522599218E-07	336171.4375	5.26210669704597E-06
1	57	64.5750948369636	0.373992919921875	0.373992919921875	1.0772705078125E-06	4.02891515705051E-07	347167.15625	5.37085770702106E-06
1	58	64.6758028367093	0.384063720703125	0.384063720703125	1.07269287109375E-06	4.11982398418331E-07	358037	5.47911668036249E-06
1	59	64.776510836455	0.394134521484375	0.394134521484375	1.0699462890625E-06	4.21702765152077E-07	368368.5	5.58700730834971E-06
1	60	64.8772188362008	0.404205322265625	0.4041748046875	1.0675048828125E-06	4.31458573757482E-07	378616.375	5.69463645661017E-06
1	61	64.9779268359465	0.414276123046875	0.414306640625	1.0650634765625E-06	4.41262841377466E-07	388997.15625	5.80202004130115E-06
1	62	65.0786348356922	0.424346923828125	0.42431640625	1.06414794921875E-06	4.51535413503734E-07	398738.1875	5.90923400523025E-06
1	63	65.179342835438	0.434417724609375	0.434417724609375	1.063232421875E-06	4.61886997982219E-07	408582.09375	6.01635611019447E-06
1	64	65.2800508351837	0.444488525390625	0.44451904296875	1.0626220703125E-06	4.72355708325267E-07	418322.84375	6.12340136285638E-06
1	65	65.3807588349295	0.454559326171875	0.454559326171875	1.06292724609375E-06	4.8316348966182E-07	427648.5625	6.23043160885572E-06
1	66	65.4814668346752	0.464630126953125	0.464599609375	1.06353759765625E-06	4.9411909230912E-07	436843.65625	6.33750732959015E-06
1	67	65.5821748344209	0.474700927734375	0.47467041015625	1.0650634765625E-06	5.05554112351092E-07	445673.375	6.44469082544674E-06
1	68	65.6828828341667	0.484771728515625	0.484710693359375	1.06689453125E-06	5.17135163136118E-07	454319.25	6.55204348731786E-06
1	69	65.7835908339124	0.494842529296875	0.494720458984375	1.06903076171875E-06	5.28871396454633E-07	462774.78125	6.65959578327602E-06
1	70	65.8842988336581	0.504913330078125	0.504913330078125	1.0723876953125E-06	5.4146283900991E-07	470830.96875	6.76742502037087E-06
1	71	65.9850068334039	0.514984130859375	0.51495361328125	1.07666015625E-06	5.54430016563856E-07	478287.96875	6.87563806422986E-06
1	72	66.0857148331496	0.525054931640625	0.52508544921875	1.08154296875E-06	5.67902418424637E-07	485496.65625	6.98431222190266E-06
1	73	66.1864228328953	0.535125732421875	0.535064697265625	1.087646484375E-06	5.81961216994387E-07	491947.28125	7.09353980710148E-06
1	74	66.2871308326411	0.545196533203125	0.545196533203125	1.09466552734375E-06	5.96807865349547E-07	498048.5	7.20342768545379E-06
1	75	66.3878388323868	0.555267333984375	0.555206298828125	1.10382080078125E-06	6.12848225500784E-07	502985.9375	7.31413047105889E-06
1	76	66.4885468321326	0.565338134765625	0.5653076171875	1.114501953125E-06	6.30036424809077E-07	507228.90625	7.42583188184653E-06
1	77	66.5892548318783	0.575408935546875	0.575347900390625	1.12762451171875E-06	6.48776392608852E-07	510230.03125	7.53873200665112E-06
1	78	66.689962831624	0.585479736328125	0.58551025390625	1.14410400390625E-06	6.69884627768624E-07	511763.15625	7.65312233852455E-06
1	79	66.7906708313698	0.595550537109375	0.595458984375	1.16668701171875E-06	6.94714231030957E-07	510384.53125	7.76948036218528E-06
1	80	66.8913788311155	0.605621337890625	0.605621337890625	1.1956787109375E-06	7.24128540241509E-07	506508.4375	7.88843499321956E-06
1	81	66.9920868308612	0.615692138671875	0.615631103515625	1.2353515625E-06	7.60520833864575E-07	498344.875	8.01084661361529E-06
1	82	67.092794830607	0.625762939453125	0.62567138671875	1.28814697265625E-06	8.05956688054721E-07	485714.3125	8.13791484688409E-06
1	83	67.1935028303527	0.635833740234375	0.635833740234375	1.3592529296875E-06	8.64258879573754E-07	467781.78125	8.27122221380705E-06
1	84	67.2942108300985	0.645904541015625	0.645843505859375	1.4520263671875E-06	9.3778180598747E-07	444787.71875	8.4127814261592E-06
1	85	67.3949188298442	0.655975341796875	0.655914306640625	1.56707763671875E-06	1.02786862044013E-06	418558.9375	8.56480528454995E-06
1	86	67.4956268295899	0.666046142578125	0.666046142578125	1.7010498046875E-06	1.13297767256881E-06	391550.0625	8.72936834639404E-06
1	87	67.5963348293357	0.676116943359375	0.676025390625	1.845703125E-06	1.24774214782519E-06	366269.84375	8.90796127350768E-06
1	88	67.6970428290814	0.686187744140625	0.68609619140625	1.988525390625E-06	1.36431970076956E-06	345027.625	9.10103062778944E-06
1	89	67.7977508288271	0.696258544921875	0.696197509765625	2.1148681640625E-06	1.47236585235078E-06	329191.9375	9.30765236262232E-06
1	90	67.8984588285729	0.706329345703125	0.706298828125	2.21282958984375E-06	1.56291889652493E-06	319183.5625	9.52556911215652E-06
1	91	67.9991668283186	0.716400146484375	0.71636962890625	2.27386474609375E-06	1.62892763455602E-06	315044.96875	9.75149214355042E-06
1	92	68.0998748280643	0.726470947265625	0.72637939453125	2.3004150390625E-06	1.67097402936633E-06	315760.15625	9.98182622424792E-06
1	93	68.2005828278101	0.736541748046875	0.7364501953125	2.29766845703125E-06	1.69211830325366E-06	320520.6875	1.02133581094677E-05
1	94	68.3012908275558	0.746612548828125	0.746490478515625	2.27447509765625E-06	1.697873926787E-06	328203.40625	1.0443583050801E-05
1	95	68.4019988273016	0.756683349609375	0.7568359375	2.23876953125E-06	1.69438112607168E-06	338058.90625	1.06708430394065E-05
1	96	68.5027068270473	0.766754150390625	0.76690673828125	2.19696044921875E-06	1.68486371876497E-06	349076.28125	1.08942003862467E-05
1	97	68.603414826793	0.776824951171875	0.77728271484375	2.15423583984375E-06	1.67445023180335E-06	360816	1.11133003883879E-05
1	98	68.7041228265388	0.786895751953125	0.787353515625	2.11334228515625E-06	1.66394738698727E-06	372563.21875	1.13281894300599E-05
1	99	68.8048308262845	0.796966552734375	0.797119140625	2.07611083984375E-06	1.65490769177268E-06	383948.25	1.15391458166414E-05
1	100	68.9055388260302	0.807037353515625	0.80718994140625	2.04254150390625E-06	1.64871880770079E-06	395189.03125	1.17465360744973E-05
1	101	69.006246825776	0.817108154296875	0.8172607421875	2.0135498046875E-06	1.64559503446071E-06	405880.59375	1.19507767522009E-05
1	102	69.1069548255217	0.827178955078125	0.82733154296875	1.98944091796875E-06	1.6459271137137E-06	415861.375	1.21523435154813E-05
1	103	69.2076628252674	0.837249755859375	0.83740234375	1.9683837890625E-06	1.64832908922108E-06	425426.375	1.23516356325126E-05
1	104	69.3083708250132	0.847320556640625	0.8477783203125	1.9512939453125E-06	1.65426456533169E-06	434469.84375	1.25490068967338E-05
1	105	69.4090788247589	0.857391357421875	0.85723876953125	1.93756103515625E-06	1.6609523072475E-06	442431.90625	1.27448265629937E-05
1	106	69.5097868245047	0.867462158203125	0.86761474609375	1.927490234375E-06	1.67231883096974E-06	450126.6875	1.2939446605742E-05
1	107	69.6104948242504	0.877532958984375	0.877685546875	1.91986083984375E-06	1.68503402164788E-06	457161.03125	1.31331762531772E-05
1	108	69.7112028239961	0.887603759765625	0.887451171875	1.9158935546875E-06	1.70026203250018E-06	463204.84375	1.33263220050139E-05
1	109	69.8119108237419	0.897674560546875	0.89752197265625	1.91650390625E-06	1.72010425103508E-06	468312.125	1.35192985908361E-05
1	110	69.9126188234876	0.907745361328125	0.908203125	1.92138671875E-06	1.74500939920108E-06	472681.0625	1.37125516630476E-05
1	111	70.0133268232333	0.917816162109375	0.91705322265625	1.93389892578125E-06	1.77348817942402E-06	474199.15625	1.3906680578657E-05
1	112	70.1140348229791	0.927886962890625	0.92803955078125	1.95556640625E-06	1.81484301720047E-06	474563.03125	1.41025311677367E-05
1	113	70.2147428227248	0.937957763671875	0.938720703125	1.99066162109375E-06	1.86867521279055E-06	471562.1875	1.43012393891695E-05
1	114	70.3154508224706	0.948028564453125	0.94818115234375	2.0428466796875E-06	1.93698861039593E-06	464147.03125	1.45043422890012E-05
1	115	70.4161588222163	0.958099365234375	0.958251953125	2.11639404296875E-06	2.02803857973777E-06	452775.78125	1.47137770909467E-05
1	116	70.516866821962	0.968170166015625	0.96832275390625	2.2149658203125E-06	2.14480155591446E-06	437172.8125	1.49318784679053E-05
1	117	70.6175748217078	0.978240966796875	0.97869873046875	2.34222412109375E-06	2.29233160098374E-06	417850.1875	1.51613512571203E-05
1	118	70.7182828214535	0.988311767578125	0.9881591796875	2.496337890625E-06	2.46677927862038E-06	395843.53125	1.54049921547994E-05
1	119	70.8189908211992	0.998382568359375	0.99884033203125	2.6715087890625E-06	2.66841084339831E-06	373886.21875	1.56652131408919E-05
1	120	70.919698820945	1.00845336914063	1.00860595703125	2.85400390625E-06	2.87856528302655E-06	353400.34375	1.59434457600582E-05
1	121	71.0204068206907	1.01852416992188	1.019287109375	3.02825927734375E-06	3.08666562887083E-06	336591.75	1.62396408995846E-05
1	122	71.1211148204364	1.02859497070313	1.0284423828125	3.17352294921875E-06	3.26378540194128E-06	324069.625	1.65519250003854E-05
1	123	71.2218228201822	1.03866577148438	1.03851318359375	3.27850341796875E-06	3.4047689041472E-06	316764.40625	1.68768110597739E-05
1	124	71.3225308199279	1.04873657226563	1.04888916015625	3.33740234375E-06	3.50056507159024E-06	314283.125	1.72099480550969E-05
1	125	71.4232388196737	1.05880737304688	1.05865478515625	3.3575439453125E-06	3.55447991751134E-06	315306.3125	1.75470649992349E-05
1	126	71.5239468194194	1.06887817382813	1.06903076171875	3.35693359375E-06	3.58866532224056E-06	318454.5625	1.78851660166401E-05
1	127	71.6246548191651	1.07894897460938	1.0784912109375	3.32275390625E-06	3.58356078322686E-06	324577.53125	1.82215153472498E-05
1	128	71.7253628189109	1.08901977539063	1.0894775390625	3.27423095703125E-06	3.56720101990504E-06	332743.03125	1.85536991921254E-05
1	129	71.8260708186566	1.09909057617188	1.09893798828125	3.22052001953125E-06	3.53915152118134E-06	341230	1.88807371159783E-05
1	130	71.9267788184023	1.10916137695313	1.1090087890625	3.16619873046875E-06	3.5113421290589E-06	350265.0625	1.92023326235358E-05
1	131	72.0274868181481	1.11923217773438	1.11907958984375	3.1146240234375E-06	3.4855120247812E-06	359298.46875	1.95185984921409E-05
1	132	72.1281948178938	1.12930297851563	1.12945556640625	3.067626953125E-06	3.46474826073973E-06	368185.4375	1.98298985196743E-05
1	133	72.2289028176396	1.13937377929688	1.138916015625	3.02490234375E-06	3.44510976901802E-06	376513.3125	2.01366819965187E-05
1	134	72.3296108173853	1.14944458007813	1.1492919921875	2.987060546875E-06	3.4330046219111E-06	384756.84375	2.04394091269933E-05
1	135	72.430318817131	1.15951538085938	1.15936279296875	2.95440673828125E-06	3.42522912433196E-06	392418.15625	2.07385855901521E-05
1	136	72.5310268168768	1.16958618164063	1.16912841796875	2.92510986328125E-06	3.41982899954019E-06	399687.03125	2.10346424864838E-05
1	137	72.6317348166225	1.17965698242188	1.17950439453125	2.90069580078125E-06	3.42138332598552E-06	406628.09375	2.13279945455724E-05
1	138	72.7324428163682	1.18972778320313	1.18927001953125	2.879638671875E-06	3.42466773872729E-06	412992.8125	2.16190583159914E-05
1	139	72.833150816114	1.19979858398438	1.199951171875	2.861328125E-06	3.43345391229377E-06	419368.59375	2.19081375689711E-05
1	140	72.9338588158597	1.20986938476563	1.2103271484375	2.84576416015625E-06	3.44430554832797E-06	425308.3125	2.21955124288797E-05
1	141	73.0345668156054	1.21994018554688	1.220703125	2.8326416015625E-06	3.45781427313341E-06	430941.625	2.24814430112019E-05
1	142	73.1352748153512	1.23001098632813	1.2298583984375	2.8216552734375E-06	3.4702363791439E-06	435864.15625	2.27661603275919E-05
1	143	73.2359828150969	1.24008178710938	1.240234375	2.8118896484375E-06	3.48740218214516E-06	441067.96875	2.30498317250749E-05
1	144	73.3366908148427	1.25015258789063	1.25030517578125	2.80426025390625E-06	3.50618120137369E-06	445859.1875	2.33326281886548E-05
1	145	73.4373988145884	1.26022338867188	1.2603759765625	2.79754638671875E-06	3.52596021002682E-06	450529.0625	2.3614700694452E-05
1	146	73.5381068143341	1.27029418945313	1.2701416015625	2.79266357421875E-06	3.54707799488096E-06	454813.6875	2.38961893046508E-05
1	147	73.6388148140799	1.28036499023438	1.280517578125	2.78900146484375E-06	3.57136536877078E-06	459131.1875	2.41772486333502E-05
1	148	73.7395228138256	1.29043579101563	1.290283203125	2.7862548828125E-06	3.59505770575197E-06	463088.75	2.44579860009253E-05
1	149	73.8402308135713	1.30050659179688	1.30035400390625	2.78533935546875E-06	3.62192713510012E-06	466856.59375	2.47385378315812E-05
1	150	73.9409388133171	1.31057739257813	1.3104248046875	2.78472900390625E-06	3.64917787010199E-06	470575.375	2.50190132646821E-05
1	151	74.0416468130628	1.32064819335938	1.32110595703125	2.78594970703125E-06	3.68053474630869E-06	474203.09375	2.5299519620603E-05
1	152	74.1423548128085	1.33071899414063	1.33087158203125	2.7886962890625E-06	3.71139663002396E-06	477237.90625	2.55802242463687E-05
1	153	74.2430628125543	1.34078979492188	1.3409423828125	2.7935791015625E-06	3.74602859665174E-06	480008.71875	2.58613144978881E-05
1	154	74.3437708123	1.35086059570313	1.35040283203125	2.80029296875E-06	3.78152344637783E-06	482236.28125	2.6142988645006E-05
1	155	74.4444788120458	1.36093139648438	1.36077880859375	2.808837890625E-06	3.82220696337754E-06	484463.3125	2.64254304056522E-05
1	156	74.5451868117915	1.37100219726563	1.37054443359375	2.82012939453125E-06	3.86511237593368E-06	485986.375	2.67088707914809E-05
1	157	74.6458948115372	1.38107299804688	1.38092041015625	2.83355712890625E-06	3.91291678170091E-06	487345.1875	2.6993557185051E-05
1	158	74.746602811283	1.39114379882813	1.39129638671875	2.850341796875E-06	3.96567020288785E-06	488115.65625	2.72797642537626E-05
1	159	74.8473108110287	1.40121459960938	1.4013671875	2.87139892578125E-06	4.02388423026423E-06	488043.375	2.7567877623369E-05
1	160	74.9480188107744	1.41128540039063	1.41143798828125	2.89642333984375E-06	4.08812184105045E-06	487303.78125	2.78583102044649E-05
1	161	75.0487268105202	1.42135620117188	1.42120361328125	2.92724609375E-06	4.16021248383913E-06	485508.78125	2.81515549431788E-05
1	162	75.1494348102659	1.43142700195313	1.431884765625	2.9644775390625E-06	4.2447900341358E-06	483014.21875	2.84482266579289E-05
1	163	75.2501428100117	1.44149780273438	1.441650390625	3.0108642578125E-06	4.3406134864199E-06	478816.125	2.87491093331482E-05
1	164	75.3508508097574	1.45156860351563	1.45172119140625	3.0694580078125E-06	4.45599698650767E-06	472956.84375	2.90552779915743E-05
1	165	75.4515588095031	1.46163940429688	1.4617919921875	3.14239501953125E-06	4.59352759207832E-06	465184.0625	2.93680695904186E-05
1	166	75.5522668092489	1.47171020507813	1.47186279296875	3.22998046875E-06	4.75408796773991E-06	455687.84375	2.96889429591829E-05
1	167	75.6529748089946	1.48178100585938	1.48193359375	3.3343505859375E-06	4.94128607897437E-06	444444.4375	3.0019484256627E-05
1	168	75.7536828087403	1.49185180664063	1.49169921875	3.4552001953125E-06	5.15411920787301E-06	431725.84375	3.03613651340129E-05
1	169	75.8543908084861	1.50192260742188	1.50177001953125	3.59100341796875E-06	5.39286111234105E-06	418203.4375	3.07161681121215E-05
1	170	75.9550988082318	1.49185180664063	1.49200439453125	3.2513427734375E-06	4.85101736558136E-06	458888.71875	3.10607101710048E-05
1	171	76.0558068079775	1.48178100585938	1.48162841796875	3.00048828125E-06	4.44560873802402E-06	493795.78125	3.13755153911188E-05
1	172	76.1565148077233	1.47171020507813	1.47216796875	2.80181884765625E-06	4.1247476474382E-06	525433	3.16676814691164E-05
1	173	76.257222807469	1.46163940429688	1.46148681640625	2.63946533203125E-06	3.85754356102552E-06	553705.625	3.19416722049937E-05
1	174	76.3579308072148	1.45156860351563	1.45172119140625	2.5048828125E-06	3.63639151146344E-06	579556.5625	3.22007108479738E-05
1	175	76.4586388069605	1.44149780273438	1.44195556640625	2.39105224609375E-06	3.44779118677252E-06	603063.1875	3.24472421198152E-05
1	176	76.5593468067062	1.43142700195313	1.4312744140625	2.294921875E-06	3.28466285282047E-06	623670.25	3.26831977872644E-05
1	177	76.660054806452	1.42135620117188	1.42120361328125	2.2125244140625E-06	3.14444764626387E-06	642344.875	3.291016764706E-05
1	178	76.7607628061977	1.41128540039063	1.41143798828125	2.14141845703125E-06	3.02247940453526E-06	659113.5625	3.31294068018906E-05
1	179	76.8614708059434	1.40121459960938	1.40106201171875	2.08038330078125E-06	2.91474589175778E-06	673463.4375	3.3341992093483E-05
1	180	76.9621788056892	1.39114379882813	1.3909912109375	2.02606201171875E-06	2.81823440673179E-06	686549.1875	3.35487675329205E-05
1	181	77.0628868054349	1.38107299804688	1.38092041015625	1.97845458984375E-06	2.73208820544824E-06	697979.375	3.37504097842611E-05
1	182	77.1635948051807	1.37100219726563	1.37115478515625	1.93634033203125E-06	2.65502239926718E-06	708116.625	3.39475373039022E-05
1	183	77.2643028049264	1.36093139648438	1.36077880859375	1.89849853515625E-06	2.58343652603799E-06	716765.8125	3.4140633943025E-05
1	184	77.3650108046721	1.35086059570313	1.35040283203125	1.86431884765625E-06	2.51758137892466E-06	724341.125	3.4330107155256E-05
1	185	77.4657188044179	1.34078979492188	1.3409423828125	1.8341064453125E-06	2.4594310161774E-06	731114.875	3.45163389283698E-05
1	186	77.5664268041636	1.33071899414063	1.33056640625	1.80511474609375E-06	2.40182498600916E-06	737109.0625	3.46995875588618E-05
1	187	77.6671348039093	1.32064819335938	1.32080078125	1.77947998046875E-06	2.35033849094179E-06	742239.75	3.48800858773757E-05
1	188	77.7678428036551	1.31057739257813	1.3104248046875	1.75537109375E-06	2.30028172154562E-06	746523	3.50580812664703E-05
1	189	77.8685508034008	1.30050659179688	1.3006591796875	1.7327880859375E-06	2.25376675189182E-06	750616.4375	3.52337228832766E-05
1	190	77.9692588031465	1.29043579101563	1.290283203125	1.71112060546875E-06	2.20783022086835E-06	754057.4375	3.54071380570531E-05
1	191	78.0699668028923	1.28036499023438	1.28021240234375	1.69097900390625E-06	2.16481225834286E-06	757083.5625	3.55784468411002E-05
1	192	78.170674802638	1.27029418945313	1.27044677734375	1.67083740234375E-06	2.12270992960839E-06	760365.3125	3.57477292709518E-05
1	193	78.2713828023838	1.26022338867188	1.26007080078125	1.65252685546875E-06	2.08230085263494E-06	762511.5625	3.59150726580992E-05
1	194	78.3720908021295	1.25015258789063	1.24969482421875	1.63482666015625E-06	2.0430343283806E-06	764420.375	3.60806043318007E-05
1	195	78.4727988018752	1.24008178710938	1.23992919921875	1.617431640625E-06	2.00550061890681E-06	766603.8125	3.62443679478019E-05
1	196	78.573506801621	1.23001098632813	1.23077392578125	1.6009521484375E-06	1.97041026694933E-06	768776.1875	3.64064253517427E-05
1	197	78.6742148013667	1.21994018554688	1.21917724609375	1.58538818359375E-06	1.93286928151792E-06	769008.6875	3.65668711310718E-05
1	198	78.7749228011124	1.20986938476563	1.21002197265625	1.56982421875E-06	1.89952186246956E-06	770800.9375	3.67257489415351E-05
1	199	78.8756308008582	1.19979858398438	1.19964599609375	1.5545654296875E-06	1.86492820830608E-06	771692.1875	3.68830733350478E-05
1	200	78.9763388006039	1.18972778320313	1.1895751953125	1.54022216796875E-06	1.8322100459045E-06	772340	3.70389097952284E-05
1	201	79.0770468003496	1.17965698242188	1.17950439453125	1.524658203125E-06	1.79834103164467E-06	773618.9375	3.71932401321828E-05
1	202	79.1777548000954	1.16958618164063	1.16943359375	1.5087890625E-06	1.76442858901282E-06	775080.875	3.73459843103774E-05
1	203	79.2784627998411	1.15951538085938	1.15936279296875	1.49261474609375E-06	1.73048192664282E-06	776732.8125	3.74971168639604E-05
1	204	79.3791707995869	1.14944458007813	1.14990234375	1.4752197265625E-06	1.69635859492701E-06	779478.6875	3.76465613953769E-05
1	205	79.4798787993326	1.13937377929688	1.1395263671875	1.456298828125E-06	1.65949086294859E-06	782481.125	3.77941723854747E-05
1	206	79.5805867990783	1.12930297851563	1.12945556640625	1.43402099609375E-06	1.61966295308957E-06	787614.375	3.79397133656312E-05
1	207	79.6812947988241	1.11923217773438	1.119384765625	1.40777587890625E-06	1.57584281623713E-06	795144.1875	3.80828096240293E-05
1	208	79.7820027985698	1.10916137695313	1.10931396484375	1.37420654296875E-06	1.52442646594864E-06	807239.6875	3.82228936359752E-05
1	209	79.8827107983155	1.09909057617188	1.09893798828125	1.33270263671875E-06	1.46455749927554E-06	824593.5625	3.83591977879405E-05
1	210	79.9834187980613	1.08901977539063	1.0888671875	1.27838134765625E-06	1.39198743909219E-06	851754.625	3.84906743420288E-05
1	211	80.084126797807	1.07894897460938	1.07940673828125	1.207275390625E-06	1.30314106172591E-06	894085	3.86158390028868E-05
1	212	80.1848347975528	1.06887817382813	1.06903076171875	1.1138916015625E-06	1.19078436000564E-06	959726.0625	3.87327163480222E-05
1	213	80.2855427972985	1.05880737304688	1.0589599609375	9.9517822265625E-07	1.05385390725132E-06	1064090.75	3.88389162253588E-05
1	214	80.3862507970442	1.04873657226563	1.04827880859375	8.4686279296875E-07	8.87748285549605E-07	1237837.875	3.89316701330245E-05
1	215	80.48695879679	1.03866577148438	1.03790283203125	6.719970703125E-07	6.97467612553737E-07	1544505	3.90081513614859E-05
1	216	80.5876667965357	1.02859497070313	1.029052734375	4.78515625000001E-07	4.92417825626035E-07	2150510.25	3.90660861739889E-05
1	217	80.6883747962814	1.01852416992188	1.01837158203125	2.79541015625E-07	2.84676616502111E-07	3643013.25	3.91042558476329E-05
1	218	80.7890827960272	1.00845336914063	1.0089111328125	9.42993164062503E-08	9.51396330606258E-08	10699029	3.91230823879596E-05
1	219	80.8897907957729	0.998382568359375	0.99853515625	-5.88989257812506E-08	-5.8812645420403E-08	-16953368	3.91248649975751E-05
1	220	80.9904987955186	0.988311767578125	0.98876953125	-1.69677734375E-07	-1.67772171266733E-07	-5827338	3.91133544326294E-05
1	221	81.0912067952644	0.978240966796875	0.9783935546875	-2.34069824218749E-07	-2.29012400154716E-07	-4179922	3.90930217690766E-05
1	222	81.1919147950101	0.968170166015625	0.96832275390625	-2.5634765625E-07	-2.48227252086508E-07	-3777381	3.9068327168934E-05
1	223	81.2926227947559	0.958099365234375	0.95794677734375	-2.4566650390625E-07	-2.35335420484262E-07	-3899379.25	3.90430504921824E-05
1	224	81.3933307945016	0.948028564453125	0.94818115234375	-2.1331787109375E-07	-2.02263976234462E-07	-4444921.5	3.90199384128209E-05
1	225	81.4940387942473	0.937957763671875	0.9381103515625	-1.67236328125001E-07	-1.56886130753264E-07	-5609489	3.9000777178444E-05
1	226	81.5947467939931	0.927886962890625	0.92803955078125	-1.15356445312501E-07	-1.07055342368767E-07	-8044973.5	3.89865454053506E-05
1	227	81.6954547937388	0.917816162109375	0.91827392578125	-5.950927734375E-08	-5.46458167605124E-08	-15430770	3.89777414966375E-05
1	228	81.7961627934845	0.907745361328125	0.9075927734375	-1.83105468749972E-09	-1.66185198935409E-09	-495666688	3.89746528526302E-05
1	229	81.8968707932303	0.897674560546875	0.89752197265625	5.21850585937497E-08	4.68372363116032E-08	17198830	3.89771885238588E-05
1	230	81.997578792976	0.887603759765625	0.88775634765625	9.82666015624995E-08	8.72367920123907E-08	9034162	3.89847627957352E-05
1	231	82.0982867927218	0.877532958984375	0.8782958984375	1.34887695312499E-07	1.18471298549139E-07	6511312.5	3.89965025533456E-05
1	232	82.1989947924675	0.867462158203125	0.8673095703125	1.6510009765625E-07	1.43192892210209E-07	5253235	3.90116110793315E-05
1	233	82.2997027922132	0.857391357421875	0.858154296875	1.9073486328125E-07	1.63679928277816E-07	4499200.5	3.90295281249564E-05
1	234	82.400410791959	0.847320556640625	0.84747314453125	2.11486816406251E-07	1.79229388663771E-07	4007215.25	3.90497807529755E-05
1	235	82.5011187917047	0.837249755859375	0.83740234375	2.2918701171875E-07	1.9192174249838E-07	3653795	3.90719724236988E-05
1	236	82.6018267914504	0.827178955078125	0.82794189453125	2.43530273437501E-07	2.0162892155895E-07	3399749.25	3.90957757190336E-05
1	237	82.7025347911962	0.817108154296875	0.8172607421875	2.5482177734375E-07	2.08255826805726E-07	3207185.75	3.91208668588661E-05
1	238	82.8032427909419	0.807037353515625	0.80718994140625	2.63366699218751E-07	2.12586954262406E-07	3064890	3.91469620808493E-05
1	239	82.9039507906876	0.796966552734375	0.797119140625	2.67944335937501E-07	2.13583547292728E-07	2974943	3.91737157769967E-05
1	240	83.0046587904334	0.786895751953125	0.78704833984375	2.6702880859375E-07	2.10164586178507E-07	2947428.5	3.92006513720844E-05
1	241	83.1053667901791	0.776824951171875	0.7769775390625	2.5909423828125E-07	2.01310399461363E-07	2998822.25	3.92271431337576E-05
1	242	83.2060747899249	0.766754150390625	0.76690673828125	2.41699218749999E-07	1.85360747195773E-07	3172980	3.92523616028484E-05
1	243	83.3067827896706	0.756683349609375	0.7568359375	2.1240234375E-07	1.60753728550844E-07	3563218.5	3.9275226299651E-05
1	244	83.4074907894163	0.746612548828125	0.746551513671875	1.66931152343749E-07	1.24622701491717E-07	4472212.5	3.9294329326367E-05
1	245	83.5081987891621	0.736541748046875	0.7364501953125	1.007080078125E-07	7.41664294423572E-08	7312727.5	3.93078043998685E-05
1	246	83.6089067889078	0.726470947265625	0.7264404296875	1.12915039062494E-08	8.2026048175976E-09	64335136	3.93134432670195E-05
1	247	83.7096147886535	0.716400146484375	0.71630859375	-1.0223388671875E-07	-7.32310070361564E-08	-7006567.5	3.93088666896801E-05
1	248	83.8103227883993	0.706329345703125	0.70623779296875	-2.3681640625E-07	-1.67248700222444E-07	-2982216.5	3.92917936551385E-05
1	249	83.911030788145	0.696258544921875	0.696197509765625	-3.8482666015625E-07	-2.67915368112881E-07	-1809119.75	3.92604924854822E-05
1	250	84.0117387878907	0.686187744140625	0.686126708984375	-5.3070068359375E-07	-3.64127913599077E-07	-1292869.5	3.92143920180388E-05
1	251	84.1124467876365	0.676116943359375	0.67608642578125	-6.610107421875E-07	-4.46900401129824E-07	-1022807	3.91543835576158E-05
1	252	84.2131547873822	0.666046142578125	0.665985107421875	-7.598876953125E-07	-5.06073888573155E-07	-876425.75	3.90828354284167E-05
1	253	84.313862787128	0.655975341796875	0.65594482421875	-8.21838378906251E-07	-5.39080588168872E-07	-798143.375	3.90031891583931E-05
1	254	84.4145707868737	0.645904541015625	0.645843505859375	-8.4564208984375E-07	-5.46152477909345E-07	-763731.5	3.89192246075254E-05
1	255	84.5152787866194	0.635833740234375	0.635772705078125	-8.392333984375E-07	-5.33561660631676E-07	-757563.625	3.88343833037652E-05
1	256	84.6159867863652	0.625762939453125	0.625762939453125	-8.099365234375E-07	-5.06828257584857E-07	-772607.375	3.87513427995145E-05
1	257	84.7166947861109	0.615692138671875	0.615692138671875	-7.66906738281251E-07	-4.7217844212355E-07	-802825.3125	3.86719402740709E-05
1	258	84.8174027858566	0.605621337890625	0.60552978515625	-7.171630859375E-07	-4.34263597526297E-07	-844340.4375	3.85972125513945E-05
1	259	84.9181107856024	0.595550537109375	0.595550537109375	-6.65893554687499E-07	-3.96573256011834E-07	-894363	3.85275707230903E-05
1	260	85.0188187853481	0.585479736328125	0.58544921875	-6.1676025390625E-07	-3.61081816890874E-07	-949233.0625	3.84629820473492E-05
1	261	85.1195267850939	0.575408935546875	0.57537841796875	-5.694580078125E-07	-3.27653850717979E-07	-1010396.5625	3.84032537112944E-05
1	262	85.2202347848396	0.565338134765625	0.565338134765625	-5.27038574218749E-07	-2.97954983352611E-07	-1072669.5	3.83480401069392E-05
1	263	85.3209427845853	0.555267333984375	0.55523681640625	-4.87670898437501E-07	-2.70772829935595E-07	-1138548.25	3.82969446945935E-05
1	264	85.4216507843311	0.545196533203125	0.545135498046875	-4.52270507812499E-07	-2.46548694349258E-07	-1205330.75	3.82496145903133E-05
1	265	85.5223587840768	0.535125732421875	0.535064697265625	-4.1961669921875E-07	-2.24522082703515E-07	-1275127.25	3.82057114620693E-05
1	266	85.6230667838225	0.525054931640625	0.525115966796875	-3.89709472656249E-07	-2.04642660150967E-07	-1347455	3.81649588234723E-05
1	267	85.7237747835683	0.514984130859375	0.51495361328125	-3.619384765625E-07	-1.86381527100821E-07	-1422765.625	3.81271092919633E-05
1	268	85.824482783314	0.504913330078125	0.504913330078125	-3.35083007812501E-07	-1.69187870824317E-07	-1506830.625	3.80920137104113E-05
1	269	85.9251907830597	0.494842529296875	0.494842529296875	-3.10363769531249E-07	-1.53581183326423E-07	-1594395.375	3.80595120077487E-05
1	270	86.0258987828055	0.484771728515625	0.4847412109375	-2.8839111328125E-07	-1.39795048426095E-07	-1680846.625	3.80293640773743E-05
1	271	86.1266067825512	0.474700927734375	0.47467041015625	-2.67639160156249E-07	-1.27040394204414E-07	-1773546.125	3.80013625544962E-05
1	272	86.227314782297	0.464630126953125	0.464630126953125	-2.49633789062501E-07	-1.15987376148041E-07	-1861247	3.79753182642162E-05
1	273	86.3280227820427	0.454559326171875	0.454620361328125	-2.337646484375E-07	-1.06274164579645E-07	-1944778.125	3.79509765480179E-05
1	274	86.4287307817884	0.444488525390625	0.444488525390625	-2.1942138671875E-07	-9.75302825168001E-08	-2025730.25	3.7928155506961E-05
1	275	86.5294387815342	0.434417724609375	0.4344482421875	-2.056884765625E-07	-8.93609950480823E-08	-2112166.25	3.79067496396601E-05
1	276	86.6301467812799	0.424346923828125	0.424346923828125	-1.93176269531251E-07	-8.19737522306241E-08	-2196682.5	3.7886667996645E-05
1	277	86.7308547810256	0.414276123046875	0.414276123046875	-1.81884765625E-07	-7.53505133843646E-08	-2277684.75	3.78677796106786E-05
1	278	86.8315627807714	0.404205322265625	0.404205322265625	-1.7120361328125E-07	-6.92014126002505E-08	-2360962.5	3.78500008082483E-05
1	279	86.9322707805171	0.394134521484375	0.394134521484375	-1.6143798828125E-07	-6.36282848631708E-08	-2441399	3.78332515538204E-05
1	280	87.0329787802629	0.384063720703125	0.384063720703125	-1.5106201171875E-07	-5.80174379649634E-08	-2542424.25	3.78175172954798E-05
1	281	87.1336867800086	0.373992919921875	0.37396240234375	-1.41296386718751E-07	-5.28395354137956E-08	-2646652.25	3.78027943952475E-05
1	282	87.2343947797543	0.363922119140625	0.36395263671875	-1.324462890625E-07	-4.82041748739448E-08	-2747926.25	3.77890100935474E-05
1	283	87.3351027795001	0.353851318359375	0.353912353515625	-1.22985839843751E-07	-4.35262066389441E-08	-2877667.5	3.77761498384643E-05
1	284	87.4358107792458	0.343780517578125	0.343780517578125	-1.141357421875E-07	-3.92376442448494E-08	-3012032.25	3.77642099920195E-05
1	285	87.5365187789915	0.333709716796875	0.333770751953125	-1.068115234375E-07	-3.56505616139202E-08	-3124857.25	3.77530814148486E-05
1	286	87.6372267787373	0.323638916015625	0.32366943359375	-9.918212890625E-08	-3.21022213256583E-08	-3263384.75	3.77427095372695E-05
1	287	87.737934778483	0.313568115234375	0.313568115234375	-9.21630859374994E-08	-2.88994037589418E-08	-3402318	3.77330761693884E-05
1	288	87.8386427782287	0.303497314453125	0.303466796875	-8.63647460937506E-08	-2.62088324376464E-08	-3513781	3.7724086723756E-05
1	289	87.9393507779745	0.293426513671875	0.293426513671875	-8.05664062500003E-08	-2.36403181474998E-08	-3642045.75	3.77156793547329E-05
1	290	88.0400587777202	0.283355712890625	0.2833251953125	-7.53784179687494E-08	-2.13566053730574E-08	-3758704.5	3.77078285964672E-05
1	291	88.140766777466	0.273284912109375	0.27325439453125	-7.08007812499994E-08	-1.93466238584961E-08	-3859482.75	3.77004653273616E-05
1	292	88.2414747772117	0.263214111328125	0.263275146484375	-6.68334960937503E-08	-1.75955978676257E-08	-3939269.5	3.76935349777341E-05
1	293	88.3421827769574	0.253143310546875	0.25311279296875	-6.28662109374997E-08	-1.59122404141954E-08	-4026214	3.76870048057754E-05
1	294	88.4428907767032	0.243072509765625	0.243133544921875	-5.98144531249997E-08	-1.45429002174069E-08	-4064795.75	3.76808275177609E-05
1	295	88.5435987764489	0.233001708984375	0.2330322265625	-5.73730468750006E-08	-1.33697684034928E-08	-4061702.25	3.76749267161358E-05
1	296	88.6443067761946	0.222930908203125	0.222930908203125	-5.58471679687506E-08	-1.24500596498933E-08	-3991803.25	3.76692260033451E-05
1	297	88.7450147759404	0.212860107421875	0.21295166015625	-5.52368164062497E-08	-1.17627712015178E-08	-3855248.75	3.76636307919398E-05
1	298	88.8457227756861	0.202789306640625	0.202850341796875	-5.4931640625E-08	-1.11429017124465E-08	-3692777.75	3.76580865122378E-05
1	299	88.9464307754318	0.192718505859375	0.1927490234375	-5.58471679687506E-08	-1.07644870794843E-08	-3451366.25	3.76525058527477E-05
1	300	89.0471387751776	0.182647705078125	0.18267822265625	-5.79833984375E-08	-1.05923039228628E-08	-3150526.5	3.76467760361265E-05
1	301	89.1478467749233	0.172576904296875	0.172637939453125	-6.22558593750003E-08	-1.07477227118125E-08	-2773039.25	3.76407188014127E-05
1	302	89.2485547746691	0.162506103515625	0.16253662109375	-6.866455078125E-08	-1.11605036323681E-08	-2367111.25	3.76341267838143E-05
1	303	89.3492627744148	0.152435302734375	0.1524658203125	-7.9345703125E-08	-1.20975078843344E-08	-1921538.5	3.76266762032174E-05
1	304	89.4499707741605	0.142364501953125	0.142425537109375	-9.39941406250006E-08	-1.33871660423779E-08	-1515259.75	3.76179450540803E-05
1	305	89.5506787739063	0.132293701171875	0.13232421875	-1.15051269531249E-07	-1.52240691164707E-08	-1150132.625	3.76074203813914E-05
1	306	89.651386773652	0.122222900390625	0.122222900390625	-1.4495849609375E-07	-1.77172481130583E-08	-843157.9375	3.75943272956647E-05
1	307	89.7520947733977	0.112152099609375	0.112152099609375	-1.87072753906251E-07	-2.09806003681479E-08	-599510.625	3.75776071450673E-05
1	308	89.8528027731435	0.102081298828125	0.1021728515625	-2.4566650390625E-07	-2.51004443896363E-08	-415900.65625	3.75558192899916E-05
1	309	89.9535107728892	0.092010498046875	0.092071533203125	-3.25927734375001E-07	-3.000866399816E-08	-282490.65625	3.75270356016699E-05
1	310	90.054218772635	0.081939697265625	0.08197021484375	-4.351806640625E-07	-3.56718530269973E-08	-188359.046875	3.7488713132916E-05
1	311	90.1549267723807	0.071868896484375	0.071868896484375	-5.77392578124999E-07	-4.14965661832412E-08	-124471.46875	3.74377232219558E-05
1	312	90.2556347721264	0.061798095703125	0.061798095703125	-7.574462890625E-07	-4.68087364424719E-08	-81587.4296875	3.73705115634948E-05
1	313	90.3563427718722	0.051727294921875	0.0517578125	-9.722900390625E-07	-5.03236030624521E-08	-53232.8984375	3.72834110748954E-05
1	314	90.4570507716179	0.041656494140625	0.0417327880859375	-1.21246337890625E-06	-5.05994748323246E-08	-34419.8359375	3.7173398595769E-05
1	315	90.5577587713636	0.031585693359375	0.031695556640625	-1.4605712890625E-06	-4.62936178280415E-08	-21700.79296875	3.70388006558642E-05
1	316	90.6584667711094	0.021514892578125	0.02164306640625	-1.69219970703125E-06	-3.66243924077025E-08	-12789.9013671875	3.68800465366803E-05
1	317	90.7591747708551	0.011444091796875	0.011529541015625	-1.88323974609375E-06	-2.17128892643359E-08	-6122.18408203125	3.6700010241475E-05
1	318	90.8598827706008	0.001373291015625	0.00147705078125	-2.0166015625E-06	-2.97862290388196E-09	-732.445556640625	3.6503635783447E-05
1	319	90.9605907703466	-0.008697509765625	-0.0086181640625	-2.0880126953125E-06	1.79948358436377E-08	4127.4482421875	3.62969549314585E-05
1	320	91.0612987700923	-0.018768310546875	-0.018634033203125	-2.103271484375E-06	3.91924288578593E-08	8859.546875	3.60859048669226E-05
1	321	91.1620067698381	-0.028839111328125	-0.0287322998046875	-2.076416015625E-06	5.96602092173271E-08	13837.44921875	3.58754405169748E-05
1	322	91.2627147695838	-0.038909912109375	-0.038763427734375	-2.02362060546875E-06	7.84424614153068E-08	19155.482421875	3.56689888576511E-05
1	323	91.3634227693295	-0.048980712890625	-0.048846435546875	-1.9580078125E-06	9.56416954522865E-08	24947.0078125	3.54684962076135E-05
1	324	91.4641307690753	-0.059051513671875	-0.059051513671875	-1.8878173828125E-06	1.11478470898874E-07	31280.310546875	3.52748429577332E-05
1	325	91.564838768821	-0.069122314453125	-0.06903076171875	-1.81915283203125E-06	1.25577500398322E-07	37946.65625	3.50881855410989E-05
1	326	91.6655467685667	-0.079193115234375	-0.07916259765625	-1.75689697265625E-06	1.39080526651014E-07	45058.19140625	3.49081165040843E-05
1	327	91.7662547683125	-0.089263916015625	-0.0892333984375	-1.7010498046875E-06	1.51790445102051E-07	52457.83984375	3.47339955624193E-05
1	328	91.8669627680582	-0.099334716796875	-0.099273681640625	-1.65252685546875E-06	1.64052423201611E-07	60073.8671875	3.45651278621517E-05
1	329	91.967670767804	-0.109405517578125	-0.109375	-1.61102294921875E-06	1.7620563141918E-07	67891.6484375	3.44007967214566E-05
1	330	92.0683787675497	-0.119476318359375	-0.119354248046875	-1.57623291015625E-06	1.88130087508398E-07	75721.203125	3.42403036484029E-05
1	331	92.1690867672954	-0.129547119140625	-0.129547119140625	-1.5472412109375E-06	2.00440638309374E-07	83727.8125	3.40830265486147E-05
1	332	92.2697947670412	-0.139617919921875	-0.139495849609375	-1.524658203125E-06	2.12683488598486E-07	91493.1953125	3.3928343327716E-05
1	333	92.3705027667869	-0.149688720703125	-0.14959716796875	-1.50604248046875E-06	2.25299672251822E-07	99331.3125	3.37757337547373E-05
1	334	92.4712107665326	-0.159759521484375	-0.159637451171875	-1.492919921875E-06	2.38325924328819E-07	106929.6875	3.36247248924337E-05
1	335	92.5719187662784	-0.169830322265625	-0.169708251953125	-1.48345947265625E-06	2.51755295721523E-07	114400.3359375	3.3474851079518E-05
1	336	92.6726267660241	-0.179901123046875	-0.17974853515625	-1.47796630859375E-06	2.65662265519495E-07	121618.8359375	3.33257339661941E-05
1	337	92.7733347657698	-0.189971923828125	-0.189788818359375	-1.475830078125E-06	2.8009603170176E-07	128598.0234375	3.3176998840645E-05
1	338	92.8740427655156	-0.200042724609375	-0.199951171875	-1.4776611328125E-06	2.95460068855391E-07	135316	3.3028278267011E-05
1	339	92.9747507652613	-0.189971923828125	-0.189849853515625	-1.30706787109375E-06	2.48146619696854E-07	145248.671875	3.28880560118705E-05
2	340	93.0754587650071	-0.179901123046875	-0.17974853515625	-1.1859130859375E-06	2.13166146068033E-07	151569.734375	3.2762523915153E-05
2	341	93.1761667647528	-0.169830322265625	-0.16973876953125	-1.08856201171875E-06	1.84771167255349E-07	155929.359375	3.26479930663481E-05
2	342	93.2768747644985	-0.159759521484375	-0.159637451171875	-1.00494384765625E-06	1.60426665729574E-07	158852.125	3.25425789924338E-05
2	343	93.3775827642443	-0.149688720703125	-0.1495361328125	-9.320068359375E-07	1.39368694362929E-07	160445.328125	3.24450447806157E-05
2	344	93.47829076399	-0.139617919921875	-0.139495849609375	-8.66088867187501E-07	1.20815798254625E-07	161064.140625	3.23545027640648E-05
2	345	93.5789987637357	-0.129547119140625	-0.129486083984375	-8.074951171875E-07	1.04559376268298E-07	160355.25	3.22702326229773E-05
2	346	93.6797067634815	-0.119476318359375	-0.11944580078125	-7.51953125E-07	8.98176395480732E-08	158847.40625	3.21917068504263E-05
2	347	93.7804147632272	-0.109405517578125	-0.109283447265625	-7.0068359375E-07	7.65731158480776E-08	155966.90625	3.21185616485309E-05
2	348	93.881122762973	-0.099334716796875	-0.0992431640625	-6.4971923828125E-07	6.44801900762104E-08	152747.78125	3.20505641866475E-05
2	349	93.9818307627187	-0.089263916015625	-0.089141845703125	-5.9844970703125E-07	5.33469091124061E-08	148954.625	3.19877144647762E-05
2	350	94.0825387624644	-0.079193115234375	-0.079132080078125	-5.45654296875001E-07	4.31787583465848E-08	145022.375	3.19301034323871E-05
2	351	94.1832467622102	-0.069122314453125	-0.069122314453125	-4.8736572265625E-07	3.36878436257848E-08	141828.4375	3.18780839734245E-05
2	352	94.2839547619559	-0.059051513671875	-0.05902099609375	-4.20227050781249E-07	2.48022189452968E-08	140450.25	3.18323836836498E-05
2	353	94.3846627617016	-0.048980712890625	-0.0488250732421875	-3.4027099609375E-07	1.66137557044976E-08	143488.796875	3.17940903187264E-05
2	354	94.4853707614474	-0.038909912109375	-0.0387542724609375	-2.4078369140625E-07	9.33139698844343E-09	160950.578125	3.17648336931597E-05
2	355	94.5860787611931	-0.028839111328125	-0.0286865234375	-1.1627197265625E-07	3.33543859198926E-09	246719.171875	3.17468548018951E-05
2	356	94.6867867609388	-0.018768310546875	-0.0186553955078125	3.93676757812503E-08	-7.34419525194596E-10	-473876	3.17429803544655E-05
2	357	94.7874947606846	-0.008697509765625	-0.00858459472656251	2.30712890625E-07	-1.98057659162032E-09	-37208.9921875	3.17565791192465E-05
2	358	94.8882027604303	0.001373291015625	0.00150146484374999	4.5654296875E-07	6.85483225737471E-10	3288.77026367188	3.17911872116383E-05
2	359	94.9889107601761	0.011444091796875	0.01153564453125	7.09228515625E-07	8.18140843961146E-09	16265.060546875	3.18498859996907E-05
2	360	95.0896187599218	0.021514892578125	0.021624755859375	9.716796875E-07	2.10123349830837E-08	22255.0234375	3.19345272146165E-05
2	361	95.1903267596675	0.031585693359375	0.0316680908203125	1.21978759765625E-06	3.86283431907941E-08	25961.970703125	3.20448780257721E-05
2	362	95.2910347594133	0.041656494140625	0.041754150390625	1.43096923828125E-06	5.97488991616046E-08	29178.9296875	3.21783518302254E-05
2	363	95.391742759159	0.051727294921875	0.05181884765625	1.585693359375E-06	8.21688033170176E-08	32678.984375	3.23302556353156E-05
2	364	95.4924507589047	0.061798095703125	0.061859130859375	1.678466796875E-06	1.03828497799441E-07	36854.546875	3.249461951782E-05
2	365	95.5931587586505	0.071868896484375	0.071868896484375	1.71234130859375E-06	1.23064083368263E-07	41971.12890625	3.26653571391944E-05
2	366	95.6938667583962	0.081939697265625	0.08197021484375	1.70196533203125E-06	1.39510461849568E-07	48162.09375	3.28372843796387E-05
2	367	95.7945747581419	0.092010498046875	0.092010498046875	1.66046142578125E-06	1.52779875861597E-07	55412.609375	3.30065959133208E-05
2	368	95.8952827578877	0.102081298828125	0.102142333984375	1.602783203125E-06	1.63712016387763E-07	63728.10546875	3.31709125021007E-05
2	369	95.9959907576334	0.112152099609375	0.11212158203125	1.53778076171875E-06	1.72418410215869E-07	72911.296875	3.33290518028662E-05
2	370	96.0966987573792	0.122222900390625	0.122222900390625	1.4727783203125E-06	1.80007234007462E-07	82987.984375	3.34806463797577E-05
2	371	96.1974067571249	0.132293701171875	0.132354736328125	1.41021728515625E-06	1.86648932753997E-07	93854.1484375	3.36258162860759E-05
2	372	96.2981147568706	0.142364501953125	0.142425537109375	1.35345458984375E-06	1.9276649254607E-07	105231.1171875	3.37649762514047E-05
2	373	96.3988227566164	0.152435302734375	0.152435302734375	1.30218505859375E-06	1.98498980807926E-07	117061.1640625	3.38987010763958E-05
2	374	96.4995307563621	0.162506103515625	0.162506103515625	1.256103515625E-06	2.04124475544631E-07	129373.1796875	3.40275182679761E-05
2	375	96.6002387561078	0.172576904296875	0.17266845703125	1.2158203125E-06	2.09933801897932E-07	142018.078125	3.41519917128608E-05
2	376	96.7009467558536	0.182647705078125	0.1826171875	1.1798095703125E-06	2.15453496821283E-07	154785.3125	3.42726198141463E-05
2	377	96.8016547555993	0.192718505859375	0.192718505859375	1.1480712890625E-06	2.21254580878849E-07	167862.84375	3.43898391292896E-05
2	378	96.9023627553451	0.202789306640625	0.202789306640625	1.1199951171875E-06	2.27123024387765E-07	181062.671875	3.45040461979806E-05
2	379	97.0030707550908	0.212860107421875	0.212921142578125	1.09527587890625E-06	2.3320737341237E-07	194399.5625	3.46155939041637E-05
2	380	97.1037787548365	0.222930908203125	0.22296142578125	1.072998046875E-06	2.39237152754868E-07	207792.953125	3.47247732861433E-05
2	381	97.2044867545823	0.233001708984375	0.233001708984375	1.053466796875E-06	2.45459574443885E-07	221176.125	3.48318499163724E-05
2	382	97.305194754328	0.243072509765625	0.243011474609375	1.03607177734375E-06	2.51777350968041E-07	234550.796875	3.49370675394312E-05
2	383	97.4059027540737	0.253143310546875	0.25323486328125	1.02020263671875E-06	2.58350866033652E-07	248220.171875	3.50406080542598E-05
2	384	97.5066107538195	0.263214111328125	0.263214111328125	1.00616455078125E-06	2.6483670012567E-07	261601.453125	3.51426424458623E-05
2	385	97.6073187535652	0.273284912109375	0.27325439453125	9.9334716796875E-07	2.71436476850795E-07	275084.5	3.52433271473274E-05
2	386	97.7080267533109	0.283355712890625	0.283355712890625	9.814453125E-07	2.7809812763735E-07	288712.6875	3.53427676600404E-05
2	387	97.8087347530567	0.293426513671875	0.29339599609375	9.716796875E-07	2.85086940721158E-07	301947.21875	3.54411131411325E-05
2	388	97.9094427528024	0.303497314453125	0.303497314453125	9.619140625E-07	2.9193830641816E-07	315513.96875	3.55384763679467E-05
2	389	98.0101507525482	0.313568115234375	0.313568115234375	9.5367431640625E-07	2.99041857942939E-07	328800	3.56349337380379E-05
2	390	98.1108587522939	0.323638916015625	0.323699951171875	9.46655273437499E-07	3.06432241359289E-07	341940.6875	3.57306234946009E-05
2	391	98.2115667520396	0.333709716796875	0.333770751953125	9.4024658203125E-07	3.13826802766926E-07	354982.15625	3.58256365871057E-05
2	392	98.3122747517854	0.343780517578125	0.343780517578125	9.3505859375E-07	3.21454905360952E-07	367656.6875	3.59200676030014E-05
2	393	98.4129827515311	0.353851318359375	0.353912353515625	9.30175781250001E-07	3.29200702253729E-07	380479	3.60139893018641E-05
2	394	98.5136907512768	0.363922119140625	0.363922119140625	9.26513671875E-07	3.37178789777681E-07	392786.59375	3.61074817192275E-05
2	395	98.6143987510226	0.373992919921875	0.37396240234375	9.234619140625E-07	3.45340026797203E-07	404957.0625	3.62006358045619E-05
2	396	98.7151067507683	0.384063720703125	0.384063720703125	9.21020507812501E-07	3.53730570168409E-07	416998	3.62935097655281E-05
2	397	98.8158147505141	0.394134521484375	0.39410400390625	9.197998046875E-07	3.62496791694866E-07	428467.15625	3.63862054655328E-05
2	398	98.9165227502598	0.404205322265625	0.4041748046875	9.19189453124999E-07	3.71513209529439E-07	439707.84375	3.64788029401097E-05
2	399	99.0172307500055	0.414276123046875	0.41424560546875	9.185791015625E-07	3.80517349185538E-07	450963.46875	3.65713422070257E-05
2	400	99.1179387497513	0.424346923828125	0.424285888671875	9.197998046875E-07	3.90258065863236E-07	461280.6875	3.6663914215751E-05
2	401	99.218646749497	0.434417724609375	0.43438720703125	9.19494628906251E-07	3.99416677510089E-07	472419.53125	3.67565298802219E-05
2	402	99.3193547492427	0.444488525390625	0.444549560546875	9.197998046875E-07	4.08896596582053E-07	483311.21875	3.68491455446929E-05
2	403	99.4200627489885	0.454559326171875	0.45452880859375	9.2041015625E-07	4.1835292563519E-07	493832.90625	3.69418085028883E-05
2	404	99.5207707487342	0.464630126953125	0.464630126953125	9.22241210937499E-07	4.28501039095863E-07	503805.4375	3.70345915143844E-05
2	405	99.6214787484799	0.474700927734375	0.474609375	9.2376708984375E-07	4.38428514826228E-07	513776.03125	3.71275455108844E-05
2	406	99.7221867482257	0.484771728515625	0.48468017578125	9.259033203125E-07	4.48766968474956E-07	523467.375	3.72206850443035E-05
2	407	99.8228947479714	0.494842529296875	0.49481201171875	9.28649902343751E-07	4.59507106143064E-07	532829.5	3.73140683223028E-05
2	408	99.9236027477172	0.504913330078125	0.5048828125	9.326171875E-07	4.70862374868375E-07	541361.25	3.74077899323311E-05
2	409	100.024310747463	0.514984130859375	0.5150146484375	9.36279296875001E-07	4.82197549445118E-07	550065.1875	3.75018971681129E-05
2	410	100.125018747209	0.525054931640625	0.5250244140625	9.417724609375E-07	4.94453502142278E-07	557485.4375	3.75964627892245E-05
2	411	100.225726746954	0.535125732421875	0.535125732421875	9.478759765625E-07	5.07232812196889E-07	564552.5	3.76916141249239E-05
2	412	100.3264347467	0.545196533203125	0.545166015625	9.5489501953125E-07	5.20576293183694E-07	570917.25	3.77874275727663E-05
2	413	100.427142746446	0.555267333984375	0.5552978515625	9.6405029296875E-07	5.35335061613296E-07	576005.0625	3.78840522898827E-05
2	414	100.527850746192	0.565338134765625	0.5653076171875	9.7503662109375E-07	5.51195626030676E-07	579780.875	3.7981695641065E-05
2	415	100.628558745937	0.575408935546875	0.575439453125	9.89685058593751E-07	5.69503811220784E-07	581436.9375	3.80806268367451E-05
2	416	100.729266745683	0.585479736328125	0.585418701171875	1.00738525390625E-06	5.89742114698311E-07	581126.9375	3.81811878469307E-05
2	417	100.829974745429	0.595550537109375	0.595550537109375	1.03118896484375E-06	6.14125156062073E-07	577537.75	3.82838370569516E-05
2	418	100.930682745175	0.605621337890625	0.605560302734375	1.06292724609375E-06	6.43666567157197E-07	569710	3.83892838726752E-05
2	419	101.03139074492	0.615692138671875	0.615692138671875	1.10565185546875E-06	6.80741095493431E-07	556859	3.84984814445488E-05
2	420	101.132098744666	0.625762939453125	0.625732421875	1.1627197265625E-06	7.27551423551631E-07	538162.75	3.86127030651551E-05
2	421	101.232806744412	0.635833740234375	0.635772705078125	1.23809814453125E-06	7.87148962899664E-07	513507.53125	3.87335931009147E-05
2	422	101.333514744157	0.645904541015625	0.645904541015625	1.33575439453125E-06	8.62769809373276E-07	483550.375	3.88631960959174E-05
2	423	101.434222743903	0.655975341796875	0.65594482421875	1.4556884765625E-06	9.54851316237182E-07	450607.96875	3.9003756683087E-05
2	424	101.534930743649	0.666046142578125	0.665985107421875	1.593017578125E-06	1.06092591067863E-06	418065.15625	3.91572721127886E-05
2	425	101.635638743395	0.676116943359375	0.67608642578125	1.73980712890625E-06	1.176259956992E-06	388598.5	3.93250920751598E-05
2	426	101.73634674314	0.686187744140625	0.686126708984375	1.884765625E-06	1.29318800645706E-06	364038.21875	3.95076058339328E-05
2	427	101.837054742886	0.696258544921875	0.696197509765625	2.01080322265625E-06	1.39991618652857E-06	346228.5625	3.97037620132323E-05
2	428	101.937762742632	0.706329345703125	0.706298828125	2.108154296875E-06	1.48898675433884E-06	335031.875	3.99111668230034E-05
2	429	102.038470742378	0.716400146484375	0.71624755859375	2.169189453125E-06	1.55367661136552E-06	330191.34375	4.01265497202985E-05
2	430	102.139178742123	0.726470947265625	0.72637939453125	2.19635009765625E-06	1.59538342359156E-06	330721.125	4.03463709517382E-05
2	431	102.239886741869	0.736541748046875	0.7364501953125	2.193603515625E-06	1.61547973220877E-06	335726.21875	4.05674254579935E-05
2	432	102.340594741615	0.746612548828125	0.74652099609375	2.1710205078125E-06	1.62071239628858E-06	343857.1875	4.07871993957087E-05
2	433	102.441302741361	0.756683349609375	0.7568359375	2.13653564453125E-06	1.61700688749988E-06	354235.125	4.10041029681452E-05
2	434	102.542010741106	0.766754150390625	0.76751708984375	2.09625244140625E-06	1.60890965617E-06	366137.71875	4.12172412325162E-05
2	435	102.642718740852	0.776824951171875	0.7769775390625	2.0550537109375E-06	1.59673061261856E-06	378081.375	4.14262758567929E-05
2	436	102.743426740598	0.786895751953125	0.7867431640625	2.015380859375E-06	1.58558714247192E-06	390369.46875	4.16312395827845E-05
2	437	102.844134740344	0.796966552734375	0.797119140625	1.97845458984375E-06	1.5770639265611E-06	402899.90625	4.18323434132617E-05
2	438	102.944842740089	0.807037353515625	0.80718994140625	1.94610595703125E-06	1.57087708885228E-06	414771.875	4.20299620600417E-05
2	439	103.045550739835	0.817108154296875	0.81695556640625	1.9171142578125E-06	1.56619705649064E-06	426138.21875	4.22244884248357E-05
2	440	103.146258739581	0.827178955078125	0.8270263671875	1.8927001953125E-06	1.56531291395368E-06	436955.8125	4.24163299612701E-05
2	441	103.246966739326	0.837249755859375	0.83740234375	1.87164306640625E-06	1.56731823608425E-06	447415.625	4.2605879571056E-05
2	442	103.347674739072	0.847320556640625	0.8477783203125	1.854248046875E-06	1.57199121986196E-06	457208.6875	4.27934937761165E-05
2	443	103.448382738818	0.857391357421875	0.8575439453125	1.83929443359375E-06	1.57727583882661E-06	466235.28125	4.29794781666715E-05
2	444	103.549090738564	0.867462158203125	0.86761474609375	1.82769775390625E-06	1.58573743647139E-06	474703.625	4.31641237810254E-05
2	445	103.649798738309	0.877532958984375	0.877685546875	1.81976318359375E-06	1.5971797893144E-06	482307.5625	4.33477871411014E-05
2	446	103.750506738055	0.887603759765625	0.887451171875	1.815185546875E-06	1.61088860295422E-06	488903.84375	4.35308247688226E-05
2	447	103.851214737801	0.897674560546875	0.89752197265625	1.81549072265625E-06	1.62944274961774E-06	494368.8125	4.37136404798366E-05
2	448	103.951922737547	0.907745361328125	0.908203125	1.8212890625E-06	1.65410040153802E-06	498659.53125	4.3896769057028E-05
2	449	104.052630737292	0.917816162109375	0.91796875	1.834716796875E-06	1.68421263424534E-06	500332.6875	4.40808616986033E-05
2	450	104.153338737038	0.927886962890625	0.92803955078125	1.8585205078125E-06	1.72478053173108E-06	499343.1875	4.4266831537243E-05
2	451	104.254046736784	0.937957763671875	0.93841552734375	1.895751953125E-06	1.77900301423506E-06	495009.6875	4.44558754679747E-05
2	452	104.35475473653	0.948028564453125	0.9478759765625	1.94976806640625E-06	1.84813814030349E-06	486148.09375	4.4649510527961E-05
2	453	104.455462736275	0.958099365234375	0.958251953125	2.0245361328125E-06	1.9400156361371E-06	473319.28125	4.48496357421391E-05
2	454	104.556170736021	0.968170166015625	0.96832275390625	2.1246337890625E-06	2.05733113034512E-06	455759.84375	4.50585612270515E-05
2	455	104.656878735767	0.978240966796875	0.97869873046875	2.25311279296875E-06	2.20511856241501E-06	434376.25	4.52789972769096E-05
2	456	104.757586735513	0.988311767578125	0.98846435546875	2.40753173828125E-06	2.3797592803021E-06	410571.71875	4.55136796517763E-05
2	457	104.858294735258	0.998382568359375	0.99822998046875	2.5799560546875E-06	2.5753893169167E-06	386917.46875	4.57648202427663E-05
2	458	104.959002735004	1.00845336914063	1.0089111328125	2.75848388671875E-06	2.78306492873526E-06	365748.4375	4.60336341348011E-05
2	459	105.05971073475	1.01852416992188	1.0186767578125	2.9278564453125E-06	2.98253917208058E-06	347925.8125	4.63199612568133E-05
2	460	105.160418734495	1.02859497070313	1.0284423828125	3.06915283203125E-06	3.15644683723804E-06	335090	4.66219353256747E-05
2	461	105.261126734241	1.03866577148438	1.03851318359375	3.170166015625E-06	3.29225895256968E-06	327589.53125	4.69361111754552E-05
2	462	105.361834733987	1.04873657226563	1.04827880859375	3.22540283203125E-06	3.38112135978008E-06	325007.125	4.72581523354165E-05
2	463	105.462542733733	1.05880737304688	1.0589599609375	3.23974609375E-06	3.43076135322917E-06	326865.09375	4.75837005069479E-05
2	464	105.563250733478	1.06887817382813	1.0687255859375	3.2196044921875E-06	3.44087357007083E-06	331943.125	4.7908954002196E-05
2	465	105.663958733224	1.07894897460938	1.07879638671875	3.1781005859375E-06	3.42852331414178E-06	339446.90625	4.82311043015216E-05
2	466	105.76466673297	1.08901977539063	1.0888671875	3.12408447265625E-06	3.40171277457557E-06	348539.625	4.85484451928642E-05
2	467	105.865374732716	1.09909057617188	1.0992431640625	3.06549072265625E-06	3.36971947945131E-06	358586.375	4.88601144752465E-05
2	468	105.966082732461	1.10916137695313	1.109619140625	3.0059814453125E-06	3.33549451170256E-06	369137.0625	4.91658356622793E-05
2	469	106.066790732207	1.11923217773438	1.1187744140625	2.94891357421875E-06	3.29916906594008E-06	379385.28125	4.94656887894962E-05
2	470	106.167498731953	1.12930297851563	1.12945556640625	2.8973388671875E-06	3.2724155971664E-06	389825.15625	4.97600703965873E-05
2	471	106.268206731699	1.13937377929688	1.13922119140625	2.85003662109375E-06	3.24682196151116E-06	399721.625	5.00494752486702E-05
2	472	106.368914731444	1.14944458007813	1.14898681640625	2.8076171875E-06	3.22591517942783E-06	409239.125	5.03343617310748E-05
2	473	106.46962273119	1.15951538085938	1.15936279296875	2.769775390625E-06	3.21117454404884E-06	418576.46875	5.06152027810458E-05
2	474	106.570330730936	1.16958618164063	1.16973876953125	2.73651123046875E-06	3.20100321005157E-06	427456.25	5.08924676978495E-05
2	475	106.671038730682	1.17965698242188	1.17919921875	2.70660400390625E-06	3.19162518280791E-06	435674.84375	5.1166549383197E-05
2	476	106.771746730427	1.18972778320313	1.18988037109375	2.68096923828125E-06	3.19003265758511E-06	443824.71875	5.14378371008206E-05
2	477	106.872454730173	1.19979858398438	1.199951171875	2.657470703125E-06	3.18883485306287E-06	451538.84375	5.17066473548766E-05
2	478	106.973162729919	1.20986938476563	1.209716796875	2.63702392578125E-06	3.19005221172119E-06	458743.1875	5.19732457178179E-05
2	479	107.073870729664	1.21994018554688	1.219482421875	2.61993408203125E-06	3.19496348311077E-06	465463	5.22379559697583E-05
2	480	107.17457872941	1.23001098632813	1.23046875	2.60498046875E-06	3.20534695674723E-06	472352.40625	5.25010509591084E-05
2	481	107.275286729156	1.24008178710938	1.240234375	2.59063720703125E-06	3.21299739880487E-06	478737.1875	5.27626725670416E-05
2	482	107.375994728902	1.25015258789063	1.2506103515625	2.57904052734375E-06	3.2253747122013E-06	484913.03125	5.30229845026042E-05
2	483	107.476702728647	1.26022338867188	1.259765625	2.5689697265625E-06	3.236299562559E-06	490377.78125	5.32822086825036E-05
2	484	107.577410728393	1.27029418945313	1.2701416015625	2.559814453125E-06	3.25132691614272E-06	496185.03125	5.35404615220614E-05
2	485	107.678118728139	1.28036499023438	1.28021240234375	2.55340576171875E-06	3.26890153701243E-06	501374.46875	5.37979321961757E-05
2	486	107.778826727885	1.29043579101563	1.29058837890625	2.54791259765625E-06	3.28830628859578E-06	506527.71875	5.40548062417656E-05
2	487	107.87953472763	1.30050659179688	1.30035400390625	2.54425048828125E-06	3.30842635776207E-06	511095.125	5.43112146260682E-05
2	488	107.980242727376	1.31057739257813	1.31072998046875	2.54241943359375E-06	3.33242542183143E-06	515544.34375	5.45673501619603E-05
2	489	108.080950727122	1.32064819335938	1.32080078125	2.54180908203125E-06	3.35722324962262E-06	519630.21875	5.4823362006573E-05
2	490	108.181658726868	1.33071899414063	1.33056640625	2.5433349609375E-06	3.38407585331879E-06	523158.15625	5.50794175069313E-05
2	491	108.282366726613	1.34078979492188	1.3409423828125	2.54730224609375E-06	3.4157853860961E-06	526416.6875	5.53357531316578E-05
2	492	108.383074726359	1.35086059570313	1.3507080078125	2.552490234375E-06	3.44766885973513E-06	529172.6875	5.5592547141714E-05
2	493	108.483782726105	1.36093139648438	1.36077880859375	2.56134033203125E-06	3.48541766470589E-06	531276.0625	5.58500505576376E-05
2	494	108.584490725851	1.37100219726563	1.370849609375	2.572021484375E-06	3.52585470864142E-06	532985.3125	5.61085362278391E-05
2	495	108.685198725596	1.38107299804688	1.38153076171875	2.58544921875E-06	3.57187764166156E-06	534348.4375	5.63682333449833E-05
2	496	108.785906725342	1.39114379882813	1.3909912109375	2.6031494140625E-06	3.62095784112171E-06	534349.375	5.66295020689722E-05
2	497	108.886614725088	1.40121459960938	1.4013671875	2.62420654296875E-06	3.67747679774766E-06	534015.625	5.68927207496017E-05
2	498	108.987322724833	1.41128540039063	1.41204833984375	2.64984130859375E-06	3.74170394934481E-06	532880.375	5.71582895645406E-05
2	499	109.088030724579	1.42135620117188	1.42120361328125	2.6812744140625E-06	3.81063659915526E-06	530047.8125	5.74267323827371E-05
2	500	109.188738724325	1.43142700195313	1.431884765625	2.7191162109375E-06	3.89346087104059E-06	526599.375	5.76986640226096E-05
2	501	109.289446724071	1.44149780273438	1.44134521484375	2.76458740234375E-06	3.98472502638469E-06	521359.96875	5.79747902520467E-05
2	502	109.390154723816	1.45156860351563	1.45172119140625	2.821044921875E-06	4.09537051382358E-06	514604.09375	5.82560496695805E-05
2	503	109.490862723562	1.46163940429688	1.46087646484375	2.889404296875E-06	4.2210626816086E-06	505597.8125	5.85435918765143E-05
2	504	109.591570723308	1.47171020507813	1.4715576171875	2.97332763671875E-06	4.3754230318882E-06	494919.4375	5.88388029427733E-05
2	505	109.692278723054	1.48178100585938	1.4813232421875	3.07281494140625E-06	4.55183226222289E-06	482073.6875	5.91432508372236E-05
2	506	109.792986722799	1.49185180664063	1.49200439453125	3.1884765625E-06	4.75722117698751E-06	467936.46875	5.94585326325614E-05
2	507	109.893694722545	1.50192260742188	1.50177001953125	3.319091796875E-06	4.98451254316024E-06	452464.15625	5.97862162976526E-05
2	508	109.994402722291	1.49185180664063	1.49139404296875	3.00445556640625E-06	4.48082710136077E-06	496394.125	6.01046303927433E-05
2	509	110.095110722037	1.48178100585938	1.48162841796875	2.77313232421875E-06	4.10875145462342E-06	534279.75	6.03955559199676E-05
2	510	110.195818721782	1.47171020507813	1.47125244140625	2.59124755859375E-06	3.81237919100386E-06	567777.6875	6.06656722084153E-05
2	511	110.296526721528	1.46163940429688	1.46148681640625	2.44232177734375E-06	3.56942109647207E-06	598400.5625	6.09191338298842E-05
2	512	110.397234721274	1.45156860351563	1.45172119140625	2.32025146484375E-06	3.36835819325643E-06	625674.0625	6.11589493928477E-05
2	513	110.49794272102	1.44149780273438	1.4410400390625	2.21710205078125E-06	3.19493278766458E-06	649965.5625	6.13874217378907E-05
2	514	110.598650720765	1.43142700195313	1.431884765625	2.130126953125E-06	3.0500962111546E-06	672206.3125	6.1606326198671E-05
2	515	110.699358720511	1.42135620117188	1.42120361328125	2.0562744140625E-06	2.92238451038429E-06	691154.6875	6.18171252426691E-05
2	516	110.800066720257	1.41128540039063	1.41143798828125	1.99310302734375E-06	2.81314146377554E-06	708161.0625	6.2021026678849E-05
2	517	110.900774720002	1.40121459960938	1.40106201171875	1.93817138671875E-06	2.71549833996687E-06	722878.25	6.22189836576581E-05
2	518	111.001482719748	1.39114379882813	1.3909912109375	1.89117431640625E-06	2.63060678662441E-06	735517.1875	6.24118038103916E-05
2	519	111.102190719494	1.38107299804688	1.38092041015625	1.85028076171875E-06	2.55509030466783E-06	746330.25	6.26002001808956E-05
2	520	111.20289871924	1.37100219726563	1.37115478515625	1.81396484375E-06	2.48722653850564E-06	755888.3125	6.27847111900337E-05
2	521	111.303606718985	1.36093139648438	1.361083984375	1.7822265625E-06	2.42575993070204E-06	763698.6875	6.29657952231355E-05
2	522	111.404314718731	1.35086059570313	1.35101318359375	1.75384521484375E-06	2.36946789300418E-06	770315	6.31438524578698E-05
2	523	111.505022718477	1.34078979492188	1.3409423828125	1.728515625E-06	2.31783974413702E-06	775776.875	6.33192030363716E-05
2	524	111.605730718223	1.33071899414063	1.33056640625	1.705322265625E-06	2.2690444438922E-06	780243.375	6.34921088931151E-05
2	525	111.706438717968	1.32064819335938	1.32049560546875	1.68426513671875E-06	2.22406470129499E-06	784018.875	6.36627883068286E-05
2	526	111.807146717714	1.31057739257813	1.31072998046875	1.66473388671875E-06	2.18201648749528E-06	787351.0625	6.38314231764525E-05
2	527	111.90785471746	1.30050659179688	1.3006591796875	1.646728515625E-06	2.14183251046052E-06	789844.3125	6.39981662970968E-05
2	528	112.008562717206	1.29043579101563	1.2896728515625	1.62841796875E-06	2.10012649404234E-06	791979	6.41630831523798E-05
2	529	112.109270716951	1.28036499023438	1.28082275390625	1.61224365234375E-06	2.06499839805474E-06	794435	6.43262683297507E-05
2	530	112.209978716697	1.27029418945313	1.2701416015625	1.59637451171875E-06	2.027621576417E-06	795641.4375	6.44878309685737E-05
2	531	112.310686716443	1.26022338867188	1.2603759765625	1.580810546875E-06	1.99241549125873E-06	797297.3125	6.46478147245944E-05
2	532	112.411394716189	1.25015258789063	1.25030517578125	1.566162109375E-06	1.95818051906826E-06	798324.25	6.48062778054737E-05
2	533	112.512102715934	1.24008178710938	1.240234375	1.55242919921875E-06	1.92537595467002E-06	798899.1875	6.49633147986606E-05
2	534	112.61281071568	1.23001098632813	1.22955322265625	1.5386962890625E-06	1.89190893706837E-06	799087.6875	6.51189620839432E-05
2	535	112.713518715426	1.21994018554688	1.22039794921875	1.52557373046875E-06	1.86180693617644E-06	799960	6.52732633170672E-05
2	536	112.814226715171	1.20986938476563	1.209716796875	1.51275634765625E-06	1.83000668130262E-06	799677.25	6.54262548778206E-05
2	537	112.914934714917	1.19979858398438	1.19964599609375	1.4996337890625E-06	1.79902963282075E-06	799959.3125	6.55779367662035E-05
2	538	113.015642714663	1.18972778320313	1.1895751953125	1.48681640625E-06	1.76867990830942E-06	800082.125	6.57283162581734E-05
2	539	113.116350714409	1.17965698242188	1.1798095703125	1.47369384765625E-06	1.73867806552153E-06	800579.8125	6.58773933537304E-05
2	540	113.217058714154	1.16958618164063	1.16973876953125	1.45965576171875E-06	1.70741600413749E-06	801379.875	6.60250952932984E-05
2	541	113.3177667139	1.15951538085938	1.15966796875	1.4453125E-06	1.67608254741936E-06	802364.875	6.61713784211315E-05
2	542	113.418474713646	1.14944458007813	1.1492919921875	1.42974853515625E-06	1.64319851592154E-06	803842.0625	6.63161481497809E-05
2	543	113.519182713392	1.13937377929688	1.1395263671875	1.4117431640625E-06	1.60871854859579E-06	807176.8125	6.64592225803062E-05
2	544	113.619890713137	1.12930297851563	1.12945556640625	1.3909912109375E-06	1.57106273945828E-06	811978.9375	6.66003543301485E-05
2	545	113.720598712883	1.11923217773438	1.1187744140625	1.36566162109375E-06	1.52786719809228E-06	819217.9375	6.67391650495119E-05
2	546	113.821306712629	1.10916137695313	1.10931396484375	1.33392333984375E-06	1.47973969433224E-06	831617.5625	6.68751017656177E-05
2	547	113.922014712375	1.09909057617188	1.09893798828125	1.29364013671875E-06	1.42163025884656E-06	849492.8125	6.7007407778874E-05
2	548	114.02272271212	1.08901977539063	1.0888671875	1.24053955078125E-06	1.35078278162837E-06	877736.8125	6.71350135235116E-05
2	549	114.123430711866	1.07894897460938	1.0791015625	1.170654296875E-06	1.26325483051914E-06	921793.5625	6.72564274282195E-05
2	550	114.224138711612	1.06887817382813	1.06903076171875	1.07940673828125E-06	1.15391901545081E-06	990387.3125	6.73697286401875E-05
2	551	114.324846711358	1.05880737304688	1.05926513671875	9.6221923828125E-07	1.01924524642527E-06	1100856.375	6.74725306453183E-05
2	552	114.425554711103	1.04873657226563	1.04827880859375	8.160400390625E-07	8.55437463087583E-07	1284592.375	6.75620685797185E-05
2	553	114.526262710849	1.03866577148438	1.03851318359375	6.4361572265625E-07	6.68403401959949E-07	1613561	6.7635570303537E-05
2	554	114.626970710595	1.02859497070313	1.02874755859375	4.52270507812499E-07	4.65272165683928E-07	2274629	6.76907511660829E-05
2	555	114.72767871034	1.01852416992188	1.0186767578125	2.5634765625E-07	2.61135397749968E-07	3973809.75	6.77264324622229E-05
2	556	114.828386710086	1.00845336914063	1.0089111328125	7.20214843749997E-08	7.26632762848567E-08	14008474	6.77429707138799E-05
2	557	114.929094709832	0.998382568359375	0.99853515625	-8.23974609375E-08	-8.22767560748616E-08	-12118519	6.77424468449317E-05
2	558	115.029802709578	0.988311767578125	0.9881591796875	-1.93176269531251E-07	-1.90888897577679E-07	-5115324	6.77285715937614E-05
2	559	115.130510709323	0.978240966796875	0.97808837890625	-2.5970458984375E-07	-2.54014054235085E-07	-3766157.5	6.77057687425986E-05
2	560	115.231218709069	0.968170166015625	0.96832275390625	-2.84423828124999E-07	-2.7541406666387E-07	-3404506.25	6.76783674862236E-05
2	561	115.331926708815	0.958099365234375	0.958251953125	-2.7801513671875E-07	-2.66408534344009E-07	-3446761.75	6.76500494591892E-05
2	562	115.432634708561	0.948028564453125	0.94818115234375	-2.4871826171875E-07	-2.35829972439205E-07	-3812270	6.76235213177279E-05
2	563	115.533342708306	0.937957763671875	0.9381103515625	-2.06298828125E-07	-1.93531064951458E-07	-4547337.5	6.76006093272008E-05
2	564	115.634050708052	0.927886962890625	0.927734375	-1.5716552734375E-07	-1.45807860008063E-07	-5902912.5	6.75823102938011E-05
2	565	115.734758707798	0.917816162109375	0.91796875	-1.03149414062501E-07	-9.46879339380757E-08	-8899409	6.75691990181804E-05
2	566	115.835466707544	0.907745361328125	0.9075927734375	-4.82177734375006E-08	-4.37620997217891E-08	-18822786	6.75615810905583E-05
2	567	115.936174707289	0.897674560546875	0.8978271484375	2.44140625000056E-09	2.1919608350629E-09	367750016	6.75592746119946E-05
2	568	116.036882707035	0.887603759765625	0.88775634765625	4.66918945312506E-08	4.14510274993063E-08	19013072	6.75617484375834E-05
2	569	116.137590706781	0.877532958984375	0.877685546875	8.30078124999995E-08	7.28547604467167E-08	10573529	6.7568282247521E-05
2	570	116.238298706527	0.867462158203125	0.867919921875	1.13830566406251E-07	9.87958159726077E-08	7624665	6.75781921017915E-05
2	571	116.339006706272	0.857391357421875	0.8575439453125	1.39465332031249E-07	1.19597643788438E-07	6148796.5	6.75909468554892E-05
2	572	116.439714706018	0.847320556640625	0.84747314453125	1.61132812500001E-07	1.36555726726328E-07	5259470	6.76060808473267E-05
2	573	116.540422705764	0.837249755859375	0.8380126953125	1.79443359375001E-07	1.50375811358572E-07	4670068	6.76232302794233E-05
2	574	116.641130705509	0.827178955078125	0.82763671875	1.94702148437501E-07	1.61142637011835E-07	4250784	6.7642075009644E-05
2	575	116.741838705255	0.817108154296875	0.81756591796875	2.0751953125E-07	1.69660893334367E-07	3939706	6.76623239996843E-05
2	576	116.842546705001	0.807037353515625	0.80718994140625	2.166748046875E-07	1.74897721194611E-07	3725352	6.76836862112395E-05
2	577	116.943254704747	0.796966552734375	0.79620361328125	2.2125244140625E-07	1.76161989884349E-07	3598620.75	6.77057396387681E-05
2	578	117.043962704492	0.786895751953125	0.78704833984375	2.20947265625E-07	1.73896168575993E-07	3562154.75	6.77280040690675E-05
2	579	117.144670704238	0.776824951171875	0.7763671875	2.1331787109375E-07	1.6561298821216E-07	3639485.25	6.77498683216982E-05
2	580	117.245378703984	0.766754150390625	0.76690673828125	1.96533203125E-07	1.50722627267896E-07	3902174	6.77705102134496E-05
2	581	117.34608670373	0.756683349609375	0.7568359375	1.6815185546875E-07	1.27263362514896E-07	4500907.5	6.77888747304678E-05
2	582	117.446794703475	0.746612548828125	0.74652099609375	1.220703125E-07	9.11280437776441E-08	6115500.5	6.78034848533571E-05
2	583	117.547502703221	0.736541748046875	0.736419677734375	5.67626953124997E-08	4.18011651959205E-08	12973656	6.78124924888834E-05
2	584	117.648210702967	0.726470947265625	0.7264404296875	-3.23486328124997E-08	-2.34993535741523E-08	-22456606	6.78137221257202E-05
2	585	117.748918702713	0.716400146484375	0.71624755859375	-1.4495849609375E-07	-1.03826167219268E-07	-4941053	6.78047945257276E-05
2	586	117.849626702458	0.706329345703125	0.706298828125	-2.78320312499999E-07	-1.96577303768208E-07	-2537719.5	6.77834759699181E-05
2	587	117.950334702204	0.696258544921875	0.6961669921875	-4.2572021484375E-07	-2.96372348884688E-07	-1635268.875	6.77480275044218E-05
2	588	118.05104270195	0.686187744140625	0.6861572265625	-5.718994140625E-07	-3.92412914607121E-07	-1199786.5	6.76977942930534E-05
2	589	118.151750701696	0.676116943359375	0.676025390625	-7.00988769531249E-07	-4.73886217378094E-07	-964388.3125	6.76337003824301E-05
2	590	118.252458701441	0.666046142578125	0.665985107421875	-8.0108642578125E-07	-5.33511638423079E-07	-831352.4375	6.75580595270731E-05
2	591	118.353166701187	0.655975341796875	0.656005859375	-8.6395263671875E-07	-5.66757989872713E-07	-759307.6875	6.74742186674848E-05
2	592	118.453874700933	0.645904541015625	0.645904541015625	-8.88977050781251E-07	-5.74194302771502E-07	-726570.5625	6.73859540256672E-05
2	593	118.554582700678	0.635833740234375	0.63580322265625	-8.8348388671875E-07	-5.6172189033532E-07	-719654.5625	6.7296699853614E-05
2	594	118.655290700424	0.625762939453125	0.625732421875	-8.55712890625E-07	-5.35447270522127E-07	-731241.125	6.72091264277697E-05
2	595	118.75599870017	0.615692138671875	0.61566162109375	-8.1329345703125E-07	-5.00713554174581E-07	-756998.1875	6.71250891173258E-05
2	596	118.856706699916	0.605621337890625	0.6055908203125	-7.6416015625E-07	-4.62768355191656E-07	-792492.0625	6.70456574880518E-05
2	597	118.957414699661	0.595550537109375	0.595458984375	-7.12890625E-07	-4.24497102358146E-07	-835274	6.69712826493196E-05
2	598	119.058122699407	0.585479736328125	0.585418701171875	-6.6375732421875E-07	-3.88575926990598E-07	-881977.0625	6.69019573251717E-05
2	599	119.158830699153	0.575408935546875	0.57537841796875	-6.170654296875E-07	-3.55046125832814E-07	-932443.125	6.68374632368796E-05
2	600	119.259538698899	0.565338134765625	0.565338134765625	-5.7373046875E-07	-3.24351702829517E-07	-985372.375	6.67775020701811E-05
2	601	119.360246698644	0.555267333984375	0.555206298828125	-5.34667968749999E-07	-2.96850998893206E-07	-1038413.3125	6.67216881993227E-05
2	602	119.46095469839	0.545196533203125	0.545196533203125	-4.9896240234375E-07	-2.72032565362679E-07	-1092660.625	6.66696432745084E-05
2	603	119.561662698136	0.535125732421875	0.53509521484375	-4.6661376953125E-07	-2.49682784669858E-07	-1146762.625	6.66210253257304E-05
2	604	119.662370697882	0.525054931640625	0.525115966796875	-4.37316894531251E-07	-2.29642083127146E-07	-1200767.625	6.65755069348961E-05
2	605	119.763078697627	0.514984130859375	0.514984130859375	-4.1015625E-07	-2.11223962764961E-07	-1255580.375	6.65328334434889E-05
2	606	119.863786697373	0.504913330078125	0.504852294921875	-3.85437011718751E-07	-1.94588750446201E-07	-1309817.875	6.64927720208652E-05
2	607	119.964494697119	0.494842529296875	0.49481201171875	-3.6285400390625E-07	-1.7954451436708E-07	-1363667	6.64550898363814E-05
2	608	120.065202696865	0.484771728515625	0.4847412109375	-3.42712402343751E-07	-1.66126810086098E-07	-1414425.75	6.64195613353513E-05
2	609	120.16591069661	0.474700927734375	0.474639892578125	-3.2501220703125E-07	-1.54263759100104E-07	-1460375.625	6.63859391352162E-05
2	610	120.266618696356	0.464630126953125	0.464630126953125	-3.094482421875E-07	-1.43778976280373E-07	-1501479.25	6.63539976812899E-05
2	611	120.367326696102	0.454559326171875	0.454498291015625	-2.9632568359375E-07	-1.34679510210844E-07	-1533779.625	6.63234895910136E-05
2	612	120.468034695847	0.444488525390625	0.444488525390625	-2.84729003906251E-07	-1.26558774127261E-07	-1561093.25	6.6294232965447E-05
2	613	120.568742695593	0.434417724609375	0.434417724609375	-2.74047851562501E-07	-1.19051236424639E-07	-1585189.375	6.6266096837353E-05
2	614	120.669450695339	0.424346923828125	0.42431640625	-2.64587402343749E-07	-1.12268764951295E-07	-1603691	6.62389720673673E-05
2	615	120.770158695085	0.414276123046875	0.414276123046875	-2.55126953125E-07	-1.05692997465212E-07	-1623804	6.62128004478291E-05
2	616	120.87086669483	0.404205322265625	0.40423583984375	-2.4688720703125E-07	-9.98006512986649E-08	-1637330.125	6.61875237710774E-05
2	617	120.971574694576	0.394134521484375	0.3941650390625	-2.38037109375E-07	-9.38259034910516E-08	-1655897.5	6.61631056573242E-05
2	618	121.072282694322	0.384063720703125	0.384124755859375	-2.288818359375E-07	-8.79191759395326E-08	-1678266.75	6.61395970382728E-05
2	619	121.172990694068	0.373992919921875	0.37408447265625	-2.1942138671875E-07	-8.20821313141096E-08	-1704867.875	6.6117019741796E-05
2	620	121.273698693813	0.363922119140625	0.36395263671875	-2.09655761718749E-07	-7.63047651730631E-08	-1735953.5	6.60954174236394E-05
2	621	121.374406693559	0.353851318359375	0.353851318359375	-2.00500488281249E-07	-7.09473582105602E-08	-1764840.25	6.60747609799728E-05
2	622	121.475114693305	0.343780517578125	0.343780517578125	-1.9195556640625E-07	-6.59905836641883E-08	-1790938	6.60549994790927E-05
2	623	121.575822693051	0.333709716796875	0.33367919921875	-1.8280029296875E-07	-6.09966548381635E-08	-1825375.625	6.60361329209991E-05
2	624	121.676530692796	0.323638916015625	0.323638916015625	-1.751708984375E-07	-5.66921194433689E-08	-1847561	6.60181030980311E-05
2	625	121.777238692542	0.313568115234375	0.313568115234375	-1.6754150390625E-07	-5.25356718128478E-08	-1871584.75	6.60008518025279E-05
2	626	121.877946692288	0.303497314453125	0.303466796875	-1.61132812500001E-07	-4.8898456839197E-08	-1883333.5	6.59842989989556E-05
2	627	121.978654692034	0.293426513671875	0.293426513671875	-1.54724121093749E-07	-4.54001600758147E-08	-1896449.75	6.5968393755611E-05
2	628	122.079362691779	0.283355712890625	0.28326416015625	-1.48620605468749E-07	-4.20988897076313E-08	-1905954.875	6.59531215205789E-05
2	629	122.180070691525	0.273284912109375	0.273284912109375	-1.44042968749999E-07	-3.9364770998418E-08	-1897245.75	6.59383804304525E-05
2	630	122.280778691271	0.263214111328125	0.263214111328125	-1.4007568359375E-07	-3.68698955810487E-08	-1879085	6.5924075897783E-05
2	631	122.381486691016	0.253143310546875	0.253173828125	-1.361083984375E-07	-3.44590844747472E-08	-1860089.75	6.59101715427823E-05
2	632	122.482194690762	0.243072509765625	0.2430419921875	-1.3275146484375E-07	-3.22641824368475E-08	-1830804.625	6.58966309856623E-05
2	633	122.582902690508	0.233001708984375	0.233001708984375	-1.30615234375001E-07	-3.04335721068583E-08	-1783878.5	6.58833669149317E-05
2	634	122.683610690254	0.222930908203125	0.22296142578125	-1.29089355468751E-07	-2.8781947492007E-08	-1727186.75	6.5870292019099E-05
2	635	122.784318689999	0.212860107421875	0.212860107421875	-1.28784179687499E-07	-2.74130140809348E-08	-1652843.625	6.58573044347577E-05
2	636	122.885026689745	0.202789306640625	0.202880859375	-1.2939453125E-07	-2.62516710591854E-08	-1567924.625	6.58443095744587E-05
2	637	122.985734689491	0.192718505859375	0.1927490234375	-1.30615234375001E-07	-2.51759590952361E-08	-1475700.875	6.58312128507532E-05
2	638	123.086442689237	0.182647705078125	0.182647705078125	-1.3397216796875E-07	-2.44697080376E-08	-1363325.75	6.58178905723616E-05
2	639	123.187150688982	0.172576904296875	0.172576904296875	-1.3885498046875E-07	-2.39631603449197E-08	-1242857.25	6.58041535643861E-05
2	640	123.287858688728	0.162506103515625	0.162567138671875	-1.4495849609375E-07	-2.35654873392832E-08	-1121473.75	6.57898635836318E-05
2	641	123.388566688474	0.152435302734375	0.152557373046875	-1.56249999999999E-07	-2.38370887473138E-08	-976367.1875	6.57746932120062E-05
2	642	123.48927468822	0.142364501953125	0.14239501953125	-1.71508789062499E-07	-2.44219968692505E-08	-830249.125	6.57581913401373E-05
2	643	123.589982687965	0.132293701171875	0.13232421875	-1.934814453125E-07	-2.56022811839784E-08	-683911.6875	6.57398122712038E-05
2	644	123.690690687711	0.122222900390625	0.12225341796875	-2.23388671874999E-07	-2.73100280168137E-08	-547267.75	6.57188211334869E-05
2	645	123.791398687457	0.112152099609375	0.112152099609375	-2.6580810546875E-07	-2.98109377183664E-08	-421928.84375	6.56941920169629E-05
2	646	123.892106687202	0.102081298828125	0.10211181640625	-3.253173828125E-07	-3.32187504170633E-08	-313883.6875	6.56644260743633E-05
2	647	123.992814686948	0.092010498046875	0.092071533203125	-4.06494140624999E-07	-3.74265383129568E-08	-226501.5	6.56275733490475E-05
2	648	124.093522686694	0.081939697265625	0.082000732421875	-5.157470703125E-07	-4.22916350828473E-08	-158994.09375	6.55811381875537E-05
2	649	124.19423068644	0.071868896484375	0.071868896484375	-6.60095214843751E-07	-4.74403165640069E-08	-108876.5625	6.55219264444895E-05
2	650	124.294938686185	0.061798095703125	0.061859130859375	-8.404541015625E-07	-5.19897618289633E-08	-73602.03125	6.54463656246662E-05
2	651	124.395646685931	0.051727294921875	0.051788330078125	-1.05621337890625E-06	-5.46995266859085E-08	-49032.07421875	6.53508614050224E-05
2	652	124.496354685677	0.041656494140625	0.0417510986328125	-1.297607421875E-06	-5.41765317052523E-08	-32175.447265625	6.52323360554874E-05
2	653	124.597062685423	0.031585693359375	0.031683349609375	-1.54632568359375E-06	-4.89927742819418E-08	-20489.44140625	6.50891379336827E-05
2	654	124.697770685168	0.021514892578125	0.02158203125	-1.77764892578125E-06	-3.836527540102E-08	-12140.7734375	6.4921761804726E-05
2	655	124.798478684914	0.011444091796875	0.0115264892578125	-1.96807861328125E-06	-2.26850378481913E-08	-5856.72216796875	6.47331471554935E-05
2	656	124.89918668466	0.001373291015625	0.0014617919921875	-2.10113525390625E-06	-3.07142267175209E-09	-695.715393066406	6.45282489131205E-05
2	657	124.999894684406	-0.008697509765625	-0.00859375	-2.17193603515625E-06	1.86650748190686E-08	3956.7236328125	6.43130770185962E-05
2	658	125.100602684151	-0.018768310546875	-0.018646240234375	-2.186279296875E-06	4.07658902190633E-08	8528.7548828125	6.40936268609948E-05
2	659	125.201310683897	-0.028839111328125	-0.0287078857421875	-2.15972900390625E-06	6.20012485796906E-08	13292.3564453125	6.38747878838331E-05
2	660	125.302018683643	-0.038909912109375	-0.0387298583984375	-2.10723876953125E-06	8.16130594216702E-08	18379.435546875	6.36599288554862E-05
2	661	125.402726683389	-0.048980712890625	-0.048809814453125	-2.04132080078125E-06	9.96364946104222E-08	23910.8984375	6.3451036112383E-05
2	662	125.503434683134	-0.059051513671875	-0.0589599609375	-1.97174072265625E-06	1.1625375151425E-07	29902.494140625	6.32489609415643E-05
2	663	125.60414268288	-0.069122314453125	-0.069091796875	-1.904296875E-06	1.31571283645826E-07	36282.05078125	6.30537833785638E-05
2	664	125.704850682626	-0.079193115234375	-0.079132080078125	-1.8426513671875E-06	1.45812833807213E-07	42944.6875	6.28651105216704E-05
2	665	125.805558682371	-0.089263916015625	-0.08917236328125	-1.7877197265625E-06	1.59415193934365E-07	49880.50390625	6.26823093625717E-05
2	666	125.906266682117	-0.099334716796875	-0.0992431640625	-1.74041748046875E-06	1.72724540448144E-07	57022.62109375	6.25046523055062E-05
2	667	126.006974681863	-0.109405517578125	-0.1092529296875	-1.6998291015625E-06	1.85711314770742E-07	64272.890625	6.23314190306701E-05
2	668	126.107682681609	-0.119476318359375	-0.119415283203125	-1.666259765625E-06	1.98976877641144E-07	71666.6640625	6.21619255980477E-05
2	669	126.208390681354	-0.129547119140625	-0.129425048828125	-1.639404296875E-06	2.12179969594217E-07	78946.390625	6.1995473515708E-05
2	670	126.3090986811	-0.139617919921875	-0.13958740234375	-1.61773681640625E-06	2.25815668386531E-07	86285.609375	6.18314588791691E-05
2	671	126.409806680846	-0.149688720703125	-0.149505615234375	-1.60186767578125E-06	2.39488201714266E-07	93332.0625	6.16693432675675E-05
2	672	126.510514680592	-0.159759521484375	-0.15960693359375	-1.590576171875E-06	2.53866971888783E-07	100345.359375	6.15085882600397E-05
2	673	126.611222680337	-0.169830322265625	-0.169708251953125	-1.58447265625E-06	2.68898077138147E-07	107107.0859375	6.13487136433832E-05
2	674	126.711930680083	-0.179901123046875	-0.17974853515625	-1.58233642578125E-06	2.84422640106641E-07	113596.9140625	6.11892537563108E-05
2	675	126.812638679829	-0.189971923828125	-0.1898193359375	-1.58416748046875E-06	3.00705607969576E-07	119822.7734375	6.10298047831748E-05
2	676	126.913346679575	-0.200042724609375	-0.199859619140625	-1.5899658203125E-06	3.17769945468171E-07	125700.578125	6.0869973822264E-05
2	677	127.01405467932	-0.189971923828125	-0.189727783203125	-1.402587890625E-06	2.66109879021315E-07	135269.8125	6.07192887400743E-05
