Potential - Start -0.2 V, Upper Vertex 1.5 V, Lower Vertex -0.2 V, Stop -0.19 V; Scan - # end cross 5, Rate 0.1 Vps, Step 0.01 V 
Scan	Index	Time (s)	Potential applied (V)	WE(1).Potential (V)	WE(1).Current (A)	WE(1).Power (W)	WE(1).Resistance (Ω)	WE(1).Charge (C)
1	1	62.1591668430632	-0.189971923828125	-0.189849853515625	-2.26745605468751E-07	4.30476170265592E-08	837281.3125	0
1	2	62.2598748428089	-0.179901123046875	-0.17974853515625	-1.96533203125E-07	3.53265541264136E-08	914596.3125	-2.13137809623731E-08
1	3	62.3605828425547	-0.169830322265625	-0.169708251953125	-1.73034667968749E-07	2.93654096594764E-08	980776.0625	-3.99230017933405E-08
1	4	62.4612908423004	-0.159759521484375	-0.15966796875	-1.52587890625E-07	2.43633984098324E-08	1046400	-5.63193971458986E-08
1	5	62.5619988420461	-0.149688720703125	-0.149627685546875	-1.3397216796875E-07	2.00459453481017E-08	1116856.5	-7.07488396756162E-08
1	6	62.6627068417919	-0.139617919921875	-0.1395263671875	-1.1749267578125E-07	1.63933258079396E-08	1187532.5	-8.34111020253658E-08
1	7	62.7634148415376	-0.129547119140625	-0.12945556640625	-1.019287109375E-07	1.31952386794865E-08	1270060	-9.44598497198967E-08
1	8	62.8641228412833	-0.119476318359375	-0.11944580078125	-8.63647460937506E-08	1.03159054631874E-08	1383038.875	-1.03941175666478E-07
1	9	62.9648308410291	-0.109405517578125	-0.109283447265625	-7.171630859375E-08	7.83740539134214E-09	1523829.75	-1.11901186983232E-07
1	10	63.0655388407748	-0.099334716796875	-0.0992431640625	-5.67626953124997E-08	5.63330937453088E-09	1748387.125	-1.18370621748909E-07
1	11	63.1662468405206	-0.089263916015625	-0.08917236328125	-4.05883789062506E-08	3.61936169923638E-09	2196992.5	-1.23272641872063E-07
1	12	63.2669548402663	-0.079193115234375	-0.079193115234375	-2.31933593749997E-08	1.83675430420749E-09	3414473.75	-1.26484309248553E-07
1	13	63.367662840012	-0.069122314453125	-0.069122314453125	-1.83105468749972E-09	1.26566729319322E-10	37750000	-1.2774438573615E-07
1	14	63.4683708397578	-0.059051513671875	-0.058990478515625	2.34985351562494E-08	-1.3861898295886E-09	-2510389.75	-1.26653333154536E-07
1	15	63.5690788395035	-0.048980712890625	-0.0488372802734375	5.55419921874995E-08	-2.71251998640309E-09	-879285.75	-1.22673327496159E-07
1	16	63.6697868392492	-0.038909912109375	-0.0387786865234375	9.73510742187503E-08	-3.77514641769494E-09	-398338.5625	-1.14974554321634E-07
1	17	63.770494838995	-0.028839111328125	-0.0286651611328125	1.5380859375E-07	-4.40894787345769E-09	-186369.0625	-1.02327661011259E-07
1	18	63.8712028387407	-0.018768310546875	-0.01865234375	2.301025390625E-07	-4.29195168294427E-09	-81061.015625	-8.29962019111008E-08
1	19	63.9719108384865	-0.008697509765625	-0.0085784912109375	3.3294677734375E-07	-2.85618106943275E-09	-25765.353515625	-5.46444169913229E-08
1	20	64.0726188382322	0.001373291015625	0.0014678955078125	4.69055175781249E-07	6.88523904557314E-10	3129.47314453125	-1.42604106301292E-08
1	21	64.1733268379779	0.011444091796875	0.0115386962890625	6.451416015625E-07	7.44409289765713E-09	17885.525390625	4.18438510507713E-08
1	22	64.2740348377237	0.021514892578125	0.02158203125	8.59375E-07	1.85470572233726E-08	25113.638671875	1.17602276361595E-07
1	23	64.3747428374694	0.031585693359375	0.0316436767578125	1.1065673828125E-06	3.50158586570615E-08	28596.251953125	2.16595338997649E-07
1	24	64.4754508372151	0.041656494140625	0.0417755126953125	1.37359619140625E-06	5.73826852701131E-08	30413.2421875	3.41481495524931E-07
1	25	64.5761588369609	0.051727294921875	0.051788330078125	1.63665771484375E-06	8.47597689812574E-08	31642.73828125	4.93059815198649E-07
1	26	64.6768668367066	0.061798095703125	0.061859130859375	1.8701171875E-06	1.1568381808047E-07	33077.6796875	6.69639973693847E-07
1	27	64.7775748364523	0.071868896484375	0.0718994140625	2.0501708984375E-06	1.47406083783608E-07	35069.9609375	8.67042103891436E-07
1	28	64.8782828361981	0.081939697265625	0.081878662109375	2.16522216796875E-06	1.77285500058133E-07	37815.36328125	1.07930407011736E-06
1	29	64.9789908359438	0.092010498046875	0.092041015625	2.21343994140625E-06	2.03727267944487E-07	41582.79296875	1.29978718632628E-06
1	30	65.0796988356896	0.102081298828125	0.10211181640625	2.2064208984375E-06	2.25301633349773E-07	46279.39453125	1.52234485994995E-06
1	31	65.1804068354353	0.112152099609375	0.1121826171875	2.16033935546875E-06	2.42352513168953E-07	51928.23828125	1.74222873283725E-06
1	32	65.281114835181	0.122222900390625	0.12225341796875	2.09228515625E-06	2.55788989989014E-07	58430.57421875	1.9563653950172E-06
1	33	65.3818228349268	0.132293701171875	0.132293701171875	2.012939453125E-06	2.6629919602783E-07	65721.6484375	2.16307989830966E-06
1	34	65.4825308346725	0.142364501953125	0.14239501953125	1.93115234375E-06	2.74986490467199E-07	73735.7734375	2.36168057199393E-06
1	35	65.5832388344182	0.152435302734375	0.152435302734375	1.85272216796875E-06	2.82420245412141E-07	82276.3984375	2.5522138002998E-06
1	36	65.683946834164	0.162506103515625	0.162506103515625	1.77978515625E-06	2.89225937422088E-07	91306.5859375	2.73512500825746E-06
1	37	65.7846548339097	0.172576904296875	0.172576904296875	1.7132568359375E-06	2.95668542094063E-07	100730.3203125	2.91101378024905E-06
1	38	65.8853628336554	0.182647705078125	0.1826171875	1.6534423828125E-06	3.01947011394077E-07	110446.65625	3.08054040942807E-06
1	39	65.9860708334012	0.192718505859375	0.19268798828125	1.600341796875E-06	3.08366622903122E-07	120404.2734375	3.24438155985263E-06
1	40	66.0867788331469	0.202789306640625	0.202850341796875	1.5533447265625E-06	3.1509648579231E-07	130589.3984375	3.40318229063996E-06
1	41	66.1874868328927	0.212860107421875	0.212921142578125	1.51123046875E-06	3.21772887446059E-07	140892.578125	3.55749580194242E-06
1	42	66.2881948326384	0.222930908203125	0.222991943359375	1.47369384765625E-06	3.2862183729776E-07	151314.96875	3.70779866898374E-06
1	43	66.3889028323841	0.233001708984375	0.233001708984375	1.44012451171875E-06	3.35551476382534E-07	161792.75	3.85452131013153E-06
1	44	66.4896108321299	0.243072509765625	0.243072509765625	1.40960693359375E-06	3.42636667483021E-07	172439.9375	3.9980163819564E-06
1	45	66.5903188318756	0.253143310546875	0.25311279296875	1.38214111328125E-06	3.49837563362598E-07	183130.953125	4.13859243053594E-06
1	46	66.6910268316213	0.263214111328125	0.263214111328125	1.35772705078125E-06	3.57372897497044E-07	193863.796875	4.27655550083728E-06
1	47	66.7917348313671	0.273284912109375	0.2733154296875	1.33392333984375E-06	3.64581808298681E-07	204895.921875	4.41209067503223E-06
1	48	66.8924428311128	0.283355712890625	0.283355712890625	1.3128662109375E-06	3.72008116755751E-07	215829.859375	4.54536711913534E-06
1	49	66.9931508308586	0.293426513671875	0.293365478515625	1.29364013671875E-06	3.7950934483888E-07	226775.1875	4.67661539005348E-06
1	50	67.0938588306043	0.303497314453125	0.303466796875	1.27471923828125E-06	3.86834955179438E-07	238065.59375	4.80594235341414E-06
1	51	67.19456683035	0.313568115234375	0.31353759765625	1.258544921875E-06	3.94601130437877E-07	249127.0625	4.9335026233166E-06
1	52	67.2952748300958	0.323638916015625	0.3236083984375	1.24267578125E-06	4.02140301503096E-07	260412.59375	5.05944899487076E-06
1	53	67.3959828298415	0.333709716796875	0.333740234375	1.22894287109375E-06	4.1014769180947E-07	271566.90625	5.18390470460872E-06
1	54	67.4966908295872	0.343780517578125	0.34381103515625	1.2158203125E-06	4.18012405134505E-07	282781.125	5.30700845047249E-06
1	55	67.597398829333	0.353851318359375	0.353790283203125	1.2042236328125E-06	4.26042618073552E-07	293791.1875	5.42886709808954E-06
1	56	67.6981068290787	0.363922119140625	0.36383056640625	1.19293212890625E-06	4.34025167805885E-07	304988.5	5.54957387066679E-06
1	57	67.7988148288244	0.373992919921875	0.37396240234375	1.1834716796875E-06	4.42573906411781E-07	315987.625	5.66923517908435E-06
1	58	67.8995228285702	0.384063720703125	0.384033203125	1.17431640625E-06	4.50976472166076E-07	327027.03125	5.78795925321174E-06
1	59	68.0002308283159	0.394134521484375	0.394134521484375	1.1663818359375E-06	4.59711344547031E-07	337912.09375	5.9058224906039E-06
1	60	68.1009388280617	0.404205322265625	0.4041748046875	1.15936279296875E-06	4.68585227508811E-07	348618.0625	6.02293312113034E-06
1	61	68.2016468278074	0.414276123046875	0.414276123046875	1.153564453125E-06	4.77894218420261E-07	359127	6.13939846516587E-06
1	62	68.3023548275531	0.424346923828125	0.424285888671875	1.1480712890625E-06	4.87110469293839E-07	369564.0625	6.25529492026544E-06
1	63	68.4030628272989	0.434417724609375	0.43438720703125	1.14349365234375E-06	4.96718996600976E-07	379877.25	6.37068433206878E-06
1	64	68.5037708270446	0.444488525390625	0.4444580078125	1.1395263671875E-06	5.06471621974924E-07	390037.5	6.48564355287817E-06
1	65	68.6044788267903	0.454559326171875	0.45452880859375	1.1358642578125E-06	5.16282966600556E-07	400161.21875	6.60021851217607E-06
1	66	68.7051868265361	0.464630126953125	0.464599609375	1.13250732421875E-06	5.26162466485403E-07	410239.8125	6.71444013278233E-06
1	67	68.8058948262818	0.474700927734375	0.474639892578125	1.1297607421875E-06	5.36229492809071E-07	420124.28125	6.82835434417939E-06
1	68	68.9066028260276	0.484771728515625	0.484710693359375	1.126708984375E-06	5.46127864708978E-07	430200.4375	6.94197660777718E-06
1	69	69.0073108257733	0.494842529296875	0.49481201171875	1.12518310546875E-06	5.56754116587399E-07	439761.34375	7.05536831446807E-06
1	70	69.108018825519	0.504913330078125	0.5048828125	1.12335205078125E-06	5.67161123399273E-07	449443.09375	7.16859130989178E-06
1	71	69.2087268252648	0.514984130859375	0.51495361328125	1.123046875E-06	5.78317042254639E-07	458532.59375	7.28170653019333E-06
1	72	69.3094348250105	0.525054931640625	0.5250244140625	1.123046875E-06	5.89627063618536E-07	467500	7.39480628908495E-06
1	73	69.4101428247562	0.535125732421875	0.535125732421875	1.12335205078125E-06	6.01134559019556E-07	476365.125	7.50792150938651E-06
1	74	69.510850824502	0.545196533203125	0.54510498046875	1.12457275390625E-06	6.13010172401118E-07	484721.875	7.62111358199036E-06
1	75	69.6115588242477	0.555267333984375	0.55523681640625	1.1260986328125E-06	6.25251402652793E-07	493062.34375	7.73444389778888E-06
1	76	69.7122668239934	0.565338134765625	0.565277099609375	1.12823486328125E-06	6.37765367628162E-07	501027.84375	7.84795884101186E-06
1	77	69.8129748237392	0.575408935546875	0.575408935546875	1.1309814453125E-06	6.50776826205401E-07	508769.5625	7.96171934780432E-06
1	78	69.9136828234849	0.585479736328125	0.585357666015625	1.1346435546875E-06	6.64172262077045E-07	515895.65625	8.07580181572121E-06
1	79	70.0143908232307	0.595550537109375	0.59552001953125	1.1395263671875E-06	6.78610774684785E-07	522603.09375	8.19031538412673E-06
1	80	70.1150988229764	0.605621337890625	0.605560302734375	1.14501953125E-06	6.93378353844309E-07	528864.625	8.30535191198578E-06
1	81	70.2158068227221	0.615692138671875	0.615631103515625	1.1517333984375E-06	7.09042922153458E-07	534525.6875	8.42100234876852E-06
1	82	70.3165148224679	0.625762939453125	0.62567138671875	1.15997314453125E-06	7.25761935882474E-07	539384.4375	8.53740584716434E-06
1	83	70.4172228222136	0.635833740234375	0.635772705078125	1.1700439453125E-06	7.43881969356153E-07	543375.0625	8.65473157318775E-06
1	84	70.5179308219593	0.645904541015625	0.64581298828125	1.18255615234375E-06	7.63710147566599E-07	546116.125	8.77319507708307E-06
1	85	70.6186388217051	0.655975341796875	0.6558837890625	1.19873046875E-06	7.86227815297025E-07	547148.6875	8.89310194907011E-06
1	86	70.7193468214508	0.666046142578125	0.666015625	1.21734619140625E-06	8.10771553005907E-07	547104.5625	9.01476141734747E-06
1	87	70.8200548211965	0.676116943359375	0.676025390625	1.240234375E-06	8.38429912164429E-07	545078.75	9.1385099949548E-06
1	88	70.9207628209423	0.686187744140625	0.686126708984375	1.265869140625E-06	8.68546578658425E-07	542020.3125	9.2647023848258E-06
1	89	71.021470820688	0.696258544921875	0.696197509765625	1.2939453125E-06	9.00841484963166E-07	538042.4375	9.39359961193986E-06
1	90	71.1221788204338	0.706329345703125	0.706268310546875	1.32232666015625E-06	9.33917419843056E-07	534110.3125	9.52533900999697E-06
1	91	71.2228868201795	0.716400146484375	0.716278076171875	1.3482666015625E-06	9.65733761404408E-07	531258.5	9.65981416811701E-06
1	92	71.3235948199252	0.726470947265625	0.72637939453125	1.3690185546875E-06	9.94426841316454E-07	530584.0625	9.79664037004113E-06
1	93	71.424302819671	0.736541748046875	0.736419677734375	1.38427734375E-06	1.01940906915843E-06	531988.5625	9.93528010440059E-06
1	94	71.5250108194167	0.746612548828125	0.746429443359375	1.392822265625E-06	1.03964350728347E-06	535911.5	1.00751176432823E-05
1	95	71.6257188191624	0.756683349609375	0.7574462890625	1.396484375E-06	1.057761892298E-06	542395.125	1.02155709100771E-05
1	96	71.7264268189082	0.766754150390625	0.76690673828125	1.39617919921875E-06	1.07073924482393E-06	549289.625	1.03561924333917E-05
1	97	71.8271348186539	0.776824951171875	0.77667236328125	1.39251708984375E-06	1.0815296036526E-06	557747.0625	1.04966147773666E-05
1	98	71.9278428183997	0.786895751953125	0.7867431640625	1.387939453125E-06	1.09195184450073E-06	566842.5625	1.06366214822629E-05
1	99	72.0285508181454	0.796966552734375	0.797119140625	1.383056640625E-06	1.10246094209288E-06	576346	1.077615252143E-05
1	100	72.1292588178911	0.807037353515625	0.80657958984375	1.37786865234375E-06	1.11136080249707E-06	585382.0625	1.09151760625537E-05
1	101	72.2299668176369	0.817108154296875	0.8172607421875	1.37359619140625E-06	1.12258624085371E-06	594978.875	1.10537230284535E-05
1	102	72.3306748173826	0.827178955078125	0.8270263671875	1.36962890625E-06	1.13271914869983E-06	603832.4375	1.11918552647694E-05
1	103	72.4313828171283	0.837249755859375	0.8380126953125	1.36688232421875E-06	1.14546469376364E-06	613083.3125	1.13296500785509E-05
1	104	72.5320908168741	0.847320556640625	0.8477783203125	1.36474609375E-06	1.15700208880298E-06	621198.625	1.14671984192682E-05
1	105	72.6327988166198	0.857391357421875	0.8575439453125	1.36260986328125E-06	1.16849787445972E-06	629339.3125	1.16045312097413E-05
1	106	72.7335068163655	0.867462158203125	0.8673095703125	1.3623046875E-06	1.18153980110947E-06	636648.8125	1.17417421279242E-05
1	107	72.8342148161113	0.877532958984375	0.877685546875	1.36199951171875E-06	1.19540720788791E-06	644409.625	1.18789212137926E-05
1	108	72.934922815857	0.887603759765625	0.88775634765625	1.3616943359375E-06	1.20885283649841E-06	651949.8125	1.20160702863359E-05
1	109	73.0356308156028	0.897674560546875	0.897216796875	1.3616943359375E-06	1.22173503314116E-06	658897.375	1.21532038974692E-05
1	110	73.1363388153485	0.907745361328125	0.9075927734375	1.3623046875E-06	1.23641780191974E-06	666218.6875	1.22903684314224E-05
1	111	73.2370468150942	0.917816162109375	0.91827392578125	1.36260986328125E-06	1.25124904570839E-06	673908.1875	1.24275784401107E-05
1	112	73.33775481484	0.927886962890625	0.92803955078125	1.3629150390625E-06	1.2648390566028E-06	680922.5625	1.25648193716188E-05
1	113	73.4384628145857	0.937957763671875	0.9381103515625	1.36383056640625E-06	1.27942348626675E-06	687849.6875	1.27021221487666E-05
1	114	73.5391708143314	0.948028564453125	0.94757080078125	1.3641357421875E-06	1.29261525216862E-06	694630.875	1.28394858620595E-05
1	115	73.6398788140772	0.958099365234375	0.9576416015625	1.36474609375E-06	1.30693751998479E-06	701699.5	1.29768959595822E-05
1	116	73.7405868138229	0.968170166015625	0.9686279296875	1.365966796875E-06	1.32311356537684E-06	709115.3125	1.31143988255644E-05
1	117	73.8412948135687	0.978240966796875	0.9783935546875	1.36749267578125E-06	1.33794594603387E-06	715465.375	1.32520390252466E-05
1	118	73.9420028133144	0.988311767578125	0.9881591796875	1.36871337890625E-06	1.35250661514874E-06	721962.125	1.33898183776182E-05
1	119	74.0427108130601	0.998382568359375	0.99853515625	1.36993408203125E-06	1.36792732519098E-06	728892.875	1.35277196022798E-05
1	120	74.1434188128059	1.00845336914063	1.00830078125	1.37176513671875E-06	1.3831518117513E-06	735039	1.36657754410408E-05
1	121	74.2441268125516	1.01852416992188	1.01837158203125	1.37298583984375E-06	1.39820974709437E-06	741720.375	1.38039840749116E-05
1	122	74.3448348122973	1.02859497070313	1.0284423828125	1.37481689453125E-06	1.41391990382544E-06	748057.75	1.39423473228817E-05
1	123	74.4455428120431	1.03866577148438	1.03851318359375	1.37664794921875E-06	1.42966700877878E-06	754378.1875	1.40808942887816E-05
1	124	74.5462508117888	1.04873657226563	1.0479736328125	1.378173828125E-06	1.44428986459388E-06	760407.4375	1.42196113301907E-05
1	125	74.6469588115345	1.05880737304688	1.05865478515625	1.38031005859375E-06	1.46127172229171E-06	766968.875	1.43585111800348E-05
1	126	74.7476668112803	1.06887817382813	1.0687255859375	1.38153076171875E-06	1.47647722315014E-06	773580.75	1.44975811053882E-05
1	127	74.848374811026	1.07894897460938	1.0791015625	1.3836669921875E-06	1.4931171108401E-06	779885.375	1.46368201967562E-05
1	128	74.9490828107718	1.08901977539063	1.08856201171875	1.38519287109375E-06	1.507868319095E-06	785855.9375	1.47762430060538E-05
1	129	75.0497908105175	1.09909057617188	1.0992431640625	1.38763427734375E-06	1.52534744302102E-06	792170.6875	1.49158659041859E-05
1	130	75.1504988102632	1.10916137695313	1.1090087890625	1.39007568359375E-06	1.5416061387441E-06	797804.625	1.50557352753822E-05
1	131	75.251206810009	1.11923217773438	1.119384765625	1.3934326171875E-06	1.55978727889305E-06	803328.9375	1.5195895684883E-05
1	132	75.3519148097547	1.12930297851563	1.12945556640625	1.39617919921875E-06	1.57692238644813E-06	808961.75	1.5336363503593E-05
1	133	75.4526228095004	1.13937377929688	1.138916015625	1.4007568359375E-06	1.59534431531938E-06	813071.9375	1.5477200577152E-05
1	134	75.5533308092462	1.14944458007813	1.1492919921875	1.4056396484375E-06	1.61549041877151E-06	817629.1875	1.56185142259346E-05
1	135	75.6540388089919	1.15951538085938	1.15966796875	1.4111328125E-06	1.63644540407404E-06	821799.3125	1.57603499246761E-05
1	136	75.7547468087377	1.16958618164063	1.16912841796875	1.41754150390625E-06	1.65728806678089E-06	824757.8125	1.59027840709314E-05
1	137	75.8554548084834	1.17965698242188	1.17919921875	1.4239501953125E-06	1.6791209418443E-06	828118.3125	1.60458657774143E-05
1	138	75.9561628082291	1.18972778320313	1.1895751953125	1.4306640625E-06	1.70188241099822E-06	831484.625	1.61896059580613E-05
1	139	76.0568708079749	1.19979858398438	1.1993408203125	1.43829345703125E-06	1.72500404005405E-06	833863.8125	1.63340700964909E-05
1	140	76.1575788077206	1.20986938476563	1.209716796875	1.446533203125E-06	1.74989543211268E-06	836286.9375	1.64793327712687E-05
1	141	76.2582868074663	1.21994018554688	1.21978759765625	1.455078125E-06	1.77488618646748E-06	838297	1.66254412761191E-05
1	142	76.3589948072121	1.23001098632813	1.2298583984375	1.463623046875E-06	1.8000490626946E-06	840283.625	1.6772408343968E-05
1	143	76.4597028069578	1.24008178710938	1.2396240234375	1.4727783203125E-06	1.82569135631638E-06	841690.875	1.6920268535614E-05
1	144	76.5604108067035	1.25015258789063	1.25030517578125	1.483154296875E-06	1.85439546385169E-06	843004.125	1.7069110981538E-05
1	145	76.6611188064493	1.26022338867188	1.26007080078125	1.4935302734375E-06	1.88195383543643E-06	843686.1875	1.72189993463689E-05
1	146	76.761826806195	1.27029418945313	1.26983642578125	1.50390625E-06	1.90971491065284E-06	844358.8125	1.73699318111176E-05
1	147	76.8625348059408	1.28036499023438	1.2799072265625	1.51458740234375E-06	1.93853134078381E-06	845053.4375	1.75219247466885E-05
1	148	76.9632428056865	1.29043579101563	1.28997802734375	1.52557373046875E-06	1.96795645024395E-06	845569.125	1.76750090759015E-05
1	149	77.0639508054322	1.30050659179688	1.300048828125	1.5362548828125E-06	1.99720648197399E-06	846245.5	1.78291847987566E-05
1	150	77.164658805178	1.31057739257813	1.31072998046875	1.546630859375E-06	2.02721548703266E-06	847474.3125	1.7984420992434E-05
1	151	77.2653668049237	1.32064819335938	1.3201904296875	1.55792236328125E-06	2.05675428333052E-06	847404.5	1.81407467607642E-05
1	152	77.3660748046694	1.33071899414063	1.33056640625	1.56890869140625E-06	2.08753704100673E-06	848084.0625	1.82981948455563E-05
1	153	77.4667828044152	1.34078979492188	1.34033203125	1.57928466796875E-06	2.11676569961128E-06	848695.6875	1.84567197720753E-05
1	154	77.5674908041609	1.35086059570313	1.35101318359375	1.590576171875E-06	2.14888927985157E-06	849386	1.8616334273247E-05
1	155	77.6681988039066	1.36093139648438	1.36077880859375	1.6021728515625E-06	2.18020272768626E-06	849333.375	1.87771020137006E-05
1	156	77.7689068036524	1.37100219726563	1.370849609375	1.6131591796875E-06	2.21139862333075E-06	849791.9375	1.89390066225315E-05
1	157	77.8696148033981	1.38107299804688	1.38153076171875	1.6253662109375E-06	2.24549330596346E-06	849981.25	1.91020808415487E-05
1	158	77.9703228031439	1.39114379882813	1.39068603515625	1.636962890625E-06	2.27650139095203E-06	849552.625	1.92663519555936E-05
1	159	78.0710308028896	1.40121459960938	1.4013671875	1.649169921875E-06	2.31109265769192E-06	849740.9375	1.94318217836553E-05
1	160	78.1717388026353	1.41128540039063	1.41143798828125	1.6619873046875E-06	2.34579192692763E-06	849247.125	1.95985521713737E-05
1	161	78.2724468023811	1.42135620117188	1.4208984375	1.6748046875E-06	2.37972722061386E-06	848396.5625	1.97665722225793E-05
1	162	78.3731548021268	1.43142700195313	1.4306640625	1.68792724609375E-06	2.41485690821719E-06	847586.3125	1.9935900127166E-05
1	163	78.4738628018725	1.44149780273438	1.44195556640625	1.70196533203125E-06	2.45415822064388E-06	847229.6875	2.01065940927947E-05
1	164	78.5745708016183	1.45156860351563	1.451416015625	1.71661376953125E-06	2.49152071774006E-06	845511.125	2.02787323360099E-05
1	165	78.675278801364	1.46163940429688	1.461181640625	1.73309326171875E-06	2.5323640784336E-06	843106.1875	2.04524403670803E-05
1	166	78.7759868011098	1.47171020507813	1.4715576171875	1.75262451171875E-06	2.57908800449513E-06	839630.875	2.06279601115966E-05
1	167	78.8766948008555	1.48178100585938	1.4813232421875	1.77459716796875E-06	2.62875187218015E-06	834737.8125	2.08055698749376E-05
1	168	78.9774028006012	1.49185180664063	1.49200439453125	1.800537109375E-06	2.68640928879904E-06	828644.0625	2.09855916182278E-05
1	169	79.078110800347	1.50192260742188	1.50146484375	1.82952880859375E-06	2.74697299573745E-06	820683.9375	2.11683800444007E-05
1	170	79.1788188000927	1.49185180664063	1.49200439453125	1.6571044921875E-06	2.47240723183495E-06	900368.3125	2.13439452636521E-05
1	171	79.2795267998384	1.48178100585938	1.48162841796875	1.53594970703125E-06	2.27570671995636E-06	964633.4375	2.15047293750104E-05
1	172	79.3802347995842	1.47171020507813	1.47125244140625	1.44134521484375E-06	2.12058262150094E-06	1020749.5625	2.16546468436718E-05
1	173	79.4809427993299	1.46163940429688	1.46209716796875	1.36444091796875E-06	1.99494525077171E-06	1071572.375	2.17959295696346E-05
1	174	79.5816507990756	1.45156860351563	1.451416015625	1.29974365234375E-06	1.88646879450971E-06	1116694.125	2.19300818571355E-05
1	175	79.6823587988214	1.44149780273438	1.44134521484375	1.24420166015625E-06	1.79332403149601E-06	1158449.875	2.20581805479014E-05
1	176	79.7830667985671	1.43142700195313	1.43157958984375	1.19659423828125E-06	1.71301985574246E-06	1196378.5	2.21810842049308E-05
1	177	79.8837747983129	1.42135620117188	1.4208984375	1.15478515625E-06	1.64083235176804E-06	1230444	2.22994858631864E-05
1	178	79.9844827980586	1.41128540039063	1.4111328125	1.1175537109375E-06	1.5770166328366E-06	1262698	2.24139075726271E-05
1	179	80.0851907978043	1.40121459960938	1.40106201171875	1.08489990234375E-06	1.52001200603991E-06	1291420.625	2.25248095375719E-05
1	180	80.1858987975501	1.39114379882813	1.39068603515625	1.0552978515625E-06	1.46758793562185E-06	1317813.75	2.26325773837743E-05
1	181	80.2866067972958	1.38107299804688	1.3812255859375	1.02783203125E-06	1.41966791034065E-06	1343824.25	2.27374712267192E-05
1	182	80.3873147970415	1.37100219726563	1.37115478515625	1.00341796875E-06	1.37584140702529E-06	1366484.125	2.28397511818912E-05
1	183	80.4880227967873	1.36093139648438	1.36077880859375	9.7991943359375E-07	1.33345349695446E-06	1388664	2.29396209761035E-05
1	184	80.588730796533	1.35086059570313	1.35040283203125	9.5947265625E-07	1.29567467865854E-06	1407442.75	2.30372770602116E-05
1	185	80.6894387962788	1.34078979492188	1.3409423828125	9.3902587890625E-07	1.25917961213418E-06	1428014.25	2.3132874048315E-05
1	186	80.7901467960245	1.33071899414063	1.33056640625	9.20715332031249E-07	1.22507287869666E-06	1445144.25	2.32265192607883E-05
1	187	80.8908547957702	1.32064819335938	1.32049560546875	9.0362548828125E-07	1.19323340186384E-06	1461330.75	2.33183818636462E-05
1	188	80.991562795516	1.31057739257813	1.31103515625	8.8653564453125E-07	1.16227943181002E-06	1478829.625	2.34085237025283E-05
1	189	81.0922707952617	1.30050659179688	1.30035400390625	8.70666503906251E-07	1.13217470243399E-06	1493515.625	2.34970066230744E-05
1	190	81.1929787950074	1.29043579101563	1.290283203125	8.55407714843751E-07	1.10371820483124E-06	1508384	2.35839215747546E-05
1	191	81.2936867947532	1.28036499023438	1.280517578125	8.404541015625E-07	1.076216221918E-06	1523602	2.36693140323041E-05
1	192	81.3943947944989	1.27029418945313	1.27044677734375	8.258056640625E-07	1.04914215626195E-06	1538433.125	2.37532167375321E-05
1	193	81.4951027942446	1.26022338867188	1.2603759765625	8.1207275390625E-07	1.02351702935266E-06	1552048.125	2.38356915360782E-05
1	194	81.5958107939904	1.25015258789063	1.24969482421875	7.9925537109375E-07	9.98825271381065E-07	1563573.875	2.39168275584234E-05
1	195	81.6965187937361	1.24008178710938	1.23992919921875	7.8643798828125E-07	9.75127363744832E-07	1576639.5	2.39966739172814E-05
1	196	81.7972267934819	1.23001098632813	1.2298583984375	7.733154296875E-07	9.51068500398833E-07	1590371	2.40752142417477E-05
1	197	81.8979347932276	1.21994018554688	1.2200927734375	7.60498046875E-07	9.27878147649608E-07	1604333.875	2.41524467128329E-05
1	198	81.9986427929733	1.20986938476563	1.209716796875	7.48596191406251E-07	9.05589331523515E-07	1615980.5	2.42284368141554E-05
1	199	82.0993507927191	1.19979858398438	1.1993408203125	7.36389160156251E-07	8.83181598965166E-07	1628678	2.43032118305564E-05
1	200	82.2000587924648	1.18972778320313	1.1895751953125	7.244873046875E-07	8.61832120335748E-07	1641954.625	2.43767717620358E-05
1	201	82.3007667922105	1.17965698242188	1.17919921875	7.1258544921875E-07	8.40280165448348E-07	1654818.125	2.44491347984876E-05
1	202	82.4014747919563	1.16958618164063	1.16912841796875	7.00988769531249E-07	8.19545903141261E-07	1667827.625	2.45203136728378E-05
1	203	82.502182791702	1.15951538085938	1.15997314453125	6.8939208984375E-07	7.99676342921884E-07	1682602.875	2.45903247559909E-05
1	204	82.6028907914477	1.14944458007813	1.14959716796875	6.7779541015625E-07	7.79191680067015E-07	1696082.875	2.46591680479469E-05
1	205	82.7035987911935	1.13937377929688	1.1395263671875	6.6680908203125E-07	7.59846500386629E-07	1708924.5	2.47268744715257E-05
1	206	82.8043067909392	1.12930297851563	1.12945556640625	6.549072265625E-07	7.39688573503372E-07	1724604	2.47934276558226E-05
1	207	82.905014790685	1.11923217773438	1.119384765625	6.43310546875001E-07	7.20112041108223E-07	1740037.875	2.48587984970072E-05
1	208	83.0057227904307	1.10916137695313	1.10931396484375	6.31103515625001E-07	7.00091902672284E-07	1757737	2.49229706241749E-05
1	209	83.1064307901764	1.09909057617188	1.09954833984375	6.1920166015625E-07	6.80842163092166E-07	1775751.625	2.4985927666421E-05
1	210	83.2071387899222	1.08901977539063	1.08917236328125	6.0760498046875E-07	6.61786543787457E-07	1792566.5	2.50477023655549E-05
1	211	83.3078467896679	1.07894897460938	1.0784912109375	5.950927734375E-07	6.41802330392238E-07	1812307.625	2.51082637987565E-05
1	212	83.4085547894136	1.06887817382813	1.0693359375	5.8258056640625E-07	6.22974312136648E-07	1835516.125	2.51675646723015E-05
1	213	83.5092627891594	1.05880737304688	1.0589599609375	5.7037353515625E-07	6.04002707405016E-07	1856607.875	2.52256195381051E-05
1	214	83.6099707889051	1.04873657226563	1.0491943359375	5.5694580078125E-07	5.84344377330126E-07	1883835.625	2.52823847404215E-05
1	215	83.7106787886509	1.03866577148438	1.038818359375	5.45654296875001E-07	5.66835694826295E-07	1903803.125	2.5337905753986E-05
1	216	83.8113867883966	1.02859497070313	1.02874755859375	5.33142089843749E-07	5.48468619854248E-07	1929593.5	2.53922262345441E-05
1	217	83.9120947881423	1.01852416992188	1.0186767578125	5.2032470703125E-07	5.3004265510026E-07	1957771.25	2.54452734225197E-05
1	218	84.0128027878881	1.00845336914063	1.00860595703125	5.084228515625E-07	5.12798294494132E-07	1983793.625	2.54970746027539E-05
1	219	84.1135107876338	0.998382568359375	0.99822998046875	4.96826171875001E-07	4.95946778755751E-07	2009213.875	2.55476934398757E-05
1	220	84.2142187873795	0.988311767578125	0.98876953125	4.8553466796875E-07	4.80081894238538E-07	2036455.125	2.55971590377158E-05
1	221	84.3149267871253	0.978240966796875	0.9783935546875	4.7454833984375E-07	4.6429502731371E-07	2061736.375	2.56455023190938E-05
1	222	84.415634786871	0.968170166015625	0.968017578125	4.6417236328125E-07	4.49326989837573E-07	2085470.125	2.56927705777343E-05
1	223	84.5163427866167	0.958099365234375	0.95794677734375	4.53796386718749E-07	4.34712774222135E-07	2110961.75	2.57389947364572E-05
1	224	84.6170507863625	0.948028564453125	0.9478759765625	4.43420410156251E-07	4.20307543436138E-07	2137646.25	2.57841729762731E-05
1	225	84.7177587861082	0.937957763671875	0.9381103515625	4.33349609375E-07	4.06529750307527E-07	2164788.75	2.58283216680866E-05
1	226	84.818466785854	0.927886962890625	0.92803955078125	4.23583984375001E-07	3.93102681073287E-07	2190922.25	2.58714717347175E-05
1	227	84.9191747855997	0.917816162109375	0.91827392578125	4.13818359375E-07	3.79998596145015E-07	2219026.5	2.59136395470705E-05
1	228	85.0198827853454	0.907745361328125	0.90728759765625	4.03442382812499E-07	3.66038278798442E-07	2248865.25	2.59547905443469E-05
1	229	85.1205907850912	0.897674560546875	0.8978271484375	3.9337158203125E-07	3.5317967217452E-07	2282389.5	2.59949138126103E-05
1	230	85.2212987848369	0.887603759765625	0.8880615234375	3.8299560546875E-07	3.40123676778603E-07	2318725	2.60340075328713E-05
1	231	85.3220067845826	0.877532958984375	0.877685546875	3.7200927734375E-07	3.2650717685101E-07	2359311	2.60720244114054E-05
1	232	85.4227147843284	0.867462158203125	0.8673095703125	3.6163330078125E-07	3.13648001792899E-07	2398312.25	2.6108966267202E-05
1	233	85.5234227840741	0.857391357421875	0.85845947265625	3.5125732421875E-07	3.01540154623581E-07	2443961.75	2.6144864023081E-05
1	234	85.6241307838199	0.847320556640625	0.84716796875	3.40576171875E-07	2.88525200176082E-07	2487455.25	2.61796994891483E-05
1	235	85.7248387835656	0.837249755859375	0.83770751953125	3.2958984375E-07	2.76099882512426E-07	2541666.75	2.62134453805629E-05
1	236	85.8255467833113	0.827178955078125	0.82763671875	3.1890869140625E-07	2.6394053520562E-07	2595215.25	2.62460998783354E-05
1	237	85.9262547830571	0.817108154296875	0.8172607421875	3.082275390625E-07	2.51902264380988E-07	2651485.25	2.62776793533703E-05
1	238	86.0269627828028	0.807037353515625	0.80718994140625	2.96630859374999E-07	2.39437440541224E-07	2721193.5	2.63081365119433E-05
1	239	86.1276707825485	0.796966552734375	0.79742431640625	2.8564453125E-07	2.27779878514411E-07	2791666.75	2.63374549831497E-05
1	240	86.2283787822943	0.786895751953125	0.78765869140625	2.73742675781249E-07	2.15615798992985E-07	2877369	2.6365623853053E-05
1	241	86.32908678204	0.776824951171875	0.77667236328125	2.60009765624999E-07	2.01942384592257E-07	2987089.25	2.63924994214904E-05
1	242	86.4297947817857	0.766754150390625	0.76690673828125	2.4383544921875E-07	1.86999045581615E-07	3145181.5	2.6417870685691E-05
1	243	86.5305027815315	0.756683349609375	0.7568359375	2.2552490234375E-07	1.70685353850786E-07	3355886.25	2.64415048150113E-05
1	244	86.6312107812772	0.746612548828125	0.74639892578125	2.03552246093749E-07	1.51931175196296E-07	3666866.5	2.64631107711466E-05
1	245	86.731918781023	0.736541748046875	0.7364501953125	1.7822265625E-07	1.31252107848923E-07	4132192	2.64823338511633E-05
1	246	86.8326267807687	0.726470947265625	0.726348876953125	1.48620605468749E-07	1.07950405947577E-07	4887269	2.64987920672866E-05
1	247	86.9333347805144	0.716400146484375	0.71636962890625	1.18103027343749E-07	8.46054177827682E-08	6065633	2.65122216660529E-05
1	248	87.0340427802602	0.706329345703125	0.70623779296875	8.78906250000006E-08	6.20716846810865E-08	8035416.5	2.65225953626214E-05
1	249	87.1347507800059	0.696258544921875	0.696197509765625	6.19506835937506E-08	4.31299085335013E-08	11237932	2.65301405306673E-05
1	250	87.2354587797516	0.686187744140625	0.686065673828125	4.2724609375E-08	2.93118862515485E-08	16057858	2.65354101429693E-05
1	251	87.3361667794974	0.676116943359375	0.676055908203125	3.11279296874994E-08	2.1044220588351E-08	21718628	2.65391299762996E-05
1	252	87.4368747792431	0.666046142578125	0.66595458984375	2.65502929687494E-08	1.76812893215583E-08	25082758	2.65420349023771E-05
1	253	87.5375827789888	0.655975341796875	0.655853271484375	2.68554687500006E-08	1.76132477491819E-08	24421590	2.65447233687155E-05
1	254	87.6382907787346	0.645904541015625	0.645751953125	3.11279296874994E-08	2.01009200395674E-08	20745098	2.65476428467082E-05
1	255	87.7389987784803	0.635833740234375	0.6357421875	3.662109375E-08	2.32815722256419E-08	17360000	2.65510552708292E-05
1	256	87.8397067782261	0.625762939453125	0.625762939453125	4.36401367187506E-08	2.73083795576667E-08	14339161	2.65550952462945E-05
1	257	87.9404147779718	0.615692138671875	0.615631103515625	4.97436523437506E-08	3.06237382119434E-08	12376074	2.65597973339027E-05
1	258	88.0411227777175	0.605621337890625	0.605499267578125	5.61523437500003E-08	3.40002017651386E-08	10783153	2.65651306108339E-05
1	259	88.1418307774633	0.595550537109375	0.59552001953125	6.22558593750003E-08	3.70746100486485E-08	9565687	2.65710932580987E-05
1	260	88.242538777209	0.585479736328125	0.585357666015625	6.74438476562497E-08	3.94787704749433E-08	8679186	2.65776234300574E-05
1	261	88.3432467769547	0.575408935546875	0.575347900390625	7.29370117187503E-08	4.19641565940765E-08	7888284.5	2.65846920228796E-05
1	262	88.4439547767005	0.565338134765625	0.56524658203125	7.781982421875E-08	4.39873879543029E-08	7263530	2.659228448465E-05
1	263	88.5446627764462	0.555267333984375	0.55523681640625	8.17871093750006E-08	4.54112125680695E-08	6788806	2.66003207798349E-05
1	264	88.645370776192	0.545196533203125	0.54522705078125	8.51440429687503E-08	4.64228335772532E-08	6403584.5	2.66087263298687E-05
1	265	88.7460787759377	0.535125732421875	0.53509521484375	8.88061523437497E-08	4.75197481364376E-08	6025429.5	2.66174847638467E-05
1	266	88.8467867756834	0.525054931640625	0.52508544921875	9.18579101562497E-08	4.82332502826921E-08	5716279.5	2.66265815298539E-05
1	267	88.9474947754292	0.514984130859375	0.51495361328125	9.46044921875E-08	4.87169238283514E-08	5443226	2.6635971153155E-05
1	268	89.0482027751749	0.504913330078125	0.504791259765625	9.67407226562494E-08	4.88338685045164E-08	5217981	2.66456063400256E-05
1	269	89.1489107749206	0.494842529296875	0.49481201171875	9.918212890625E-08	4.90765046379238E-08	4988923.5	2.66554725385504E-05
1	270	89.2496187746664	0.484771728515625	0.4847412109375	1.0040283203125E-07	4.8669388519329E-08	4827963.5	2.6665522455005E-05
1	271	89.3503267744121	0.474700927734375	0.474578857421875	1.019287109375E-07	4.83732094380684E-08	4655988.5	2.66757106146542E-05
1	272	89.4510347741578	0.464630126953125	0.464569091796875	1.025390625E-07	4.76364796497819E-08	4530655	2.66860060946783E-05
1	273	89.5517427739036	0.454559326171875	0.454559326171875	1.0345458984375E-07	4.70262477847427E-08	4393805.5	2.66963779722573E-05
1	274	89.6524507736493	0.444488525390625	0.4444580078125	1.0406494140625E-07	4.62524951672094E-08	4270968	2.67068280663807E-05
1	275	89.7531587733951	0.434417724609375	0.434417724609375	1.0406494140625E-07	4.52076527324152E-08	4174487	2.67173072643345E-05
1	276	89.8538667731408	0.424346923828125	0.42437744140625	1.0345458984375E-07	4.39037926014407E-08	4102065	2.67277573584579E-05
1	277	89.9545747728865	0.414276123046875	0.414276123046875	1.0406494140625E-07	4.31116191634828E-08	3980938.5	2.67382074525813E-05
1	278	90.0552827726323	0.404205322265625	0.404205322265625	1.0406494140625E-07	4.20636006026598E-08	3884164.25	2.67486866505351E-05
1	279	90.155990772378	0.394134521484375	0.3941650390625	1.0406494140625E-07	4.10187617205793E-08	3787683.5	2.67591676674783E-05
1	280	90.2566987721237	0.384063720703125	0.384033203125	1.0406494140625E-07	3.99643909076985E-08	3690322.75	2.67696468654322E-05
1	281	90.3574067718695	0.373992919921875	0.37396240234375	1.0406494140625E-07	3.89163758995892E-08	3593548.5	2.67801278823754E-05
1	282	90.4581147716152	0.363922119140625	0.36395263671875	1.04370117187499E-07	3.79857780785642E-08	3487134.5	2.67906234512338E-05
1	283	90.558822771361	0.353851318359375	0.35382080078125	1.0406494140625E-07	3.68203387779431E-08	3400000	2.68011190200923E-05
1	284	90.6595307711067	0.343780517578125	0.343841552734375	1.03149414062501E-07	3.54670532942691E-08	3333432	2.6811552743311E-05
1	285	90.7602387708524	0.333709716796875	0.333709716796875	1.025390625E-07	3.42182815415981E-08	3254464.25	2.68219100689748E-05
1	286	90.8609467705982	0.323638916015625	0.32366943359375	1.0101318359375E-07	3.26948779161285E-08	3204229.75	2.68321600742638E-05
1	287	90.9616547703439	0.313568115234375	0.3135986328125	1.00097656250001E-07	3.13904848781021E-08	3132927	2.68422863882734E-05
1	288	91.0623627700896	0.303497314453125	0.303436279296875	9.82666015624995E-08	2.98176487945057E-08	3087888.25	2.68522744590882E-05
1	289	91.1630707698354	0.293426513671875	0.29339599609375	9.64355468749997E-08	2.82938010798262E-08	3042405.25	2.68620788119733E-05
1	290	91.2637787695811	0.283355712890625	0.28338623046875	9.39941406250006E-08	2.6636644889777E-08	3014935.25	2.68716685241088E-05
1	291	91.3644867693268	0.273284912109375	0.2733154296875	9.1552734375E-08	2.50227749631904E-08	2985333.25	2.68810108536854E-05
1	292	91.4651947690726	0.263214111328125	0.26318359375	8.81958007812503E-08	2.32116867948662E-08	2984083.25	2.68900621449575E-05
1	293	91.5659027688183	0.253143310546875	0.253173828125	8.45336914062495E-08	2.14017177313508E-08	2994946	2.68987587332958E-05
1	294	91.6666107685641	0.243072509765625	0.24310302734375	7.96508789062497E-08	1.93633677980642E-08	3052107.5	2.6907026040135E-05
1	295	91.7673187683098	0.233001708984375	0.2330322265625	7.476806640625E-08	1.74233694139048E-08	3116734.75	2.69148022198351E-05
1	296	91.8680267680555	0.222930908203125	0.222930908203125	6.92749023437495E-08	1.54435166876965E-08	3218061.5	2.69220563495765E-05
1	297	91.9687347678013	0.212860107421875	0.212799072265625	6.28662109374997E-08	1.33778703670373E-08	3384951.75	2.69287102128146E-05
1	298	92.069442767547	0.202789306640625	0.2027587890625	5.58471679687506E-08	1.13235039123083E-08	3630601.25	2.69346874119947E-05
1	299	92.1701507672927	0.192718505859375	0.192718505859375	4.69970703125003E-08	9.05720476396255E-09	4100649.5	2.69398660748266E-05
1	300	92.2708587670385	0.182647705078125	0.182647705078125	3.60107421875006E-08	6.57727960984289E-09	5072034	2.69440461124759E-05
1	301	92.3715667667842	0.172576904296875	0.1724853515625	2.13623046875E-08	3.68468455747006E-09	8074286	2.69469346676487E-05
1	302	92.4722747665299	0.162506103515625	0.16253662109375	3.0517578125E-09	4.9602238982871E-10	53260000	2.69481643044855E-05
1	303	92.5729827662757	0.152435302734375	0.152435302734375	-2.31933593749997E-08	-3.535486570172E-09	-6572368.5	2.69471493083984E-05
1	304	92.6736907660214	0.142364501953125	0.14239501953125	-5.85937499999994E-08	-8.34345836864259E-09	-2430208.5	2.69430311163887E-05
1	305	92.7743987657672	0.132293701171875	0.13232421875	-1.0711669921875E-07	-1.41741329784395E-08	-1235327.625	2.69346874119947E-05
1	306	92.8751067655129	0.122222900390625	0.12225341796875	-1.7364501953125E-07	-2.12286970224795E-08	-704042.1875	2.69205502263503E-05
1	307	92.9758147652586	0.112152099609375	0.112091064453125	-2.6580810546875E-07	-2.97947124749953E-08	-421699.21875	2.68984222202562E-05
1	308	93.0765227650044	0.102081298828125	0.102142333984375	-3.88183593749999E-07	-3.96499792998384E-08	-263128.9375	2.68654912360944E-05
1	309	93.1772307647501	0.092010498046875	0.092071533203125	-5.4779052734375E-07	-5.043591499998E-08	-168077.984375	2.68183594016591E-05
1	310	93.2779387644958	0.081939697265625	0.08203125	-7.4737548828125E-07	-6.1308142562666E-08	-109759.09375	2.67531431745738E-05
1	311	93.3786467642416	0.071868896484375	0.071929931640625	-9.8541259765625E-07	-7.08806595639544E-08	-72994.734375	2.66658898908645E-05
1	312	93.4793547639873	0.061798095703125	0.06182861328125	-1.25030517578125E-06	-7.73046338053973E-08	-49450.8203125	2.6553312636679E-05
1	313	93.5800627637331	0.051727294921875	0.051727294921875	-1.522216796875E-06	-7.87401575053082E-08	-33981.55859375	2.64137051999569E-05
1	314	93.6807707634788	0.041656494140625	0.0417694091796875	-1.773681640625E-06	-7.40856265224465E-08	-23549.552734375	2.62477442447562E-05
1	315	93.7814787632245	0.031585693359375	0.031695556640625	-1.98150634765625E-06	-6.28049434681088E-08	-15995.6875	2.60586548392894E-05
1	316	93.8821867629703	0.021514892578125	0.0216400146484375	-2.125244140625E-06	-4.59903084504276E-08	-10182.3671875	2.58518648479367E-05
1	317	93.982894762716	0.011444091796875	0.011566162109375	-2.19879150390625E-06	-2.54315786207826E-08	-5260.236328125	2.56341318163322E-05
1	318	94.0836027624617	0.001373291015625	0.00144348144531251	-2.20916748046875E-06	-3.1888920393186E-09	-653.405151367188	2.54121732723434E-05
1	319	94.1843107622075	-0.008697509765625	-0.00858459472656251	-2.1710205078125E-06	1.86373299015941E-08	3954.1748046875	2.51916135312058E-05
1	320	94.2850187619532	-0.018768310546875	-0.01865234375	-2.10296630859375E-06	3.92252488268241E-08	8869.541015625	2.49764016189147E-05
1	321	94.3857267616989	-0.028839111328125	-0.02874755859375	-2.01934814453125E-06	5.80513273007455E-08	14236.05859375	2.47688258241396E-05
1	322	94.4864347614447	-0.038909912109375	-0.0387969970703125	-1.93115234375E-06	7.49229158714115E-08	20090.076171875	2.45699029619573E-05
1	323	94.5871427611904	-0.048980712890625	-0.048858642578125	-1.84539794921875E-06	9.01636383332516E-08	26475.939453125	2.4379738533753E-05
1	324	94.6878507609362	-0.059051513671875	-0.05902099609375	-1.76513671875E-06	1.04180124083086E-07	33437.0703125	2.4197932361858E-05
1	325	94.7885587606819	-0.069122314453125	-0.069061279296875	-1.69219970703125E-06	1.16865479071748E-07	40811.54296875	2.40238423430128E-05
1	326	94.8892667604276	-0.079193115234375	-0.079193115234375	-1.6265869140625E-06	1.2881447730706E-07	48686.68359375	2.38567281485302E-05
1	327	94.9899747601734	-0.089263916015625	-0.089202880859375	-1.56829833984375E-06	1.39896727091582E-07	56878.76953125	2.36958530877018E-05
1	328	95.0906827599191	-0.099334716796875	-0.09930419921875	-1.5167236328125E-06	1.50617026406508E-07	65472.8359375	2.35405095736496E-05
1	329	95.1913907596648	-0.109405517578125	-0.10931396484375	-1.4715576171875E-06	1.60861787890099E-07	74284.53125	2.33900373132201E-05
1	330	95.2920987594106	-0.119476318359375	-0.119384765625	-1.43157958984375E-06	1.70908791119473E-07	83393.734375	2.32438542298041E-05
1	331	95.3928067591563	-0.129547119140625	-0.129425048828125	-1.396484375E-06	1.80740045152561E-07	92679.203125	2.31014491873793E-05
1	332	95.4935147589021	-0.139617919921875	-0.1395263671875	-1.36505126953125E-06	1.90460639259982E-07	102213.28125	2.29623947234359E-05
1	333	95.5942227586478	-0.149688720703125	-0.149627685546875	-1.33758544921875E-06	2.00139808725908E-07	111864.0234375	2.28263052122202E-05
1	334	95.6949307583935	-0.159759521484375	-0.159698486328125	-1.31317138671875E-06	2.09711473075913E-07	121612.8359375	2.26928295887774E-05
1	335	95.7956387581393	-0.169830322265625	-0.169708251953125	-1.2921142578125E-06	2.19282441094037E-07	131341.515625	2.25616440729937E-05
1	336	95.896346757885	-0.179901123046875	-0.179779052734375	-1.27349853515625E-06	2.28948351832514E-07	141169.4375	2.24324539885856E-05
1	337	95.9970547576307	-0.189971923828125	-0.1898193359375	-1.2567138671875E-06	2.38548580000497E-07	151044.203125	2.23050483327825E-05
1	338	96.0977627573765	-0.200042724609375	-0.19989013671875	-1.24267578125E-06	2.48398606572664E-07	160854.625	2.21791942749405E-05
1	339	96.1984707571222	-0.189971923828125	-0.18975830078125	-1.09649658203125E-06	2.08069323548443E-07	173058.71875	2.20614074351033E-05
2	340	96.2991787568679	-0.179901123046875	-0.17974853515625	-9.9945068359375E-07	1.79649788378811E-07	179847.328125	2.19558678509202E-05
2	341	96.3998867566137	-0.169830322265625	-0.169677734375	-9.2193603515625E-07	1.56432008679985E-07	184045.015625	2.1859117623535E-05
2	342	96.5005947563594	-0.159759521484375	-0.15960693359375	-8.575439453125E-07	1.36869957145791E-07	186121	2.17695142055163E-05
2	343	96.6013027561052	-0.149688720703125	-0.149566650390625	-8.02001953125001E-07	1.19952744626062E-07	186491.640625	2.16859498323174E-05
2	344	96.7020107558509	-0.139617919921875	-0.139434814453125	-7.5225830078125E-07	1.04890993668505E-07	185354.96875	2.16076859942405E-05
2	345	96.8027187555966	-0.129547119140625	-0.129486083984375	-7.07397460937501E-07	9.15981246407682E-08	183045.734375	2.15341860894114E-05
2	346	96.9034267553424	-0.119476318359375	-0.11944580078125	-6.66198730468751E-07	7.95746402104669E-08	179294.546875	2.1465020836331E-05
2	347	97.0041347550881	-0.109405517578125	-0.10931396484375	-6.26525878906251E-07	6.84880276935473E-08	174476.375	2.13999264815357E-05
2	348	97.1048427548338	-0.099334716796875	-0.099273681640625	-5.8868408203125E-07	5.84408361703481E-08	168636.59375	2.13387356780004E-05
2	349	97.2055507545796	-0.089263916015625	-0.08917236328125	-5.5206298828125E-07	4.92287632880561E-08	161525.703125	2.12812956306152E-05
2	350	97.3062587543253	-0.079193115234375	-0.079193115234375	-5.14831542968749E-07	4.07711127081711E-08	153823.359375	2.12275735975709E-05
2	351	97.406966754071	-0.069122314453125	-0.069091796875	-4.75158691406249E-07	3.28295683971191E-08	145407.84375	2.11777223739773E-05
2	352	97.5076747538168	-0.059051513671875	-0.0589599609375	-4.3182373046875E-07	2.54603094163031E-08	136537.109375	2.11320530070225E-05
2	353	97.6083827535625	-0.048980712890625	-0.04884033203125	-3.82385253906251E-07	1.86758235543039E-08	127725.4609375	2.1091054804856E-05
2	354	97.7090907533083	-0.038909912109375	-0.0387725830078125	-3.22265625E-07	1.24950698676685E-08	120312.5078125	2.1055571778561E-05
2	355	97.809798753054	-0.028839111328125	-0.028692626953125	-2.47802734374999E-07	7.11011116649729E-09	115788.1875	2.10268663067836E-05
2	356	97.9105067527997	-0.018768310546875	-0.0186737060546875	-1.5228271484375E-07	2.84368262271073E-09	122625.2578125	2.10067209991394E-05
2	357	98.0112147525455	-0.008697509765625	-0.0085784912109375	-2.96020507812494E-08	2.53940923844453E-10	289793.8125	2.09975623874925E-05
2	358	98.1119227522912	0.001373291015625	0.00146484375	1.27258300781249E-07	1.86413523506346E-10	11510.791015625	2.10024791158503E-05
2	359	98.2126307520369	0.011444091796875	0.011572265625	3.2379150390625E-07	3.74700137584227E-09	35739.87109375	2.1025191017543E-05
2	360	98.3133387517827	0.021514892578125	0.021612548828125	5.5816650390625E-07	1.20634009448395E-08	38720.61328125	2.10696016438305E-05
2	361	98.4140467515284	0.031585693359375	0.0316619873046875	8.2427978515625E-07	2.60983359368083E-08	38411.69921875	2.11392143683042E-05
2	362	98.5147547512742	0.041656494140625	0.041790771484375	1.1053466796875E-06	4.61932891937522E-08	37807.84375	2.1236377506284E-05
2	363	98.6154627510199	0.051727294921875	0.0517578125	1.3775634765625E-06	7.12996666152321E-08	37572	2.1361402104958E-05
2	364	98.7161707507656	0.061798095703125	0.061767578125	1.6156005859375E-06	9.97917339873311E-08	38231.9609375	2.1512119928957E-05
2	365	98.8168787505114	0.071868896484375	0.07183837890625	1.79718017578125E-06	1.29106510371457E-07	39972.83203125	2.16839671338676E-05
2	366	98.9175867502571	0.081939697265625	0.08197021484375	1.91162109375E-06	1.56695989517175E-07	42879.953125	2.18707209569402E-05
2	367	99.0182947500028	0.092010498046875	0.092041015625	1.96044921875E-06	1.80441745101234E-07	46948.94140625	2.20656947931275E-05
2	368	99.1190027497486	0.102081298828125	0.10211181640625	1.954345703125E-06	1.99561782210367E-07	52248.59765625	2.22628204937791E-05
2	369	99.2197107494943	0.112152099609375	0.1121826171875	1.910400390625E-06	2.1431371521885E-07	58722.04296875	2.24574250751175E-05
2	370	99.32041874924	0.122222900390625	0.122222900390625	1.84478759765625E-06	2.25475289994392E-07	66253.1015625	2.26465144805843E-05
2	371	99.4211267489858	0.132293701171875	0.13232421875	1.76910400390625E-06	2.34095296036685E-07	74797.3125	2.28284879995044E-05
2	372	99.5218347487315	0.142364501953125	0.142333984375	1.69281005859375E-06	2.40944387996933E-07	84081.4921875	2.30028090300038E-05
2	373	99.6225427484773	0.152435302734375	0.152435302734375	1.61895751953125E-06	2.46786271418387E-07	94156.453125	2.31695703405421E-05
2	374	99.723250748223	0.162506103515625	0.162567138671875	1.5509033203125E-06	2.52125914812495E-07	104820.9375	2.33291848417139E-05
2	375	99.8239587479687	0.172576904296875	0.17254638671875	1.49017333984375E-06	2.57124014524379E-07	115789.4765625	2.34823164646514E-05
2	376	99.9246667477145	0.182647705078125	0.18267822265625	1.43585205078125E-06	2.6229889726892E-07	127226.359375	2.36296527873492E-05
2	377	100.02537474746	0.192718505859375	0.192718505859375	1.3873291015625E-06	2.67363986949931E-07	138913.328125	2.37718104472151E-05
2	378	100.126082747206	0.202789306640625	0.20281982421875	1.34552001953125E-06	2.72898120101672E-07	150737.125	2.39094206335722E-05
2	379	100.226790746952	0.212860107421875	0.21282958984375	1.30859375E-06	2.78507457096566E-07	162639.9375	2.40430672420189E-05
2	380	100.327498746697	0.222930908203125	0.22296142578125	1.27593994140625E-06	2.84485366819354E-07	174742.890625	2.4173208657885E-05
2	381	100.428206746443	0.233001708984375	0.232940673828125	1.24664306640625E-06	2.90393870727712E-07	186854.359375	2.4300230506924E-05
2	382	100.528914746189	0.243072509765625	0.243011474609375	1.22039794921875E-06	2.96570703994803E-07	199124.78125	2.44244547502603E-05
2	383	100.629622745935	0.253143310546875	0.25311279296875	1.1981201171875E-06	3.03259525935573E-07	211258.28125	2.45462379098171E-05
2	384	100.73033074568	0.263214111328125	0.263153076171875	1.1767578125E-06	3.09667427700333E-07	223625.515625	2.4665821911185E-05
2	385	100.831038745426	0.273284912109375	0.273223876953125	1.15753173828125E-06	3.16265300170926E-07	236040.0625	2.47833631874528E-05
2	386	100.931746745172	0.283355712890625	0.283416748046875	1.14013671875E-06	3.23133832580424E-07	248581.390625	2.48990600084653E-05
2	387	101.032454744918	0.293426513671875	0.293304443359375	1.12396240234375E-06	3.29663180309581E-07	260955.734375	2.5013066988322E-05
2	388	101.133162744663	0.303497314453125	0.303497314453125	1.1090087890625E-06	3.36581166493488E-07	273665.40625	2.51255059993127E-05
2	389	101.233870744409	0.313568115234375	0.313568115234375	1.0968017578125E-06	3.43922039292011E-07	285893.15625	2.52365771302721E-05
2	390	101.334578744155	0.323638916015625	0.323577880859375	1.083984375E-06	3.50753339262155E-07	298507.90625	2.53463877015747E-05
2	391	101.435286743901	0.333709716796875	0.333709716796875	1.07269287109375E-06	3.57968019670807E-07	311095.3125	2.54549850069452E-05
2	392	101.535994743646	0.343780517578125	0.343780517578125	1.0626220703125E-06	3.65308750360782E-07	323521	2.55625072895782E-05
2	393	101.636702743392	0.353851318359375	0.3538818359375	1.05316162109375E-06	3.7269475683388E-07	336018.5625	2.56690454989439E-05
2	394	101.737410743138	0.363922119140625	0.36395263671875	1.044921875E-06	3.80302083158313E-07	348306.0625	2.57746924035018E-05
2	395	101.838118742883	0.373992919921875	0.3740234375	1.0369873046875E-06	3.87857568284744E-07	360682.75	2.5879524400807E-05
2	396	101.938826742629	0.384063720703125	0.384063720703125	1.03057861328125E-06	3.95807830955164E-07	372668.0625	2.59836342593189E-05
2	397	102.039534742375	0.394134521484375	0.394134521484375	1.02508544921875E-06	4.04021562872003E-07	384489.4375	2.60871456703171E-05
2	398	102.140242742121	0.404205322265625	0.404205322265625	1.02020263671875E-06	4.12371321090177E-07	396201.03125	2.61901332123671E-05
2	399	102.240950741866	0.414276123046875	0.41424560546875	1.0162353515625E-06	4.20970991399372E-07	407627.65625	2.62926769210026E-05
2	400	102.341658741612	0.424346923828125	0.424346923828125	1.0125732421875E-06	4.29682330604919E-07	419077.78125	2.63948350038845E-05
2	401	102.442366741358	0.434417724609375	0.434417724609375	1.00921630859375E-06	4.3842143782058E-07	430450.59375	2.64966402028222E-05
2	402	102.543074741104	0.444488525390625	0.4444580078125	1.00677490234375E-06	4.47469119535526E-07	441467.15625	2.65981543634553E-05
2	403	102.643782740849	0.454559326171875	0.454559326171875	1.0040283203125E-06	4.56390409908636E-07	452735.59375	2.66994065896142E-05
2	404	102.744490740595	0.464630126953125	0.464599609375	1.00250244140625E-06	4.65762269641345E-07	463439.875	2.68004423560342E-05
2	405	102.845198740341	0.474700927734375	0.47467041015625	1.00067138671875E-06	4.74989064969122E-07	474351.96875	2.6901310775429E-05
2	406	102.945906740087	0.484771728515625	0.484710693359375	9.9853515625E-07	4.84000679534802E-07	485421.78125	2.70019791059894E-05
2	407	103.046614739832	0.494842529296875	0.494781494140625	9.979248046875E-07	4.93754725994222E-07	495810.40625	2.71025073743658E-05
2	408	103.147322739578	0.504913330078125	0.504913330078125	9.97314453125001E-07	5.0355731673335E-07	506273	2.72029756160919E-05
2	409	103.248030739324	0.514984130859375	0.514892578125	9.97314453125001E-07	5.13509746724594E-07	516279.125	2.73034147539875E-05
2	410	103.34873873907	0.525054931640625	0.524993896484375	9.9761962890625E-07	5.23744233760226E-07	526246.5625	2.74038666248089E-05
2	411	103.449446738815	0.535125732421875	0.53509521484375	9.9822998046875E-07	5.34148114184063E-07	536044	2.75043657893548E-05
2	412	103.550154738561	0.545196533203125	0.545135498046875	9.99755859375E-07	5.45002365015534E-07	545268.625	2.76049722742755E-05
2	413	103.650862738307	0.555267333984375	0.555206298828125	1.00189208984375E-06	5.56256793515786E-07	554157.8125	2.77057642961154E-05
2	414	103.751570738052	0.565338134765625	0.56524658203125	1.0040283203125E-06	5.6752355703793E-07	562978.75	2.78067691397155E-05
2	415	103.852278737798	0.575408935546875	0.575347900390625	1.0064697265625E-06	5.79070217554545E-07	571649.5	2.79080068139592E-05
2	416	103.952986737544	0.585479736328125	0.585418701171875	1.0101318359375E-06	5.91350044487626E-07	579546.875	2.80095500784228E-05
2	417	104.05369473729	0.595550537109375	0.595489501953125	1.0150146484375E-06	6.04430567818781E-07	586680.6875	2.81115244433749E-05
2	418	104.154402737035	0.605621337890625	0.60552978515625	1.0205078125E-06	6.17947819137044E-07	593361.3125	2.82140208582859E-05
2	419	104.255110736781	0.615692138671875	0.61566162109375	1.0272216796875E-06	6.32420949386869E-07	599346.4375	2.83171320916153E-05
2	420	104.355818736527	0.625762939453125	0.625732421875	1.0357666015625E-06	6.48112745693652E-07	604124.9375	2.84210127574624E-05
2	421	104.456526736273	0.635833740234375	0.63568115234375	1.04583740234375E-06	6.64819140183681E-07	607820.25	2.8525828383863E-05
2	422	104.557234736018	0.645904541015625	0.64581298828125	1.0589599609375E-06	6.83890050368063E-07	609855.9375	2.863181362045E-05
2	423	104.657942735764	0.655975341796875	0.65594482421875	1.0748291015625E-06	7.05028583070089E-07	610278.25	2.8739259505528E-05
2	424	104.75865073551	0.666046142578125	0.665924072265625	1.09405517578125E-06	7.28557665752305E-07	608675.0625	2.88484716293169E-05
2	425	104.859358735256	0.676116943359375	0.676055908203125	1.11724853515625E-06	7.55322446366335E-07	605107.875	2.89598192466656E-05
2	426	104.960066735001	0.686187744140625	0.68603515625	1.1431884765625E-06	7.84267456310772E-07	600106.8125	2.90736406896031E-05
2	427	105.060774734747	0.696258544921875	0.69610595703125	1.17156982421875E-06	8.15536736809008E-07	594165.125	2.91901978926035E-05
2	428	105.161482734493	0.706329345703125	0.70623779296875	1.19964599609375E-06	8.472353556499E-07	588705.125	2.93095981760416E-05
2	429	105.262190734239	0.716400146484375	0.71630859375	1.22528076171875E-06	8.77679099176021E-07	584607.75	2.94317032967228E-05
2	430	105.362898733984	0.726470947265625	0.726409912109375	1.24542236328125E-06	9.04687169622775E-07	583263.875	2.95561130769784E-05
2	431	105.46360673373	0.736541748046875	0.7364501953125	1.26007080078125E-06	9.27979385778599E-07	584451.4375	2.96822745440295E-05
2	432	105.564314733476	0.746612548828125	0.746551513671875	1.26922607421875E-06	9.47542616813735E-07	588194.3125	2.98096347250976E-05
2	433	105.665022733221	0.756683349609375	0.75714111328125	1.27288818359375E-06	9.63755951488565E-07	594821.375	2.99376406474039E-05
2	434	105.765730732967	0.766754150390625	0.7672119140625	1.2725830078125E-06	9.76340857050673E-07	602877.75	3.00658157357248E-05
2	435	105.866438732713	0.776824951171875	0.7769775390625	1.2701416015625E-06	9.8687144145515E-07	611725.1875	3.01938507618615E-05
2	436	105.967146732459	0.786895751953125	0.7867431640625	1.26678466796875E-06	9.96634071270819E-07	621055.1875	3.03215965686832E-05
2	437	106.067854732204	0.796966552734375	0.797119140625	1.263427734375E-06	1.00710246897506E-06	630917.875	3.04490022244863E-05
2	438	106.16856273195	0.807037353515625	0.8074951171875	1.26007080078125E-06	1.01750106296095E-06	640833.125	3.05760695482604E-05
2	439	106.269270731696	0.817108154296875	0.81756591796875	1.25701904296875E-06	1.02769593013363E-06	650400.625	3.07028167298995E-05
2	440	106.369978731442	0.827178955078125	0.82763671875	1.25457763671875E-06	1.03833451703395E-06	659693.5625	3.08292837871704E-05
2	441	106.470686731187	0.837249755859375	0.83740234375	1.25274658203125E-06	1.04905291209434E-06	668453.125	3.09555398416705E-05
2	442	106.571394730933	0.847320556640625	0.84747314453125	1.25091552734375E-06	1.06011725620192E-06	677482.3125	3.10816067212727E-05
2	443	106.672102730679	0.857391357421875	0.8575439453125	1.2493896484375E-06	1.07140647287451E-06	686370.3125	3.12075098918285E-05
2	444	106.772810730425	0.867462158203125	0.8673095703125	1.24755859375E-06	1.08201948023634E-06	695205.5	3.13332384394016E-05
2	445	106.87351873017	0.877532958984375	0.8770751953125	1.246337890625E-06	1.09313202756312E-06	703721.8125	3.14588178298436E-05
2	446	106.974226729916	0.887603759765625	0.88775634765625	1.2451171875E-06	1.1053606385758E-06	712990.25	3.15842735290062E-05
2	447	107.074934729662	0.897674560546875	0.8984375	1.24420166015625E-06	1.11783742795524E-06	722099.625	3.17096200888045E-05
2	448	107.175642729408	0.907745361328125	0.90789794921875	1.2432861328125E-06	1.12877683022816E-06	730240.5625	3.18348756991327E-05
2	449	107.276350729153	0.917816162109375	0.91796875	1.24176025390625E-06	1.13989699457306E-06	739248	3.19600076181814E-05
2	450	107.377058728899	0.927886962890625	0.92803955078125	1.241455078125E-06	1.15211935280968E-06	747541.8125	3.20850449497811E-05
2	451	107.477766728645	0.937957763671875	0.9381103515625	1.241455078125E-06	1.16462183541444E-06	755653.9375	3.22100713674445E-05
2	452	107.57847472839	0.948028564453125	0.9478759765625	1.241455078125E-06	1.17674539978907E-06	763520.1875	3.2335094147129E-05
2	453	107.679182728136	0.958099365234375	0.95855712890625	1.241455078125E-06	1.19000560516724E-06	772123.9375	3.24601205647923E-05
2	454	107.779890727882	0.968170166015625	0.968017578125	1.24176025390625E-06	1.20204572340299E-06	779552.75	3.2585157896392E-05
2	455	107.880598727628	0.978240966796875	0.97869873046875	1.2432861328125E-06	1.21680250231293E-06	787187.0625	3.27102898154408E-05
2	456	107.981306727373	0.988311767578125	0.9881591796875	1.2445068359375E-06	1.22977087357867E-06	794016.6875	3.28355599776842E-05
2	457	108.082014727119	0.998382568359375	0.99822998046875	1.2457275390625E-06	1.24352254715632E-06	801322.875	3.2960953831207E-05
2	458	108.182722726865	1.00845336914063	1.00860595703125	1.24786376953125E-06	1.25860287880641E-06	808266.0625	3.30865186697338E-05
2	459	108.283430726611	1.01852416992188	1.01837158203125	1.24969482421875E-06	1.2726536624541E-06	814896.1875	3.32122799591161E-05
2	460	108.384138726356	1.02859497070313	1.02813720703125	1.25213623046875E-06	1.2873678087999E-06	821106.5625	3.33382558892481E-05
2	461	108.484846726102	1.03866577148438	1.03851318359375	1.2542724609375E-06	1.30257842556603E-06	827980.5625	3.34644646500237E-05
2	462	108.585554725848	1.04873657226563	1.04888916015625	1.25701904296875E-06	1.31847355078207E-06	834425.875	3.35909171553794E-05
2	463	108.686262725594	1.05880737304688	1.05926513671875	1.25885009765625E-06	1.33345599806489E-06	841454.5625	3.37176024913788E-05
2	464	108.786970725339	1.06887817382813	1.0687255859375	1.26129150390625E-06	1.34797448936297E-06	847326.4375	3.38445024681278E-05
2	465	108.887678725085	1.07894897460938	1.07879638671875	1.263427734375E-06	1.36298126562906E-06	853864.75	3.39716316375416E-05
2	466	108.988386724831	1.08901977539063	1.0888671875	1.265869140625E-06	1.37836332214647E-06	860173.625	3.40989899996202E-05
2	467	109.089094724577	1.09909057617188	1.0986328125	1.2677001953125E-06	1.39273709010013E-06	866634.5625	3.42265666404273E-05
2	468	109.189802724322	1.10916137695313	1.109619140625	1.26983642578125E-06	1.40903478040855E-06	873828.4375	3.435433973209E-05
2	469	109.290510724068	1.11923217773438	1.119384765625	1.27227783203125E-06	1.42416843118554E-06	879827.3125	3.44823456543963E-05
2	470	109.391218723814	1.12930297851563	1.12945556640625	1.27532958984375E-06	1.44042803640332E-06	885618.625	3.4610628063092E-05
2	471	109.491926723559	1.13937377929688	1.138916015625	1.27838134765625E-06	1.45596891343303E-06	890904.75	3.47392196999863E-05
2	472	109.592634723305	1.14944458007813	1.14898681640625	1.2823486328125E-06	1.47340165312926E-06	896001.875	3.4868160582846E-05
2	473	109.693342723051	1.15951538085938	1.15936279296875	1.2860107421875E-06	1.49095296819723E-06	901518.75	3.49974907294381E-05
2	474	109.794050722797	1.16958618164063	1.16943359375	1.28997802734375E-06	1.50854350522422E-06	906553.1875	3.51271992258262E-05
2	475	109.894758722542	1.17965698242188	1.17919921875	1.29547119140625E-06	1.52761856497818E-06	910247.375	3.52573879354168E-05
2	476	109.995466722288	1.18972778320313	1.1895751953125	1.300048828125E-06	1.54650581407623E-06	915023.5	3.53880823240615E-05
2	477	110.096174722034	1.19979858398438	1.20025634765625	1.3055419921875E-06	1.56698513364972E-06	919354.8125	3.55192860297393E-05
2	478	110.19688272178	1.20986938476563	1.20941162109375	1.31195068359375E-06	1.58668831318209E-06	921842.3125	3.56510863639414E-05
2	479	110.297590721525	1.21994018554688	1.21978759765625	1.31866455078125E-06	1.60849060648616E-06	925017.375	3.57835488102864E-05
2	480	110.398298721271	1.23001098632813	1.22955322265625	1.32537841796875E-06	1.62962328431604E-06	927699.75	3.59166879206896E-05
2	481	110.499006721017	1.24008178710938	1.23992919921875	1.3336181640625E-06	1.65359199399973E-06	929748.3125	3.6050576454727E-05
2	482	110.599714720763	1.25015258789063	1.25030517578125	1.34185791015625E-06	1.67773191606102E-06	931771.6875	3.61852980859112E-05
2	483	110.700422720508	1.26022338867188	1.2603759765625	1.35101318359375E-06	1.70278451605554E-06	932911.75	3.63208964699879E-05
2	484	110.801130720254	1.27029418945313	1.27044677734375	1.36016845703125E-06	1.72802162978769E-06	934036.375	3.64574152627029E-05
2	485	110.90183872	1.28036499023438	1.2799072265625	1.36993408203125E-06	1.75338846020168E-06	934283.875	3.65948872058652E-05
2	486	111.002546719746	1.29043579101563	1.28997802734375	1.37969970703125E-06	1.77978233750764E-06	934970.125	3.67333414033055E-05
2	487	111.103254719491	1.30050659179688	1.300048828125	1.39007568359375E-06	1.80716631348332E-06	935236	3.6872810596833E-05
2	488	111.203962719237	1.31057739257813	1.31072998046875	1.40045166015625E-06	1.83561394351273E-06	935933.75	3.70133238902781E-05
2	489	111.304670718983	1.32064819335938	1.32049560546875	1.4117431640625E-06	1.86420061254466E-06	935365.3125	3.71549285773654E-05
2	490	111.405378718728	1.33071899414063	1.33056640625	1.42303466796875E-06	1.89344211776188E-06	935020.375	3.72976719518192E-05
2	491	111.506086718474	1.34078979492188	1.3409423828125	1.43524169921875E-06	1.92457628145348E-06	934297.3125	3.74415976693854E-05
2	492	111.60679471822	1.35086059570313	1.3507080078125	1.44775390625E-06	1.95549273485085E-06	932967.9375	3.75867675757036E-05
2	493	111.707502717966	1.36093139648438	1.3604736328125	1.461181640625E-06	1.98789894056972E-06	931077.75	3.77332435164135E-05
2	494	111.808210717711	1.37100219726563	1.37115478515625	1.47552490234375E-06	2.02317301045696E-06	929265.8125	3.78811200789642E-05
2	495	111.908918717457	1.38107299804688	1.3812255859375	1.49017333984375E-06	2.05826540877752E-06	926889.25	3.80304554710165E-05
2	496	112.009626717203	1.39114379882813	1.3916015625	1.505126953125E-06	2.09453696697892E-06	924574.25	3.81812787964009E-05
2	497	112.110334716949	1.40121459960938	1.4013671875	1.5216064453125E-06	2.13232920032169E-06	920978.8125	3.83336882805452E-05
2	498	112.211042716694	1.41128540039063	1.41143798828125	1.5386962890625E-06	2.17177421291126E-06	917294.75	3.8487785786856E-05
2	499	112.31175071644	1.42135620117188	1.42181396484375	1.55609130859375E-06	2.21247228182619E-06	913708.5625	3.86436222470365E-05
2	500	112.412458716186	1.43142700195313	1.4312744140625	1.57318115234375E-06	2.25165376832592E-06	909796.375	3.88011903851293E-05
2	501	112.513166715932	1.44149780273438	1.441650390625	1.59088134765625E-06	2.29349461733364E-06	906196.0625	3.89605156669859E-05
2	502	112.613874715677	1.45156860351563	1.45172119140625	1.6094970703125E-06	2.33654100156855E-06	901971.9375	3.91216672142036E-05
2	503	112.714582715423	1.46163940429688	1.4617919921875	1.62872314453125E-06	2.38085431192303E-06	897508	3.92847250623163E-05
2	504	112.815290715169	1.47171020507813	1.4715576171875	1.650390625E-06	2.42864484789607E-06	891642.0625	3.94498420064338E-05
2	505	112.915998714915	1.48178100585938	1.4813232421875	1.67327880859375E-06	2.4786668291199E-06	885281.8125	3.96171999454964E-05
2	506	113.01670671466	1.49185180664063	1.49200439453125	1.700439453125E-06	2.53706298281031E-06	877422.875	3.97870826418512E-05
2	507	113.117414714406	1.50192260742188	1.5020751953125	1.73065185546875E-06	2.59956914305803E-06	867924.5625	3.99598502553999E-05
2	508	113.218122714152	1.49185180664063	1.4923095703125	1.5692138671875E-06	2.34175286095706E-06	950991.8125	4.0126011299435E-05
2	509	113.318830713897	1.48178100585938	1.48193359375	1.45782470703125E-06	2.16039939004986E-06	1016537.625	4.02784353354946E-05
2	510	113.419538713643	1.47171020507813	1.47125244140625	1.3720703125E-06	2.01866168936249E-06	1072286.5	4.04209313273896E-05
2	511	113.520246713389	1.46163940429688	1.461181640625	1.30279541015625E-06	1.90362061402993E-06	1121574.25	4.05556238547433E-05
2	512	113.620954713135	1.45156860351563	1.451416015625	1.24420166015625E-06	1.80585414000234E-06	1166544.125	4.06838735216297E-05
2	513	113.72166271288	1.44149780273438	1.44134521484375	1.19537353515625E-06	1.72294596723077E-06	1205769.75	4.08067171520088E-05
2	514	113.822370712626	1.43142700195313	1.4312744140625	1.15234375E-06	1.64932021107234E-06	1242055.125	4.09249332733452E-05
2	515	113.923078712372	1.42135620117188	1.42120361328125	1.1151123046875E-06	1.58480156642327E-06	1274493.75	4.1039107600227E-05
2	516	114.023786712118	1.41128540039063	1.41082763671875	1.0821533203125E-06	1.52673180764396E-06	1303722.5	4.11497494496871E-05
2	517	114.124494711863	1.40121459960938	1.4013671875	1.0528564453125E-06	1.47543846651388E-06	1331014.5	4.12572553614154E-05
2	518	114.225202711609	1.39114379882813	1.39068603515625	1.02630615234375E-06	1.42726958074491E-06	1355040.25	4.13619491155259E-05
2	519	114.325910711355	1.38107299804688	1.38092041015625	1.0015869140625E-06	1.38311168029759E-06	1378732.625	4.14640635426622E-05
2	520	114.426618711101	1.37100219726563	1.3702392578125	9.7930908203125E-07	1.34188780975819E-06	1399189.75	4.1563809645595E-05
2	521	114.527326710846	1.36093139648438	1.3604736328125	9.5855712890625E-07	1.3040915973761E-06	1419293.375	4.16613875131588E-05
2	522	114.628034710592	1.35086059570313	1.35040283203125	9.3902587890625E-07	1.26806321532058E-06	1438089	4.17569390265271E-05
2	523	114.728742710338	1.34078979492188	1.34063720703125	9.21020507812501E-07	1.2347543361102E-06	1455599.75	4.18505987909157E-05
2	524	114.829450710084	1.33071899414063	1.33087158203125	9.0362548828125E-07	1.20260938274441E-06	1472813.25	4.19424759456888E-05
2	525	114.930158709829	1.32064819335938	1.32080078125	8.868408203125E-07	1.17134004540276E-06	1489332.5	4.20326359744649E-05
2	526	115.030866709575	1.31057739257813	1.31103515625	8.70666503906251E-07	1.14147439944645E-06	1505783.375	4.21211334469263E-05
2	527	115.131574709321	1.30050659179688	1.300048828125	8.5601806640625E-07	1.11286533410748E-06	1518716.625	4.22080775024369E-05
2	528	115.232282709066	1.29043579101563	1.29058837890625	8.404541015625E-07	1.08468032067321E-06	1535584.625	4.22935008828063E-05
2	529	115.332990708812	1.28036499023438	1.2799072265625	8.26416015625001E-07	1.05773585801217E-06	1548744.5	4.23774363298435E-05
2	530	115.433698708558	1.27029418945313	1.26983642578125	8.1298828125E-07	1.03236209270108E-06	1561937	4.24599857069552E-05
2	531	115.534406708304	1.26022338867188	1.2603759765625	7.99560546875E-07	1.00774695965811E-06	1576335.875	4.25411853939295E-05
2	532	115.635114708049	1.25015258789063	1.25030517578125	7.86743164062501E-07	9.8366899692337E-07	1589216.5	4.2621060856618E-05
2	533	115.735822707795	1.24008178710938	1.23992919921875	7.7362060546875E-07	9.59234739639214E-07	1602761.375	4.26996302849147E-05
2	534	115.836530707541	1.23001098632813	1.23016357421875	7.611083984375E-07	9.36287790409551E-07	1616279.125	4.27769118687138E-05
2	535	115.937238707287	1.21994018554688	1.2200927734375	7.4798583984375E-07	9.12612108550093E-07	1631171	4.28529019700363E-05
2	536	116.037946707032	1.20986938476563	1.21002197265625	7.36083984374999E-07	8.90677767984016E-07	1643864.125	4.29276296927128E-05
2	537	116.138654706778	1.19979858398438	1.19964599609375	7.23876953125E-07	8.683961141287E-07	1657251.25	4.30011423304677E-05
2	538	116.239362706524	1.18972778320313	1.18988037109375	7.11975097656251E-07	8.47165154027607E-07	1671238.75	4.30734435212798E-05
2	539	116.34007070627	1.17965698242188	1.17950439453125	6.9915771484375E-07	8.24659537101979E-07	1687036.25	4.314450052334E-05
2	540	116.440778706015	1.16958618164063	1.16973876953125	6.866455078125E-07	8.0319586004407E-07	1703555.625	4.32142805948388E-05
2	541	116.541486705761	1.15951538085938	1.15997314453125	6.75048828124999E-07	7.83038501595001E-07	1718354.5	4.32828492193948E-05
2	542	116.642194705507	1.14944458007813	1.14990234375	6.6253662109375E-07	7.6185239095139E-07	1735605.75	4.33502027590293E-05
2	543	116.742902705253	1.13937377929688	1.138916015625	6.5032958984375E-07	7.40670770937868E-07	1751290.5	4.3416308471933E-05
2	544	116.843610704998	1.12930297851563	1.129150390625	6.37207031250001E-07	7.19502509127778E-07	1772030.75	4.34811408922542E-05
2	545	116.944318704744	1.11923217773438	1.11907958984375	6.24694824218749E-07	6.99083216204599E-07	1791402.125	4.35446854680777E-05
2	546	117.04502670449	1.10916137695313	1.10931396484375	6.121826171875E-07	6.79102697631606E-07	1812063.875	4.36069640272763E-05
2	547	117.145734704235	1.09909057617188	1.0986328125	5.9967041015625E-07	6.58817555176938E-07	1832061.125	4.36679874837864E-05
2	548	117.246442703981	1.08901977539063	1.08856201171875	5.865478515625E-07	6.38493702354026E-07	1855879.25	4.37277194578201E-05
2	549	117.347150703727	1.07894897460938	1.07879638671875	5.74340820312499E-07	6.19596789874777E-07	1878321	4.37861745012924E-05
2	550	117.447858703473	1.06887817382813	1.0693359375	5.62133789062499E-07	6.01109832132352E-07	1902280.125	4.3843399907928E-05
2	551	117.548566703218	1.05880737304688	1.0589599609375	5.50231933593751E-07	5.8267357871955E-07	1924570.25	4.38994102296419E-05
2	552	117.649274702964	1.04873657226563	1.048583984375	5.3924560546875E-07	5.65444281619421E-07	1944538.75	4.39542709500529E-05
2	553	117.74998270271	1.03866577148438	1.03851318359375	5.279541015625E-07	5.48287289348082E-07	1967052	4.40080075350124E-05
2	554	117.850690702456	1.02859497070313	1.02874755859375	5.169677734375E-07	5.31829300598474E-07	1989964.625	4.40606236224994E-05
2	555	117.951398702201	1.01852416992188	1.0186767578125	5.0689697265625E-07	5.16364195846108E-07	2009632.75	4.41121810581535E-05
2	556	118.052106701947	1.00845336914063	1.00860595703125	4.9713134765625E-07	5.01409601838532E-07	2028852.125	4.41627380496357E-05
2	557	118.152814701693	0.998382568359375	0.99822998046875	4.87060546875E-07	4.86198473481636E-07	2049498.75	4.42122945969459E-05
2	558	118.253522701439	0.988311767578125	0.98907470703125	4.7760009765625E-07	4.72382197358456E-07	2070926.5	4.42608688899782E-05
2	559	118.354230701184	0.978240966796875	0.977783203125	4.6844482421875E-07	4.58037476391837E-07	2087296.375	4.4308508222457E-05
2	560	118.45493870093	0.968170166015625	0.9686279296875	4.5928955078125E-07	4.44880669192571E-07	2108970.25	4.43552235083189E-05
2	561	118.555646700676	0.958099365234375	0.95855712890625	4.50439453125E-07	4.31771951525661E-07	2128048.75	4.4401029299479E-05
2	562	118.656354700422	0.948028564453125	0.94818115234375	4.412841796875E-07	4.1841732922876E-07	2148686.25	4.44459328718949E-05
2	563	118.757062700167	0.937957763671875	0.9381103515625	4.315185546875E-07	4.04811999032972E-07	2173974.5	4.44898832938634E-05
2	564	118.857770699913	0.927886962890625	0.9283447265625	4.21752929687499E-07	3.91532097410163E-07	2201157.75	4.45328478235751E-05
2	565	118.958478699659	0.917816162109375	0.91827392578125	4.119873046875E-07	3.78317196236821E-07	2228889	4.4574830099009E-05
2	566	119.059186699404	0.907745361328125	0.9075927734375	4.01611328125E-07	3.6449952744988E-07	2259878.5	4.46157973783556E-05
2	567	119.15989469915	0.897674560546875	0.89813232421875	3.90625E-07	3.5083292004856E-07	2299218.75	4.46556878159754E-05
2	568	119.260602698896	0.887603759765625	0.887451171875	3.7994384765625E-07	3.37181603526915E-07	2335743	4.46944904979318E-05
2	569	119.361310698642	0.877532958984375	0.87738037109375	3.68347167968749E-07	3.23180557870728E-07	2381938.75	4.47321690444369E-05
2	570	119.462018698387	0.867462158203125	0.86761474609375	3.570556640625E-07	3.09786742036522E-07	2429914.5	4.47686979896389E-05
2	571	119.562726698133	0.857391357421875	0.85784912109375	3.45764160156251E-07	2.96613478667496E-07	2481023.75	4.48040882474743E-05
2	572	119.663434697879	0.847320556640625	0.84716796875	3.33557128906251E-07	2.8257892381589E-07	2539798.75	4.48382925242186E-05
2	573	119.764142697625	0.837249755859375	0.83709716796875	3.2196044921875E-07	2.69512185013809E-07	2600000	4.48712999059353E-05
2	574	119.86485069737	0.827178955078125	0.82763671875	3.1005859375E-07	2.56615891203182E-07	2669291.25	4.49031249445397E-05
2	575	119.965558697116	0.817108154296875	0.8172607421875	2.9876708984375E-07	2.44170593077797E-07	2735444.5	4.49337821919471E-05
2	576	120.066266696862	0.807037353515625	0.8074951171875	2.8717041015625E-07	2.31888691359927E-07	2811902.5	4.49632862000726E-05
2	577	120.166974696608	0.796966552734375	0.79742431640625	2.7496337890625E-07	2.19262489054017E-07	2900111	4.49915933131706E-05
2	578	120.267682696353	0.786895751953125	0.78704833984375	2.63061523437499E-07	2.07042120337064E-07	2991879.5	4.5018685341347E-05
2	579	120.368390696099	0.776824951171875	0.7769775390625	2.49633789062501E-07	1.93959849070779E-07	3112469.5	4.50445004389621E-05
2	580	120.469098695845	0.766754150390625	0.76629638671875	2.349853515625E-07	1.80068425947866E-07	3261039	4.50689040008001E-05
2	581	120.569806695591	0.756683349609375	0.7568359375	2.17590332031251E-07	1.646801734978E-07	3478261	4.50916923000477E-05
2	582	120.670514695336	0.746612548828125	0.746490478515625	1.971435546875E-07	1.47165778230374E-07	3786532.5	4.51125742984004E-05
2	583	120.771222695082	0.736541748046875	0.736328125	1.727294921875E-07	1.27185572296185E-07	4262897.5	4.51312007498927E-05
2	584	120.871930694828	0.726470947265625	0.72637939453125	1.45568847656249E-07	1.05738209299489E-07	4989937	4.51472296845168E-05
2	585	120.972638694573	0.716400146484375	0.716278076171875	1.171875E-07	8.39388363260696E-08	6112239.5	4.51604573754594E-05
2	586	121.073346694319	0.706329345703125	0.7061767578125	8.75854492187494E-08	6.18508053662481E-08	8062718	4.51707710453775E-05
2	587	121.174054694065	0.696258544921875	0.69610595703125	6.16455078124994E-08	4.29118038880461E-08	11292079	4.51782834716141E-05
2	588	121.274762693811	0.686187744140625	0.686126708984375	4.18090820312494E-08	2.86863262033421E-08	16410949	4.51834930572659E-05
2	589	121.375470693556	0.676116943359375	0.67608642578125	2.899169921875E-08	1.96008933528447E-08	23320002	4.51870582764968E-05
2	590	121.476178693302	0.666046142578125	0.6658935546875	2.47192382812497E-08	1.64603815022701E-08	26938272	4.51897649327293E-05
2	591	121.576886693048	0.655975341796875	0.65594482421875	2.41088867187503E-08	1.58140984751753E-08	27207596	4.51922205684241E-05
2	592	121.677594692794	0.645904541015625	0.645843505859375	2.74658203125E-08	1.773862123855E-08	23514444	4.51948180852924E-05
2	593	121.778302692539	0.635833740234375	0.635833740234375	3.26538085937494E-08	2.07623926939959E-08	19471962	4.51978448836599E-05
2	594	121.879010692285	0.625762939453125	0.62567138671875	3.90625000000006E-08	2.44402880156258E-08	16017188	4.52014573966153E-05
2	595	121.979718692031	0.615692138671875	0.61566162109375	4.63867187499994E-08	2.85585208814609E-08	13272369	4.52057611255441E-05
2	596	122.080426691777	0.605621337890625	0.605560302734375	5.31005859375003E-08	3.21556079541097E-08	11404023	4.52107706223615E-05
2	597	122.181134691522	0.595550537109375	0.595458984375	6.01196289062494E-08	3.57987701704587E-08	9904569	4.52164713351522E-05
2	598	122.281842691268	0.585479736328125	0.58544921875	6.59179687499997E-08	3.859162234221E-08	8881482	4.52228159701917E-05
2	599	122.382550691014	0.575408935546875	0.57537841796875	7.171630859375E-08	4.12640162039679E-08	8022979	4.52297463198192E-05
2	600	122.483258690759	0.565338134765625	0.5653076171875	7.65991210937497E-08	4.33020659329486E-08	7380079.5	4.52372150903102E-05
2	601	122.583966690505	0.555267333984375	0.55523681640625	8.14819335937494E-08	4.52417658891591E-08	6814232.5	4.52451749879401E-05
2	602	122.684674690251	0.545196533203125	0.545196533203125	8.60595703124994E-08	4.69193750518571E-08	6335107	4.52536114607938E-05
2	603	122.785382689997	0.535125732421875	0.535064697265625	8.91113281249995E-08	4.7680323689292E-08	6004452.5	4.5262433559401E-05
2	604	122.886090689742	0.525054931640625	0.52508544921875	9.24682617187506E-08	4.85537405836567E-08	5678548	4.52715758001432E-05
2	605	122.986798689488	0.514984130859375	0.51495361328125	9.58251953125003E-08	4.93455303285373E-08	5373885.5	4.52810563729145E-05
2	606	123.087506689234	0.504913330078125	0.504913330078125	9.79614257812497E-08	4.94620309154925E-08	5154205.5	4.52908170700539E-05
2	607	123.18821468898	0.494842529296875	0.494842529296875	1.00097656250001E-07	4.95325735982988E-08	4943598	4.53007887699641E-05
2	608	123.288922688725	0.484771728515625	0.4847412109375	1.019287109375E-07	4.94090457436869E-08	4755689	4.53109605587088E-05
2	609	123.389630688471	0.474700927734375	0.474639892578125	1.0345458984375E-07	4.91036757921393E-08	4587905.5	4.53213033324573E-05
2	610	123.490338688217	0.464630126953125	0.464599609375	1.0498046875E-07	4.87738844867636E-08	4425581.5	4.53317989013158E-05
2	611	123.591046687963	0.454559326171875	0.454559326171875	1.0528564453125E-07	4.78585704399848E-08	4317391.5	4.53423854196444E-05
2	612	123.691754687708	0.444488525390625	0.444488525390625	1.05895996093749E-07	4.70695518117736E-08	4197406.5	4.53530192316975E-05
2	613	123.792462687454	0.434417724609375	0.434417724609375	1.06201171875001E-07	4.61356712833094E-08	4090517.25	4.53637003374752E-05
2	614	123.8931706872	0.424346923828125	0.42425537109375	1.05895996093749E-07	4.49269421665122E-08	4006340.25	4.53743814432528E-05
2	615	123.993878686946	0.414276123046875	0.414337158203125	1.05895996093749E-07	4.3876646316221E-08	3912680.25	4.53850443591364E-05
2	616	124.094586686691	0.404205322265625	0.404205322265625	1.055908203125E-07	4.2680369460868E-08	3828035	4.53956927231047E-05
2	617	124.195294686437	0.394134521484375	0.394134521484375	1.055908203125E-07	4.16169854133841E-08	3732659.25	4.54063265351579E-05
2	618	124.296002686183	0.384063720703125	0.384033203125	1.055908203125E-07	4.05503790545936E-08	3636994.5	4.5416960347211E-05
2	619	124.396710685928	0.373992919921875	0.37396240234375	1.05895996093749E-07	3.96011188286138E-08	3531412.25	4.54276123491582E-05
2	620	124.497418685674	0.363922119140625	0.363922119140625	1.0528564453125E-07	3.83157754413332E-08	3456521.75	4.54382461612113E-05
2	621	124.59812668542	0.353851318359375	0.3538818359375	1.0498046875E-07	3.7150680753939E-08	3370930.25	4.54488326795399E-05
2	622	124.698834685166	0.343780517578125	0.34375	1.04370117187499E-07	3.58772282993414E-08	3293567.25	4.54593755421229E-05
2	623	124.799542684911	0.333709716796875	0.333709716796875	1.03149414062501E-07	3.44219621695174E-08	3235207.25	4.54698238172568E-05
2	624	124.900250684657	0.323638916015625	0.323638916015625	1.0223388671875E-07	3.30868630271652E-08	3165671.75	4.54801665910054E-05
2	625	125.000958684403	0.313568115234375	0.313568115234375	1.007080078125E-07	3.15788213356427E-08	3113636.5	4.54903856734745E-05
2	626	125.101666684149	0.303497314453125	0.303436279296875	9.85717773437506E-08	2.99102538292573E-08	3078328.25	4.55004192190245E-05
2	627	125.202374683894	0.293426513671875	0.29339599609375	9.67407226562494E-08	2.8383340122673E-08	3032807.75	4.551025267574E-05
2	628	125.30308268364	0.283355712890625	0.283416748046875	9.33837890624997E-08	2.6466530300695E-08	3034967.25	4.55198278359603E-05
2	629	125.403790683386	0.273284912109375	0.273223876953125	9.002685546875E-08	2.45974849377717E-08	3034915.5	4.55290646641515E-05
2	630	125.504498683132	0.263214111328125	0.26318359375	8.60595703124994E-08	2.26494663024823E-08	3058156.25	4.55379304185044E-05
2	631	125.605206682877	0.253143310546875	0.2530517578125	8.17871093750006E-08	2.06963708393459E-08	3094030	4.55463814432733E-05
2	632	125.705914682623	0.243072509765625	0.24298095703125	7.62939453125E-08	1.85379747108527E-08	3184800	4.55543413409032E-05
2	633	125.806622682369	0.233001708984375	0.233001708984375	7.01904296875E-08	1.63544910947166E-08	3319565.25	4.5561719161924E-05
2	634	125.907330682115	0.222930908203125	0.222930908203125	6.40869140625E-08	1.42869538422019E-08	3478571.5	4.55684785265476E-05
2	635	126.00803868186	0.212860107421875	0.21282958984375	5.67626953124997E-08	1.20807808201562E-08	3749462.5	4.55745648650918E-05
2	636	126.108746681606	0.202789306640625	0.2027587890625	4.85229492187503E-08	9.83845449553655E-09	4178616.25	4.55798654002137E-05
2	637	126.209454681352	0.192718505859375	0.192779541015625	3.87573242187494E-08	7.47161887915126E-09	4974015.5	4.55842600786127E-05
2	638	126.310162681097	0.182647705078125	0.18267822265625	2.62451171874997E-08	4.79441109035861E-09	6960465.5	4.55875342595391E-05
2	639	126.410870680843	0.172576904296875	0.172637939453125	1.068115234375E-08	1.84397208613518E-09	16162858	4.55893932667095E-05
2	640	126.511578680589	0.162506103515625	0.1624755859375	-9.76562499999944E-09	-1.58667556870995E-09	-16637500	4.5589440560434E-05
2	641	126.612286680335	0.152435302734375	0.152496337890625	-3.78417968750003E-08	-5.77073544505424E-09	-4029838.75	4.55870431324001E-05
2	642	126.71299468008	0.142364501953125	0.14239501953125	-7.50732421874997E-08	-1.06900550633782E-08	-1896748.125	4.55813569715247E-05
2	643	126.813702679826	0.132293701171875	0.132354736328125	-1.27563476562501E-07	-1.68836287173235E-08	-1037559.875	4.55711524409708E-05
2	644	126.914410679572	0.122222900390625	0.122283935546875	-1.9866943359375E-07	-2.42940796368885E-08	-615514.625	4.55547269666567E-05
2	645	127.015118679318	0.112152099609375	0.112152099609375	-2.9571533203125E-07	-3.31650937823724E-08	-379256.96875	4.55298322776798E-05
2	646	127.115826679063	0.102081298828125	0.10211181640625	-4.2449951171875E-07	-4.33464144578011E-08	-240546.375	4.54935652669519E-05
2	647	127.216534678809	0.092010498046875	0.09210205078125	-5.92041015625E-07	-5.45281864106073E-08	-155567.015625	4.54423789051361E-05
2	648	127.317242678555	0.081939697265625	0.082000732421875	-7.9986572265625E-07	-6.55895746604074E-08	-102518.125	4.53722896054387E-05
2	649	127.417950678301	0.071868896484375	0.0718994140625	-1.04461669921875E-06	-7.51073230276234E-08	-68828.515625	4.52794120064937E-05
2	650	127.518658678046	0.061798095703125	0.0618896484375	-1.31256103515625E-06	-8.1233942239578E-08	-47151.82421875	4.51607193099335E-05
2	651	127.619366677792	0.051727294921875	0.05181884765625	-1.58538818359375E-06	-8.21529866357196E-08	-32685.2734375	4.50147963420022E-05
2	652	127.720074677538	0.041656494140625	0.0417755126953125	-1.83380126953125E-06	-7.66079892855487E-08	-22780.830078125	4.48426253569778E-05
2	653	127.820782677284	0.031585693359375	0.0316558837890625	-2.0361328125E-06	-6.44555910866984E-08	-15547.0625	4.46477606601547E-05
2	654	127.921490677029	0.021514892578125	0.0215850830078125	-2.171630859375E-06	-4.68748275750386E-08	-9939.5732421875	4.44358811364509E-05
2	655	128.022198676775	0.011444091796875	0.011505126953125	-2.23724365234375E-06	-2.5739771203348E-08	-5142.5458984375	4.4213877117727E-05
2	656	128.122906676521	0.001373291015625	0.00142517089843749	-2.24090576171875E-06	-3.19367376988566E-09	-635.979858398438	4.3988384277327E-05
2	657	128.223614676266	-0.008697509765625	-0.008624267578125	-2.1978759765625E-06	1.89550721785281E-08	3923.90991210938	4.37648741353769E-05
2	658	128.324322676012	-0.018768310546875	-0.0186309814453125	-2.12677001953125E-06	3.96238100108803E-08	8760.224609375	4.3547111999942E-05
2	659	128.425030675758	-0.028839111328125	-0.0287384033203125	-2.0416259765625E-06	5.8673069958104E-08	14076.2333984375	4.3337215174688E-05
2	660	128.525738675504	-0.038909912109375	-0.038775634765625	-1.95281982421875E-06	7.57218217017908E-08	19856.228515625	4.31360786024015E-05
2	661	128.626446675249	-0.048980712890625	-0.0488433837890625	-1.86798095703125E-06	9.12385118567727E-08	26147.689453125	4.29436877311673E-05
2	662	128.727154674995	-0.059051513671875	-0.058990478515625	-1.788330078125E-06	1.05494443403131E-07	32986.3515625	4.2759576899698E-05
2	663	128.827862674741	-0.069122314453125	-0.069091796875	-1.71630859375E-06	1.18582846653226E-07	40256.046875	4.25831058237236E-05
2	664	128.928570674487	-0.079193115234375	-0.0791015625	-1.65191650390625E-06	1.30669178588505E-07	47884.72265625	4.24134996137582E-05
2	665	129.029278674232	-0.089263916015625	-0.089202880859375	-1.59515380859375E-06	1.42292307714342E-07	55921.1796875	4.22499979322311E-05
2	666	129.129986673978	-0.099334716796875	-0.099212646484375	-1.54510498046875E-06	1.5329395353092E-07	64210.94140625	4.20918731833808E-05
2	667	129.230694673724	-0.109405517578125	-0.109283447265625	-1.50054931640625E-06	1.63985191647953E-07	72828.9609375	4.19385141867679E-05
2	668	129.33140267347	-0.119476318359375	-0.119354248046875	-1.46270751953125E-06	1.74580350176257E-07	81598.1640625	4.1789302485995E-05
2	669	129.432110673215	-0.129547119140625	-0.129425048828125	-1.42852783203125E-06	1.84887269938372E-07	90600.3046875	4.1643714212114E-05
2	670	129.532818672961	-0.139617919921875	-0.13946533203125	-1.39801025390625E-06	1.94973964084966E-07	99759.8828125	4.15013892052229E-05
2	671	129.633526672707	-0.149688720703125	-0.149627685546875	-1.3720703125E-06	2.05299699018724E-07	109052.4921875	4.13619054597802E-05
2	672	129.734234672453	-0.159759521484375	-0.15966796875	-1.3494873046875E-06	2.15469896147624E-07	118317.5	4.12248627981171E-05
2	673	129.834942672198	-0.169830322265625	-0.169708251953125	-1.3299560546875E-06	2.25704511080949E-07	127604.40625	4.10899410780985E-05
2	674	129.935650671944	-0.179901123046875	-0.17974853515625	-1.3128662109375E-06	2.35985766039448E-07	136913.0625	4.09568638133351E-05
2	675	130.03635867169	-0.189971923828125	-0.1898193359375	-1.2982177734375E-06	2.4642682205922E-07	146215.328125	4.08253872592468E-05
2	676	130.137066671435	-0.200042724609375	-0.199920654296875	-1.28570556640625E-06	2.57039090456601E-07	155494.90625	4.06952749472111E-05
2	677	130.237774671181	-0.189971923828125	-0.18994140625	-1.1358642578125E-06	2.15747633092178E-07	167221.9375	4.05733408115339E-05
