Potential - Start -0.2 V, Upper Vertex 1.5 V, Lower Vertex -0.2 V, Stop -0.19 V; Scan - # end cross 5, Rate 0.1 Vps, Step 0.01 V 
Scan	Index	Time (s)	Potential applied (V)	WE(1).Potential (V)	WE(1).Current (A)	WE(1).Power (W)	WE(1).Resistance (Ω)	WE(1).Charge (C)
1	1	62.0845048432517	-0.189971923828125	-0.189788818359375	-2.32543945312499E-07	4.41342393742161E-08	816141.75	0
1	2	62.1852128429974	-0.179901123046875	-0.179779052734375	-2.0111083984375E-07	3.61555159145155E-08	893930.1875	-2.18362519177617E-08
1	3	62.2859208427432	-0.169830322265625	-0.169677734375	-1.76086425781249E-07	2.98779454510623E-08	963604.875	-4.08296436660294E-08
1	4	62.3866288424889	-0.159759521484375	-0.15960693359375	-1.53503417968751E-07	2.45002080845325E-08	1039761.5	-5.74258081087464E-08
1	5	62.4873368422346	-0.149688720703125	-0.149566650390625	-1.3275146484375E-07	1.98551930452595E-08	1126666.625	-7.18398851518032E-08
1	6	62.5880448419804	-0.139617919921875	-0.139495849609375	-1.1322021484375E-07	1.57937485312232E-08	1232075.5	-8.42255474253761E-08
1	7	62.6887528417261	-0.129547119140625	-0.12945556640625	-9.46044921875E-08	1.22470771302119E-08	1368387.125	-9.46903497833773E-08
1	8	62.7894608414719	-0.119476318359375	-0.119384765625	-7.476806640625E-08	8.92616824899051E-09	1596734.625	-1.03218937397287E-07
1	9	62.8901688412176	-0.109405517578125	-0.109283447265625	-5.40161132812494E-08	5.9030669241622E-09	2023163.875	-1.09703734096911E-07
1	10	62.9908768409633	-0.099334716796875	-0.099273681640625	-3.08227539062497E-08	3.05988834270465E-09	3220792	-1.13975708870839E-07
1	11	63.0915848407091	-0.089263916015625	-0.089141845703125	-3.0517578125E-09	2.72039307747107E-10	29210000	-1.15681430656878E-07
1	12	63.1922928404548	-0.079193115234375	-0.0791015625	3.11279296874994E-08	-2.46226772304681E-09	-2541176.5	-1.1426767798639E-07
1	13	63.2930008402005	-0.069122314453125	-0.06903076171875	7.50732421874997E-08	-5.18236298319152E-09	-919512.25	-1.0892002677565E-07
1	14	63.3937088399463	-0.059051513671875	-0.0589599609375	1.324462890625E-07	-7.80902809083273E-09	-445161.28125	-9.84705863515956E-08
1	15	63.494416839692	-0.048980712890625	-0.0488067626953125	2.08435058593751E-07	-1.01730401880218E-08	-234158.140625	-8.13058491644369E-08
1	16	63.5951248394377	-0.038909912109375	-0.0387664794921875	3.09143066406251E-07	-1.19843877044445E-08	-125399.8125	-5.52437207090861E-08
1	17	63.6958328391835	-0.028839111328125	-0.02869873046875	4.3975830078125E-07	-1.26205046413475E-08	-65260.2421875	-1.75335443941549E-08
1	18	63.7965408389292	-0.018768310546875	-0.018634033203125	6.0455322265625E-07	-1.12652633887933E-08	-30822.818359375	3.50517161962216E-08
1	19	63.897248838675	-0.008697509765625	-0.00859985351562501	8.00170898437499E-07	-6.88135193271933E-09	-10747.5205078125	1.05785190385177E-07
1	20	63.9979568384207	0.001373291015625	0.00147705078125	1.0198974609375E-06	1.5064404168541E-09	1448.23461914063	1.97432910908901E-07
1	21	64.0986648381664	0.011444091796875	0.0115264892578125	1.2457275390625E-06	1.43588652079529E-08	9252.8173828125	3.11516203055362E-07
1	22	64.1993728379122	0.021514892578125	0.021630859375	1.4569091796875E-06	3.15141939211117E-08	14847.0888671875	4.47604747932928E-07
1	23	64.3000808376579	0.031585693359375	0.031671142578125	1.6314697265625E-06	5.16705114250726E-08	19412.646484375	6.03116973252327E-07
1	24	64.4007888374036	0.041656494140625	0.0417633056640625	1.75445556640625E-06	7.32718632434626E-08	23804.140625	7.73611873228219E-07
1	25	64.5014968371494	0.051727294921875	0.051727294921875	1.8212890625E-06	9.42103568490893E-08	28401.474609375	9.53664880398719E-07
1	26	64.6022048368951	0.061798095703125	0.061859130859375	1.8365478515625E-06	1.13607249829784E-07	33682.2890625	1.13785165467561E-06
1	27	64.7029128366408	0.071868896484375	0.071990966796875	1.8133544921875E-06	1.30545132037696E-07	39700.44140625	1.32163881971792E-06
1	28	64.8036208363866	0.081939697265625	0.08197021484375	1.766357421875E-06	1.44788700140452E-07	46406.359375	1.5018915746623E-06
1	29	64.9043288361323	0.092010498046875	0.092071533203125	1.70501708984375E-06	1.56983531951482E-07	54000.359375	1.67668918038544E-06
1	30	65.0050368358781	0.102081298828125	0.102081298828125	1.639404296875E-06	1.67352510516139E-07	62267.31640625	1.84509417522349E-06
1	31	65.1057448356238	0.112152099609375	0.112213134765625	1.57440185546875E-06	1.76668564222382E-07	71273.5	2.00692215912568E-06
1	32	65.2064528353695	0.122222900390625	0.122283935546875	1.51336669921875E-06	1.85060429203077E-07	80802.5859375	2.16240368899889E-06
1	33	65.3071608351153	0.132293701171875	0.132354736328125	1.45751953125E-06	1.92909610063907E-07	90808.2109375	2.31199965128326E-06
1	34	65.407868834861	0.142364501953125	0.142364501953125	1.40655517578125E-06	2.00243519543619E-07	101215.015625	2.45621731664869E-06
1	35	65.5085768346067	0.152435302734375	0.15252685546875	1.361083984375E-06	2.07601857482587E-07	112062.78125	2.59557896242768E-06
1	36	65.6092848343525	0.162506103515625	0.162506103515625	1.31988525390625E-06	2.14489404015694E-07	123121.390625	2.73057639788021E-06
1	37	65.7099928340982	0.172576904296875	0.172637939453125	1.2841796875E-06	2.2169813007622E-07	134434.40625	2.86170165963995E-06
1	38	65.810700833844	0.182647705078125	0.182769775390625	1.25152587890625E-06	2.28741100727348E-07	146037.546875	2.98938448395347E-06
1	39	65.9114088335897	0.192718505859375	0.19281005859375	1.2225341796875E-06	2.35716882457382E-07	157713.4375	3.11396343022352E-06
1	40	66.0121168333354	0.202789306640625	0.2027587890625	1.1962890625E-06	2.42558115814973E-07	169489.796875	3.2357606869482E-06
1	41	66.1128248330812	0.212860107421875	0.21282958984375	1.1724853515625E-06	2.49539567676038E-07	181520.046875	3.35503796122794E-06
1	42	66.2135328328269	0.222930908203125	0.222930908203125	1.151123046875E-06	2.56620893424042E-07	193663.84375	3.47204104400589E-06
1	43	66.3142408325726	0.233001708984375	0.233062744140625	1.1322021484375E-06	2.63874142092391E-07	205849.0625	3.58701549885154E-06
1	44	66.4149488323184	0.243072509765625	0.24310302734375	1.114501953125E-06	2.70938812718668E-07	218127.046875	3.70014618056302E-06
1	45	66.5156568320641	0.253143310546875	0.253173828125	1.0992431640625E-06	2.78299609135502E-07	230316.5	3.81161703444377E-06
1	46	66.6163648318098	0.263214111328125	0.26324462890625	1.08489990234375E-06	2.85594069282524E-07	242644.171875	3.92159745388199E-06
1	47	66.7170728315556	0.273284912109375	0.273284912109375	1.0711669921875E-06	2.92733773221698E-07	255128.21875	4.03016383643262E-06
1	48	66.8177808313013	0.283355712890625	0.283355712890625	1.0601806640625E-06	3.00408260045515E-07	267271.15625	4.13748557548388E-06
1	49	66.9184888310471	0.293426513671875	0.29339599609375	1.0491943359375E-06	3.07829424173178E-07	279639.3125	4.24370136897778E-06
1	50	67.0191968307928	0.303497314453125	0.303436279296875	1.0394287109375E-06	3.1540037070954E-07	291926.03125	4.348871698312E-06
1	51	67.1199048305385	0.313568115234375	0.313629150390625	1.03057861328125E-06	3.23219495612648E-07	304323.375	4.45310479335603E-06
1	52	67.2206128302843	0.323638916015625	0.323699951171875	1.02294921875E-06	3.31128603647812E-07	316437.96875	4.55650842923205E-06
1	53	67.32132083003	0.333709716796875	0.33380126953125	1.01531982421875E-06	3.38915015163366E-07	328764.6875	4.65914308733772E-06
1	54	67.4220288297757	0.343780517578125	0.34381103515625	1.00921630859375E-06	3.46979675214243E-07	340671.3125	4.76108652947005E-06
1	55	67.5227368295215	0.353851318359375	0.353851318359375	1.0040283203125E-06	3.55276711161423E-07	352431.625	4.86246153741376E-06
1	56	67.6234448292672	0.363922119140625	0.36395263671875	9.9945068359375E-07	3.63752690191177E-07	364152.6875	4.96334496347117E-06
1	57	67.724152829013	0.373992919921875	0.373992919921875	9.95483398437499E-07	3.72303730955537E-07	375689.78125	5.06379774378729E-06
1	58	67.8248608287587	0.384063720703125	0.384063720703125	9.930419921875E-07	3.81391402015652E-07	386754.75	5.16392810823163E-06
1	59	67.9255688285044	0.394134521484375	0.394134521484375	9.9090576171875E-07	3.90550155771052E-07	397751.78125	5.26382746102172E-06
1	60	68.0262768282502	0.404205322265625	0.404205322265625	9.8907470703125E-07	3.99789257699013E-07	408670.15625	5.36352763447212E-06
1	61	68.1269848279959	0.414276123046875	0.414337158203125	9.87854003906249E-07	4.09304590220927E-07	419431.59375	5.46307364857057E-06
1	62	68.2276928277416	0.424346923828125	0.42437744140625	9.87548828125E-07	4.1909342485269E-07	429728.0625	5.56254326511407E-06
1	63	68.3284008274874	0.434417724609375	0.4344482421875	9.86328124999999E-07	4.28508514005443E-07	440470.28125	5.66193602935527E-06
1	64	68.4291088272331	0.444488525390625	0.4444580078125	9.86633300781251E-07	4.38517048451104E-07	450479.4375	5.76128240936669E-06
1	65	68.5298168269788	0.454559326171875	0.45458984375	9.869384765625E-07	4.48652173190567E-07	460606.09375	5.86065971219796E-06
1	66	68.6305248267246	0.464630126953125	0.46466064453125	9.87854003906249E-07	4.5901683165539E-07	470373.84375	5.9600984059216E-06
1	67	68.7312328264703	0.474700927734375	0.474639892578125	9.89379882812499E-07	4.69599143571031E-07	479734.75	6.05965988142998E-06
1	68	68.8319408262161	0.484771728515625	0.484771728515625	9.918212890625E-07	4.80806875202688E-07	488769.25	6.15942144577275E-06
1	69	68.9326488259618	0.494842529296875	0.494873046875	9.94262695312501E-07	4.92033791488211E-07	497728.6875	6.259428573685E-06
1	70	69.0333568257075	0.504913330078125	0.504913330078125	9.9822998046875E-07	5.04019624258945E-07	505808.59375	6.35975857221638E-06
1	71	69.1340648254533	0.514984130859375	0.51495361328125	1.002197265625E-06	5.16085094659502E-07	513824.625	6.46048829366919E-06
1	72	69.234772825199	0.525054931640625	0.5250244140625	1.00738525390625E-06	5.28901807683724E-07	521175.4375	6.56167867418844E-06
1	73	69.3354808249447	0.535125732421875	0.53509521484375	1.01287841796875E-06	5.41986423741037E-07	528291.625	6.6634070208238E-06
1	74	69.4361888246905	0.545196533203125	0.545166015625	1.0198974609375E-06	5.56013446839643E-07	534530.1875	6.76576519254013E-06
1	75	69.5368968244362	0.555267333984375	0.55523681640625	1.029052734375E-06	5.71367934298905E-07	539561.125	6.86893827150925E-06
1	76	69.6376048241819	0.565338134765625	0.56536865234375	1.03973388671875E-06	5.87832971632452E-07	543762.8125	6.97310997566092E-06
1	77	69.7383128239277	0.575408935546875	0.57537841796875	1.05377197265625E-06	6.06317655638122E-07	546018	7.07852632331196E-06
1	78	69.8390208236734	0.585479736328125	0.585479736328125	1.07177734375E-06	6.27503879968572E-07	546269.9375	7.18555611456395E-06
1	79	69.9397288234192	0.595550537109375	0.59552001953125	1.094970703125E-06	6.52076948881586E-07	543868.4375	7.29466046323068E-06
1	80	70.0404368231649	0.605621337890625	0.605621337890625	1.126708984375E-06	6.82358972881048E-07	537513.5625	7.40653104003286E-06
1	81	70.1411448229106	0.615692138671875	0.615631103515625	1.16973876953125E-06	7.20127559361572E-07	526297.9375	7.52216647015302E-06
1	82	70.2418528226564	0.625762939453125	0.625701904296875	1.22711181640625E-06	7.67806170642871E-07	509898.0625	7.64285778132034E-06
1	83	70.3425608224021	0.635833740234375	0.6357421875	1.29913330078125E-06	8.25913843982562E-07	489358.71875	7.77006425778382E-06
1	84	70.4432688221478	0.645904541015625	0.645904541015625	1.3897705078125E-06	8.97659049314825E-07	464756.28125	7.90546073403675E-06
1	85	70.5439768218936	0.655975341796875	0.6558837890625	1.4947509765625E-06	9.80382878879027E-07	438791.375	8.05070794740459E-06
1	86	70.6446848216393	0.666046142578125	0.666046142578125	1.6070556640625E-06	1.07037317320646E-06	414451.1875	8.20689638203476E-06
1	87	70.7453928213851	0.676116943359375	0.67608642578125	1.715087890625E-06	1.15954753709957E-06	394199.3125	8.37417974253185E-06
1	88	70.8461008211308	0.686187744140625	0.686126708984375	1.80938720703125E-06	1.24146890811971E-06	379203.90625	8.55165126267821E-06
1	89	70.9468088208765	0.696258544921875	0.6961669921875	1.8792724609375E-06	1.30828743749589E-06	370444.96875	8.73739008966368E-06
1	90	71.0475168206223	0.706329345703125	0.706298828125	1.9219970703125E-06	1.35750417484815E-06	367481.75	8.92879870662E-06
1	91	71.148224820368	0.716400146484375	0.716339111328125	1.9390869140625E-06	1.38904374580306E-06	369420.84375	9.1232204795233E-06
1	92	71.2489328201137	0.726470947265625	0.726348876953125	1.93572998046875E-06	1.40601525799866E-06	375232.5625	9.31833255890524E-06
1	93	71.3496408198595	0.736541748046875	0.736480712890625	1.91925048828125E-06	1.41349096338672E-06	383733.5	9.51244601310464E-06
1	94	71.4503488196052	0.746612548828125	0.74652099609375	1.89544677734375E-06	1.41499083383678E-06	393849.625	9.70453129411908E-06
1	95	71.5510568193509	0.756683349609375	0.75714111328125	1.86920166015625E-06	1.41524935770576E-06	405061.25	9.89409636531491E-06
1	96	71.6517648190967	0.766754150390625	0.7666015625	1.84478759765625E-06	1.41421708121925E-06	415550.0625	1.0081111213367E-05
1	97	71.7524728188424	0.776824951171875	0.7763671875	1.82403564453125E-06	1.41612144943792E-06	425631.59375	1.02658505056752E-05
1	98	71.8531808185882	0.786895751953125	0.78704833984375	1.8084716796875E-06	1.42335466080112E-06	435200.8125	1.04487617136328E-05
1	99	71.9538888183339	0.796966552734375	0.797119140625	1.79901123046875E-06	1.43402633057121E-06	443087.375	1.06304132714286E-05
1	100	72.0545968180796	0.807037353515625	0.80718994140625	1.796875E-06	1.45041940413648E-06	449218.78125	1.08114809336257E-05
1	101	72.1553048178254	0.817108154296875	0.8172607421875	1.80084228515625E-06	1.47175762776897E-06	453821.40625	1.09926395452931E-05
1	102	72.2560128175711	0.827178955078125	0.82733154296875	1.810302734375E-06	1.49772051827313E-06	457012.8125	1.11744757305132E-05
1	103	72.3567208173168	0.837249755859375	0.8380126953125	1.82159423828125E-06	1.52651909957058E-06	460043.5625	1.1357356015651E-05
1	104	72.4574288170626	0.847320556640625	0.84808349609375	1.8341064453125E-06	1.55547536451195E-06	462396.03125	1.15414350148058E-05
1	105	72.5581368168083	0.857391357421875	0.85784912109375	1.8438720703125E-06	1.58176396780618E-06	465243.3125	1.17266363304225E-05
1	106	72.6588448165541	0.867462158203125	0.86700439453125	1.849365234375E-06	1.60340766797162E-06	468811.90625	1.19126052595675E-05
1	107	72.7595528162998	0.877532958984375	0.87738037109375	1.8499755859375E-06	1.62313222062949E-06	474265.9375	1.20988815979217E-05
1	108	72.8602608160455	0.887603759765625	0.8880615234375	1.846923828125E-06	1.64018194936943E-06	480832.8125	1.22850360639859E-05
1	109	72.9609688157913	0.897674560546875	0.89752197265625	1.8414306640625E-06	1.65272444974107E-06	487404.71875	1.24707594295614E-05
1	110	73.061676815537	0.907745361328125	0.908203125	1.8353271484375E-06	1.66684981195431E-06	494845.375	1.26558988995384E-05
1	111	73.1623848152827	0.917816162109375	0.91796875	1.82952880859375E-06	1.67945017892634E-06	501751.46875	1.2840439012507E-05
1	112	73.2630928150285	0.927886962890625	0.9283447265625	1.82708740234375E-06	1.69616691891861E-06	508100.90625	1.30245634863968E-05
1	113	73.3638008147742	0.937957763671875	0.9381103515625	1.82952880859375E-06	1.71629983469757E-06	512760.65625	1.32086888697813E-05
1	114	73.4645088145199	0.948028564453125	0.9478759765625	1.83685302734375E-06	1.74110880379885E-06	516032.5625	1.33933062897995E-05
1	115	73.5652168142657	0.958099365234375	0.95794677734375	1.85211181640625E-06	1.77422441538511E-06	517218.6875	1.35790605781949E-05
1	116	73.6659248140114	0.968170166015625	0.96832275390625	1.87530517578125E-06	1.81590053216496E-06	516354.78125	1.37667502713157E-05
1	117	73.7666328137572	0.978240966796875	0.97869873046875	1.90704345703125E-06	1.86642091648537E-06	513202.125	1.39572066473193E-05
1	118	73.8673408135029	0.988311767578125	0.98876953125	1.94427490234375E-06	1.92243965102534E-06	508554.40625	1.41511363835889E-05
1	119	73.9680488132486	0.998382568359375	0.99822998046875	1.9842529296875E-06	1.98074053514574E-06	503076	1.43489533002139E-05
1	120	74.0687568129944	1.00845336914063	1.00860595703125	2.02239990234375E-06	2.0398047126946E-06	498717.34375	1.45507046909188E-05
1	121	74.1694648127401	1.01852416992188	1.01837158203125	2.05322265625E-06	2.09094355341222E-06	495986.90625	1.4755928532395E-05
1	122	74.2701728124858	1.02859497070313	1.02874755859375	2.07275390625E-06	2.13234056900546E-06	496319.21875	1.49636880450998E-05
1	123	74.3708808122316	1.03866577148438	1.03851318359375	2.08099365234375E-06	2.16113926398975E-06	499046.78125	1.51728454511613E-05
1	124	74.4715888119773	1.04873657226563	1.04888916015625	2.07977294921875E-06	2.18145123653812E-06	504328.6875	1.53823566506617E-05
1	125	74.572296811723	1.05880737304688	1.05926513671875	2.0709228515625E-06	2.19365642806224E-06	511494.25	1.55913603521185E-05
1	126	74.6730048114688	1.06887817382813	1.0687255859375	2.05718994140625E-06	2.1985715648043E-06	519507.5	1.57992271851981E-05
1	127	74.7737128112145	1.07894897460938	1.07879638671875	2.041015625E-06	2.20184006138879E-06	528558.625	1.6005589714041E-05
1	128	74.8744208109603	1.08901977539063	1.08856201171875	2.02392578125E-06	2.20316860577441E-06	537846.875	1.62102751346538E-05
1	129	74.975128810706	1.09909057617188	1.09893798828125	2.00836181640625E-06	2.2070648810768E-06	547181.3125	1.64133161888458E-05
1	130	75.0758368104517	1.10916137695313	1.1090087890625	1.99371337890625E-06	2.21104551201279E-06	556252.875	1.66148365678964E-05
1	131	75.1765448101975	1.11923217773438	1.11846923828125	1.98089599609375E-06	2.21557138502249E-06	564627.9375	1.68149745150004E-05
1	132	75.2772528099432	1.12930297851563	1.129150390625	1.968994140625E-06	2.22329049393011E-06	573465.5625	1.70138682733523E-05
1	133	75.3779608096889	1.13937377929688	1.1395263671875	1.9598388671875E-06	2.23328788706567E-06	581438.8125	1.72116997418925E-05
1	134	75.4786688094347	1.14944458007813	1.1492919921875	1.95220947265625E-06	2.24365862777631E-06	588713.4375	1.74086871993495E-05
1	135	75.5793768091804	1.15951538085938	1.15966796875	1.94610595703125E-06	2.25683652388398E-06	595891.5	1.76049834408332E-05
1	136	75.6800848089262	1.16958618164063	1.16973876953125	1.94122314453125E-06	2.27072382585902E-06	602578.25	1.78007248905487E-05
1	137	75.7807928086719	1.17965698242188	1.17950439453125	1.93817138671875E-06	2.28608178076684E-06	608565.5625	1.79960679815849E-05
1	138	75.8815008084176	1.18972778320313	1.1895751953125	1.93634033203125E-06	2.30342243412451E-06	614342	1.81911655090516E-05
1	139	75.9822088081634	1.19979858398438	1.1993408203125	1.93634033203125E-06	2.32233196584275E-06	619385.3125	1.83861702680588E-05
1	140	76.0829168079091	1.20986938476563	1.209716796875	1.93634033203125E-06	2.34242338592594E-06	624743.875	1.85811750270659E-05
1	141	76.1836248076548	1.21994018554688	1.21978759765625	1.9384765625E-06	2.36452956414723E-06	629250.625	1.87762889254373E-05
1	142	76.2843328074006	1.23001098632813	1.23016357421875	1.9415283203125E-06	2.38839743360586E-06	633605.75	1.89716611203039E-05
1	143	76.3850408071463	1.24008178710938	1.23992919921875	1.94488525390625E-06	2.41151997215638E-06	637533.3125	1.91673589142738E-05
1	144	76.485748806892	1.25015258789063	1.25	1.94854736328125E-06	2.43568410951411E-06	641503.5	1.93634077731986E-05
1	145	76.5864568066378	1.26022338867188	1.26068115234375	1.95404052734375E-06	2.46342210630246E-06	645166.3125	1.95599186554318E-05
1	146	76.6871648063835	1.27029418945313	1.27044677734375	1.95953369140625E-06	2.48948322223441E-06	648341.375	1.97569825104438E-05
1	147	76.7878728061293	1.28036499023438	1.280517578125	1.96563720703125E-06	2.51703295361949E-06	651451.625	1.99546320800437E-05
1	148	76.888580805875	1.29043579101563	1.29058837890625	1.97235107421875E-06	2.5454935439484E-06	654340.0625	2.01529255718924E-05
1	149	76.9892888056207	1.30050659179688	1.30035400390625	1.97998046875E-06	2.57467536357581E-06	656750.9375	2.03519412025344E-05
1	150	77.0899968053665	1.31057739257813	1.31103515625	1.9873046875E-06	2.60542628893745E-06	659705.1875	2.05517098947894E-05
1	151	77.1907048051122	1.32064819335938	1.32080078125	1.99554443359375E-06	2.63571655523265E-06	661874.9375	2.07522607524879E-05
1	152	77.2914128048579	1.33071899414063	1.33087158203125	2.00408935546875E-06	2.66718552666134E-06	664078	2.09536592592485E-05
1	153	77.3921208046037	1.34078979492188	1.34063720703125	2.0135498046875E-06	2.69943961939134E-06	665807.875	2.11559636227321E-05
1	154	77.4928288043494	1.35086059570313	1.35101318359375	2.02301025390625E-06	2.73311343335081E-06	667823.1875	2.13592211366631E-05
1	155	77.5935368040952	1.36093139648438	1.36138916015625	2.03338623046875E-06	2.76822993328096E-06	669518.25	2.15634754567873E-05
1	156	77.6942448038409	1.37100219726563	1.37054443359375	2.04498291015625E-06	2.80274002761871E-06	670198.5	2.17688375414582E-05
1	157	77.7949528035866	1.38107299804688	1.3812255859375	2.05718994140625E-06	2.84144334727898E-06	671413.75	2.19753983401461E-05
1	158	77.8956608033324	1.39114379882813	1.39129638671875	2.07061767578125E-06	2.88084288513346E-06	671923.375	2.21832506213104E-05
1	159	77.9963688030781	1.40121459960938	1.40106201171875	2.08648681640625E-06	2.9232974156912E-06	671493.375	2.23925781028811E-05
1	160	78.0970768028238	1.41128540039063	1.41143798828125	2.1044921875E-06	2.97036012852914E-06	670678.6875	2.26036099775229E-05
1	161	78.1977848025696	1.42135620117188	1.4215087890625	2.125244140625E-06	3.02105308946921E-06	668868.5	2.28165936277946E-05
1	162	78.2984928023153	1.43142700195313	1.431884765625	2.14996337890625E-06	3.07849973069096E-06	666004.25	2.30318673857255E-05
1	163	78.399200802061	1.44149780273438	1.44134521484375	2.17987060546875E-06	3.14194585371297E-06	661206.8125	2.32498932746239E-05
1	164	78.4999088018068	1.45156860351563	1.4520263671875	2.2149658203125E-06	3.21618858833972E-06	655552.5625	2.34711897064699E-05
1	165	78.6006168015525	1.46163940429688	1.4617919921875	2.25738525390625E-06	3.29982754010416E-06	647559.8125	2.36963915085653E-05
1	166	78.7013248012983	1.47171020507813	1.4715576171875	2.30926513671875E-06	3.39821644956828E-06	637240.6875	2.39263390540145E-05
1	167	78.802032801044	1.48178100585938	1.48162841796875	2.37060546875E-06	3.51235644302506E-06	625000	2.41619909502333E-05
1	168	78.9027408007897	1.49185180664063	1.49169921875	2.4420166015625E-06	3.64275410902337E-06	610847.3125	2.44043239945313E-05
1	169	79.0034488005355	1.50192260742188	1.50177001953125	2.52105712890625E-06	3.7860477277718E-06	595690.625	2.46542349486845E-05
1	170	79.1041568002812	1.49185180664063	1.49200439453125	2.27447509765625E-06	3.39352664013859E-06	655977.5	2.4895709429984E-05
1	171	79.2048648000269	1.48178100585938	1.4813232421875	2.0965576171875E-06	3.1056795251061E-06	706550.1875	2.51158089668024E-05
1	172	79.3055727997727	1.47171020507813	1.47186279296875	1.956787109375E-06	2.88012233795598E-06	752183.375	2.53199104918167E-05
1	173	79.4062807995184	1.46163940429688	1.4617919921875	1.84234619140625E-06	2.69312681666634E-06	793440.5	2.55112117883982E-05
1	174	79.5069887992641	1.45156860351563	1.4520263671875	1.74835205078125E-06	2.53865323429636E-06	830511.4375	2.56920175161213E-05
1	175	79.6076967990099	1.44149780273438	1.441650390625	1.66839599609375E-06	2.40524377659312E-06	864093.6875	2.58640648098662E-05
1	176	79.7084047987556	1.43142700195313	1.43157958984375	1.60064697265625E-06	2.29145348384918E-06	894375.625	2.60286742559401E-05
1	177	79.8091127985014	1.42135620117188	1.42120361328125	1.5423583984375E-06	2.19200524043117E-06	921448.375	2.6186937247985E-05
1	178	79.9098207982471	1.41128540039063	1.4111328125	1.49200439453125E-06	2.10541634260153E-06	945796.6875	2.63397305388935E-05
1	179	80.0105287979928	1.40121459960938	1.40167236328125	1.44866943359375E-06	2.03055992642476E-06	967558.4375	2.64878053712891E-05
1	180	80.1112367977386	1.39114379882813	1.39068603515625	1.41021728515625E-06	1.96116934603197E-06	986150.1875	2.66317601926858E-05
1	181	80.2119447974843	1.38107299804688	1.38092041015625	1.3763427734375E-06	1.90061984994827E-06	1003325.9375	2.67720752162859E-05
1	182	80.31265279723	1.37100219726563	1.370849609375	1.346435546875E-06	1.84576060746622E-06	1018132.375	2.69091779045993E-05
1	183	80.4133607969758	1.36093139648438	1.361083984375	1.31866455078125E-06	1.79481321538333E-06	1032168.5	2.70433774858247E-05
1	184	80.5140687967215	1.35086059570313	1.35040283203125	1.2945556640625E-06	1.74817159859231E-06	1043140.0625	2.71749631792773E-05
1	185	80.6147767964673	1.34078979492188	1.34124755859375	1.27166748046875E-06	1.70562088896986E-06	1054715.625	2.73041823675158E-05
1	186	80.715484796213	1.33071899414063	1.33087158203125	1.25152587890625E-06	1.66562017511751E-06	1063399.125	2.74312351393746E-05
1	187	80.8161927959587	1.32064819335938	1.32049560546875	1.2322998046875E-06	1.62724631991296E-06	1071570.125	2.75563052127836E-05
1	188	80.9169007957045	1.31057739257813	1.31072998046875	1.214599609375E-06	1.59201215410576E-06	1079145.75	2.76795162790222E-05
1	189	81.0176087954502	1.30050659179688	1.29974365234375	1.19781494140625E-06	1.5568522258036E-06	1085095.625	2.78009920293698E-05
1	190	81.1183167951959	1.29043579101563	1.290283203125	1.18255615234375E-06	1.5258323173839E-06	1091096.75	2.79208525171271E-05
1	191	81.2190247949417	1.28036499023438	1.28082275390625	1.16729736328125E-06	1.49510094615835E-06	1097254.875	2.80391777778277E-05
1	192	81.3197327946874	1.27029418945313	1.26983642578125	1.153564453125E-06	1.46483807839104E-06	1100793.625	2.81560423900373E-05
1	193	81.4204407944331	1.26022338867188	1.259765625	1.13983154296875E-06	1.43592058066133E-06	1105220.875	2.82715245703002E-05
1	194	81.5211487941789	1.25015258789063	1.25	1.12701416015625E-06	1.4087676163399E-06	1109125.375	2.83856679743621E-05
1	195	81.6218567939246	1.24008178710938	1.24053955078125	1.114501953125E-06	1.38258371862321E-06	1113088.75	2.84985380858416E-05
1	196	81.7225647936704	1.23001098632813	1.2298583984375	1.102294921875E-06	1.35566654080321E-06	1115725.375	2.86101621895796E-05
1	197	81.8232727934161	1.21994018554688	1.2200927734375	1.09039306640625E-06	1.33038076910452E-06	1118947.625	2.87205730273854E-05
1	198	81.9239807931618	1.20986938476563	1.21002197265625	1.0791015625E-06	1.30573653223109E-06	1121323.625	2.88298160739942E-05
1	199	82.0246887929076	1.19979858398438	1.199951171875	1.0675048828125E-06	1.28095371110248E-06	1124070.875	2.89379058813211E-05
1	200	82.1253967926533	1.18972778320313	1.18988037109375	1.05621337890625E-06	1.25676751849824E-06	1126553	2.90448442683555E-05
1	201	82.226104792399	1.17965698242188	1.1798095703125	1.04522705078125E-06	1.23316885947133E-06	1128759.125	2.9150660338928E-05
1	202	82.3268127921448	1.16958618164063	1.16943359375	1.033935546875E-06	1.20911897738551E-06	1131050.75	2.92553540930385E-05
1	203	82.4275207918905	1.15951538085938	1.15966796875	1.02325439453125E-06	1.18663535886299E-06	1133313.375	2.93589419015916E-05
1	204	82.5282287916363	1.14944458007813	1.14990234375	1.01226806640625E-06	1.16400940441963E-06	1135966.25	2.94614383165026E-05
1	205	82.628936791382	1.13937377929688	1.13922119140625	1.0009765625E-06	1.14033366571675E-06	1138109.75	2.95628124149516E-05
1	206	82.7296447911277	1.12930297851563	1.129150390625	9.89379882812499E-07	1.1171586038472E-06	1141270.875	2.96630350931082E-05
1	207	82.8303527908735	1.11923217773438	1.119384765625	9.771728515625E-07	1.09383233848348E-06	1145534.125	2.97620590572478E-05
1	208	82.9310607906192	1.10916137695313	1.10931396484375	9.63745117187501E-07	1.06909578789782E-06	1151045	2.98597915389109E-05
1	209	83.0317687903649	1.09909057617188	1.09954833984375	9.4879150390625E-07	1.04324203675787E-06	1158893.625	2.99560961138923E-05
1	210	83.1324767901107	1.08901977539063	1.0888671875	9.320068359375E-07	1.0148315823244E-06	1168303.875	3.00508017971879E-05
1	211	83.2331847898564	1.07894897460938	1.07879638671875	9.11865234375001E-07	9.83716859082051E-07	1183065.625	3.01436484733131E-05
1	212	83.3338927896021	1.06887817382813	1.06903076171875	8.87451171875001E-07	9.48712568060728E-07	1204608	3.02342505165143E-05
1	213	83.4346007893479	1.05880737304688	1.058349609375	8.575439453125E-07	9.07581238607236E-07	1234163.75	3.0322118618642E-05
1	214	83.5353087890936	1.04873657226563	1.048583984375	8.21533203124999E-07	8.61446551425615E-07	1276374.5	3.04066670651082E-05
1	215	83.6360167888394	1.03866577148438	1.038818359375	7.7789306640625E-07	8.08089566817216E-07	1335425.75	3.04872046399396E-05
1	216	83.7367247885851	1.02859497070313	1.02813720703125	7.27233886718751E-07	7.47696219605132E-07	1413764.125	3.05629946524277E-05
1	217	83.8374327883308	1.01852416992188	1.0186767578125	6.7138671875E-07	6.83926032252202E-07	1517272.75	3.06334186461754E-05
1	218	83.9381407880766	1.00845336914063	1.00860595703125	6.14318847656251E-07	6.196056006047E-07	1641828.125	3.06981601170264E-05
1	219	84.0388487878223	0.998382568359375	0.99853515625	5.6182861328125E-07	5.61005606414255E-07	1777295	3.07573827740271E-05
1	220	84.139556787568	0.988311767578125	0.98846435546875	5.17578125E-07	5.11607481712417E-07	1909787.875	3.08117378153838E-05
1	221	84.2402647873138	0.978240966796875	0.9783935546875	4.86145019531251E-07	4.75641115826875E-07	2012555.125	3.08622766169719E-05
1	222	84.3409727870595	0.968170166015625	0.96832275390625	4.6661376953125E-07	4.51832704584376E-07	2075212.625	3.09102542814799E-05
1	223	84.4416807868053	0.958099365234375	0.95855712890625	4.57153320312501E-07	4.38207564457116E-07	2096795.75	3.09567694785073E-05
1	224	84.542388786551	0.948028564453125	0.94757080078125	4.54101562500001E-07	4.30293368935963E-07	2086693.625	3.10026516672224E-05
1	225	84.6430967862967	0.937957763671875	0.93841552734375	4.53796386718749E-07	4.25849577823101E-07	2067922	3.10483701468911E-05
1	226	84.7438047860425	0.927886962890625	0.92803955078125	4.547119140625E-07	4.21990648646897E-07	2040939.625	3.10941177303903E-05
1	227	84.8445127857882	0.917816162109375	0.91766357421875	4.54101562500001E-07	4.16712452988577E-07	2020833.375	3.11398798658047E-05
1	228	84.9452207855339	0.907745361328125	0.90789794921875	4.5135498046875E-07	4.09784234989274E-07	2011494.375	3.11854710162152E-05
1	229	85.0459287852797	0.897674560546875	0.89752197265625	4.437255859375E-07	3.98253462208231E-07	2022696	3.12305419356562E-05
1	230	85.1466367850254	0.887603759765625	0.887451171875	4.315185546875E-07	3.82951640176543E-07	2056577.125	3.12746160489041E-05
1	231	85.2473447847711	0.877532958984375	0.87738037109375	4.150390625E-07	3.64147098252943E-07	2113970.75	3.13172422465868E-05
1	232	85.3480527845169	0.867462158203125	0.867919921875	3.92761230468749E-07	3.4088529332621E-07	2209790.25	3.13579184876289E-05
1	233	85.4487607842626	0.857391357421875	0.85693359375	3.6590576171875E-07	3.13556938635884E-07	2341951.75	3.13961209030822E-05
1	234	85.5494687840084	0.847320556640625	0.84747314453125	3.375244140625E-07	2.8604287649614E-07	2510850	3.1431540264748E-05
1	235	85.6501767837541	0.837249755859375	0.83740234375	3.10363769531249E-07	2.59899337606839E-07	2698131.75	3.146416565869E-05
1	236	85.7508847834998	0.827178955078125	0.82763671875	2.86865234375E-07	2.37420195503546E-07	2885106.5	3.14942371915095E-05
1	237	85.8515927832456	0.817108154296875	0.81756591796875	2.69165039062499E-07	2.20060158540036E-07	3037415	3.15222350764088E-05
1	238	85.9523007829913	0.807037353515625	0.80718994140625	2.5665283203125E-07	2.07167587973345E-07	3145065.25	3.15487122861668E-05
1	239	86.053008782737	0.796966552734375	0.79742431640625	2.4993896484375E-07	1.9930739370011E-07	3190476.5	3.15742217935622E-05
1	240	86.1537167824828	0.786895751953125	0.787353515625	2.4444580078125E-07	1.92465265058672E-07	3220973.75	3.15991164825391E-05
1	241	86.2544247822285	0.776824951171875	0.77728271484375	2.398681640625E-07	1.86445390681911E-07	3240458	3.16235054924618E-05
1	242	86.3551327819742	0.766754150390625	0.76690673828125	2.31323242187501E-07	1.77403350676286E-07	3315303.5	3.16472287522629E-05
1	243	86.45584078172	0.756683349609375	0.75714111328125	2.19116210937501E-07	1.65901880677666E-07	3455432	3.16699115501251E-05
1	244	86.5565487814657	0.746612548828125	0.74658203125	1.9805908203125E-07	1.47867353916808E-07	3769491.5	3.16909172397573E-05
1	245	86.6572567812115	0.736541748046875	0.736480712890625	1.65710449218751E-07	1.22042550287915E-07	4444383	3.1709234463051E-05
1	246	86.7579647809572	0.726470947265625	0.726409912109375	1.190185546875E-07	8.64562537117308E-08	6103333.5	3.17235717375297E-05
1	247	86.8586727807029	0.716400146484375	0.716278076171875	5.58471679687506E-08	4.0002102963399E-08	12825683	3.17323792842217E-05
1	248	86.9593807804487	0.706329345703125	0.706268310546875	-2.65502929687494E-08	-1.87516295824253E-08	-26601150	3.17338526656386E-05
1	249	87.0600887801944	0.696258544921875	0.696136474609375	-1.2542724609375E-07	-8.73144827551187E-08	-5550121.5	3.17261983582284E-05
1	250	87.1607967799401	0.686187744140625	0.686065673828125	-2.35595703124999E-07	-1.6163411942216E-07	-2912046.75	3.17080230161082E-05
1	251	87.2615047796859	0.676116943359375	0.676055908203125	-3.4637451171875E-07	-2.34168524571032E-07	-1951806.25	3.16787154588383E-05
1	252	87.3622127794316	0.666046142578125	0.665985107421875	-4.46166992187499E-07	-2.97140559268882E-07	-1492681.25	3.16388104693033E-05
1	253	87.4629207791774	0.655975341796875	0.65594482421875	-5.24291992187501E-07	-3.4390660630379E-07	-1251106	3.15899414999876E-05
1	254	87.5636287789231	0.645904541015625	0.645843505859375	-5.7525634765625E-07	-3.71525544551332E-07	-1122705.625	3.15345751005225E-05
1	255	87.6643367786688	0.635833740234375	0.63580322265625	-5.96923828125E-07	-3.79526085225734E-07	-1065132.875	3.14755525323562E-05
1	256	87.7650447784146	0.625762939453125	0.62567138671875	-5.938720703125E-07	-3.71568773971376E-07	-1053545.75	3.14155913656577E-05
1	257	87.8657527781603	0.615692138671875	0.615631103515625	-5.72814941406249E-07	-3.52642700818251E-07	-1074747	3.1356841645902E-05
1	258	87.966460777906	0.605621337890625	0.60565185546875	-5.413818359375E-07	-3.27888926676678E-07	-1118714.75	3.13007403747179E-05
1	259	88.0671687776518	0.595550537109375	0.595550537109375	-5.035400390625E-07	-2.99883538446011E-07	-1182727.25	3.12481242872309E-05
1	260	88.1678767773975	0.585479736328125	0.58544921875	-4.65087890625E-07	-2.72285348046353E-07	-1258792.625	3.11993499053642E-05
1	261	88.2685847771432	0.575408935546875	0.575408935546875	-4.2694091796875E-07	-2.45665603415546E-07	-1347748.375	3.11544317810331E-05
1	262	88.369292776889	0.565338134765625	0.5653076171875	-3.91235351562499E-07	-2.21168320990728E-07	-1444929.875	3.11132316710427E-05
1	263	88.4700007766347	0.555267333984375	0.55523681640625	-3.57666015624999E-07	-1.98589333422206E-07	-1552389.125	3.10755240207072E-05
1	264	88.5707087763805	0.545196533203125	0.54522705078125	-3.2806396484375E-07	-1.78869342448706E-07	-1661953.625	3.10409923258703E-05
1	265	88.6714167761262	0.535125732421875	0.53509521484375	-3.009033203125E-07	-1.61011925570165E-07	-1778296.25	3.10093237203546E-05
1	266	88.7721247758719	0.525054931640625	0.525054931640625	-2.76794433593749E-07	-1.45332279544164E-07	-1896913	3.09802344418131E-05
1	267	88.8728327756177	0.514984130859375	0.514984130859375	-2.545166015625E-07	-1.31072013687117E-07	-2023381.25	3.09534807456657E-05
1	268	88.9735407753634	0.504913330078125	0.504913330078125	-2.3468017578125E-07	-1.18493147738263E-07	-2151495.5	3.09288479911629E-05
1	269	89.0742487751091	0.494842529296875	0.494842529296875	-2.1636962890625E-07	-1.07068892418738E-07	-2287024	3.09061360894702E-05
1	270	89.1749567748549	0.484771728515625	0.484771728515625	-1.9989013671875E-07	-9.69010898188571E-08	-2425190.75	3.08851740555838E-05
1	271	89.2756647746006	0.474700927734375	0.47467041015625	-1.85241699218749E-07	-8.79287469501833E-08	-2562438.25	3.08657799905632E-05
1	272	89.3763727743464	0.464630126953125	0.464599609375	-1.72119140625E-07	-7.99664832129565E-08	-2699291	3.08477865473833E-05
1	273	89.4770807740921	0.454559326171875	0.45458984375	-1.6021728515625E-07	-7.28331528421222E-08	-2837333.25	3.08310518448707E-05
1	274	89.5777887738378	0.444488525390625	0.44451904296875	-1.495361328125E-07	-6.64716566234347E-08	-2972653	3.08154558297247E-05
1	275	89.6784967735836	0.434417724609375	0.43450927734375	-1.39770507812501E-07	-6.07315797651609E-08	-3108733.75	3.08008857246023E-05
1	276	89.7792047733293	0.424346923828125	0.424346923828125	-1.312255859375E-07	-5.56851702526728E-08	-3233721.25	3.07872396660969E-05
1	277	89.879912773075	0.414276123046875	0.414276123046875	-1.239013671875E-07	-5.13293727522068E-08	-3343596.25	3.0774393962929E-05
1	278	89.9806207728208	0.404205322265625	0.40423583984375	-1.171875E-07	-4.73713868132108E-08	-3449479.25	3.07622540276498E-05
1	279	90.0813287725665	0.394134521484375	0.3941650390625	-1.10473632812499E-07	-4.35448406221894E-08	-3567956	3.07507907564286E-05
1	280	90.1820367723122	0.384063720703125	0.38409423828125	-1.0406494140625E-07	-3.99707431597562E-08	-3690909.25	3.07399895973504E-05
1	281	90.282744772058	0.373992919921875	0.373992919921875	-9.85717773437506E-08	-3.68651456028601E-08	-3794117.75	3.07297850667965E-05
1	282	90.3834527718037	0.363922119140625	0.363922119140625	-9.24682617187506E-08	-3.36512471221795E-08	-3935643.5	3.07201662508305E-05
1	283	90.4841607715495	0.353851318359375	0.353912353515625	-8.66699218750003E-08	-3.06735543631476E-08	-4083450.75	3.07111440633889E-05
1	284	90.5848687712952	0.343780517578125	0.343780517578125	-8.20922851562503E-08	-2.82217289537812E-08	-4187732.25	3.07026457448956E-05
1	285	90.6855767710409	0.333709716796875	0.333770751953125	-7.65991210937497E-08	-2.55665462134402E-08	-4357370.5	3.06946567434352E-05
1	286	90.7862847707867	0.323638916015625	0.323699951171875	-7.20214843749997E-08	-2.33133512494987E-08	-4494491.5	3.0687173421029E-05
1	287	90.8869927705324	0.313568115234375	0.31365966796875	-6.77490234374994E-08	-2.12501358731743E-08	-4629730	3.06801339320373E-05
1	288	90.9877007702781	0.303497314453125	0.303436279296875	-6.40869140625E-08	-1.9446293464398E-08	-4734762	3.06734946207143E-05
1	289	91.0884087700239	0.293426513671875	0.29345703125	-6.103515625E-08	-1.79111943054977E-08	-4808000.5	3.06671972793993E-05
1	290	91.1891167697696	0.283355712890625	0.283355712890625	-5.76782226562503E-08	-1.63434528133166E-08	-4912698.5	3.06612164422404E-05
1	291	91.2898247695153	0.273284912109375	0.273284912109375	-5.52368164062497E-08	-1.50953880506677E-08	-4947514	3.06555339193437E-05
1	292	91.3905327692611	0.263214111328125	0.263214111328125	-5.31005859375003E-08	-1.39768232543247E-08	-4956896.5	3.06500769511331E-05
1	293	91.4912407690068	0.253143310546875	0.253143310546875	-5.15747070312503E-08	-1.30557920030583E-08	-4908284	3.06448055198416E-05
1	294	91.5919487687526	0.243072509765625	0.243072509765625	-5.035400390625E-08	-1.22396741630837E-08	-4827273	3.06396723317448E-05
1	295	91.6926567684983	0.233001708984375	0.233001708984375	-5.00488281250003E-08	-1.16614620182531E-08	-4655488	3.06346191791818E-05
1	296	91.793364768244	0.222930908203125	0.222991943359375	-5.06591796874997E-08	-1.12965885534777E-08	-4401807.5	3.06295478367247E-05
1	297	91.8940727679898	0.212860107421875	0.212921142578125	-5.15747070312503E-08	-1.09813456106167E-08	-4128402.5	3.06244000967126E-05
1	298	91.9947807677355	0.202789306640625	0.202880859375	-5.27954101562506E-08	-1.07111777225555E-08	-3842774.75	3.06191432173364E-05
1	299	92.0954887674812	0.192718505859375	0.192779541015625	-5.46264648437503E-08	-1.05308650688585E-08	-3529050.25	3.06137335428502E-05
1	300	92.196196767227	0.182647705078125	0.182647705078125	-5.73730468750006E-08	-1.04790549571021E-08	-3183510.75	3.06080946756992E-05
1	301	92.2969047669727	0.172576904296875	0.172637939453125	-6.13403320312497E-08	-1.05896678093131E-08	-2814428	3.06021174765192E-05
1	302	92.3976127667185	0.162506103515625	0.162506103515625	-6.74438476562497E-08	-1.09600364339713E-08	-2409502.5	3.05956309603062E-05
1	303	92.4983207664642	0.152435302734375	0.152496337890625	-7.53784179687494E-08	-1.1494932117273E-08	-2023077	3.05884423141833E-05
1	304	92.5990287662099	0.142364501953125	0.1424560546875	-8.57543945312497E-08	-1.22162324700525E-08	-1661210	3.05803259834647E-05
1	305	92.6997367659557	0.132293701171875	0.13232421875	-1.00097656250001E-07	-1.3245343488677E-08	-1321951.25	3.05709691019729E-05
1	306	92.8004447657014	0.122222900390625	0.122283935546875	-1.19628906249999E-07	-1.46286938118578E-08	-1022193.875	3.05599060084205E-05
1	307	92.9011527654471	0.112152099609375	0.1121826171875	-1.47399902343751E-07	-1.65357061376881E-08	-761076.625	3.05464600387495E-05
1	308	93.0018607651929	0.102081298828125	0.102142333984375	-1.84326171875E-07	-1.88275048884634E-08	-554139.0625	3.05297544400673E-05
1	309	93.1025687649386	0.092010498046875	0.092041015625	-2.37121582031249E-07	-2.1824911655699E-08	-388159.59375	3.05085341096856E-05
1	310	93.2032767646843	0.081939697265625	0.08203125	-3.08837890624999E-07	-2.53343568346054E-08	-265612.65625	3.04810419038404E-05
1	311	93.3039847644301	0.071868896484375	0.0718994140625	-4.06494140624999E-07	-2.9226690401174E-08	-176876.875	3.04450222756714E-05
1	312	93.4046927641758	0.061798095703125	0.06182861328125	-5.340576171875E-07	-3.30200435882944E-08	-115771.4296875	3.03976612485712E-05
1	313	93.5054007639216	0.051727294921875	0.05181884765625	-6.96411132812499E-07	-3.60872220994679E-08	-74408.4140625	3.03357028315077E-05
1	314	93.6061087636673	0.041656494140625	0.0417572021484375	-8.92333984375E-07	-3.72613691013157E-08	-46795.48828125	3.02557036775397E-05
1	315	93.706816763413	0.031585693359375	0.031689453125	-1.11480712890625E-06	-3.53276270459446E-08	-28425.953125	3.01546351693105E-05
1	316	93.8075247631588	0.021514892578125	0.021630859375	-1.34735107421875E-06	-2.91443598143815E-08	-16054.3603515625	3.00306564895436E-05
1	317	93.9082327629045	0.011444091796875	0.01151123046875	-1.5667724609375E-06	-1.80354788881232E-08	-7347.09814453125	2.98839186143596E-05
1	318	94.0089407626502	0.001373291015625	0.0014923095703125	-1.75262451171875E-06	-2.61545829438603E-09	-851.471374511719	2.97167734970571E-05
1	319	94.109648762396	-0.008697509765625	-0.00859680175781249	-1.8853759765625E-06	1.62082045562784E-08	4559.728515625	2.95335848932154E-05
1	320	94.2103567621417	-0.018768310546875	-0.0186676025390625	-1.96136474609375E-06	3.66139758511963E-08	9517.66015625	2.93398861686001E-05
1	321	94.3110647618875	-0.028839111328125	-0.028741455078125	-1.983642578125E-06	5.70127696164491E-08	14489.2314453125	2.9141239792807E-05
1	322	94.4117727616332	-0.038909912109375	-0.03876953125	-1.9659423828125E-06	7.6218668709771E-08	19720.583984375	2.89423624053597E-05
1	323	94.5124807613789	-0.048980712890625	-0.0488494873046875	-1.92169189453125E-06	9.3873659068322E-08	25420.041015625	2.87466045847395E-05
1	324	94.6131887611247	-0.059051513671875	-0.0589599609375	-1.8634033203125E-06	1.09866185482588E-07	31641.0078125	2.85560090560466E-05
1	325	94.7138967608704	-0.069122314453125	-0.069091796875	-1.7999267578125E-06	1.24360170161708E-07	38385.89453125	2.83715471596224E-05
1	326	94.8146047606161	-0.079193115234375	-0.079132080078125	-1.7388916015625E-06	1.37602100380718E-07	45507.1953125	2.81933535006829E-05
1	327	94.9153127603619	-0.089263916015625	-0.08917236328125	-1.680908203125E-06	1.49890553302612E-07	53050.109375	2.80211515928386E-05
1	328	95.0160207601076	-0.099334716796875	-0.09930419921875	-1.63055419921875E-06	1.61920880259458E-07	60902.1171875	2.78544066532049E-05
1	329	95.1167287598533	-0.109405517578125	-0.1092529296875	-1.58660888671875E-06	1.73341661025006E-07	68859.3984375	2.76924092759145E-05
1	330	95.2174367595991	-0.119476318359375	-0.119384765625	-1.54937744140625E-06	1.84972066108458E-07	77053.375	2.75345009868033E-05
1	331	95.3181447593448	-0.129547119140625	-0.129486083984375	-1.5185546875E-06	1.96631688709203E-07	85269.296875	2.7380017854739E-05
1	332	95.4188527590906	-0.139617919921875	-0.1395263671875	-1.4935302734375E-06	2.083868508862E-07	93420.515625	2.72283468802925E-05
1	333	95.5195607588363	-0.149688720703125	-0.149658203125	-1.474609375E-06	2.20687383034601E-07	101490.0703125	2.70788896159502E-05
1	334	95.620268758582	-0.159759521484375	-0.15960693359375	-1.4593505859375E-06	2.32922459986185E-07	109368.46875	2.69311531155836E-05
1	335	95.7209767583278	-0.169830322265625	-0.16973876953125	-1.448974609375E-06	2.45947148869163E-07	117144.0625	2.67847062787041E-05
1	336	95.8216847580735	-0.179901123046875	-0.179718017578125	-1.44195556640625E-06	2.59145394920779E-07	124634.921875	2.66391361947171E-05
1	337	95.9223927578192	-0.189971923828125	-0.18988037109375	-1.4404296875E-06	2.73509300541264E-07	131822.046875	2.64939972112188E-05
1	338	96.023100757565	-0.200042724609375	-0.19989013671875	-1.44134521484375E-06	2.88110669544039E-07	138683.046875	2.63488891505403E-05
1	339	96.1238087573107	-0.189971923828125	-0.189788818359375	-1.26495361328125E-06	2.40074029989046E-07	150036.203125	2.62126159213949E-05
2	340	96.2245167570564	-0.179901123046875	-0.17974853515625	-1.13800048828125E-06	2.0455391336327E-07	157951.203125	2.6091616746271E-05
2	341	96.3252247568022	-0.169830322265625	-0.169677734375	-1.03546142578125E-06	1.75694751192168E-07	163866.78125	2.59821754298173E-05
2	342	96.4259327565479	-0.159759521484375	-0.15966796875	-9.48486328125001E-07	1.51442890228282E-07	168339.765625	2.58822747127851E-05
2	343	96.5266407562937	-0.149688720703125	-0.1495361328125	-8.7249755859375E-07	1.30469913983688E-07	171388.609375	2.57905812759418E-05
2	344	96.6273487560394	-0.139617919921875	-0.139495849609375	-8.04443359375E-07	1.1221650453308E-07	173406.6875	2.57061401498504E-05
2	345	96.7280567557851	-0.129547119140625	-0.129425048828125	-7.427978515625E-07	9.61366453111623E-08	174239.9375	2.56282310147071E-05
2	346	96.8287647555309	-0.119476318359375	-0.119293212890625	-6.84814453125E-07	8.16937131276063E-08	174197.859375	2.5556344553479E-05
2	347	96.9294727552766	-0.109405517578125	-0.109283447265625	-6.29577636718751E-07	6.88024144324118E-08	173582.15625	2.5490160624031E-05
2	348	97.0301807550223	-0.099334716796875	-0.099212646484375	-5.74645996093751E-07	5.70121478915553E-08	172650.03125	2.54295227932744E-05
2	349	97.1308887547681	-0.089263916015625	-0.089202880859375	-5.1849365234375E-07	4.62511273724431E-08	172042.375	2.53744783549337E-05
2	350	97.2315967545138	-0.079193115234375	-0.079071044921875	-4.58374023437499E-07	3.62441134882374E-08	172503.328125	2.5325289243483E-05
2	351	97.3323047542596	-0.069122314453125	-0.06903076171875	-3.90014648437501E-07	2.69230078231431E-08	176995.3125	2.52825702773407E-05
2	352	97.4330127540053	-0.059051513671875	-0.058990478515625	-3.08837890624999E-07	1.82184951569297E-08	191007.90625	2.52473801083397E-05
2	353	97.533720753751	-0.048980712890625	-0.04886474609375	-2.09960937500001E-07	1.02596873219341E-08	232732.5625	2.5221255782526E-05
2	354	97.6344287534968	-0.038909912109375	-0.038751220703125	-8.697509765625E-08	3.37039107733972E-09	445543.90625	2.52063036896288E-05
2	355	97.7351367532425	-0.028839111328125	-0.0287109375	6.62231445312494E-08	-1.90132842803337E-09	-433548.375	2.52052595897112E-05
2	356	97.8358447529882	-0.018768310546875	-0.0186676025390625	2.5146484375E-07	-4.6942454368093E-09	-74235.4453125	2.5221255782526E-05
2	357	97.936552752734	-0.008697509765625	-0.00858154296874999	4.681396484375E-07	-4.01736066635294E-09	-18331.162109375	2.52574900514446E-05
2	358	98.0372607524797	0.001373291015625	0.00150146484374999	7.07397460937501E-07	1.06213238204589E-09	2122.51953125	2.53166836046148E-05
2	359	98.1379687522254	0.011444091796875	0.01151123046875	9.521484375E-07	1.09604005871233E-08	12089.744140625	2.54002479778137E-05
2	360	98.2386767519712	0.021514892578125	0.0216064453125	1.180419921875E-06	2.55046774810808E-08	18304.033203125	2.5507632017252E-05
2	361	98.3393847517169	0.031585693359375	0.03165283203125	1.370849609375E-06	4.33912674679959E-08	23089.9375	2.56360981438775E-05
2	362	98.4400927514627	0.041656494140625	0.0417816162109375	1.50665283203125E-06	6.29503844606916E-08	27731.416015625	2.57809915638063E-05
2	363	98.5408007512084	0.051727294921875	0.0517578125	1.5838623046875E-06	8.1977248100884E-08	32678.228515625	2.59366115642479E-05
2	364	98.6415087509541	0.061798095703125	0.061859130859375	1.607666015625E-06	9.94488189576259E-08	38477.6015625	2.60973174590617E-05
2	365	98.7422167506999	0.071868896484375	0.0718994140625	1.591796875E-06	1.14449257182514E-07	45168.71484375	2.62584235315444E-05
2	366	98.8429247504456	0.081939697265625	0.08197021484375	1.54937744140625E-06	1.27002806493692E-07	52905.2578125	2.64165955741191E-05
2	367	98.9436327501913	0.092010498046875	0.092071533203125	1.494140625E-06	1.37567823799145E-07	61621.73046875	2.65698472503573E-05
2	368	99.0443407499371	0.102081298828125	0.102081298828125	1.43310546875E-06	1.46293274383424E-07	71230.8359375	2.67172472376842E-05
2	369	99.1450487496828	0.112152099609375	0.1121826171875	1.37298583984375E-06	1.54025144638581E-07	81707.046875	2.68585445155622E-05
2	370	99.2457567494286	0.122222900390625	0.122283935546875	1.31622314453125E-06	1.60952936312242E-07	92905.171875	2.69939573627198E-05
2	371	99.3464647491743	0.132293701171875	0.13232421875	1.2652587890625E-06	1.67424374808434E-07	104582.7265625	2.71239441644866E-05
2	372	99.44717274892	0.142364501953125	0.142486572265625	1.21826171875E-06	1.73585931406706E-07	116958.921875	2.72489996859804E-05
2	373	99.5478807486658	0.152435302734375	0.152496337890625	1.17706298828125E-06	1.79497789076777E-07	129556.65625	2.73696150543401E-05
2	374	99.6485887484115	0.162506103515625	0.162506103515625	1.14105224609375E-06	1.85427936116866E-07	142417.765625	2.7486341423355E-05
2	375	99.7492967481572	0.172576904296875	0.172576904296875	1.10931396484375E-06	1.9144196983234E-07	155570.84375	2.75996553682489E-05
2	376	99.850004747903	0.182647705078125	0.18267822265625	1.08123779296875E-06	1.97518588151979E-07	168952.875	2.770995888568E-05
2	377	99.9507127476487	0.192718505859375	0.1927490234375	1.0565185546875E-06	2.03642912310897E-07	182437.90625	2.7817603040603E-05
2	378	100.051420747394	0.202789306640625	0.202789306640625	1.0345458984375E-06	2.09794848160527E-07	196017.703125	2.79228970612166E-05
2	379	100.15212874714	0.212860107421875	0.212890625	1.01531982421875E-06	2.16152059806518E-07	209678.40625	2.80261156149209E-05
2	380	100.252836746886	0.222930908203125	0.222900390625	9.9822998046875E-07	2.22505860847377E-07	223295.625	2.81275060842745E-05
2	381	100.353544746632	0.233001708984375	0.2330322265625	9.8297119140625E-07	2.29063971346477E-07	237069.234375	2.82272667391226E-05
2	382	100.454252746377	0.243072509765625	0.243072509765625	9.6923828125E-07	2.35595180697601E-07	250787.15625	2.8325568564469E-05
2	383	100.554960746123	0.253143310546875	0.253143310546875	9.5703125E-07	2.42266054328866E-07	264508.9375	2.84225643554237E-05
2	384	100.655668745869	0.263214111328125	0.263214111328125	9.45434570312501E-07	2.48851705464403E-07	278405.4375	2.85183614323614E-05
2	385	100.756376745615	0.273284912109375	0.273284912109375	9.3536376953125E-07	2.55620790312605E-07	292169.65625	2.8613067115657E-05
2	386	100.85708474536	0.283355712890625	0.283355712890625	9.26513671875E-07	2.6253292162437E-07	305830.0625	2.87068196485052E-05
2	387	100.957792745106	0.293426513671875	0.29339599609375	9.185791015625E-07	2.69507410166625E-07	319402	2.87997281702701E-05
2	388	101.058500744852	0.303497314453125	0.303497314453125	9.112548828125E-07	2.76563412171527E-07	333054.25	2.88918672595173E-05
2	389	101.159208744598	0.313568115234375	0.31353759765625	9.051513671875E-07	2.83798982536609E-07	346392.46875	2.89833296847064E-05
2	390	101.259916744343	0.323638916015625	0.323638916015625	8.9996337890625E-07	2.9126317713235E-07	359613.4375	2.90742245852016E-05
2	391	101.360624744089	0.333709716796875	0.33367919921875	8.95080566406251E-07	2.98669760923076E-07	372792.375	2.91646119876532E-05
2	392	101.461332743835	0.343780517578125	0.343841552734375	8.91723632812499E-07	3.06611639189214E-07	385592.0625	2.92545846605208E-05
2	393	101.56204074358	0.353851318359375	0.353851318359375	8.880615234375E-07	3.142417313029E-07	398453.625	2.93442044494441E-05
2	394	101.662748743326	0.363922119140625	0.363922119140625	8.85620117187499E-07	3.22296727972571E-07	410923.53125	2.94335168291582E-05
2	395	101.763456743072	0.373992919921875	0.373992919921875	8.84399414062501E-07	3.30759121425217E-07	422877.84375	2.95226436719531E-05
2	396	101.864164742818	0.384063720703125	0.384002685546875	8.831787109375E-07	3.39142985694707E-07	434796.125	2.9611648642458E-05
2	397	101.964872742563	0.394134521484375	0.394134521484375	8.82568359375E-07	3.47850630078028E-07	446576.78125	2.97005608445033E-05
2	398	102.065580742309	0.404205322265625	0.404205322265625	8.831787109375E-07	3.56985538019217E-07	457671.0625	2.97894730465487E-05
2	399	102.166288742055	0.414276123046875	0.414306640625	8.8348388671875E-07	3.66033248155873E-07	468946.46875	2.98784325423185E-05
2	400	102.266996741801	0.424346923828125	0.42431640625	8.84094238281249E-07	3.75135670083182E-07	479944.78125	2.99674375128234E-05
2	401	102.367704741546	0.434417724609375	0.43438720703125	8.85009765625E-07	3.84436901867957E-07	490827.59375	3.00565188808832E-05
2	402	102.468412741292	0.444488525390625	0.444549560546875	8.8623046875E-07	3.93973351719978E-07	501618.46875	3.01457075693179E-05
2	403	102.569120741038	0.454559326171875	0.45452880859375	8.87451171875001E-07	4.03372126811519E-07	512173.3125	3.0235019949032E-05
2	404	102.669828740784	0.464630126953125	0.464569091796875	8.892822265625E-07	4.13133022902912E-07	522409.0625	3.0324485123856E-05
2	405	102.770536740529	0.474700927734375	0.4747314453125	8.91723632812499E-07	4.2332925431765E-07	532375.0625	3.04141649394296E-05
2	406	102.871244740275	0.484771728515625	0.4847412109375	8.941650390625E-07	4.3343862898837E-07	542116.0625	3.05040921375621E-05
2	407	102.971952740021	0.494842529296875	0.494842529296875	8.9752197265625E-07	4.44132041366174E-07	551343.125	3.05943103739992E-05
2	408	103.072660739767	0.504913330078125	0.504852294921875	9.014892578125E-07	4.55118907893848E-07	560020.3125	3.06848996842746E-05
2	409	103.173368739512	0.514984130859375	0.5150146484375	9.0606689453125E-07	4.66637715135221E-07	568406.875	3.07759146380704E-05
2	410	103.274076739258	0.525054931640625	0.525054931640625	9.112548828125E-07	4.78458844099805E-07	576188.875	3.0867424356984E-05
2	411	103.374784739004	0.535125732421875	0.53509521484375	9.17663574218749E-07	4.91037383199E-07	583106.125	3.09595197904855E-05
2	412	103.475492738749	0.545196533203125	0.545196533203125	9.2498779296875E-07	5.04300146531023E-07	589409.4375	3.10523028019816E-05
2	413	103.576200738495	0.555267333984375	0.55523681640625	9.34753417968751E-07	5.19009518029634E-07	593992.8125	3.11459480144549E-05
2	414	103.676908738241	0.565338134765625	0.565338134765625	9.4573974609375E-07	5.3466271765501E-07	597773.5	3.12406409648247E-05
2	415	103.777616737987	0.575408935546875	0.575439453125	9.6160888671875E-07	5.53347661025327E-07	598413.1875	3.13366836053319E-05
2	416	103.878324737732	0.585479736328125	0.58544921875	9.80529785156251E-07	5.74050375234947E-07	597074.375	3.14344761136454E-05
2	417	103.979032737478	0.595550537109375	0.595489501953125	1.0064697265625E-06	5.99342115492618E-07	591661.625	3.15345314447768E-05
2	418	104.079740737224	0.605621337890625	0.605560302734375	1.0406494140625E-06	6.30175975402381E-07	581906.1875	3.16376099362969E-05
2	419	104.18044873697	0.615692138671875	0.615753173828125	1.08642578125E-06	6.68970130845992E-07	566769.6875	3.17447156703565E-05
2	420	104.281156736715	0.625762939453125	0.62579345703125	1.1468505859375E-06	7.17691534646292E-07	545662.625	3.18571728712413E-05
2	421	104.381864736461	0.635833740234375	0.6357421875	1.2249755859375E-06	7.78768651343853E-07	518983.5625	3.19766040774994E-05
2	422	104.482572736207	0.645904541015625	0.64581298828125	1.319580078125E-06	8.52201935686026E-07	489407.96875	3.21047300531063E-05
2	423	104.583280735953	0.655975341796875	0.655975341796875	1.427001953125E-06	9.36078095037374E-07	459687.75	3.22430314554367E-05
2	424	104.683988735698	0.666046142578125	0.666015625	1.5411376953125E-06	1.02642172805645E-06	432158.4375	3.23924905387685E-05
2	425	104.784696735444	0.676116943359375	0.67608642578125	1.6510009765625E-06	1.11621932319395E-06	409500.9375	3.25532273564022E-05
2	426	104.88540473519	0.686187744140625	0.686126708984375	1.74530029296875E-06	1.19749711302575E-06	393128.1875	3.27242451021448E-05
2	427	104.986112734936	0.696258544921875	0.696197509765625	1.8157958984375E-06	1.26415250178979E-06	383411.78125	3.29035610775463E-05
2	428	105.086820734681	0.706329345703125	0.706268310546875	1.86004638671875E-06	1.31369176870066E-06	379704.6875	3.30886541632935E-05
2	429	105.187528734427	0.716400146484375	0.71636962890625	1.8792724609375E-06	1.34625372538721E-06	381195.1875	3.32769413944334E-05
2	430	105.288236734173	0.726470947265625	0.72637939453125	1.87896728515625E-06	1.36484311497043E-06	386584.375	3.34661854139995E-05
2	431	105.388944733918	0.736541748046875	0.736480712890625	1.86614990234375E-06	1.37438337333151E-06	394652.5	3.36547673214227E-05
2	432	105.489652733664	0.746612548828125	0.74658203125	1.84600830078125E-06	1.37819654355553E-06	404430.5	3.38416903105099E-05
2	433	105.59036073341	0.756683349609375	0.75714111328125	1.82342529296875E-06	1.38059021992376E-06	415230.125	3.40264596161433E-05
2	434	105.691068733156	0.766754150390625	0.7672119140625	1.8023681640625E-06	1.38279835937283E-06	425668.8125	3.42090315825772E-05
2	435	105.791776732901	0.776824951171875	0.7769775390625	1.78375244140625E-06	1.38593554765976E-06	435585.96875	3.43896099366248E-05
2	436	105.892484732647	0.786895751953125	0.7867431640625	1.77032470703125E-06	1.39279075028753E-06	444406.15625	3.45685693901032E-05
2	437	105.993192732393	0.796966552734375	0.797119140625	1.76177978515625E-06	1.40434826789715E-06	452451.09375	3.47464265360031E-05
2	438	106.093900732139	0.807037353515625	0.806884765625	1.75811767578125E-06	1.41859834457136E-06	458948.125	3.49236652255058E-05
2	439	106.194608731884	0.817108154296875	0.81817626953125	1.75933837890625E-06	1.43944885167002E-06	465047.6875	3.51007838617079E-05
2	440	106.29531673163	0.827178955078125	0.82763671875	1.763916015625E-06	1.45988167332689E-06	469204.15625	3.52781935362145E-05
2	441	106.396024731376	0.837249755859375	0.83740234375	1.77001953125E-06	1.48221840845508E-06	473103.46875	3.54561416315846E-05
2	442	106.496732731122	0.847320556640625	0.84808349609375	1.776123046875E-06	1.50630057760281E-06	477491.4375	3.56347045453731E-05
2	443	106.597440730867	0.857391357421875	0.8575439453125	1.781005859375E-06	1.52729080582503E-06	481494.1875	3.58138204319403E-05
2	444	106.698148730613	0.867462158203125	0.867919921875	1.78314208984375E-06	1.54762449255941E-06	486736.28125	3.59932892024517E-05
2	445	106.798856730359	0.877532958984375	0.877685546875	1.7816162109375E-06	1.5636987882317E-06	492634.46875	3.61727907147724E-05
2	446	106.899564730105	0.887603759765625	0.887451171875	1.77886962890625E-06	1.57865986238903E-06	498884.90625	3.63520739483647E-05
2	447	107.00027272985	0.897674560546875	0.8978271484375	1.77398681640625E-06	1.5927334970911E-06	506107	3.65309751941822E-05
2	448	107.100980729596	0.907745361328125	0.90728759765625	1.7706298828125E-06	1.60647050506668E-06	512409.53125	3.67094617104158E-05
2	449	107.201688729342	0.917816162109375	0.91766357421875	1.7681884765625E-06	1.62260209890519E-06	518985.15625	3.68876535503659E-05
2	450	107.302396729087	0.927886962890625	0.92803955078125	1.76849365234375E-06	1.64123196100263E-06	524762.75	3.70657398889307E-05
2	451	107.403104728833	0.937957763671875	0.93780517578125	1.77398681640625E-06	1.66365396125912E-06	528642.6875	3.72441172658E-05
2	452	107.503812728579	0.948028564453125	0.94818115234375	1.78466796875E-06	1.69218844803254E-06	531292.75	3.74233095499221E-05
2	453	107.604520728325	0.958099365234375	0.95794677734375	1.80328369140625E-06	1.72744978499395E-06	531223.5625	3.76039788534399E-05
2	454	107.70522872807	0.968170166015625	0.96832275390625	1.82891845703125E-06	1.77098320364166E-06	529451.0625	3.77868745999876E-05
2	455	107.805936727816	0.978240966796875	0.97808837890625	1.8621826171875E-06	1.82137910087476E-06	525237.625	3.79727352992631E-05
2	456	107.906644727562	0.988311767578125	0.9881591796875	1.900634765625E-06	1.87812963758915E-06	519910.09375	3.81622085114941E-05
2	457	108.007352727308	0.998382568359375	0.99853515625	1.94091796875E-06	1.93807477444352E-06	514465.4375	3.83556471206248E-05
2	458	108.108060727053	1.00845336914063	1.00830078125	1.9775390625E-06	1.99395412892045E-06	509876.53125	3.85529565392062E-05
2	459	108.208768726799	1.01852416992188	1.01898193359375	2.0068359375E-06	2.04492971533909E-06	507755.46875	3.87535874324385E-05
2	460	108.309476726545	1.02859497070313	1.02874755859375	2.0245361328125E-06	2.08273650059709E-06	508139.875	3.89565830118954E-05
2	461	108.410184726291	1.03866577148438	1.03851318359375	2.03155517578125E-06	2.10979669645894E-06	511191.25	3.91608227801044E-05
2	462	108.510892726036	1.04873657226563	1.048583984375	2.02880859375E-06	2.12737609217584E-06	516847.21875	3.93652771890629E-05
2	463	108.611600725782	1.05880737304688	1.05865478515625	2.01873779296875E-06	2.13714633900963E-06	524414.25	3.95690876757726E-05
2	464	108.712308725528	1.06887817382813	1.06903076171875	2.00408935546875E-06	2.14243323171104E-06	533424.6875	3.97716539737303E-05
2	465	108.813016725274	1.07894897460938	1.0791015625	1.98699951171875E-06	2.14417423194391E-06	543080.9375	3.99726195610128E-05
2	466	108.913724725019	1.08901977539063	1.0888671875	1.968994140625E-06	2.14397323361482E-06	553006.8125	4.01718207285739E-05
2	467	109.014432724765	1.09909057617188	1.0992431640625	1.95159912109375E-06	2.14528176911699E-06	563252.5625	4.03692392865196E-05
2	468	109.115140724511	1.10916137695313	1.10870361328125	1.9354248046875E-06	2.14581245927548E-06	572847.6875	4.05649661843199E-05
2	469	109.215848724256	1.11923217773438	1.119384765625	1.92138671875E-06	2.15077102438954E-06	582592.125	4.07591724069789E-05
2	470	109.316556724002	1.12930297851563	1.12945556640625	1.907958984375E-06	2.1549547000177E-06	591970.625	4.09519925597124E-05
2	471	109.417264723748	1.13937377929688	1.1395263671875	1.89727783203125E-06	2.1619980543619E-06	600611.25	4.11436012655031E-05
2	472	109.517972723494	1.14944458007813	1.14990234375	1.88690185546875E-06	2.16975286093657E-06	609412.9375	4.13341513194609E-05
2	473	109.618680723239	1.15951538085938	1.15936279296875	1.87896728515625E-06	2.17840465666086E-06	617021.25	4.15237773268018E-05
2	474	109.719388722985	1.16958618164063	1.16943359375	1.87225341796875E-06	2.18947593566554E-06	624612.875	4.17126684624236E-05
2	475	109.820096722731	1.17965698242188	1.17950439453125	1.8670654296875E-06	2.20221181734814E-06	631742.4375	4.19009556935634E-05
2	476	109.920804722477	1.18972778320313	1.1895751953125	1.8634033203125E-06	2.21665845856478E-06	638388.4375	4.20887990912888E-05
2	477	110.021512722222	1.19979858398438	1.19964599609375	1.86065673828125E-06	2.23212919081561E-06	644743.375	4.22763223468792E-05
2	478	110.122220721968	1.20986938476563	1.2103271484375	1.8585205078125E-06	2.24941777560161E-06	651231.5625	4.24635982199106E-05
2	479	110.222928721714	1.21994018554688	1.2200927734375	1.8585205078125E-06	2.26756742449652E-06	656486.0625	4.26507649535779E-05
2	480	110.32363672146	1.23001098632813	1.2298583984375	1.859130859375E-06	2.28646763389406E-06	661523.3125	4.28379644290544E-05
2	481	110.424344721205	1.24008178710938	1.23992919921875	1.86126708984375E-06	2.30783939514367E-06	666174.8125	4.30253021477256E-05
2	482	110.525052720951	1.25015258789063	1.24969482421875	1.86370849609375E-06	2.32906677410938E-06	670542	4.32128690590616E-05
2	483	110.625760720697	1.26022338867188	1.259765625	1.8682861328125E-06	2.35360266742646E-06	674289.5	4.3400788854342E-05
2	484	110.726468720443	1.27029418945313	1.26983642578125	1.8731689453125E-06	2.37861809182505E-06	677908.125	4.3589185224846E-05
2	485	110.827176720188	1.28036499023438	1.28021240234375	1.87896728515625E-06	2.4054772893578E-06	681338.3125	4.37781200162135E-05
2	486	110.927884719934	1.29043579101563	1.2908935546875	1.88629150390625E-06	2.43500153374043E-06	684355.3125	4.39677169197239E-05
2	487	111.02859271968	1.30050659179688	1.30035400390625	1.89453125E-06	2.46356125899183E-06	686372.4375	4.41580959886778E-05
2	488	111.129300719425	1.31057739257813	1.31072998046875	1.904296875E-06	2.49601885116135E-06	688301.3125	4.43493845523335E-05
2	489	111.230008719171	1.32064819335938	1.32049560546875	1.9146728515625E-06	2.52831705438439E-06	689671.6875	4.45416844740976E-05
2	490	111.330716718917	1.33071899414063	1.33087158203125	1.92657470703125E-06	2.56402358900232E-06	690796.8125	4.47351048933342E-05
2	491	111.431424718663	1.34078979492188	1.34063720703125	1.94000244140625E-06	2.60083947978273E-06	691049.25	4.49298022431321E-05
2	492	111.532132718408	1.35086059570313	1.3507080078125	1.95343017578125E-06	2.63851393356163E-06	691454.4375	4.51258529210463E-05
2	493	111.632840718154	1.36093139648438	1.361083984375	1.96807861328125E-06	2.67872019321658E-06	691580.125	4.53233151347376E-05
2	494	111.7335487179	1.37100219726563	1.370849609375	1.98394775390625E-06	2.71969383902615E-06	690970.6875	4.55223162134644E-05
2	495	111.834256717646	1.38107299804688	1.3812255859375	1.99951171875E-06	2.76177661362453E-06	690781.5	4.57228998129722E-05
2	496	111.934964717391	1.39114379882813	1.39068603515625	2.0166015625E-06	2.80445942735241E-06	689618.6875	4.59251277789008E-05
2	497	112.035672717137	1.40121459960938	1.4007568359375	2.03369140625E-06	2.84870702671469E-06	688775.5625	4.61290765088052E-05
2	498	112.136380716883	1.41128540039063	1.41143798828125	2.05230712890625E-06	2.89670424535871E-06	687732.375	4.63348224002402E-05
2	499	112.237088716629	1.42135620117188	1.42120361328125	2.07366943359375E-06	2.94710639536788E-06	685356.9375	4.65425800939556E-05
2	500	112.337796716374	1.43142700195313	1.4312744140625	2.09686279296875E-06	3.00118608720368E-06	682578.9375	4.67525860585738E-05
2	501	112.43850471612	1.44149780273438	1.441650390625	2.1240234375E-06	3.06209926748124E-06	678735.625	4.69651240564417E-05
2	502	112.539212715866	1.45156860351563	1.45172119140625	2.1563720703125E-06	3.13045075017726E-06	673223.9375	4.71806597488467E-05
2	503	112.639920715612	1.46163940429688	1.46209716796875	2.1942138671875E-06	3.20815365739691E-06	666342.1875	4.73997279186733E-05
2	504	112.740628715357	1.47171020507813	1.47186279296875	2.23876953125E-06	3.29516137753672E-06	657442.8125	4.76229470223188E-05
2	505	112.841336715103	1.48178100585938	1.4813232421875	2.291259765625E-06	3.39409643856925E-06	646510.375	4.78510519315023E-05
2	506	112.942044714849	1.49185180664063	1.49200439453125	2.35382080078125E-06	3.51191079062119E-06	633864.9375	4.80849485029466E-05
2	507	113.042752714594	1.50192260742188	1.50177001953125	2.42584228515625E-06	3.64305719813274E-06	619071.5625	4.83256262668874E-05
2	508	113.14346071434	1.49185180664063	1.4923095703125	2.1990966796875E-06	3.28173291563871E-06	678601.1875	4.85585078422446E-05
2	509	113.244168714086	1.48178100585938	1.48223876953125	2.03704833984375E-06	3.01939189739642E-06	727640.5	4.87718170916196E-05
2	510	113.344876713832	1.47171020507813	1.47186279296875	1.9110107421875E-06	2.81274560620659E-06	770201.25	4.89706144435331E-05
2	511	113.445584713577	1.46163940429688	1.46148681640625	1.8084716796875E-06	2.64305754171801E-06	808133.625	4.91579085064586E-05
2	512	113.546292713323	1.45156860351563	1.451416015625	1.72393798828125E-06	2.50215111918806E-06	841918.9375	4.9335776566295E-05
2	513	113.647000713069	1.44149780273438	1.44134521484375	1.6522216796875E-06	2.38142160924326E-06	872368	4.95057793159503E-05
2	514	113.747708712815	1.43142700195313	1.4312744140625	1.59210205078125E-06	2.27873488256591E-06	898984.125	4.96691463922616E-05
2	515	113.84841671256	1.42135620117188	1.42120361328125	1.54083251953125E-06	2.18983677768847E-06	922360.875	4.98269000672735E-05
2	516	113.949124712306	1.41128540039063	1.41143798828125	1.4959716796875E-06	2.11147130357858E-06	943492.4375	4.9979815230472E-05
2	517	114.049832712052	1.40121459960938	1.40106201171875	1.45751953125E-06	2.04207526621758E-06	961264.6875	5.01285358041059E-05
2	518	114.150540711798	1.39114379882813	1.3909912109375	1.4227294921875E-06	1.97900430976006E-06	977692	5.02735674672294E-05
2	519	114.251248711543	1.38107299804688	1.38092041015625	1.3922119140625E-06	1.92253378372698E-06	991889.5625	5.04153140354902E-05
2	520	114.351956711289	1.37100219726563	1.370849609375	1.36444091796875E-06	1.8704432704908E-06	1004696.9375	5.05541211168747E-05
2	521	114.452664711035	1.36093139648438	1.36077880859375	1.3385009765625E-06	1.82140377091855E-06	1016643.875	5.06902251800057E-05
2	522	114.553372710781	1.35086059570313	1.351318359375	1.31622314453125E-06	1.77863648787024E-06	1026663.625	5.08238990732934E-05
2	523	114.654080710526	1.34078979492188	1.34124755859375	1.29547119140625E-06	1.73754756360722E-06	1035335.6875	5.0955408369191E-05
2	524	114.754788710272	1.33071899414063	1.33026123046875	1.27532958984375E-06	1.69652139447862E-06	1043072.5625	5.10848585690837E-05
2	525	114.855496710018	1.32064819335938	1.32080078125	1.25732421875E-06	1.66067479767662E-06	1050485.375	5.12123879161663E-05
2	526	114.956204709763	1.31057739257813	1.31072998046875	1.23931884765625E-06	1.62441233442223E-06	1057621.25	5.1338105549803E-05
2	527	115.056912709509	1.30050659179688	1.3006591796875	1.22283935546875E-06	1.59049716330628E-06	1063638.75	5.14620842295699E-05
2	528	115.157620709255	1.29043579101563	1.29058837890625	1.20758056640625E-06	1.55848942995362E-06	1068739	5.15844658366404E-05
2	529	115.258328709001	1.28036499023438	1.280517578125	1.19293212890625E-06	1.52757058913267E-06	1073420.25	5.17053413204849E-05
2	530	115.359036708746	1.27029418945313	1.27105712890625	1.1785888671875E-06	1.49805373439449E-06	1078456.75	5.18247579748277E-05
2	531	115.459744708492	1.26022338867188	1.26007080078125	1.16485595703125E-06	1.4678008710689E-06	1081739.625	5.19427594554145E-05
2	532	115.560452708238	1.25015258789063	1.25	1.15142822265625E-06	1.4392851426237E-06	1085608.375	5.20593930559698E-05
2	533	115.661160707984	1.24008178710938	1.23992919921875	1.1383056640625E-06	1.41141833864822E-06	1089276.25	5.2174691518303E-05
2	534	115.761868707729	1.23001098632813	1.23046875	1.12579345703125E-06	1.3852536540071E-06	1092979.125	5.22886984981596E-05
2	535	115.862576707475	1.21994018554688	1.21978759765625	1.11297607421875E-06	1.3575944421973E-06	1095969.25	5.2401428547455E-05
2	536	115.963284707221	1.20986938476563	1.209716796875	1.10198974609375E-06	1.33309549710248E-06	1097756.875	5.25129617017228E-05
2	537	116.063992706967	1.19979858398438	1.199951171875	1.09039306640625E-06	1.30841840473295E-06	1100475.75	5.2623356168624E-05
2	538	116.164700706712	1.18972778320313	1.1895751953125	1.07818603515625E-06	1.28258329823439E-06	1103311.75	5.27325537404977E-05
2	539	116.265408706458	1.17965698242188	1.1798095703125	1.06658935546875E-06	1.25837232189951E-06	1106151.625	5.2840550779365E-05
2	540	116.366116706204	1.16958618164063	1.16973876953125	1.05499267578125E-06	1.23406573493412E-06	1108764.875	5.29473800270353E-05
2	541	116.46682470595	1.15951538085938	1.15966796875	1.04339599609375E-06	1.20999288810708E-06	1111436.125	5.30530414835084E-05
2	542	116.567532705695	1.14944458007813	1.14959716796875	1.03179931640625E-06	1.18615355404472E-06	1114167.375	5.31575351487845E-05
2	543	116.668240705441	1.13937377929688	1.1395263671875	1.0198974609375E-06	1.16220007839729E-06	1117295	5.32608464709483E-05
2	544	116.768948705187	1.12930297851563	1.12945556640625	1.00738525390625E-06	1.13779685761983E-06	1121175.5	5.33629281562753E-05
2	545	116.869656704932	1.11923217773438	1.1187744140625	9.9456787109375E-07	1.11269707758765E-06	1124885	5.34637365490198E-05
2	546	116.970364704678	1.10916137695313	1.10931396484375	9.7991943359375E-07	1.0870382993744E-06	1132046.125	5.35631588718388E-05
2	547	117.071072704424	1.09909057617188	1.0992431640625	9.6435546875E-07	1.06006109490409E-06	1139873.5	5.36610605195165E-05
2	548	117.17178070417	1.08901977539063	1.08917236328125	9.4635009765625E-07	1.03073841728474E-06	1150919	5.37572741450276E-05
2	549	117.272488703915	1.07894897460938	1.07940673828125	9.259033203125E-07	9.99426220005262E-07	1165787.75	5.38515487278346E-05
2	550	117.373196703661	1.06887817382813	1.0687255859375	9.0087890625E-07	9.62792341852037E-07	1186314.375	5.39435350219719E-05
2	551	117.473904703407	1.05880737304688	1.0589599609375	8.709716796875E-07	9.22324090879556E-07	1215837.5	5.4032752814237E-05
2	552	117.574612703153	1.04873657226563	1.04888916015625	8.349609375E-07	8.7578149532419E-07	1256213.5	5.41186564078089E-05
2	553	117.675320702898	1.03866577148438	1.03912353515625	7.904052734375E-07	8.21328683286993E-07	1314671.875	5.4200500017032E-05
2	554	117.776028702644	1.02859497070313	1.0284423828125	7.4005126953125E-07	7.61100068302767E-07	1389690.75	5.42775633221027E-05
2	555	117.87673670239	1.01852416992188	1.01837158203125	6.8359375E-07	6.96152426371555E-07	1489732.25	5.43492496944964E-05
2	556	117.977444702136	1.00845336914063	1.00860595703125	6.26220703124999E-07	6.31609907486563E-07	1610623.75	5.44152026122902E-05
2	557	118.078152701881	0.998382568359375	0.9979248046875	5.72814941406249E-07	5.71626230794209E-07	1742141.75	5.44755785085727E-05
2	558	118.178860701627	0.988311767578125	0.98846435546875	5.27343750000001E-07	5.21260460573103E-07	1874421.375	5.4530977649847E-05
2	559	118.279568701373	0.978240966796875	0.97869873046875	4.93774414062501E-07	4.83256371808238E-07	1982076.75	5.45823932043277E-05
2	560	118.380276701119	0.968170166015625	0.96832275390625	4.718017578125E-07	4.56856355413038E-07	2052393.375	5.46310147910845E-05
2	561	118.480984700864	0.958099365234375	0.95855712890625	4.60205078125001E-07	4.41132840478531E-07	2082891.375	5.46779447176959E-05
2	562	118.58169270061	0.948028564453125	0.9478759765625	4.55627441406251E-07	4.3187830556235E-07	2080375.125	5.47240597370546E-05
2	563	118.682400700356	0.937957763671875	0.93780517578125	4.53796386718749E-07	4.25572608264702E-07	2066577	5.47698546142783E-05
2	564	118.783108700101	0.927886962890625	0.9283447265625	4.534912109375E-07	4.20996173033927E-07	2047106.375	5.48155403521378E-05
2	565	118.883816699847	0.917816162109375	0.91827392578125	4.52575683593751E-07	4.15588431224023E-07	2028995.25	5.48611642443575E-05
2	566	118.984524699593	0.907745361328125	0.908203125	4.498291015625E-07	4.08536180884767E-07	2018996	5.49066025996581E-05
2	567	119.085232699339	0.897674560546875	0.89752197265625	4.437255859375E-07	3.98253462208231E-07	2022696	5.49515971215442E-05
2	568	119.185940699084	0.887603759765625	0.88775634765625	4.33349609375E-07	3.84708869205497E-07	2048591.5	5.49957621842623E-05
2	569	119.28664869883	0.877532958984375	0.87738037109375	4.19006347656251E-07	3.67627933428594E-07	2093954.875	5.50386830582283E-05
2	570	119.387356698576	0.867462158203125	0.867919921875	3.985595703125E-07	3.45917783306504E-07	2177641.75	5.50798504264094E-05
2	571	119.488064698322	0.857391357421875	0.8575439453125	3.7506103515625E-07	3.21631318911386E-07	2286411.75	5.51188059034757E-05
2	572	119.588772698067	0.847320556640625	0.84716796875	3.497314453125E-07	2.96281257305964E-07	2422338.75	5.51553021068685E-05
2	573	119.689480697813	0.837249755859375	0.83740234375	3.2470703125E-07	2.71910437277256E-07	2578947.25	5.51892626390327E-05
2	574	119.790188697559	0.827178955078125	0.82733154296875	3.021240234375E-07	2.49956741527058E-07	2738383.75	5.5220825743163E-05
2	575	119.890896697305	0.817108154296875	0.8172607421875	2.84729003906251E-07	2.32697829005701E-07	2870311	5.52503734070342E-05
2	576	119.99160469705	0.807037353515625	0.80718994140625	2.72216796874999E-07	2.1973066566261E-07	2965246.75	5.52784185856581E-05
2	577	120.092312696796	0.796966552734375	0.79681396484375	2.6275634765625E-07	2.09367925663173E-07	3032520.25	5.53053578187246E-05
2	578	120.193020696542	0.786895751953125	0.78704833984375	2.55737304687501E-07	2.01277615019535E-07	3077565.75	5.53314639546443E-05
2	579	120.293728696288	0.776824951171875	0.77728271484375	2.4871826171875E-07	1.93324410702189E-07	3125153.25	5.53568679606542E-05
2	580	120.394436696033	0.766754150390625	0.7672119140625	2.392578125E-07	1.83561439826008E-07	3206632.5	5.53814388695173E-05
2	581	120.495144695779	0.756683349609375	0.7574462890625	2.239990234375E-07	1.6966723137557E-07	3381471.5	5.54047655896284E-05
2	582	120.595852695525	0.746612548828125	0.746551513671875	2.02331542968751E-07	1.51050912222672E-07	3689743.75	5.5426233302569E-05
2	583	120.69656069527	0.736541748046875	0.73651123046875	1.690673828125E-07	1.24520028066399E-07	4356318	5.54449325136375E-05
2	584	120.797268695016	0.726470947265625	0.72637939453125	1.220703125E-07	8.86693527490934E-08	5950500.5	5.545959356823E-05
2	585	120.897976694762	0.716400146484375	0.71636962890625	5.85937499999994E-08	4.19747827606898E-08	12226042	5.54686921532266E-05
2	586	120.998684694508	0.706329345703125	0.706268310546875	-2.47192382812497E-08	-1.74584151579893E-08	-28571606	5.54703983652871E-05
2	587	121.099392694253	0.696258544921875	0.6961669921875	-1.239013671875E-07	-8.62560369796483E-08	-5618719.5	5.54629150428809E-05
2	588	121.200100693999	0.686187744140625	0.68609619140625	-2.34069824218749E-07	-1.60594410658632E-07	-2931160.5	5.54448888578918E-05
2	589	121.300808693745	0.676116943359375	0.67608642578125	-3.466796875E-07	-2.3438542484655E-07	-1950176.125	5.54156467842404E-05
2	590	121.401516693491	0.666046142578125	0.666015625	-4.4830322265625E-07	-2.98576935620076E-07	-1485636.5	5.53756144654471E-05
2	591	121.502224693236	0.655975341796875	0.655975341796875	-5.30090332031249E-07	-3.47726199834142E-07	-1237478.375	5.53263489564415E-05
2	592	121.602932692982	0.645904541015625	0.6458740234375	-5.8349609375E-07	-3.76864988993475E-07	-1106903.75	5.52702767890878E-05
2	593	121.703640692728	0.635833740234375	0.63580322265625	-6.0882568359375E-07	-3.8709330851816E-07	-1044310.875	5.52102355868556E-05
2	594	121.804348692474	0.625762939453125	0.625701904296875	-6.085205078125E-07	-3.80752453565947E-07	-1028234.6875	5.51489392819349E-05
2	595	121.905056692219	0.615692138671875	0.61566162109375	-5.902099609375E-07	-3.63369593969765E-07	-1043123.125	5.50885779375676E-05
2	596	122.005764691965	0.605621337890625	0.6055908203125	-5.5999755859375E-07	-3.3912937169589E-07	-1081416.875	5.50306613149587E-05
2	597	122.106472691711	0.595550537109375	0.59552001953125	-5.230712890625E-07	-3.11499405825089E-07	-1138506.5	5.49761243746616E-05
2	598	122.207180691457	0.585479736328125	0.58544921875	-4.84619140625001E-07	-2.83719884919265E-07	-1208060.5	5.49253818462603E-05
2	599	122.307888691202	0.575408935546875	0.575439453125	-4.4586181640625E-07	-2.56566465850483E-07	-1290622.875	5.48785283172037E-05
2	600	122.408596690948	0.565338134765625	0.565338134765625	-4.0924072265625E-07	-2.3135937965435E-07	-1381431.875	5.4835469200043E-05
2	601	122.509304690694	0.555267333984375	0.555267333984375	-3.753662109375E-07	-2.08428588166498E-07	-1479268.375	5.47959643881768E-05
2	602	122.610012690439	0.545196533203125	0.545166015625	-3.44238281250001E-07	-1.87666998385794E-07	-1583688	5.47597264812794E-05
2	603	122.710720690185	0.535125732421875	0.53509521484375	-3.1585693359375E-07	-1.69013532058671E-07	-1694106.25	5.47264899068978E-05
2	604	122.811428689931	0.525054931640625	0.52508544921875	-2.90527343749999E-07	-1.52551677956581E-07	-1807353	5.46959563507698E-05
2	605	122.912136689677	0.514984130859375	0.514984130859375	-2.67333984375E-07	-1.37672756750362E-07	-1926370	5.46678638784215E-05
2	606	123.012844689422	0.504913330078125	0.5048828125	-2.46276855468749E-07	-1.24340942875278E-07	-2050062.125	5.46420014870819E-05
2	607	123.113552689168	0.494842529296875	0.494781494140625	-2.2735595703125E-07	-1.12491520098956E-07	-2176241.75	5.46181545360014E-05
2	608	123.214260688914	0.484771728515625	0.484771728515625	-2.09960937500001E-07	-1.01783122374854E-07	-2308866.25	5.45961338502821E-05
2	609	123.31496868866	0.474700927734375	0.47467041015625	-1.9500732421875E-07	-9.25641998605897E-08	-2434116	5.45757393410895E-05
2	610	123.415676688405	0.464630126953125	0.464630126953125	-1.8157958984375E-07	-8.43673433337244E-08	-2558823.75	5.45567781955469E-05
2	611	123.516384688151	0.454559326171875	0.45458984375	-1.6937255859375E-07	-7.69950432299993E-08	-2683964	5.45391048945021E-05
2	612	123.617092687897	0.444488525390625	0.4444580078125	-1.5869140625E-07	-7.05316693938585E-08	-2800769.25	5.45225884707179E-05
2	613	123.717800687643	0.434417724609375	0.43438720703125	-1.4923095703125E-07	-6.48240217060447E-08	-2910838.5	5.45070834050421E-05
2	614	123.818508687388	0.424346923828125	0.42437744140625	-1.4068603515625E-07	-5.97039786498499E-08	-3016486	5.44924841960892E-05
2	615	123.919216687134	0.414276123046875	0.414276123046875	-1.33056640625E-07	-5.5122185926848E-08	-3113532.25	5.44786998943891E-05
2	616	124.01992468688	0.404205322265625	0.404144287109375	-1.25732421874999E-07	-5.08140374222421E-08	-3214320.5	5.44656686543021E-05
2	617	124.120632686626	0.394134521484375	0.394195556640625	-1.177978515625E-07	-4.64353888673941E-08	-3346373.25	5.44534050277434E-05
2	618	124.221340686371	0.384063720703125	0.384063720703125	-1.10778808593751E-07	-4.25461195163734E-08	-3466942.25	5.44418944627978E-05
2	619	124.322048686117	0.373992919921875	0.373992919921875	-1.03149414062501E-07	-3.85771485866826E-08	-3625739.75	5.443112240755E-05
2	620	124.422756685863	0.363922119140625	0.3638916015625	-9.55200195312506E-08	-3.47589299565243E-08	-3809584.75	5.44211216038093E-05
2	621	124.523464685608	0.353851318359375	0.353912353515625	-8.88061523437497E-08	-3.14295931502784E-08	-3985223.25	5.44118374818936E-05
2	622	124.624172685354	0.343780517578125	0.343780517578125	-8.17871093750006E-08	-2.81168137661325E-08	-4203358.5	5.44032482139301E-05
2	623	124.7248806851	0.333709716796875	0.333770751953125	-7.56835937500006E-08	-2.52609702044992E-08	-4410080.5	5.43953174201306E-05
2	624	124.825588684846	0.323638916015625	0.323638916015625	-7.04956054687497E-08	-2.28151204595406E-08	-4590909.5	5.43879577890038E-05
2	625	124.926296684591	0.313568115234375	0.313629150390625	-6.53076171875003E-08	-2.04823731309034E-08	-4802336.5	5.43811183888465E-05
2	626	125.027004684337	0.303497314453125	0.303497314453125	-6.07299804687503E-08	-1.84313861950614E-08	-4997487.5	5.43747737538069E-05
2	627	125.127712684083	0.293426513671875	0.29339599609375	-5.67626953124997E-08	-1.66539475543459E-08	-5168817.5	5.43688584002666E-05
2	628	125.228420683829	0.283355712890625	0.283355712890625	-5.340576171875E-08	-1.51328265474149E-08	-5305714.5	5.43633104825858E-05
2	629	125.329128683574	0.273284912109375	0.27325439453125	-5.06591796874997E-08	-1.38428433160698E-08	-5393976	5.43580681551248E-05
2	630	125.42983668332	0.263214111328125	0.263275146484375	-4.82177734375006E-08	-1.26945405298784E-08	-5460127	5.43530914001167E-05
2	631	125.530544683066	0.253143310546875	0.253173828125	-4.63867187499994E-08	-1.17439027391697E-08	-5457895	5.43483256478794E-05
2	632	125.631252682812	0.243072509765625	0.2430419921875	-4.57763671875E-08	-1.11255795687271E-08	-5309333.5	5.43436872249003E-05
2	633	125.731960682557	0.233001708984375	0.23297119140625	-4.45556640624997E-08	-1.03801855999563E-08	-5228767.5	5.43391361134127E-05
2	634	125.832668682303	0.222930908203125	0.222991943359375	-4.48608398437494E-08	-1.00036059436093E-08	-4970748	5.43346359336283E-05
2	635	125.933376682049	0.212860107421875	0.21282958984375	-4.51660156250006E-08	-9.61266444221565E-09	-4712162	5.43301030120347E-05
2	636	126.034084681795	0.202789306640625	0.2027587890625	-4.60815429687497E-08	-9.3434380232793E-09	-4400000	5.43255082448013E-05
2	637	126.13479268154	0.192718505859375	0.192779541015625	-4.82177734375006E-08	-9.2954000052714E-09	-3998101.5	5.43207606824581E-05
2	638	126.235500681286	0.182647705078125	0.182708740234375	-5.12695312500006E-08	-9.3673913070802E-09	-3563690.5	5.43157511856407E-05
2	639	126.336208681032	0.172576904296875	0.17254638671875	-5.52368164062497E-08	-9.53091294775277E-09	-3123757	5.43103851669002E-05
2	640	126.436916680777	0.162506103515625	0.162506103515625	-6.07299804687503E-08	-9.8689927341411E-09	-2675879.25	5.43045462109149E-05
2	641	126.537624680523	0.152435302734375	0.15240478515625	-6.89697265624997E-08	-1.05113162618409E-08	-2209734.5	5.42980160389561E-05
2	642	126.638332680269	0.142364501953125	0.142425537109375	-7.9345703125E-08	-1.13008544744275E-08	-1795000	5.42905472684652E-05
2	643	126.739040680015	0.132293701171875	0.132354736328125	-9.39941406250006E-08	-1.24405694634788E-08	-1408116.875	5.42818197573069E-05
2	644	126.83974867976	0.122222900390625	0.122222900390625	-1.1444091796875E-07	-1.39873002069635E-08	-1068000	5.42713241884485E-05
2	645	126.940456679506	0.112152099609375	0.1121826171875	-1.422119140625E-07	-1.59537059118975E-08	-788841.1875	5.42584020877257E-05
2	646	127.041164679252	0.102081298828125	0.10211181640625	-1.812744140625E-07	-1.85102599914444E-08	-563299.6875	5.42421112186275E-05
2	647	127.141872678998	0.092010498046875	0.092071533203125	-2.34375000000001E-07	-2.15792645974489E-08	-392838.5625	5.42211819265503E-05
2	648	127.242580678743	0.081939697265625	0.08197021484375	-3.07617187500001E-07	-2.52154457314191E-08	-266468.28125	5.41938898095395E-05
2	649	127.343288678489	0.071868896484375	0.071990966796875	-4.06494140624999E-07	-2.92639068533163E-08	-177102.109375	5.41579320270102E-05
2	650	127.443996678235	0.061798095703125	0.061859130859375	-5.3741455078125E-07	-3.32439995531786E-08	-115105.0546875	5.41104018338956E-05
2	651	127.544704677981	0.051727294921875	0.05181884765625	-7.02514648437499E-07	-3.64034988820094E-08	-73761.9453125	5.40479668416083E-05
2	652	127.645412677726	0.041656494140625	0.041766357421875	-9.02099609375E-07	-3.76774131893853E-08	-46299.05078125	5.39671673323028E-05
2	653	127.746120677472	0.031585693359375	0.0316986083984375	-1.12884521484375E-06	-3.57828184860409E-08	-28080.5625	5.38649037480354E-05
2	654	127.846828677218	0.021514892578125	0.0216094970703125	-1.36474609375E-06	-2.9491474151655E-08	-15834.0791015625	5.37393389095087E-05
2	655	127.947536676964	0.011444091796875	0.011517333984375	-1.58843994140625E-06	-1.82945925075728E-08	-7250.720703125	5.35906365257688E-05
2	656	128.048244676709	0.001373291015625	0.0015106201171875	-1.77703857421875E-06	-2.68443001161245E-09	-850.077331542969	5.3421168558998E-05
2	657	128.148952676455	-0.008697509765625	-0.00860595703125	-1.9122314453125E-06	1.64565818749907E-08	4500.478515625	5.32353988091927E-05
2	658	128.249660676201	-0.018768310546875	-0.0186279296875	-1.9891357421875E-06	3.7053478507687E-08	9364.8369140625	5.30389515915886E-05
2	659	128.350368675946	-0.028839111328125	-0.02872314453125	-2.0123291015625E-06	5.78004204498939E-08	14273.58203125	5.28374621353578E-05
2	660	128.451076675692	-0.038909912109375	-0.0387786865234375	-1.99432373046875E-06	7.73372477169687E-08	19444.529296875	5.26357107446529E-05
2	661	128.551784675438	-0.048980712890625	-0.0488311767578125	-1.9500732421875E-06	9.52243723872925E-08	25040.6875	5.24370952916797E-05
2	662	128.652492675184	-0.059051513671875	-0.058990478515625	-1.89178466796875E-06	1.11597273644293E-07	31182.451171875	5.22436421306338E-05
2	663	128.753200674929	-0.069122314453125	-0.069000244140625	-1.82830810546875E-06	1.26153707924459E-07	37739.9453125	5.20563189638779E-05
2	664	128.853908674675	-0.079193115234375	-0.079132080078125	-1.76727294921875E-06	1.39847983859909E-07	44776.37890625	5.18752676725853E-05
2	665	128.954616674421	-0.089263916015625	-0.08917236328125	-1.7108154296875E-06	1.52557447563595E-07	52122.7265625	5.17001317348331E-05
2	666	129.055324674167	-0.099334716796875	-0.0992431640625	-1.66107177734375E-06	1.64850021633356E-07	59746.4609375	5.15303436259273E-05
2	667	129.156032673912	-0.109405517578125	-0.109283447265625	-1.61834716796875E-06	1.7685854913907E-07	67527.8125	5.13652121298946E-05
2	668	129.256740673658	-0.119476318359375	-0.119384765625	-1.583251953125E-06	1.890161627216E-07	75404.78125	5.12039987370372E-05
2	669	129.357448673404	-0.129547119140625	-0.129425048828125	-1.55426025390625E-06	2.01160204937878E-07	83271.1640625	5.10460122313816E-05
2	670	129.45815667315	-0.139617919921875	-0.139495849609375	-1.531982421875E-06	2.1370519220909E-07	91055.7734375	5.08906086906791E-05
2	671	129.558864672895	-0.149688720703125	-0.14959716796875	-1.51458740234375E-06	2.26577981266018E-07	98770.90625	5.07372024003416E-05
2	672	129.659572672641	-0.159759521484375	-0.15966796875	-1.5032958984375E-06	2.40028185771735E-07	106211.9375	5.05852403875906E-05
2	673	129.760280672387	-0.169830322265625	-0.169677734375	-1.49688720703125E-06	2.53988417853179E-07	113353.71875	5.04341660416685E-05
2	674	129.860988672133	-0.179901123046875	-0.1798095703125	-1.4947509765625E-06	2.68770520506223E-07	120294	5.02835282532033E-05
2	675	129.961696671878	-0.189971923828125	-0.189849853515625	-1.49749755859375E-06	2.84299687791645E-07	126778.078125	5.01328540849499E-05
2	676	130.062404671624	-0.200042724609375	-0.19989013671875	-1.50360107421875E-06	3.00555029753014E-07	132940.9375	4.99817360832822E-05
2	677	130.16311267137	-0.189971923828125	-0.18988037109375	-1.314697265625E-06	2.49635206728271E-07	144428.96875	4.98398258059751E-05
