Potential - OCP -0.0281878901462929 V
Time (s)	WE(1).Potential (V)
6.55030198346208	-0.0290924072265625
6.6503019832096	-0.0290924072265625
6.75030198295713	-0.02908935546875
6.85030198270465	-0.02908935546875
6.95030198245217	-0.0290863037109375
7.0503019821997	-0.0290863037109375
7.15030198194722	-0.029083251953125
7.25030198169475	-0.0290802001953125
7.35030198144227	-0.0290802001953125
7.4503019811898	-0.0290771484375
7.55030198093732	-0.0290771484375
7.65030198068484	-0.0290740966796875
7.75030198043237	-0.029071044921875
7.85030198017989	-0.0290679931640625
7.95030197992742	-0.0290679931640625
8.05030197967494	-0.02906494140625
8.15030197942247	-0.0290618896484375
8.25030197916999	-0.029058837890625
8.35030197891751	-0.0290557861328125
8.45030197866504	-0.029052734375
8.55030197841256	-0.0290496826171875
8.65030197816009	-0.0290496826171875
8.75030197790761	-0.029046630859375
8.85030197765514	-0.0290435791015625
8.95030197740266	-0.02904052734375
9.05030197715018	-0.0290374755859375
9.15030197689771	-0.029034423828125
9.25030197664523	-0.0290313720703125
9.35030197639276	-0.0290283203125
9.45030197614028	-0.0290252685546875
9.55030197588781	-0.0290191650390625
9.65030197563533	-0.02901611328125
9.75030197538285	-0.0290130615234375
9.85030197513038	-0.0290130615234375
9.9503019748779	-0.0290069580078125
10.0503019746254	-0.02900390625
10.150301974373	-0.0290008544921875
10.2503019741205	-0.028997802734375
10.350301973868	-0.0289947509765625
10.4503019736155	-0.02899169921875
10.550301973363	-0.0289886474609375
10.6503019731106	-0.028985595703125
10.7503019728581	-0.0289794921875
10.8503019726056	-0.0289764404296875
10.9503019723531	-0.028973388671875
11.0503019721007	-0.0289703369140625
11.1503019718482	-0.02896728515625
11.2503019715957	-0.0289642333984375
11.3503019713432	-0.0289581298828125
11.4503019710908	-0.028955078125
11.5503019708383	-0.0289520263671875
11.6503019705858	-0.028948974609375
11.7503019703333	-0.02894287109375
11.8503019700809	-0.02894287109375
11.9503019698284	-0.028936767578125
12.0503019695759	-0.0289337158203125
12.1503019693234	-0.0289306640625
12.250301969071	-0.0289276123046875
12.3503019688185	-0.0289215087890625
12.450301968566	-0.02891845703125
12.5503019683135	-0.0289154052734375
12.6503019680611	-0.028912353515625
12.7503019678086	-0.02890625
12.8503019675561	-0.0289031982421875
12.9503019673036	-0.028900146484375
13.0503019670512	-0.0288970947265625
13.1503019667987	-0.02889404296875
13.2503019665462	-0.0288909912109375
13.3503019662937	-0.028887939453125
13.4503019660413	-0.0288818359375
13.5503019657888	-0.0288787841796875
13.6503019655363	-0.028875732421875
13.7503019652838	-0.0288726806640625
13.8503019650313	-0.02886962890625
13.9503019647789	-0.0288665771484375
14.0503019645264	-0.028863525390625
14.1503019642739	-0.0288604736328125
14.2503019640214	-0.028857421875
14.350301963769	-0.0288543701171875
14.4503019635165	-0.0288482666015625
14.550301963264	-0.02884521484375
14.6503019630115	-0.0288421630859375
14.7503019627591	-0.0288360595703125
14.8503019625066	-0.0288360595703125
14.9503019622541	-0.0288360595703125
15.0503019620016	-0.0288330078125
15.1503019617492	-0.0288299560546875
15.2503019614967	-0.028826904296875
15.3503019612442	-0.0288238525390625
15.4503019609917	-0.02882080078125
15.5503019607393	-0.0288177490234375
15.6503019604868	-0.0288177490234375
15.7503019602343	-0.028814697265625
15.8503019599818	-0.0288116455078125
15.9503019597294	-0.02880859375
16.0503019594769	-0.0288055419921875
16.1503019592244	-0.028802490234375
16.2503019589719	-0.028802490234375
16.3503019587195	-0.0287994384765625
16.450301958467	-0.02879638671875
16.5503019582145	-0.0287933349609375
16.650301957962	-0.0287933349609375
16.7503019577096	-0.0287872314453125
16.8503019574571	-0.0287872314453125
16.9503019572046	-0.0287841796875
17.0503019569521	-0.0287811279296875
17.1503019566996	-0.0287811279296875
17.2503019564472	-0.028778076171875
17.3503019561947	-0.0287750244140625
17.4503019559422	-0.0287750244140625
17.5503019556897	-0.02877197265625
17.6503019554373	-0.0287689208984375
17.7503019551848	-0.0287689208984375
17.8503019549323	-0.028765869140625
17.9503019546798	-0.0287628173828125
18.0503019544274	-0.028759765625
18.1503019541749	-0.028759765625
18.2503019539224	-0.0287567138671875
18.3503019536699	-0.028753662109375
18.4503019534175	-0.0287506103515625
18.550301953165	-0.0287506103515625
18.6503019529125	-0.02874755859375
18.75030195266	-0.02874755859375
18.8503019524076	-0.0287445068359375
18.9503019521551	-0.028741455078125
19.0503019519026	-0.028741455078125
19.1503019516501	-0.0287353515625
19.2503019513977	-0.0287353515625
19.3503019511452	-0.0287353515625
19.4503019508927	-0.0287322998046875
19.5503019506402	-0.028729248046875
19.6503019503878	-0.0287261962890625
19.7503019501353	-0.02872314453125
19.8503019498828	-0.02872314453125
19.9503019496303	-0.0287200927734375
20.0503019493779	-0.028717041015625
20.1503019491254	-0.0287139892578125
20.2503019488729	-0.0287109375
20.3503019486204	-0.0287078857421875
20.450301948368	-0.028704833984375
20.5503019481155	-0.0287017822265625
20.650301947863	-0.02869873046875
20.7503019476105	-0.0286956787109375
20.850301947358	-0.028692626953125
20.9503019471056	-0.0286895751953125
21.0503019468531	-0.0286895751953125
21.1503019466006	-0.0286834716796875
21.2503019463481	-0.028680419921875
21.3503019460957	-0.0286712646484375
21.4503019458432	-0.0286712646484375
21.5503019455907	-0.028668212890625
21.6503019453382	-0.0286651611328125
21.7503019450858	-0.0286590576171875
21.8503019448333	-0.028656005859375
21.9503019445808	-0.02864990234375
22.0503019443283	-0.0286468505859375
22.1503019440759	-0.028643798828125
22.2503019438234	-0.0286407470703125
22.3503019435709	-0.0286346435546875
22.4503019433184	-0.02862548828125
22.550301943066	-0.0286224365234375
22.6503019428135	-0.028619384765625
22.750301942561	-0.02861328125
22.8503019423085	-0.028607177734375
22.9503019420561	-0.02860107421875
23.0503019418036	-0.028594970703125
23.1503019415511	-0.0285888671875
23.2503019412986	-0.028582763671875
23.3503019410462	-0.0285736083984375
23.4503019407937	-0.0285675048828125
23.5503019405412	-0.0285614013671875
23.6503019402887	-0.0285552978515625
23.7503019400363	-0.02855224609375
23.8503019397838	-0.028546142578125
23.9503019395313	-0.0285400390625
24.0503019392788	-0.028533935546875
24.1503019390263	-0.02852783203125
24.2503019387739	-0.0285247802734375
24.3503019385214	-0.0285186767578125
24.4503019382689	-0.0285125732421875
24.5503019380164	-0.028509521484375
24.650301937764	-0.02850341796875
24.7503019375115	-0.028497314453125
24.850301937259	-0.0284942626953125
24.9503019370065	-0.0284881591796875
25.0503019367541	-0.0284820556640625
25.1503019365016	-0.0284759521484375
25.2503019362491	-0.028472900390625
25.3503019359966	-0.028466796875
25.4503019357442	-0.028460693359375
25.5503019354917	-0.02845458984375
25.6503019352392	-0.0284423828125
25.7503019349867	-0.02843017578125
25.8503019347343	-0.028411865234375
25.9503019344818	-0.0283660888671875
26.0503019342293	-0.0283477783203125
26.1503019339768	-0.0283233642578125
26.2503019337244	-0.0283172607421875
26.3503019334719	-0.028302001953125
26.4503019332194	-0.0282958984375
26.5503019329669	-0.028289794921875
26.6503019327145	-0.02828369140625
26.750301932462	-0.028277587890625
26.8503019322095	-0.028271484375
26.950301931957	-0.0282684326171875
27.0503019317046	-0.0282623291015625
27.1503019314521	-0.02825927734375
27.2503019311996	-0.0282562255859375
27.3503019309471	-0.028253173828125
27.4503019306946	-0.0282501220703125
27.5503019304422	-0.0282470703125
27.6503019301897	-0.0282470703125
27.7503019299372	-0.0282440185546875
27.8503019296847	-0.0282440185546875
27.9503019294323	-0.028240966796875
28.0503019291798	-0.028240966796875
28.1503019289273	-0.0282379150390625
28.2503019286748	-0.02823486328125
28.3503019284224	-0.02823486328125
28.4503019281699	-0.028228759765625
28.5503019279174	-0.0282257080078125
28.6503019276649	-0.02822265625
28.7503019274125	-0.0282196044921875
28.85030192716	-0.028216552734375
28.9503019269075	-0.0282135009765625
29.050301926655	-0.02821044921875
29.1503019264026	-0.0282073974609375
29.2503019261501	-0.028204345703125
29.3503019258976	-0.0282012939453125
29.4503019256451	-0.0281982421875
29.5503019253927	-0.0281982421875
29.6503019251402	-0.0281951904296875
29.7503019248877	-0.028192138671875
29.8503019246352	-0.02818603515625
29.9503019243828	-0.02818603515625
30.0503019241303	-0.0281829833984375
30.1503019238778	-0.0281829833984375
30.2503019236253	-0.028179931640625
30.3503019233729	-0.0281768798828125
30.4503019231204	-0.028173828125
30.5503019228679	-0.028173828125
30.6503019226154	-0.028173828125
30.750301922363	-0.0281707763671875
30.8503019221105	-0.0281707763671875
30.950301921858	-0.028167724609375
31.0503019216055	-0.028167724609375
31.150301921353	-0.028167724609375
31.2503019211006	-0.0281646728515625
31.3503019208481	-0.0281646728515625
31.4503019205956	-0.0281646728515625
31.5503019203431	-0.02816162109375
31.6503019200907	-0.0281646728515625
31.7503019198382	-0.0281646728515625
31.8503019195857	-0.02816162109375
31.9503019193332	-0.0281646728515625
32.0503019190808	-0.0281646728515625
32.1503019188283	-0.0281646728515625
32.2503019185758	-0.0281646728515625
32.3503019183233	-0.0281646728515625
32.4503019180709	-0.0281646728515625
32.5503019178184	-0.0281646728515625
32.6503019175659	-0.0281646728515625
32.7503019173134	-0.0281646728515625
32.850301917061	-0.0281646728515625
32.9503019168085	-0.0281646728515625
