Potential - Start -0.2 V, Upper Vertex 1.5 V, Lower Vertex -0.2 V, Stop -0.19 V; Scan - # end cross 5, Rate 0.1 Vps, Step 0.01 V 
Scan	Index	Time (s)	Potential applied (V)	WE(1).Potential (V)	WE(1).Current (A)	WE(1).Power (W)	WE(1).Resistance (Ω)	WE(1).Charge (C)
1	1	63.5061768396623	-0.189971923828125	-0.18975830078125	-2.05383300781251E-07	3.89731873440269E-08	923922.75	0
1	2	63.6068848394081	-0.179901123046875	-0.179718017578125	-1.85546875000001E-07	3.33461152024483E-08	968585.5625	-1.96848972677799E-08
1	3	63.7075928391538	-0.169830322265625	-0.169647216796875	-1.70288085937501E-07	2.88888983845936E-08	996236.625	-3.76026108028782E-08
1	4	63.8083008388995	-0.159759521484375	-0.159637451171875	-1.57470703125E-07	2.5138220394183E-08	1013759.75	-5.4106575220203E-08
1	5	63.9090088386453	-0.149688720703125	-0.1495361328125	-1.46484375E-07	2.19047056049249E-08	1020833.375	-6.94119250965741E-08
1	6	64.009716838391	-0.139617919921875	-0.139495849609375	-1.36413574218749E-07	1.90291284951627E-08	1022595.0625	-8.36569711282209E-08
1	7	64.1104248381367	-0.129547119140625	-0.12939453125	-1.26953125E-07	1.64270392843946E-08	1019230.75	-9.69185407484474E-08
1	8	64.2111328378825	-0.119476318359375	-0.119384765625	-1.171875E-07	1.39904017260051E-08	1018750	-1.09211995891201E-07
1	9	64.3118408376282	-0.109405517578125	-0.1092529296875	-1.08642578125E-07	1.18695195894247E-08	1005618	-1.20583436569177E-07
1	10	64.4125488373739	-0.099334716796875	-0.099212646484375	-9.79614257812497E-08	9.71901226165528E-09	1012772.5625	-1.30986776980535E-07
1	11	64.5132568371197	-0.089263916015625	-0.08917236328125	-8.66699218750003E-08	7.72856179054315E-09	1028873.25	-1.40283702876332E-07
1	12	64.6139648368654	-0.079193115234375	-0.07904052734375	-7.29370117187503E-08	5.76498004889459E-09	1083682	-1.48320552284531E-07
1	13	64.7146728366112	-0.069122314453125	-0.06903076171875	-5.645751953125E-08	3.89730558936208E-09	1222702.75	-1.54836087062904E-07
1	14	64.8153808363569	-0.059051513671875	-0.05889892578125	-3.41796874999994E-08	2.01314676040454E-09	1723214.375	-1.59400030952384E-07
1	15	64.9160888361026	-0.048980712890625	-0.0488006591796875	-4.57763671875E-09	2.23391680154172E-10	10660667	-1.61351621841277E-07
1	16	65.0167968358484	-0.038909912109375	-0.038726806640625	3.662109375E-08	-1.4182179874922E-09	-1057500	-1.59738107186058E-07
1	17	65.1175048355941	-0.028839111328125	-0.028668212890625	9.21630859374994E-08	-2.64215094247788E-09	-311059.625	-1.53253310486434E-07
1	18	65.2182128353398	-0.018768310546875	-0.018603515625	1.690673828125E-07	-3.14524739586375E-09	-110036.1015625	-1.40099302825547E-07
1	19	65.3189208350856	-0.008697509765625	-0.0085479736328125	2.728271484375E-07	-2.33211938649447E-09	-31331.095703125	-1.1784814546445E-07
1	20	65.4196288348313	0.001373291015625	0.0015289306640625	4.08020019531249E-07	6.23834317536875E-10	3747.19506835938	-8.35647711028287E-08
1	21	65.5203368345771	0.011444091796875	0.0115875244140625	5.80444335937499E-07	6.72591271566603E-09	19963.19921875	-3.37916397086246E-08
1	22	65.6210448343228	0.021514892578125	0.0216552734375	7.8887939453125E-07	1.70833978074825E-08	27450.67578125	3.51592852609883E-08
1	23	65.7217528340685	0.031585693359375	0.03172607421875	1.02569580078125E-06	3.25412976565076E-08	30931.271484375	1.26530395050395E-07
1	24	65.8224608338143	0.041656494140625	0.04180908203125	1.2786865234375E-06	5.34607060842518E-08	32696.8984375	2.4256524966404E-07
1	25	65.92316883356	0.051727294921875	0.05181884765625	1.52923583984375E-06	7.9243235973081E-08	33885.453125	3.83955381266787E-07
1	26	66.0238768333057	0.061798095703125	0.0618896484375	1.7572021484375E-06	1.08752615801677E-07	35220.5625	5.49440642316767E-07
1	27	66.1245848330515	0.071868896484375	0.07196044921875	1.94122314453125E-06	1.39691280764964E-07	37069.64453125	7.35671164875384E-07
1	28	66.2252928327972	0.081939697265625	0.08203125	2.06787109375E-06	1.6963004156878E-07	39669.421875	9.37545109991333E-07
1	29	66.3260008325429	0.092010498046875	0.092071533203125	2.12799072265625E-06	1.95927370327809E-07	43266.88671875	1.14882345769729E-06
1	30	66.4267088322887	0.102081298828125	0.102142333984375	2.1295166015625E-06	2.17513800748748E-07	47965.03515625	1.36320602450724E-06
1	31	66.5274168320344	0.112152099609375	0.112213134765625	2.0849609375E-06	2.33959994488941E-07	53820.2578125	1.57542183387704E-06
1	32	66.6281248317802	0.122222900390625	0.122314453125	2.01202392578125E-06	2.46099602918548E-07	60791.74609375	1.78172138021182E-06
1	33	66.7288328315259	0.132293701171875	0.132354736328125	1.925048828125E-06	2.54789313203219E-07	68753.96875	1.97996882889129E-06
1	34	66.8295408312716	0.142364501953125	0.142486572265625	1.83380126953125E-06	2.61292058212348E-07	77700.1171875	2.16924195228785E-06
1	35	66.9302488310174	0.152435302734375	0.1524658203125	1.74652099609375E-06	2.6628475779944E-07	87296.875	2.34952540267841E-06
1	36	67.0309568307631	0.162506103515625	0.16253662109375	1.66473388671875E-06	2.70580216010785E-07	97635.1953125	2.5212957552867E-06
1	37	67.1316648305088	0.172576904296875	0.172607421875	1.590576171875E-06	2.74545243428292E-07	108518.8046875	2.68521375801356E-06
1	38	67.2323728302546	0.182647705078125	0.1827392578125	1.5234375E-06	2.78391837582603E-07	119951.921875	2.84201678368845E-06
1	39	67.3330808300003	0.192718505859375	0.192779541015625	1.46331787109375E-06	2.82097744275234E-07	131741.40625	2.99241173706832E-06
1	40	67.433788829746	0.202789306640625	0.20281982421875	1.40960693359375E-06	2.85896220475479E-07	143883.96875	3.13707505483762E-06
1	41	67.5344968294918	0.212860107421875	0.212890625	1.36077880859375E-06	2.89697055677607E-07	156447.640625	3.27657494381128E-06
1	42	67.6352048292375	0.222930908203125	0.22296142578125	1.31744384765625E-06	2.9373913434938E-07	169237.90625	3.41143413606915E-06
1	43	67.7359128289833	0.233001708984375	0.233062744140625	1.2786865234375E-06	2.98014185773354E-07	182267.3125	3.54215967490745E-06
1	44	67.836620828729	0.243072509765625	0.243133544921875	1.2432861328125E-06	3.02284547615272E-07	195557.203125	3.66915128324763E-06
1	45	67.9373288284747	0.253143310546875	0.253173828125	1.2109375E-06	3.06577675246444E-07	209072.578125	3.79273114958778E-06
1	46	68.0380368282205	0.263214111328125	0.2633056640625	1.18133544921875E-06	3.11052303914039E-07	222888.15625	3.91319144910085E-06
1	47	68.1387448279662	0.273284912109375	0.27325439453125	1.15447998046875E-06	3.1546670697935E-07	236690.46875	4.03080912292353E-06
1	48	68.2394528277119	0.283355712890625	0.283416748046875	1.13006591796875E-06	3.20279610832586E-07	250796.65625	4.14584519603522E-06
1	49	68.3401608274577	0.293426513671875	0.293426513671875	1.1065673828125E-06	3.24696173947814E-07	265168.25	4.25846883445047E-06
1	50	68.4408688272034	0.303497314453125	0.303466796875	1.08612060546875E-06	3.29601533621826E-07	279404.3125	4.36887921750895E-06
1	51	68.5415768269492	0.313568115234375	0.313629150390625	1.0675048828125E-06	3.34800631662802E-07	293796.46875	4.47732281827484E-06
1	52	68.6422848266949	0.323638916015625	0.32366943359375	1.0491943359375E-06	3.39592133968836E-07	308493.3125	4.58390741187031E-06
1	53	68.7429928264406	0.333709716796875	0.333770751953125	1.03302001953125E-06	3.44791857287419E-07	323101.9375	4.68875532533275E-06
1	54	68.8437008261864	0.343780517578125	0.34381103515625	1.01776123046875E-06	3.49917513631226E-07	337811.125	4.79202026326675E-06
1	55	68.9444088259321	0.353851318359375	0.3538818359375	1.0040283203125E-06	3.55307378185898E-07	352462.03125	4.8938254622044E-06
1	56	69.0451168256778	0.363922119140625	0.363983154296875	9.918212890625E-07	3.61006215143789E-07	366984.625	4.99432417200296E-06
1	57	69.1458248254236	0.373992919921875	0.3740234375	9.7991943359375E-07	3.66512807659092E-07	381687.96875	5.093609161122E-06
1	58	69.2465328251693	0.384063720703125	0.3841552734375	9.686279296875E-07	3.72103500012599E-07	396597.375	5.19172635904397E-06
1	59	69.347240824915	0.394134521484375	0.39422607421875	9.59167480468751E-07	3.78128817146717E-07	411008.59375	5.2887985475536E-06
1	60	69.4479488246608	0.404205322265625	0.40423583984375	9.503173828125E-07	3.8415234371314E-07	425369.3125	5.38494896318298E-06
1	61	69.5486568244065	0.414276123046875	0.414276123046875	9.4329833984375E-07	3.90785970694196E-07	439178.28125	5.4802999329695E-06
1	62	69.6493648241523	0.424346923828125	0.424407958984375	9.3658447265625E-07	3.97493892023704E-07	453144.34375	5.57495968678268E-06
1	63	69.750072823898	0.434417724609375	0.43450927734375	9.307861328125E-07	4.04435184009344E-07	466819.6875	5.66898916076752E-06
1	64	69.8507808236437	0.444488525390625	0.44451904296875	9.25598144531251E-07	4.11445995496251E-07	480250.59375	5.76246566197369E-06
1	65	69.9514888233895	0.454559326171875	0.454620361328125	9.2132568359375E-07	4.1885340351655E-07	493441.5625	5.85546558795613E-06
1	66	70.0521968231352	0.464630126953125	0.464599609375	9.17663574218749E-07	4.26346133508559E-07	506285.34375	5.94806624576449E-06
1	67	70.1529048228809	0.474700927734375	0.474761962890625	9.14306640625E-07	4.34078003763716E-07	519259.03125	6.04031311013387E-06
1	68	70.2536128226267	0.484771728515625	0.484893798828125	9.11865234375001E-07	4.4215778416401E-07	531760.375	6.13226802670397E-06
1	69	70.3543208223724	0.494842529296875	0.494842529296875	9.0972900390625E-07	4.50172564114837E-07	543945	6.22399284111452E-06
1	70	70.4550288221182	0.504913330078125	0.504974365234375	9.08813476562501E-07	4.58927473800941E-07	555641.375	6.31556349617313E-06
1	71	70.5557368218639	0.514984130859375	0.515045166015625	9.08203125E-07	4.67765630673966E-07	567103.5	6.40705775367678E-06
1	72	70.6564448216096	0.525054931640625	0.525054931640625	9.09423828125E-07	4.77497451356612E-07	577349	6.49858247925295E-06
1	73	70.7571528213554	0.535125732421875	0.53515625	9.112548828125E-07	4.87663726289611E-07	587273.9375	6.59026090943371E-06
1	74	70.8578608211011	0.545196533203125	0.54522705078125	9.14306640625E-07	4.98504675761069E-07	596328.4375	6.6821853579313E-06
1	75	70.9585688208468	0.555267333984375	0.555267333984375	9.1888427734375E-07	5.10226414007775E-07	604284.3125	6.77449361319304E-06
1	76	71.0592768205926	0.565338134765625	0.565338134765625	9.25598144531251E-07	5.23275900832232E-07	610781.4375	6.86737075739074E-06
1	77	71.1599848203383	0.575408935546875	0.575408935546875	9.3536376953125E-07	5.38216681889025E-07	615171.3125	6.96107781550381E-06
1	78	71.260692820084	0.585479736328125	0.585479736328125	9.48181152343749E-07	5.5514084351671E-07	617476.6875	7.0559217419941E-06
1	79	71.3614008198298	0.595550537109375	0.59564208984375	9.6588134765625E-07	5.75319575091271E-07	616682.5	7.15230225978303E-06
1	80	71.4621088195755	0.605621337890625	0.60565185546875	9.9029541015625E-07	5.99774239162798E-07	611587.125	7.25080371921649E-06
1	81	71.5628168193213	0.615692138671875	0.615692138671875	1.02325439453125E-06	6.30009708402213E-07	601699.9375	7.35219418857014E-06
1	82	71.663524819067	0.625762939453125	0.625762939453125	1.0693359375E-06	6.69150779231131E-07	585188.375	7.45756415199139E-06
1	83	71.7642328188127	0.635833740234375	0.6358642578125	1.13372802734375E-06	7.2089710556611E-07	560861.375	7.56849749450339E-06
1	84	71.8649408185585	0.645904541015625	0.645904541015625	1.22039794921875E-06	7.88260592798906E-07	529257.3125	7.68703739595367E-06
1	85	71.9656488183042	0.655975341796875	0.655914306640625	1.33636474609375E-06	8.76540696026495E-07	490819.84375	7.81578000896843E-06
1	86	72.0663568180499	0.666046142578125	0.66607666015625	1.48529052734375E-06	9.89317300081893E-07	448448.75	7.9578621807741E-06
1	87	72.1670648177957	0.676116943359375	0.676116943359375	1.6668701171875E-06	1.12699910914671E-06	405620.65625	8.11658537713811E-06
1	88	72.2677728175414	0.686187744140625	0.6861572265625	1.8780517578125E-06	1.28863882764563E-06	365355.875	8.29508644528687E-06
1	89	72.3684808172871	0.696258544921875	0.69622802734375	2.109375E-06	1.46860588756681E-06	330063.65625	8.49586922413437E-06
1	90	72.4691888170329	0.706329345703125	0.706268310546875	2.35015869140625E-06	1.6598426100245E-06	300519.40625	8.72042528499151E-06
1	91	72.5698968167786	0.716400146484375	0.716339111328125	2.57904052734375E-06	1.84746761533461E-06	277754.125	8.96863002708415E-06
1	92	72.6706048165244	0.726470947265625	0.7264404296875	2.779541015625E-06	2.01917077902181E-06	261352.671875	9.23845618672203E-06
1	93	72.7713128162701	0.736541748046875	0.73638916015625	2.9351806640625E-06	2.16143530451518E-06	250883.765625	9.52621485339478E-06
1	94	72.8720208160158	0.746612548828125	0.746551513671875	3.03619384765625E-06	2.2666749828204E-06	245884.015625	9.82689743977971E-06
1	95	72.9727288157616	0.756683349609375	0.75714111328125	3.0810546875E-06	2.33279297390254E-06	245740.90625	1.01349251053762E-05
1	96	73.0734368155073	0.766754150390625	0.76690673828125	3.07830810546875E-06	2.36077517001831E-06	249132.546875	1.04450737126172E-05
1	97	73.174144815253	0.776824951171875	0.77667236328125	3.04534912109375E-06	2.36523851526727E-06	255035.578125	1.07534242488327E-05
1	98	73.2748528149988	0.786895751953125	0.787353515625	2.998046875E-06	2.3605225578649E-06	262622.15625	1.10577339000884E-05
1	99	73.3755608147445	0.796966552734375	0.79681396484375	2.94952392578125E-06	2.35022184824629E-06	270150.03125	1.13572177724564E-05
1	100	73.4762688144903	0.807037353515625	0.806884765625	2.91168212890625E-06	2.34939193433092E-06	277119.8125	1.16523533506552E-05
1	101	73.576976814236	0.817108154296875	0.8172607421875	2.89215087890625E-06	2.36364144257095E-06	282578.875	1.19445994641865E-05
1	102	73.6776848139817	0.827178955078125	0.82763671875	2.899169921875E-06	2.39945939028985E-06	285473.6875	1.22362152978894E-05
1	103	73.7783928137275	0.837249755859375	0.83740234375	2.9351806640625E-06	2.45792716668802E-06	285298.40625	1.25299984574667E-05
1	104	73.8791008134732	0.847320556640625	0.84747314453125	3.00537109375E-06	2.5469712454651E-06	281986.1875	1.28291285363957E-05
1	105	73.9798088132189	0.857391357421875	0.8575439453125	3.10546875E-06	2.66307597485138E-06	276139.9375	1.31368342408678E-05
1	106	74.0805168129647	0.867462158203125	0.86700439453125	3.228759765625E-06	2.79934874924948E-06	268525.53125	1.34557876663166E-05
1	107	74.1812248127104	0.877532958984375	0.87799072265625	3.36273193359375E-06	2.95244740300404E-06	261094.484375	1.37876959342975E-05
1	108	74.2819328124561	0.887603759765625	0.88775634765625	3.4930419921875E-06	3.10097016154032E-06	254149.921875	1.41329110192601E-05
1	109	74.3826408122019	0.897674560546875	0.8978271484375	3.60107421875E-06	3.23314225170179E-06	249322.03125	1.44901287058019E-05
1	110	74.4833488119476	0.907745361328125	0.90789794921875	3.67584228515625E-06	3.33728962687019E-06	246990.453125	1.48565504787257E-05
1	111	74.5840568116934	0.917816162109375	0.91796875	3.70941162109375E-06	3.40512383445457E-06	247470.1875	1.52284274008707E-05
1	112	74.6847648114391	0.927886962890625	0.92803955078125	3.7066650390625E-06	3.43993178830715E-06	250370.5	1.5601855920977E-05
1	113	74.7854728111848	0.937957763671875	0.93841552734375	3.6767578125E-06	3.45032640325371E-06	255229.09375	1.59736409841571E-05
1	114	74.8861808109306	0.948028564453125	0.9478759765625	3.63037109375E-06	3.44114164363418E-06	261096.171875	1.6341584341717E-05
1	115	74.9868888106763	0.958099365234375	0.95794677734375	3.58062744140625E-06	3.43005058311974E-06	267536	1.6704687368474E-05
1	116	75.087596810422	0.968170166015625	0.968017578125	3.53759765625E-06	3.42445673595648E-06	273637	1.70631174114533E-05
1	117	75.1883048101678	0.978240966796875	0.9783935546875	3.50799560546875E-06	3.43220017384738E-06	278903.875	1.74178912857315E-05
1	118	75.2890128099135	0.988311767578125	0.98846435546875	3.4979248046875E-06	3.45757393915846E-06	282585.9375	1.77706679096445E-05
1	119	75.3897208096593	0.998382568359375	0.99884033203125	3.5107421875E-06	3.50667073689692E-06	284509.75	1.81235827767523E-05
1	120	75.490428809405	1.00845336914063	1.00830078125	3.546142578125E-06	3.57557837560307E-06	284337.34375	1.84789241757244E-05
1	121	75.5911368091507	1.01852416992188	1.01806640625	3.60443115234375E-06	3.66955009667436E-06	282448.59375	1.88389840332093E-05
1	122	75.6918448088965	1.02859497070313	1.0284423828125	3.6798095703125E-06	3.78447202820098E-06	279482.5	1.92057759704767E-05
1	123	75.7925528086422	1.03866577148438	1.0394287109375	3.76495361328125E-06	3.91340063288226E-06	276080.09375	1.9580649677664E-05
1	124	75.8932608083879	1.04873657226563	1.04888916015625	3.84765625E-06	4.03576450480614E-06	272604.71875	1.99639744096203E-05
1	125	75.9939688081337	1.05880737304688	1.0589599609375	3.91632080078125E-06	4.14722671848722E-06	270396.65625	2.03549225261668E-05
1	126	76.0946768078794	1.06887817382813	1.0687255859375	3.96026611328125E-06	4.23243773184367E-06	269862.0625	2.07515386136947E-05
1	127	76.1953848076251	1.07894897460938	1.0791015625	3.97308349609375E-06	4.28736075264169E-06	271603.03125	2.11510159715544E-05
1	128	76.2960928073709	1.08901977539063	1.0888671875	3.95751953125E-06	4.30921272709384E-06	275138.8125	2.15503532672301E-05
1	129	76.3968008071166	1.09909057617188	1.09893798828125	3.9178466796875E-06	4.30547061114339E-06	280495.40625	2.19469093281077E-05
1	130	76.4975088068624	1.10916137695313	1.10931396484375	3.863525390625E-06	4.28586236012052E-06	287124.8125	2.23387323785573E-05
1	131	76.5982168066081	1.11923217773438	1.1187744140625	3.80035400390625E-06	4.25173857365735E-06	294386.90625	2.27246382564772E-05
1	132	76.6989248063538	1.12930297851563	1.129150390625	3.73504638671875E-06	4.21742879552767E-06	302312.28125	2.31040758080781E-05
1	133	76.7996328060996	1.13937377929688	1.1395263671875	3.67156982421875E-06	4.18385025113821E-06	310364.90625	2.34770286624553E-05
1	134	76.9003408058453	1.14944458007813	1.148681640625	3.61236572265625E-06	4.14945816373802E-06	317986	2.3843804228818E-05
1	135	77.001048805591	1.15951538085938	1.15936279296875	3.5577392578125E-06	4.12471035815543E-06	325870.65625	2.42048481595702E-05
1	136	77.1017568053368	1.16958618164063	1.16943359375	3.50860595703125E-06	4.10308166465256E-06	333304.34375	2.45606661337661E-05
1	137	77.2024648050825	1.17965698242188	1.17950439453125	3.4661865234375E-06	4.08838195653516E-06	340288.78125	2.49118747888133E-05
1	138	77.3031728048283	1.18972778320313	1.18927001953125	3.42987060546875E-06	4.07904235544265E-06	346739.03125	2.52591198659502E-05
1	139	77.403880804574	1.19979858398438	1.199951171875	3.399658203125E-06	4.07942388847005E-06	352962.28125	2.56030143646058E-05
1	140	77.5045888043197	1.20986938476563	1.20941162109375	3.37493896484375E-06	4.08169034926686E-06	358350.6875	2.59441421803785E-05
1	141	77.6052968040655	1.21994018554688	1.21978759765625	3.35845947265625E-06	4.09660742661799E-06	363198.53125	2.62831945292419E-05
1	142	77.7060048038112	1.23001098632813	1.23016357421875	3.34930419921875E-06	4.12019198847702E-06	367289.3125	2.66209572146181E-05
1	143	77.8067128035569	1.24008178710938	1.23992919921875	3.3489990234375E-06	4.15252134189359E-06	370238.75	2.695824514376E-05
1	144	77.9074208033027	1.25015258789063	1.24969482421875	3.35845947265625E-06	4.19704929299769E-06	372103.59375	2.72959914582316E-05
1	145	78.0081288030484	1.26022338867188	1.26068115234375	3.3807373046875E-06	4.26203177994466E-06	372901.25	2.76353366643889E-05
1	146	78.1088368027941	1.27029418945313	1.26983642578125	3.41552734375E-06	4.33716104453197E-06	371783.40625	2.79775558738038E-05
1	147	78.2095448025399	1.28036499023438	1.280517578125	3.460693359375E-06	4.43147837358993E-06	370017.65625	2.83238023257582E-05
1	148	78.3102528022856	1.29043579101563	1.2908935546875	3.51318359375E-06	4.53514576292946E-06	367442.6875	2.86749636870809E-05
1	149	78.4109608020314	1.30050659179688	1.30096435546875	3.56903076171875E-06	4.64318191006896E-06	364514.75	2.90315820166143E-05
1	150	78.5116688017771	1.31057739257813	1.31072998046875	3.62335205078125E-06	4.74923581350595E-06	361745.15625	2.93937464448391E-05
1	151	78.6123768015228	1.32064819335938	1.32080078125	3.673095703125E-06	4.85142754769186E-06	359587.90625	2.97611532005249E-05
1	152	78.7130848012686	1.33071899414063	1.33026123046875	3.7152099609375E-06	4.9421996664023E-06	358058.15625	3.01331838272745E-05
1	153	78.8137928010143	1.34078979492188	1.34033203125	3.74969482421875E-06	5.02583588968264E-06	357450.96875	3.05090707115596E-05
1	154	78.91450080076	1.35086059570313	1.35101318359375	3.77716064453125E-06	5.10299378220225E-06	357679.5625	3.08880771626718E-05
1	155	79.0152088005058	1.36093139648438	1.36077880859375	3.79913330078125E-06	5.16978025189019E-06	358181.375	3.12695738102775E-05
1	156	79.1159168002515	1.37100219726563	1.3714599609375	3.8201904296875E-06	5.23923790751724E-06	359003.0625	3.16532386932522E-05
1	157	79.2166247999972	1.38107299804688	1.38092041015625	3.84185791015625E-06	5.30529996467521E-06	359440.78125	3.20390536217019E-05
1	158	79.317332799743	1.39114379882813	1.3909912109375	3.86688232421875E-06	5.37879941475694E-06	359719.0625	3.2427218684461E-05
1	159	79.4180407994887	1.40121459960938	1.4013671875	3.8970947265625E-06	5.46126057088259E-06	359592.78125	3.28181668010075E-05
1	160	79.5187487992345	1.41128540039063	1.41143798828125	3.935546875E-06	5.55478027308709E-06	358638.34375	3.32125709974207E-05
1	161	79.6194567989802	1.42135620117188	1.42181396484375	3.983154296875E-06	5.66330436413409E-06	356956.78125	3.36113080265932E-05
1	162	79.7201647987259	1.43142700195313	1.43157958984375	4.04327392578125E-06	5.78826802666299E-06	354064.46875	3.40154729201458E-05
1	163	79.8208727984717	1.44149780273438	1.441650390625	4.1192626953125E-06	5.93853656027932E-06	349977.78125	3.44264881277923E-05
1	164	79.9215807982174	1.45156860351563	1.4520263671875	4.21142578125E-06	6.115101314208E-06	344782.625	3.48459725501016E-05
1	165	80.0222887979631	1.46163940429688	1.46148681640625	4.322509765625E-06	6.31729062661179E-06	338110.71875	3.52756906067953E-05
1	166	80.1229967977089	1.47171020507813	1.47216796875	4.45343017578125E-06	6.55619669487351E-06	330569.46875	3.57175922545139E-05
1	167	80.2237047974546	1.48178100585938	1.48162841796875	4.6044921875E-06	6.82214613334509E-06	321778.90625	3.61736965714954E-05
1	168	80.3244127972004	1.49185180664063	1.49169921875	4.77630615234375E-06	7.12481187292724E-06	312312.3125	3.6646055377787E-05
1	169	80.4251207969461	1.50192260742188	1.5020751953125	4.9688720703125E-06	7.46361911296844E-06	302297.03125	3.71367641491815E-05
1	170	80.5258287966918	1.49185180664063	1.49169921875	4.55535888671875E-06	6.79522509017261E-06	327460.3125	3.7616347981384E-05
1	171	80.6265367964376	1.48178100585938	1.48193359375	4.24072265625E-06	6.28446969130891E-06	349453.0625	3.80592682631686E-05
1	172	80.7272447961833	1.47171020507813	1.4715576171875	3.99169921875E-06	5.87401518714614E-06	368654.4375	3.84738013963215E-05
1	173	80.827952795929	1.46163940429688	1.461181640625	3.7890625E-06	5.53650852452847E-06	385631.4375	3.88655935239512E-05
1	174	80.9286607956748	1.45156860351563	1.45172119140625	3.62213134765625E-06	5.25832456332864E-06	400791.96875	3.92387773899827E-05
1	175	81.0293687954205	1.44149780273438	1.441650390625	3.4832763671875E-06	5.02166676596971E-06	413877.71875	3.95965616917238E-05
1	176	81.1300767951662	1.43142700195313	1.43157958984375	3.36639404296875E-06	4.8192609938269E-06	425256.125	3.99414711864665E-05
1	177	81.230784794912	1.42135620117188	1.42120361328125	3.2666015625E-06	4.64250570075819E-06	435071.03125	4.02754703827668E-05
1	178	81.3314927946577	1.41128540039063	1.41143798828125	3.18023681640625E-06	4.48870696345693E-06	443815.375	4.06000945076812E-05
1	179	81.4322007944035	1.40121459960938	1.4013671875	3.1036376953125E-06	4.34933599535725E-06	451524.09375	4.09165113524068E-05
1	180	81.5329087941492	1.39114379882813	1.3916015625	3.03314208984375E-06	4.22092534790863E-06	458798.65625	4.122552491026E-05
1	181	81.6336167938949	1.38107299804688	1.38092041015625	2.96630859375E-06	4.09623589803232E-06	465535	4.15276190324221E-05
1	182	81.7343247936407	1.37100219726563	1.37115478515625	2.89947509765625E-06	3.97562916987226E-06	472897.59375	4.18229865317699E-05
1	183	81.8350327933864	1.36093139648438	1.36077880859375	2.82989501953125E-06	3.85086104870425E-06	480858.40625	4.2111481889151E-05
1	184	81.9357407931321	1.35086059570313	1.3507080078125	2.75421142578125E-06	3.72013550986594E-06	490415.5	4.239266490913E-05
1	185	82.0364487928779	1.34078979492188	1.34063720703125	2.67059326171875E-06	3.58029660674219E-06	501999.78125	4.26658261858393E-05
1	186	82.1371567926236	1.33071899414063	1.33056640625	2.57598876953125E-06	3.42752400683821E-06	516526.5	4.29300125688314E-05
1	187	82.2378647923694	1.32064819335938	1.32080078125	2.4737548828125E-06	3.26733743349905E-06	533925.5	4.31842854595743E-05
1	188	82.3385727921151	1.31057739257813	1.31103515625	2.36480712890625E-06	3.10034511130652E-06	554394.125	4.34279281762429E-05
1	189	82.4392807918608	1.30050659179688	1.3006591796875	2.255859375E-06	2.93410403173766E-06	576569.3125	4.36605951108504E-05
1	190	82.5399887916066	1.29043579101563	1.2908935546875	2.15545654296875E-06	2.78246488960576E-06	598895.6875	4.38827228208538E-05
1	191	82.6406967913523	1.28036499023438	1.280517578125	2.06817626953125E-06	2.64833602159342E-06	619153.0625	4.40953990619164E-05
1	192	82.741404791098	1.27029418945313	1.2701416015625	2.0001220703125E-06	2.54043834502227E-06	635032.0625	4.43002536485437E-05
1	193	82.8421127908438	1.26022338867188	1.26007080078125	1.95159912109375E-06	2.45915293817234E-06	645660.75	4.44992401753552E-05
1	194	82.9428207905895	1.25015258789063	1.25030517578125	1.9195556640625E-06	2.40003032558889E-06	651351.375	4.4694166717818E-05
1	195	83.0435287903352	1.24008178710938	1.240234375	1.90032958984375E-06	2.35685388361162E-06	652641.75	4.48865139333066E-05
1	196	83.144236790081	1.23001098632813	1.22955322265625	1.88934326171875E-06	2.3230481929204E-06	650783.375	4.50773404736537E-05
1	197	83.2449447898267	1.21994018554688	1.2200927734375	1.884765625E-06	2.29958891395654E-06	647344.5625	4.52673812105786E-05
1	198	83.3456527895725	1.20986938476563	1.21002197265625	1.88201904296875E-06	2.27728423851659E-06	642938.25	4.54570545116439E-05
1	199	83.4463607893182	1.19979858398438	1.1993408203125	1.87896728515625E-06	2.25352209781704E-06	638297.875	4.56464331364259E-05
1	200	83.5470687890639	1.18972778320313	1.18927001953125	1.87652587890625E-06	2.23169604396389E-06	633761.625	4.58355389127973E-05
1	201	83.6477767888097	1.17965698242188	1.17919921875	1.87225341796875E-06	2.20775973502896E-06	629828.875	4.60243063571397E-05
1	202	83.7484847885554	1.16958618164063	1.1700439453125	1.86614990234375E-06	2.18347736336E-06	626982.8125	4.62125499325339E-05
1	203	83.8491927883011	1.15951538085938	1.15966796875	1.8572998046875E-06	2.1538510281971E-06	624383.875	4.6400040446315E-05
1	204	83.9499007880469	1.14944458007813	1.1492919921875	1.8450927734375E-06	2.12055033443903E-06	622891.1875	4.65864686702844E-05
1	205	84.0506087877926	1.13937377929688	1.1395263671875	1.8267822265625E-06	2.08166648008046E-06	623788.875	4.67713616671972E-05
1	206	84.1513167875383	1.12930297851563	1.12945556640625	1.8017578125E-06	2.03500530915335E-06	626863.1875	4.69540755148046E-05
1	207	84.2520247872841	1.11923217773438	1.11907958984375	1.767578125E-06	1.97806048163329E-06	633114.6875	4.71338062197901E-05
1	208	84.3527327870298	1.10916137695313	1.1090087890625	1.72119140625E-06	1.90881632988749E-06	644326.25	4.7309476940427E-05
1	209	84.4534407867756	1.09909057617188	1.09954833984375	1.658935546875E-06	1.82407973170484E-06	662803.5625	4.74796797789168E-05
1	210	84.5541487865213	1.08901977539063	1.0888671875	1.57684326171875E-06	1.71697286077688E-06	690536.125	4.764261393575E-05
1	211	84.654856786267	1.07894897460938	1.07879638671875	1.4739990234375E-06	1.59014473410934E-06	731884.0625	4.77962385048158E-05
1	212	84.7555647860128	1.06887817382813	1.06903076171875	1.34979248046875E-06	1.44296961934742E-06	791996.375	4.79384252685122E-05
1	213	84.8562727857585	1.05880737304688	1.058349609375	1.20941162109375E-06	1.27998032439791E-06	875094.625	4.80672933917958E-05
1	214	84.9569807855042	1.04873657226563	1.048583984375	1.05987548828125E-06	1.1113684195152E-06	989346.4375	4.81815623061266E-05
1	215	85.05768878525	1.03866577148438	1.03912353515625	9.14916992187501E-07	9.50711807945481E-07	1135757.125	4.82809991808608E-05
1	216	85.1583967849957	1.02859497070313	1.0284423828125	7.85217285156251E-07	8.07550691206416E-07	1309755.25	4.83666080981493E-05
1	217	85.2591047847415	1.01852416992188	1.01898193359375	6.82373046875E-07	6.95325752531062E-07	1493291.625	4.84405063616578E-05
1	218	85.3598127844872	1.00845336914063	1.00830078125	6.12792968750001E-07	6.17879607034411E-07	1645418.375	4.85057244077325E-05
1	219	85.4605207842329	0.998382568359375	0.99853515625	5.74645996093751E-07	5.73804186387861E-07	1737652.75	4.8565514589427E-05
1	220	85.5612287839787	0.988311767578125	0.98846435546875	5.6304931640625E-07	5.56554141439847E-07	1755555.625	4.86228018417023E-05
1	221	85.6619367837244	0.978240966796875	0.97869873046875	5.68542480468751E-07	5.56431814402458E-07	1721417.125	4.86797835037578E-05
1	222	85.7626447834701	0.968170166015625	0.9686279296875	5.7952880859375E-07	5.61347746952379E-07	1671406.125	4.87375946249813E-05
1	223	85.8633527832159	0.958099365234375	0.95855712890625	5.85327148437501E-07	5.61069498417055E-07	1637643.375	4.8796249757288E-05
1	224	85.9640607829616	0.948028564453125	0.94818115234375	5.76171875000001E-07	5.46315334304381E-07	1645656.75	4.88547339045908E-05
1	225	86.0647687827073	0.937957763671875	0.9381103515625	5.45349121093749E-07	5.11597647800954E-07	1720201.5	4.89112062496133E-05
1	226	86.1654767824531	0.927886962890625	0.927734375	4.833984375E-07	4.48465328872771E-07	1919192	4.89630110678263E-05
1	227	86.2661847821988	0.917816162109375	0.91796875	3.90014648437501E-07	3.5802125353257E-07	2353677.75	4.90069905936252E-05
1	228	86.3668927819446	0.907745361328125	0.908203125	2.61535644531249E-07	2.37527473245791E-07	3472579	4.90397978865076E-05
1	229	86.4676007816903	0.897674560546875	0.8978271484375	1.01623535156251E-07	9.1240366373313E-08	8834835	4.9058082367992E-05
1	230	86.568308781436	0.887603759765625	0.8880615234375	-8.05664062500003E-08	-7.15479231416793E-08	-11022728	4.90591446578037E-05
1	231	86.6690167811818	0.877532958984375	0.877685546875	-2.6824951171875E-07	-2.35438704976332E-07	-3271900	4.90415804961231E-05
1	232	86.7697247809275	0.867462158203125	0.86761474609375	-4.4525146484375E-07	-3.86306737709674E-07	-1948595	4.90056518174242E-05
1	233	86.8704327806732	0.857391357421875	0.8575439453125	-5.9417724609375E-07	-5.0953309482793E-07	-1443246.125	4.89533122163266E-05
1	234	86.971140780419	0.847320556640625	0.84747314453125	-6.99462890624999E-07	-5.92776018493169E-07	-1211605.625	4.88881742057856E-05
1	235	87.0718487801647	0.837249755859375	0.83740234375	-7.5653076171875E-07	-6.33520642168151E-07	-1106897.875	4.88148580188863E-05
1	236	87.1725567799105	0.827178955078125	0.82763671875	-7.6873779296875E-07	-6.3623559753978E-07	-1076617.75	4.8738053010311E-05
1	237	87.2732647796562	0.817108154296875	0.81695556640625	-7.4737548828125E-07	-6.1057255607011E-07	-1093099.25	4.8661713663023E-05
1	238	87.3739727794019	0.807037353515625	0.806884765625	-7.05871582031251E-07	-5.69557016660838E-07	-1143104.25	4.85885357193183E-05
1	239	87.4746807791477	0.796966552734375	0.79742431640625	-6.610107421875E-07	-5.27106067238492E-07	-1206371.125	4.85197087982669E-05
1	240	87.5753887788934	0.786895751953125	0.78704833984375	-6.2408447265625E-07	-4.91184664497268E-07	-1261124.75	4.84549964312464E-05
1	241	87.6760967786391	0.776824951171875	0.7769775390625	-6.07910156249999E-07	-4.72332516210372E-07	-1278112.5	4.83929616166279E-05
1	242	87.7768047783849	0.766754150390625	0.76690673828125	-6.2103271484375E-07	-4.76274180982728E-07	-1234889.5	4.83310795971192E-05
1	243	87.8775127781306	0.756683349609375	0.75714111328125	-6.7108154296875E-07	-5.08103426000162E-07	-1128240.125	4.82660179841332E-05
1	244	87.9782207778763	0.746612548828125	0.74664306640625	-7.63854980468751E-07	-5.70327017612726E-07	-977467.0625	4.81937604490668E-05
1	245	88.0789287776221	0.736541748046875	0.73651123046875	-8.99658203125001E-07	-6.62608329093928E-07	-818656.75	4.81099959870335E-05
1	246	88.1796367773678	0.726470947265625	0.7264404296875	-1.07208251953125E-06	-7.78804064793803E-07	-677597.5625	4.80107119074091E-05
1	247	88.2803447771136	0.716400146484375	0.71636962890625	-1.27197265625E-06	-9.1120261913602E-07	-563195.75	4.78926813229918E-05
1	248	88.3810527768593	0.706329345703125	0.70635986328125	-1.478271484375E-06	-1.04419154922653E-06	-477828.25	4.77541943837423E-05
1	249	88.481760776605	0.696258544921875	0.69622802734375	-1.67236328125E-06	-1.16434614483296E-06	-416313.875	4.75955457659438E-05
1	250	88.5824687763508	0.686187744140625	0.6861572265625	-1.83074951171875E-06	-1.25618203128397E-06	-374795.8125	4.74191510875244E-05
1	251	88.6831767760965	0.676116943359375	0.67608642578125	-1.93572998046875E-06	-1.30872069803445E-06	-349266.9375	4.72294923383743E-05
1	252	88.7838847758422	0.666046142578125	0.666107177734375	-1.97845458984375E-06	-1.317862711403E-06	-336680.5625	4.70323975605424E-05
1	253	88.884592775588	0.655975341796875	0.656005859375	-1.96258544921875E-06	-1.28746751215658E-06	-334255.9375	4.68339530925732E-05
1	254	88.9853007753337	0.645904541015625	0.645965576171875	-1.8975830078125E-06	-1.22577330330387E-06	-340414.9375	4.66395758849103E-05
1	255	89.0860087750794	0.635833740234375	0.63580322265625	-1.8023681640625E-06	-1.14595150080277E-06	-352759.90625	4.64532713522203E-05
1	256	89.1867167748252	0.625762939453125	0.625701904296875	-1.69219970703125E-06	-1.05881258605223E-06	-369756.53125	4.62773023173213E-05
1	257	89.2874247745709	0.615692138671875	0.615692138671875	-1.57745361328125E-06	-9.71225745161064E-07	-390307.625	4.61126655864064E-05
1	258	89.3881327743167	0.605621337890625	0.605621337890625	-1.466064453125E-06	-8.87879878064268E-07	-413093.25	4.59594120911788E-05
1	259	89.4888407740624	0.595550537109375	0.5955810546875	-1.36077880859375E-06	-8.10454082511569E-07	-437676.59375	4.58170688943937E-05
1	260	89.5895487738081	0.585479736328125	0.58544921875	-1.2640380859375E-06	-7.40030088763888E-07	-463157.90625	4.56848974863533E-05
1	261	89.6902567735539	0.575408935546875	0.575439453125	-1.17462158203125E-06	-6.75923558901559E-07	-489893.5	4.55621011496987E-05
1	262	89.7909647732996	0.565338134765625	0.565338134765625	-1.09466552734375E-06	-6.18856176970439E-07	-516448.28125	4.5447832235368E-05
1	263	89.8916727730453	0.555267333984375	0.5552978515625	-1.02203369140625E-06	-5.67533106732299E-07	-543326.375	4.53412503702566E-05
1	264	89.9923807727911	0.545196533203125	0.545166015625	-9.552001953125E-07	-5.207426738707E-07	-570734.8125	4.52416861662641E-05
1	265	90.0930887725368	0.535125732421875	0.535125732421875	-8.95080566406251E-07	-4.78980609841528E-07	-597852.0625	4.51485175290145E-05
1	266	90.1937967722826	0.525054931640625	0.525054931640625	-8.4075927734375E-07	-4.41444797161239E-07	-624500.9375	4.50611114501953E-05
1	267	90.2945047720283	0.514984130859375	0.5150146484375	-7.9010009765625E-07	-4.06913130746034E-07	-651834.6875	4.49789913545828E-05
1	268	90.395212771774	0.504913330078125	0.50494384765625	-7.43713378906249E-07	-3.75533488750079E-07	-678949.5625	4.49017570645083E-05
1	269	90.4959207715198	0.494842529296875	0.494842529296875	-7.0037841796875E-07	-3.46577024856742E-07	-706536	4.48290411441121E-05
1	270	90.5966287712655	0.484771728515625	0.48480224609375	-6.610107421875E-07	-3.20459491831571E-07	-733425.6875	4.47604907094501E-05
1	271	90.6973367710112	0.474700927734375	0.4747314453125	-6.23779296875E-07	-2.96127637966492E-07	-761056.8125	4.46957965323236E-05
1	272	90.798044770757	0.464630126953125	0.464630126953125	-5.902099609375E-07	-2.74229307706264E-07	-787228.5625	4.4634667574428E-05
1	273	90.8987527705027	0.454559326171875	0.454620361328125	-5.584716796875E-07	-2.5389257984898E-07	-814043.75	4.45768273493741E-05
1	274	90.9994607702484	0.444488525390625	0.444549560546875	-5.291748046875E-07	-2.35244414170666E-07	-840080.8125	4.45220612164121E-05
1	275	91.1001687699942	0.434417724609375	0.4344482421875	-5.01403808593751E-07	-2.17833999727191E-07	-866463.8125	4.44701654487289E-05
1	276	91.2008767697399	0.424346923828125	0.42437744140625	-4.75158691406249E-07	-2.01646628283925E-07	-893127.8125	4.44209908891935E-05
1	277	91.3015847694857	0.414276123046875	0.414276123046875	-4.51049804687501E-07	-1.86859168138653E-07	-918470.9375	4.43743520008866E-05
1	278	91.4022927692314	0.404205322265625	0.404296875	-4.2755126953125E-07	-1.72857639313406E-07	-945610.25	4.43301141785923E-05
1	279	91.5030007689771	0.394134521484375	0.394195556640625	-4.04968261718749E-07	-1.59636684315956E-07	-973398.625	4.42881937487982E-05
1	280	91.6037087687229	0.384063720703125	0.38409423828125	-3.8330078125E-07	-1.47223616409065E-07	-1002070.0625	4.4248499762034E-05
1	281	91.7044167684686	0.373992919921875	0.374053955078125	-3.6285400390625E-07	-1.35726978101047E-07	-1030866.3125	4.42109267169144E-05
1	282	91.8051247682143	0.363922119140625	0.363922119140625	-3.4332275390625E-07	-1.24942744150758E-07	-1060000	4.41753691120539E-05
1	283	91.9058327679601	0.353851318359375	0.3538818359375	-3.2470703125E-07	-1.14907919623874E-07	-1089849.625	4.41417323600035E-05
1	284	92.0065407677058	0.343780517578125	0.343780517578125	-3.070068359375E-07	-1.05542959261129E-07	-1119781.375	4.41099218733143E-05
1	285	92.1072487674516	0.333709716796875	0.333709716796875	-2.9022216796875E-07	-9.68499520581645E-08	-1149842.375	4.40798503404949E-05
1	286	92.2079567671973	0.323638916015625	0.32373046875	-2.7435302734375E-07	-8.88164350953957E-08	-1179977.75	4.40514195361175E-05
1	287	92.308664766943	0.313568115234375	0.3135986328125	-2.60009765624999E-07	-8.15387011243729E-08	-1206103.375	4.40245130448602E-05
1	288	92.4093727666888	0.303497314453125	0.303558349609375	-2.45361328125E-07	-7.44814769859659E-08	-1237189.125	4.39990653831046E-05
1	289	92.5100807664345	0.293426513671875	0.29345703125	-2.3193359375E-07	-6.80625404925195E-08	-1265263.25	4.3975032895105E-05
1	290	92.6107887661802	0.283355712890625	0.28338623046875	-2.2003173828125E-07	-6.23539619937219E-08	-1287933.375	4.39522736996878E-05
1	291	92.711496765926	0.273284912109375	0.273345947265625	-2.08435058593751E-07	-5.6974876372351E-08	-1311420.25	4.39306968473829E-05
1	292	92.8122047656717	0.263214111328125	0.263275146484375	-1.97753906250001E-07	-5.20636902479055E-08	-1331327.125	4.39102441305295E-05
1	293	92.9129127654174	0.253143310546875	0.253204345703125	-1.88598632812501E-07	-4.77539927601356E-08	-1342556.625	4.38907918578479E-05
1	294	93.0136207651632	0.243072509765625	0.243133544921875	-1.80664062499999E-07	-4.39254925765908E-08	-1345777	4.38721981481649E-05
1	295	93.1143287649089	0.233001708984375	0.2330322265625	-1.7364501953125E-07	-4.04648865526269E-08	-1342003.5	4.38543575000949E-05
1	296	93.2150367646547	0.222930908203125	0.222991943359375	-1.6815185546875E-07	-3.74965090088608E-08	-1326134.25	4.38371462223586E-05
1	297	93.3157447644004	0.212860107421875	0.212921142578125	-1.65405273437499E-07	-3.52182780716248E-08	-1287269.375	4.38203496742062E-05
1	298	93.4164527641461	0.202789306640625	0.202850341796875	-1.63879394531249E-07	-3.32429905824938E-08	-1237802.625	4.38037677668035E-05
1	299	93.5171607638919	0.192718505859375	0.192779541015625	-1.66015625E-07	-3.20044151180809E-08	-1161213.25	4.37871567555703E-05
1	300	93.6178687636376	0.182647705078125	0.182708740234375	-1.7120361328125E-07	-3.12803969393372E-08	-1067201.5	4.37701783084776E-05
1	301	93.7185767633833	0.172576904296875	0.172698974609375	-1.80969238281251E-07	-3.12532009161259E-08	-954300.1875	4.37524431617931E-05
1	302	93.8192847631291	0.162506103515625	0.16259765625	-1.953125E-07	-3.17573523034298E-08	-832500	4.37334965681657E-05
1	303	93.9199927628748	0.152435302734375	0.152496337890625	-2.1697998046875E-07	-3.30886500421457E-08	-702813	4.37127346231136E-05
1	304	94.0207007626205	0.142364501953125	0.142425537109375	-2.48107910156251E-07	-3.533690318136E-08	-574046.75	4.36893169535324E-05
1	305	94.1214087623663	0.132293701171875	0.13238525390625	-2.91748046875E-07	-3.86231384652547E-08	-453765.6875	4.36621339758858E-05
1	306	94.222116762112	0.122222900390625	0.122283935546875	-3.521728515625E-07	-4.30650786142905E-08	-347227.0625	4.36297086707782E-05
1	307	94.3228247618578	0.112152099609375	0.11224365234375	-4.35485839843749E-07	-4.88805191878328E-08	-257743.53125	4.35900474258233E-05
1	308	94.4235327616035	0.102081298828125	0.1021728515625	-5.46874999999999E-07	-5.58757733415405E-08	-186830.375	4.35405818279833E-05
1	309	94.5242407613492	0.092010498046875	0.0921630859375	-6.9244384765625E-07	-6.3817765294516E-08	-133098.28125	4.34781759395264E-05
1	310	94.624948761095	0.081939697265625	0.082061767578125	-8.73718261718751E-07	-7.16988637350369E-08	-93922.4609375	4.33993118349463E-05
1	311	94.7256567608407	0.071868896484375	0.071868896484375	-1.08856201171875E-06	-7.82337465921046E-08	-66021.875	4.33005043305457E-05
1	312	94.8263647605864	0.061798095703125	0.061920166015625	-1.3275146484375E-06	-8.21999250888439E-08	-46643.6796875	4.31788466812577E-05
1	313	94.9270727603322	0.051727294921875	0.051849365234375	-1.575927734375E-06	-8.17108514183928E-08	-32900.8515625	4.30326472269371E-05
1	314	95.0277807600779	0.041656494140625	0.0417938232421875	-1.81365966796875E-06	-7.57997682399036E-08	-23043.91796875	4.28619678132236E-05
1	315	95.1284887598237	0.031585693359375	0.0317169189453125	-2.01904296875E-06	-6.40378274852083E-08	-15708.8876953125	4.26689730375074E-05
1	316	95.2291967595694	0.021514892578125	0.0216583251953125	-2.1722412109375E-06	-4.70471093194647E-08	-9970.4970703125	4.24579266109504E-05
1	317	95.3299047593151	0.011444091796875	0.01158447265625	-2.26226806640625E-06	-2.62071822021426E-08	-5120.73388671875	4.22346311097499E-05
1	318	95.4306127590609	0.001373291015625	0.001513671875	-2.28729248046875E-06	-3.46220985214529E-09	-661.774536132813	4.20055439462885E-05
1	319	95.5313207588066	-0.008697509765625	-0.008544921875	-2.2589111328125E-06	1.93022184902247E-08	3782.76147460938	4.17766241298523E-05
1	320	95.6320287585523	-0.018768310546875	-0.0186065673828125	-2.19329833984375E-06	4.08097520221418E-08	8483.373046875	4.15524373238441E-05
1	321	95.7327367582981	-0.028839111328125	-0.0286712646484375	-2.10723876953125E-06	6.04172001317238E-08	13606.0830078125	4.13358866353519E-05
1	322	95.8334447580438	-0.038909912109375	-0.0387237548828125	-2.01263427734375E-06	7.79367539394116E-08	19240.333984375	4.11284345318563E-05
1	323	95.9341527577895	-0.048980712890625	-0.0488006591796875	-1.91986083984375E-06	9.36904669401883E-08	25418.853515625	4.09304193453863E-05
1	324	96.0348607575353	-0.059051513671875	-0.058929443359375	-1.83258056640625E-06	1.07992953246594E-07	32156.537109375	4.07414700021036E-05
1	325	96.135568757281	-0.069122314453125	-0.06903076171875	-1.7529296875E-06	1.21006067388407E-07	39380.22265625	4.05609243898652E-05
1	326	96.2362767570268	-0.079193115234375	-0.0791015625	-1.6815185546875E-06	1.33010743752493E-07	47041.74609375	4.03879857913125E-05
1	327	96.3369847567725	-0.089263916015625	-0.089141845703125	-1.6180419921875E-06	1.44235244192714E-07	55092.41796875	4.02218392991927E-05
1	328	96.4376927565182	-0.099334716796875	-0.099212646484375	-1.56219482421875E-06	1.549894790287E-07	63508.49609375	4.00617027480621E-05
1	329	96.538400756264	-0.109405517578125	-0.1092529296875	-1.513671875E-06	1.65373080562858E-07	72177.421875	3.9906819438329E-05
1	330	96.6391087560097	-0.119476318359375	-0.11932373046875	-1.470947265625E-06	1.75518920286777E-07	81120.328125	3.97565308958292E-05
1	331	96.7398167557554	-0.129547119140625	-0.12939453125	-1.43341064453125E-06	1.85475499847598E-07	90270.390625	3.96102841477841E-05
1	332	96.8405247555012	-0.139617919921875	-0.139434814453125	-1.40045166015625E-06	1.95271709912959E-07	99564.1796875	3.94675880670547E-05
1	333	96.9412327552469	-0.149688720703125	-0.149566650390625	-1.3726806640625E-06	2.05307259193432E-07	108959.5390625	3.93279515265021E-05
1	334	97.0419407549927	-0.159759521484375	-0.1595458984375	-1.3482666015625E-06	2.15110404155894E-07	118334.09375	3.91909416066483E-05
1	335	97.1426487547384	-0.169830322265625	-0.16961669921875	-1.326904296875E-06	2.25065107883893E-07	127828.890625	3.90562345273793E-05
1	336	97.2433567544841	-0.179901123046875	-0.179718017578125	-1.30889892578125E-06	2.3523270442638E-07	137304.734375	3.89235101465601E-05
1	337	97.3440647542299	-0.189971923828125	-0.1898193359375	-1.295166015625E-06	2.4584753077761E-07	146559.859375	3.87923864764161E-05
1	338	97.4447727539756	-0.200042724609375	-0.1998291015625	-1.28387451171875E-06	2.56555466648933E-07	155645.359375	3.86625215469394E-05
1	339	97.5454807537213	-0.189971923828125	-0.189788818359375	-1.15020751953125E-06	2.18296520415606E-07	165003.984375	3.85399544029497E-05
2	340	97.6461887534671	-0.179901123046875	-0.179718017578125	-1.0552978515625E-06	1.89656034876862E-07	170300.75	3.84289014618844E-05
2	341	97.7468967532128	-0.169830322265625	-0.16961669921875	-9.7930908203125E-07	1.66107184895736E-07	173200.375	3.83264487027191E-05
2	342	97.8476047529585	-0.159759521484375	-0.159576416015625	-9.1583251953125E-07	1.46145268331566E-07	174241.921875	3.82310208806302E-05
2	343	97.9483127527043	-0.149688720703125	-0.1495361328125	-8.59985351562501E-07	1.28598884430176E-07	173882.1875	3.81416029995307E-05
2	344	98.04902075245	-0.139617919921875	-0.139495849609375	-8.10546875E-07	1.13067919471632E-07	172100.90625	3.80574856535532E-05
2	345	98.1497287521958	-0.129547119140625	-0.12945556640625	-7.659912109375E-07	9.91618236412251E-08	169003.984375	3.79780976800248E-05
2	346	98.2504367519415	-0.119476318359375	-0.119384765625	-7.2479248046875E-07	8.65291767127019E-08	164715.796875	3.79030316253193E-05
2	347	98.3511447516872	-0.109405517578125	-0.1092529296875	-6.866455078125E-07	7.50180291220204E-08	159111.125	3.78319600713439E-05
2	348	98.451852751433	-0.099334716796875	-0.099212646484375	-6.50939941406251E-07	6.45814708377657E-08	152414.453125	3.77646065317094E-05
2	349	98.5525607511787	-0.089263916015625	-0.089141845703125	-6.14318847656251E-07	5.47615144341762E-08	145106.8125	3.77008982468396E-05
2	350	98.6532687509244	-0.079193115234375	-0.079132080078125	-5.7830810546875E-07	4.57627251648773E-08	136833.765625	3.76408424926922E-05
2	351	98.7539767506702	-0.069122314453125	-0.069061279296875	-5.39550781250001E-07	3.72620654331968E-08	127997.75	3.75845556845888E-05
2	352	98.8546847504159	-0.059051513671875	-0.058990478515625	-4.96826171875001E-07	2.93080120172817E-08	118734.6484375	3.75323688786011E-05
2	353	98.9553927501616	-0.048980712890625	-0.04879150390625	-4.4708251953125E-07	2.1813828965378E-08	109133.1171875	3.74848386854865E-05
2	354	99.0561007499074	-0.038909912109375	-0.03873291015625	-3.863525390625E-07	1.4964557593089E-08	100252.765625	3.74428709619679E-05
2	355	99.1568087496531	-0.028839111328125	-0.02864990234375	-3.1097412109375E-07	8.9093781241445E-09	92129.5390625	3.74077608285006E-05
2	356	99.2575167493989	-0.018768310546875	-0.0186065673828125	-2.13012695312501E-07	3.96343491360085E-09	87349.578125	3.73813745682128E-05
2	357	99.3582247491446	-0.008697509765625	-0.00853881835937501	-8.85009765625E-08	7.55693729814766E-10	96482.7578125	3.73661932826508E-05
2	358	99.4589327488903	0.001373291015625	0.0015228271484375	6.866455078125E-08	1.0456423921168E-10	22177.779296875	3.73651928384788E-05
2	359	99.5596407486361	0.011444091796875	0.01158447265625	2.63061523437499E-07	3.0474289758331E-09	44037.125	3.7381898437161E-05
2	360	99.6603487483818	0.021514892578125	0.021673583984375	4.9163818359375E-07	1.06555608780923E-08	44084.421875	3.74199007637799E-05
2	361	99.7610567481275	0.031585693359375	0.031719970703125	7.47070312500001E-07	2.36970496558797E-08	42459.15234375	3.74822739104275E-05
2	362	99.8617647478733	0.041656494140625	0.041796875	1.01531982421875E-06	4.24371933149814E-08	41166.21875	3.75710151274689E-05
2	363	99.962472747619	0.051727294921875	0.0517578125	1.27716064453125E-06	6.61030412629771E-08	40525.6875	3.76864518329967E-05
2	364	100.063180747365	0.061798095703125	0.0618896484375	1.51031494140625E-06	9.34728561219345E-08	40977.9765625	3.78268123313319E-05
2	365	100.16388874711	0.071868896484375	0.0718994140625	1.69647216796875E-06	1.21975361366822E-07	42381.72265625	3.79882876586635E-05
2	366	100.264596746856	0.081939697265625	0.08203125	1.8212890625E-06	1.49402623605965E-07	45040.21484375	3.81654208467808E-05
2	367	100.365304746602	0.092010498046875	0.09210205078125	1.881103515625E-06	1.73253482671498E-07	48961.71484375	3.83518490707502E-05
2	368	100.466012746348	0.102081298828125	0.10211181640625	1.88323974609375E-06	1.92301030210729E-07	54221.359375	3.85414023185149E-05
2	369	100.566720746093	0.112152099609375	0.112213134765625	1.84112548828125E-06	2.06598457452856E-07	60948.1171875	3.87289364880417E-05
2	370	100.667428745839	0.122222900390625	0.122344970703125	1.773681640625E-06	2.17001016267204E-07	68977.9765625	3.89109554816969E-05
2	371	100.768136745585	0.132293701171875	0.132415771484375	1.69342041015625E-06	2.24235563450748E-07	78194.2734375	3.90855384466704E-05
2	372	100.868844745331	0.142364501953125	0.14239501953125	1.611328125E-06	2.29445092259084E-07	88371.2109375	3.92519468732644E-05
2	373	100.969552745076	0.152435302734375	0.15252685546875	1.53167724609375E-06	2.33621904044412E-07	99581.59375	3.94102098653093E-05
2	374	101.070260744822	0.162506103515625	0.162567138671875	1.45782470703125E-06	2.3699438145286E-07	111513.5078125	3.95607421523891E-05
2	375	101.170968744568	0.172576904296875	0.172637939453125	1.39068603515625E-06	2.40085171299143E-07	124138.6953125	3.97041767428163E-05
2	376	101.271676744314	0.182647705078125	0.182708740234375	1.33056640625E-06	2.431061147945E-07	137316.515625	3.98412048525643E-05
2	377	101.372384744059	0.192718505859375	0.19281005859375	1.278076171875E-06	2.46425940986228E-07	150859.59375	3.99725577153731E-05
2	378	101.473092743805	0.202789306640625	0.202911376953125	1.23077392578125E-06	2.49738036472991E-07	164864.859375	4.00988901674282E-05
2	379	101.573800743551	0.212860107421875	0.212921142578125	1.18896484375E-06	2.53155747031997E-07	179081.109375	4.02207333536353E-05
2	380	101.674508743297	0.222930908203125	0.222930908203125	1.15142822265625E-06	2.56688906574709E-07	193612.53125	4.03385820391122E-05
2	381	101.775216743042	0.233001708984375	0.2330322265625	1.1181640625E-06	2.60568270959993E-07	208406.109375	4.04528655053582E-05
2	382	101.875924742788	0.243072509765625	0.243072509765625	1.08856201171875E-06	2.64599492538764E-07	223296.90625	4.05639802920632E-05
2	383	101.976632742534	0.253143310546875	0.25323486328125	1.06170654296875E-06	2.68861100494178E-07	238516.828125	4.06722574552987E-05
2	384	102.077340742279	0.263214111328125	0.26324462890625	1.03729248046875E-06	2.73061658617735E-07	253780.53125	4.07779480156023E-05
2	385	102.178048742025	0.273284912109375	0.2733154296875	1.01531982421875E-06	2.77502550716235E-07	269191.46875	4.08813066314906E-05
2	386	102.278756741771	0.283355712890625	0.283355712890625	9.95483398437499E-07	2.82075887980682E-07	284641.34375	4.09825588576496E-05
2	387	102.379464741517	0.293426513671875	0.29345703125	9.77478027343751E-07	2.86847779307209E-07	300218.5625	4.10819047829136E-05
2	388	102.480172741262	0.303497314453125	0.30352783203125	9.6038818359375E-07	2.91504562710543E-07	316047.03125	4.11794826504774E-05
2	389	102.580880741008	0.313568115234375	0.31365966796875	9.4512939453125E-07	2.96448973813312E-07	331869.5625	4.12754343415145E-05
2	390	102.681588740754	0.323638916015625	0.32373046875	9.307861328125E-07	3.01323808571397E-07	347803.28125	4.13698944612406E-05
2	391	102.7822967405	0.333709716796875	0.333740234375	9.17663574218749E-07	3.06261256355356E-07	363684.75	4.14629721490201E-05
2	392	102.883004740245	0.343780517578125	0.343780517578125	9.0606689453125E-07	3.11488150828154E-07	379420.6875	4.15548020100687E-05
2	393	102.983712739991	0.353851318359375	0.35394287109375	8.94775390624999E-07	3.16699356517347E-07	395566.15625	4.16454822698142E-05
2	394	103.084420739737	0.363922119140625	0.363983154296875	8.8531494140625E-07	3.22239714023453E-07	411134.09375	4.17351184296422E-05
2	395	103.185128739483	0.373992919921875	0.37396240234375	8.7615966796875E-07	3.27650752751651E-07	426819.9375	4.18238159909379E-05
2	396	103.285836739228	0.384063720703125	0.38409423828125	8.67614746093751E-07	3.33245822048411E-07	442701.375	4.19116222474258E-05
2	397	103.386544738974	0.394134521484375	0.394195556640625	8.59985351562501E-07	3.39002383498155E-07	458374.75	4.1998613596661E-05
2	398	103.48725273872	0.404205322265625	0.40423583984375	8.53271484375E-07	3.44922909789602E-07	473748.21875	4.20848809881136E-05
2	399	103.587960738466	0.414276123046875	0.414306640625	8.47473144531249E-07	3.51113754959442E-07	488872.90625	4.21705226472113E-05
2	400	103.688668738211	0.424346923828125	0.424346923828125	8.4228515625E-07	3.57421100716238E-07	503804.34375	4.22556076955516E-05
2	401	103.789376737957	0.434417724609375	0.434478759765625	8.38623046875001E-07	3.64363899052478E-07	518085.90625	4.23402489104774E-05
2	402	103.890084737703	0.444488525390625	0.444549560546875	8.33740234374999E-07	3.70638844060522E-07	533199.125	4.24244572059251E-05
2	403	103.990792737448	0.454559326171875	0.45465087890625	8.2977294921875E-07	3.77257009631649E-07	547922.0625	4.25082216679584E-05
2	404	104.091500737194	0.464630126953125	0.464630126953125	8.2672119140625E-07	3.84119573482167E-07	562015.5	4.25916332460474E-05
2	405	104.19220873694	0.474700927734375	0.4747314453125	8.23364257812501E-07	3.90876891742664E-07	576575.25	4.26747210440226E-05
2	406	104.292916736686	0.484771728515625	0.48480224609375	8.2061767578125E-07	3.97837283117042E-07	590777.25	4.2757503251778E-05
2	407	104.393624736431	0.494842529296875	0.494842529296875	8.1817626953125E-07	4.04868416126192E-07	604811.625	4.28400235250592E-05
2	408	104.494332736177	0.504913330078125	0.50494384765625	8.1634521484375E-07	4.1220849311685E-07	618542.0625	4.29223291575909E-05
2	409	104.595040735923	0.514984130859375	0.515045166015625	8.16650390625E-07	4.206118262573E-07	630680.125	4.30045547545888E-05
2	410	104.695748735669	0.525054931640625	0.525054931640625	8.1695556640625E-07	4.28946549391185E-07	642697.0625	4.30868130933959E-05
2	411	104.796456735414	0.535125732421875	0.535125732421875	8.1787109375E-07	4.37663857155712E-07	654291.0625	4.31691332778428E-05
2	412	104.89716473516	0.545196533203125	0.545196533203125	8.2000732421875E-07	4.47065133357682E-07	664867.875	4.32516062573995E-05
2	413	104.997872734906	0.555267333984375	0.5552978515625	8.24584960937499E-07	4.57890251936988E-07	673427.0625	4.33344212069642E-05
2	414	105.098580734652	0.565338134765625	0.56536865234375	8.306884765625E-07	4.69645215162018E-07	680602.5	4.34177709394135E-05
2	415	105.199288734397	0.575408935546875	0.57537841796875	8.392333984375E-07	4.82876771457086E-07	685600	4.35018555435818E-05
2	416	105.299996734143	0.585479736328125	0.585479736328125	8.5113525390625E-07	4.98322435760201E-07	687881	4.35869733337313E-05
2	417	105.400704733889	0.595550537109375	0.5955810546875	8.6822509765625E-07	5.17098385444115E-07	685975.4375	4.36735499533825E-05
2	418	105.501412733635	0.605621337890625	0.605621337890625	8.929443359375E-07	5.40786118108372E-07	678229.6875	4.37622329627629E-05
2	419	105.60212073338	0.615692138671875	0.615692138671875	9.2742919921875E-07	5.71010843941622E-07	663869.6875	4.38538954767864E-05
2	420	105.702828733126	0.625762939453125	0.625762939453125	9.75952148437501E-07	6.10714721460681E-07	641182	4.39497380284593E-05
2	421	105.803536732872	0.635833740234375	0.635833740234375	1.04339599609375E-06	6.63426362734754E-07	609388.75	4.40514195361175E-05
2	422	105.904244732617	0.645904541015625	0.645904541015625	1.1358642578125E-06	7.33659817342414E-07	568645.9375	4.41611555288546E-05
2	423	106.004952732363	0.655975341796875	0.65594482421875	1.258544921875E-06	8.25536005777394E-07	521193.03125	4.42817217845004E-05
2	424	106.105660732109	0.666046142578125	0.666015625	1.41510009765625E-06	9.42478777687938E-07	470649.125	4.44163524662144E-05
2	425	106.206368731855	0.676116943359375	0.676116943359375	1.605224609375E-06	1.08531958176172E-06	421197.71875	4.45684381702449E-05
2	426	106.3070767316	0.686187744140625	0.686187744140625	1.82403564453125E-06	1.2516309197963E-06	376192.0625	4.47411148343235E-05
2	427	106.407784731346	0.696258544921875	0.696258544921875	2.0635986328125E-06	1.43679824304854E-06	337400.15625	4.49368708359543E-05
2	428	106.508492731092	0.706329345703125	0.706329345703125	2.3089599609375E-06	1.63088611770945E-06	305908.03125	4.51570485893171E-05
2	429	106.609200730838	0.716400146484375	0.71636962890625	2.54119873046875E-06	1.82043754648475E-06	281902.25	4.54012733825948E-05
2	430	106.709908730583	0.726470947265625	0.726409912109375	2.74200439453125E-06	1.99181909010804E-06	264919.3125	4.56673042208422E-05
2	431	106.810616730329	0.736541748046875	0.736480712890625	2.89459228515625E-06	2.13181124308903E-06	254433.328125	4.59511284134351E-05
2	432	106.911324730075	0.746612548828125	0.74658203125	2.99163818359375E-06	2.23350343730999E-06	249556.25	4.62475218228064E-05
2	433	107.012032729821	0.756683349609375	0.7568359375	3.0322265625E-06	2.29489796765847E-06	249597.4375	4.65508492197841E-05
2	434	107.112740729566	0.766754150390625	0.76690673828125	3.0291748046875E-06	2.32309434977651E-06	253173.5	4.68560647277627E-05
2	435	107.213448729312	0.776824951171875	0.77728271484375	2.99652099609375E-06	2.32914385378535E-06	259395.0625	4.71594830742106E-05
2	436	107.314156729058	0.786895751953125	0.787353515625	2.95166015625E-06	2.3239999791258E-06	266749.40625	4.74589978693984E-05
2	437	107.414864728804	0.796966552734375	0.7977294921875	2.90771484375E-06	2.31956983043347E-06	274349.28125	4.77540415886324E-05
2	438	107.515572728549	0.807037353515625	0.8074951171875	2.874755859375E-06	2.32135130318056E-06	280891.71875	4.80452108604368E-05
2	439	107.616280728295	0.817108154296875	0.8172607421875	2.860107421875E-06	2.3374534521281E-06	285744.78125	4.83339827042073E-05
2	440	107.716988728041	0.827178955078125	0.82794189453125	2.8704833984375E-06	2.37659332924522E-06	288432.9375	4.8622543545207E-05
2	441	107.817696727786	0.837249755859375	0.83770751953125	2.90924072265625E-06	2.43709291680716E-06	287947.125	4.89135745738167E-05
2	442	107.918404727532	0.847320556640625	0.84808349609375	2.979736328125E-06	2.5270651349274E-06	284616.96875	4.92101062263828E-05
2	443	108.019112727278	0.857391357421875	0.85784912109375	3.07861328125E-06	2.64098571278737E-06	278647.90625	4.95151689392515E-05
2	444	108.119820727024	0.867462158203125	0.86761474609375	3.19976806640625E-06	2.77616572930128E-06	271149.28125	4.98313129355665E-05
2	445	108.220528726769	0.877532958984375	0.87738037109375	3.328857421875E-06	2.92067397822393E-06	263568.03125	5.01600552524906E-05
2	446	108.321236726515	0.887603759765625	0.88775634765625	3.4515380859375E-06	3.06412493955577E-06	257206.015625	5.05014722875785E-05
2	447	108.421944726261	0.897674560546875	0.89813232421875	3.55072021484375E-06	3.18901652462955E-06	252943.71875	5.08540651935618E-05
2	448	108.522652726007	0.907745361328125	0.90789794921875	3.6163330078125E-06	3.28326109411137E-06	251054.859375	5.12149563292041E-05
2	449	108.623360725752	0.917816162109375	0.9185791015625	3.64166259765625E-06	3.3451551644248E-06	252241.6875	5.15804240421858E-05
2	450	108.724068725498	0.927886962890625	0.92803955078125	3.63189697265625E-06	3.37054393639846E-06	255524.765625	5.19466775585897E-05
2	451	108.824776725244	0.937957763671875	0.93780517578125	3.5968017578125E-06	3.37309916176309E-06	260733.078125	5.23106718901545E-05
2	452	108.92548472499	0.948028564453125	0.948486328125	3.54827880859375E-06	3.36549396706687E-06	267308.84375	5.26704534422606E-05
2	453	109.026192724735	0.958099365234375	0.95794677734375	3.49884033203125E-06	3.35170261678286E-06	273789.8125	5.30253055330832E-05
2	454	109.126900724481	0.968170166015625	0.968017578125	3.458251953125E-06	3.34764877152338E-06	279915.28125	5.33756210643332E-05
2	455	109.227608724227	0.978240966796875	0.9783935546875	3.43170166015625E-06	3.35755476044142E-06	285104.5	5.37225605512504E-05
2	456	109.328316723973	0.988311767578125	0.98846435546875	3.4259033203125E-06	3.38638324137719E-06	288526.625	5.40678665856831E-05
2	457	109.429024723718	0.998382568359375	0.99884033203125	3.4442138671875E-06	3.44021964338026E-06	290005.34375	5.44138056284282E-05
2	458	109.529732723464	1.00845336914063	1.0076904296875	3.48541259765625E-06	3.51221683558833E-06	289116.5625	5.47627387277316E-05
2	459	109.63044072321	1.01852416992188	1.01837158203125	3.548583984375E-06	3.61377692570386E-06	286979.71875	5.51169287064113E-05
2	460	109.731148722955	1.02859497070313	1.029052734375	3.6279296875E-06	3.73333091374661E-06	283647.375	5.54782964172773E-05
2	461	109.831856722701	1.03866577148438	1.0382080078125	3.71490478515625E-06	3.85684370485251E-06	279470.96875	5.58480351173785E-05
2	462	109.932564722447	1.04873657226563	1.048583984375	3.797607421875E-06	3.9821102291171E-06	276117	5.62263230676763E-05
2	463	110.033272722193	1.05880737304688	1.05926513671875	3.86383056640625E-06	4.09282074542716E-06	274148.96875	5.66121052543167E-05
2	464	110.133980721938	1.06887817382813	1.0687255859375	3.90380859375E-06	4.17210003433865E-06	273764.84375	5.70032389077824E-05
2	465	110.234688721684	1.07894897460938	1.0784912109375	3.91387939453125E-06	4.22108450948144E-06	275555.5625	5.73968900425825E-05
2	466	110.33539672143	1.08901977539063	1.0888671875	3.89404296875E-06	4.2400956772326E-06	279623.8125	5.77900500502437E-05
2	467	110.436104721176	1.09909057617188	1.09893798828125	3.85223388671875E-06	4.23336632593418E-06	285272.90625	5.81801068619825E-05
2	468	110.536812720921	1.10916137695313	1.109619140625	3.79547119140625E-06	4.21152708440786E-06	292353.46875	5.85651978326496E-05
2	469	110.637520720667	1.11923217773438	1.119384765625	3.731689453125E-06	4.17719593315269E-06	299967.3125	5.89442206546664E-05
2	470	110.738228720413	1.12930297851563	1.129150390625	3.66485595703125E-06	4.13817360822577E-06	308102.25	5.93166660110001E-05
2	471	110.838936720159	1.13937377929688	1.1395263671875	3.60076904296875E-06	4.10317124988069E-06	316467.5	5.96825193497352E-05
2	472	110.939644719904	1.14944458007813	1.1492919921875	3.54034423828125E-06	4.06888921133941E-06	324627.1875	6.00421044509858E-05
2	473	111.04035271965	1.15951538085938	1.15966796875	3.485107421875E-06	4.04156708100345E-06	332749.5625	6.03958615101874E-05
2	474	111.141060719396	1.16958618164063	1.16943359375	3.43536376953125E-06	4.01742954636575E-06	340410.4375	6.07443362241611E-05
2	475	111.241768719142	1.17965698242188	1.17950439453125	3.3917236328125E-06	4.00055296267965E-06	347759.59375	6.1088110669516E-05
2	476	111.342476718887	1.18972778320313	1.1895751953125	3.3544921875E-06	3.99042073695455E-06	354621.5625	6.14278033026494E-05
2	477	111.443184718633	1.19979858398438	1.199951171875	3.3233642578125E-06	3.98787460653693E-06	361065.21875	6.17640616837889E-05
2	478	111.543892718379	1.20986938476563	1.20941162109375	3.2989501953125E-06	3.98978863813682E-06	366605	6.20975260972045E-05
2	479	111.644600718124	1.21994018554688	1.2200927734375	3.2818603515625E-06	4.00417411583476E-06	371768.65625	6.24288950348273E-05
2	480	111.74530871787	1.23001098632813	1.23046875	3.27301025390625E-06	4.02733667215216E-06	375944.0625	6.27589543000795E-05
2	481	111.846016717616	1.24008178710938	1.23992919921875	3.27362060546875E-06	4.05905757361325E-06	378763.875	6.30886061117053E-05
2	482	111.946724717362	1.25015258789063	1.24969482421875	3.2843017578125E-06	4.10437496611848E-06	380505.46875	6.3418825448025E-05
2	483	112.047432717107	1.26022338867188	1.26068115234375	3.30841064453125E-06	4.17085084336577E-06	381053.40625	6.37507910141721E-05
2	484	112.148140716853	1.27029418945313	1.27044677734375	3.34228515625E-06	4.24619520345004E-06	380113.25	6.40856815152802E-05
2	485	112.248848716599	1.28036499023438	1.280517578125	3.38592529296875E-06	4.33573677582899E-06	378188.375	6.44244719296694E-05
2	486	112.349556716345	1.29043579101563	1.290283203125	3.43536376953125E-06	4.43259204985225E-06	375588.53125	6.47679553367198E-05
2	487	112.45026471609	1.30050659179688	1.3006591796875	3.4857177734375E-06	4.53373104392085E-06	373139.5625	6.51164591545239E-05
2	488	112.550972715836	1.31057739257813	1.31072998046875	3.53424072265625E-06	4.63243532067281E-06	370866.0625	6.54699397273362E-05
2	489	112.651680715582	1.32064819335938	1.32049560546875	3.57666015625E-06	4.72296369480318E-06	369197.96875	6.58280041534454E-05
2	490	112.752388715328	1.33071899414063	1.33056640625	3.61175537109375E-06	4.80568041894003E-06	368398.8125	6.61899684928358E-05
2	491	112.853096715073	1.34078979492188	1.34033203125	3.638916015625E-06	4.87735542265E-06	368332.78125	6.65550687699579E-05
2	492	112.953804714819	1.35086059570313	1.3507080078125	3.660888671875E-06	4.944791271555E-06	368956.34375	6.69226428726688E-05
2	493	113.054512714565	1.36093139648438	1.36077880859375	3.67889404296875E-06	5.00616124554654E-06	369888.03125	6.72922324156389E-05
2	494	113.155220714311	1.37100219726563	1.370849609375	3.6962890625E-06	5.06705646330374E-06	370871.875	6.76635972922668E-05
2	495	113.255928714056	1.38107299804688	1.38092041015625	3.71490478515625E-06	5.12998803969822E-06	371724.3125	6.80367811582983E-05
2	496	113.356636713802	1.39114379882813	1.39129638671875	3.7371826171875E-06	5.19952845934313E-06	372284.8125	6.84120241203345E-05
2	497	113.457344713548	1.40121459960938	1.40106201171875	3.765869140625E-06	5.27621614310192E-06	372042.15625	6.87898354954086E-05
2	498	113.558052713293	1.41128540039063	1.41143798828125	3.80096435546875E-06	5.36482548341155E-06	371336.8125	6.91708555677906E-05
2	499	113.658760713039	1.42135620117188	1.42181396484375	3.84674072265625E-06	5.46934961676016E-06	369615.25	6.95559501764365E-05
2	500	113.759468712785	1.43142700195313	1.4312744140625	3.90350341796875E-06	5.58698457098217E-06	366664.0625	6.99462034390308E-05
2	501	113.860176712531	1.44149780273438	1.4422607421875	3.9752197265625E-06	5.73330316910869E-06	362812.875	7.03429323039018E-05
2	502	113.960884712276	1.45156860351563	1.45172119140625	4.0631103515625E-06	5.89850333199138E-06	357293.09375	7.07476938259788E-05
2	503	114.061592712022	1.46163940429688	1.46148681640625	4.16961669921875E-06	6.09383960181731E-06	350508.6875	7.11622415110469E-05
2	504	114.162300711768	1.47171020507813	1.4715576171875	4.29595947265625E-06	6.32175215287134E-06	342544.5625	7.15885180397891E-05
2	505	114.263008711514	1.48178100585938	1.48162841796875	4.443359375E-06	6.58340695736115E-06	333447.8125	7.20285752322525E-05
2	506	114.363716711259	1.49185180664063	1.49200439453125	4.61334228515625E-06	6.88312684360426E-06	323410.71875	7.24846177035943E-05
2	507	114.464424711005	1.50192260742188	1.50177001953125	4.80438232421875E-06	7.21507694834145E-06	312583.375	7.29588355170563E-05
2	508	114.565132710751	1.49185180664063	1.49169921875	4.407958984375E-06	6.57534883430344E-06	338410.4375	7.34227141947486E-05
2	509	114.665840710497	1.48178100585938	1.48193359375	4.10736083984375E-06	6.08683603786631E-06	360799.46875	7.385149365291E-05
2	510	114.766548710242	1.47171020507813	1.47125244140625	3.8690185546875E-06	5.69230314795277E-06	380265.03125	7.42531410651281E-05
2	511	114.867256709988	1.46163940429688	1.4617919921875	3.67584228515625E-06	5.3733165259473E-06	397675.40625	7.46330551919527E-05
2	512	114.967964709734	1.45156860351563	1.45172119140625	3.51654052734375E-06	5.10503605255508E-06	412826.53125	7.49952159821987E-05
2	513	115.06867270948	1.44149780273438	1.44134521484375	3.3843994140625E-06	4.87808802063228E-06	425879.15625	7.53427084418945E-05
2	514	115.169380709225	1.43142700195313	1.43157958984375	3.27423095703125E-06	4.68732241643011E-06	437226.21875	7.56779991206713E-05
2	515	115.270088708971	1.42135620117188	1.42120361328125	3.17962646484375E-06	4.51889673058758E-06	446971.875	7.60029724915512E-05
2	516	115.370796708717	1.41128540039063	1.41082763671875	3.09783935546875E-06	4.37051721746684E-06	455423.125	7.63190691941418E-05
2	517	115.471504708462	1.40121459960938	1.4013671875	3.0255126953125E-06	4.23985420638928E-06	463183.40625	7.6627402449958E-05
2	518	115.572212708208	1.39114379882813	1.3909912109375	2.95928955078125E-06	4.11634573538322E-06	470042.28125	7.69287653383799E-05
2	519	115.672920707954	1.38107299804688	1.3812255859375	2.8961181640625E-06	4.0001923480304E-06	476923.09375	7.72236089687794E-05
2	520	115.7736287077	1.37100219726563	1.370849609375	2.83294677734375E-06	3.88354374081246E-06	483895.3125	7.75120861362666E-05
2	521	115.874336707445	1.36093139648438	1.36138916015625	2.76702880859375E-06	3.76700290871668E-06	492004	7.77940731495619E-05
2	522	115.975044707191	1.35086059570313	1.35101318359375	2.69561767578125E-06	3.64181505574379E-06	501188.71875	7.80691334512085E-05
2	523	116.075752706937	1.34078979492188	1.34063720703125	2.615966796875E-06	3.50706227436604E-06	512482.53125	7.83365976531059E-05
2	524	116.176460706683	1.33071899414063	1.33026123046875	2.52593994140625E-06	3.36015978064097E-06	526640.125	7.85955126048066E-05
2	525	116.277168706428	1.32064819335938	1.32080078125	2.42584228515625E-06	3.20405433740234E-06	544471	7.8844852396287E-05
2	526	116.377876706174	1.31057739257813	1.3104248046875	2.3193359375E-06	3.03931528833346E-06	565000	7.90837948443368E-05
2	527	116.47858470592	1.30050659179688	1.3006591796875	2.2119140625E-06	2.87694638245739E-06	588024.25	7.931196159916E-05
2	528	116.579292705666	1.29043579101563	1.29058837890625	2.11090087890625E-06	2.72430406766944E-06	611392.25	7.95296291471459E-05
2	529	116.680000705411	1.28036499023438	1.280517578125	2.0233154296875E-06	2.59089097198739E-06	632880.875	7.97378015704453E-05
2	530	116.780708705157	1.27029418945313	1.27044677734375	1.95281982421875E-06	2.48095352617383E-06	650570.4375	7.99380213720724E-05
2	531	116.881416704903	1.26022338867188	1.26007080078125	1.9024658203125E-06	2.39724158745958E-06	662335.5625	8.01321439212188E-05
2	532	116.982124704649	1.25015258789063	1.25030517578125	1.868896484375E-06	2.33669084082067E-06	669007.1875	8.03220536909066E-05
2	533	117.082832704394	1.24008178710938	1.2396240234375	1.84844970703125E-06	2.29138254326244E-06	670629.0625	8.05092349764891E-05
2	534	117.18354070414	1.23001098632813	1.229248046875	1.837158203125E-06	2.25832309297402E-06	669103	8.06948155513965E-05
2	535	117.284248703886	1.21994018554688	1.219482421875	1.83135986328125E-06	2.23331107918057E-06	665889.0625	8.0879544839263E-05
2	536	117.384956703631	1.20986938476563	1.21002197265625	1.82769775390625E-06	2.21155437429843E-06	662047.125	8.10637939139269E-05
2	537	117.485664703377	1.19979858398438	1.1993408203125	1.824951171875E-06	2.1887383354624E-06	657190.625	8.12477155704983E-05
2	538	117.586372703123	1.18972778320313	1.18988037109375	1.82159423828125E-06	2.16747912418214E-06	653208.25	8.14313316368498E-05
2	539	117.687080702869	1.17965698242188	1.17950439453125	1.81671142578125E-06	2.14281908483827E-06	649252.5	8.16145402495749E-05
2	540	117.787788702614	1.16958618164063	1.16973876953125	1.8109130859375E-06	2.11829524232598E-06	645938.6875	8.1797203165479E-05
2	541	117.88849670236	1.15951538085938	1.15966796875	1.80145263671875E-06	2.08908681997855E-06	643740.5	8.19791021058336E-05
2	542	117.989204702106	1.14944458007813	1.14990234375	1.7889404296875E-06	2.05710671252746E-06	642784.0625	8.21598878246732E-05
2	543	118.089912701852	1.13937377929688	1.138916015625	1.77154541015625E-06	2.01764146368077E-06	642894.0625	8.23391746962443E-05
2	544	118.190620701597	1.12930297851563	1.129150390625	1.74591064453125E-06	1.9713957044587E-06	646740.125	8.25162933324464E-05
2	545	118.291328701343	1.11923217773438	1.1187744140625	1.71234130859375E-06	1.9157234874001E-06	653359.5	8.26904288260266E-05
2	546	118.392036701089	1.10916137695313	1.1090087890625	1.6668701171875E-06	1.84857356089196E-06	665324.0625	8.28605843707919E-05
2	547	118.492744700835	1.09909057617188	1.09893798828125	1.605224609375E-06	1.76404228113825E-06	684600.75	8.30253484309651E-05
2	548	118.59345270058	1.08901977539063	1.08856201171875	1.5252685546875E-06	1.66034942594706E-06	713685.5	8.31829820526764E-05
2	549	118.694160700326	1.07894897460938	1.0791015625	1.4239501953125E-06	1.53658686485869E-06	757822.5625	8.33314916235395E-05
2	550	118.794868700072	1.06887817382813	1.0687255859375	1.30157470703125E-06	1.39102621687925E-06	821102	8.34687307360582E-05
2	551	118.895576699818	1.05880737304688	1.058349609375	1.162109375E-06	1.22991798434668E-06	910714.3125	8.359278581338E-05
2	552	118.996284699563	1.04873657226563	1.04888916015625	1.01165771484375E-06	1.06111679087917E-06	1036802.4375	8.37022453197278E-05
2	553	119.096992699309	1.03866577148438	1.03851318359375	8.64562988281251E-07	8.97860047643917E-07	1201200.125	8.37967163533904E-05
2	554	119.197700699055	1.02859497070313	1.02783203125	7.31811523437501E-07	7.52179289520427E-07	1404503.75	8.38771011331119E-05
2	555	119.2984086988	1.01852416992188	1.0186767578125	6.2530517578125E-07	6.36983827462245E-07	1629087.375	8.39454369270243E-05
2	556	119.399116698546	1.00845336914063	1.00830078125	5.50537109375E-07	5.55106964839069E-07	1831485.625	8.40046486700885E-05
2	557	119.499824698292	0.998382568359375	0.99822998046875	5.09033203125001E-07	5.08132188770105E-07	1961031.125	8.40580032672733E-05
2	558	119.600532698038	0.988311767578125	0.9881591796875	4.9407958984375E-07	4.88229261463857E-07	2000000	8.4108512965031E-05
2	559	119.701240697783	0.978240966796875	0.97808837890625	4.98046875E-07	4.87133831938991E-07	1963848.125	8.415846969001E-05
2	560	119.801948697529	0.968170166015625	0.968017578125	5.08728027343749E-07	4.92457672862656E-07	1902819.5	8.4209161286708E-05
2	561	119.902656697275	0.958099365234375	0.95794677734375	5.157470703125E-07	4.9405821300752E-07	1857396.5	8.42607478261925E-05
2	562	120.003364697021	0.948028564453125	0.948486328125	5.096435546875E-07	4.83389953842561E-07	1861077.875	8.43123852973804E-05
2	563	120.104072696766	0.937957763671875	0.9381103515625	4.81262207031249E-07	4.51477035312564E-07	1949270.875	8.43622765387408E-05
2	564	120.204780696512	0.927886962890625	0.9283447265625	4.241943359375E-07	3.93798558206981E-07	2188489.25	8.44078749651089E-05
2	565	120.305488696258	0.917816162109375	0.91796875	3.3416748046875E-07	3.06755310930384E-07	2747032	8.44460591906682E-05
2	566	120.406196696004	0.907745361328125	0.908203125	2.1026611328125E-07	1.90964343005362E-07	4319303.5	8.44734749989584E-05
2	567	120.506904695749	0.897674560546875	0.8978271484375	5.24902343749994E-08	4.71271555113617E-08	17104652	8.4486702689901E-05
2	568	120.607612695495	0.887603759765625	0.88775634765625	-1.26953125E-07	-1.12703439469897E-07	-6992788.5	8.44829555717297E-05
2	569	120.708320695241	0.877532958984375	0.87799072265625	-3.155517578125E-07	-2.77051498187575E-07	-2782398.5	8.44606765895151E-05
2	570	120.809028694987	0.867462158203125	0.8673095703125	-4.93774414062501E-07	-4.28255248152709E-07	-1756489.625	8.4419923950918E-05
2	571	120.909736694732	0.857391357421875	0.8575439453125	-6.44836425781251E-07	-5.52975564005465E-07	-1329862.75	8.43625894049183E-05
2	572	121.010444694478	0.847320556640625	0.84716796875	-7.54699707031251E-07	-6.39357381260197E-07	-1122523.25	8.42921144794673E-05
2	573	121.111152694224	0.837249755859375	0.83740234375	-8.1634521484375E-07	-6.83609414409148E-07	-1025794.375	8.42130029923283E-05
2	574	121.211860693969	0.827178955078125	0.82733154296875	-8.319091796875E-07	-6.88264719883591E-07	-994497.4375	8.41300134197809E-05
2	575	121.312568693715	0.817108154296875	0.8172607421875	-8.12683105468751E-07	-6.64173967379611E-07	-1005632.75	8.40471984702162E-05
2	576	121.413276693461	0.807037353515625	0.8074951171875	-7.720947265625E-07	-6.234627107915E-07	-1045849.8125	8.39673957671039E-05
2	577	121.513984693207	0.796966552734375	0.797119140625	-7.26318359375E-07	-5.78962215058709E-07	-1097479	8.38919440866448E-05
2	578	121.614692692952	0.786895751953125	0.7867431640625	-6.89697265625E-07	-5.42614600362867E-07	-1140708	8.38206469779834E-05
2	579	121.715400692698	0.776824951171875	0.7769775390625	-6.7169189453125E-07	-5.21889489846217E-07	-1156747	8.37520929053426E-05
2	580	121.816108692444	0.766754150390625	0.76690673828125	-6.817626953125E-07	-5.2284838147898E-07	-1124888.125	8.36839390103705E-05
2	581	121.91681669219	0.756683349609375	0.75714111328125	-7.305908203125E-07	-5.53160305116762E-07	-1036340.875	8.36128238006495E-05
2	582	122.017524691935	0.746612548828125	0.746551513671875	-8.2000732421875E-07	-6.12177700531902E-07	-910420.5625	8.35347454994917E-05
2	583	122.118232691681	0.736541748046875	0.736480712890625	-9.5184326171875E-07	-7.01014187143301E-07	-773741.625	8.34455277072266E-05
2	584	122.218940691427	0.726470947265625	0.726409912109375	-1.12213134765625E-06	-8.15127293662954E-07	-647348.4375	8.33410958875902E-05
2	585	122.319648691173	0.716400146484375	0.71636962890625	-1.32049560546875E-06	-9.45962938203593E-07	-542500.5625	8.32180958241224E-05
2	586	122.420356690918	0.706329345703125	0.706298828125	-1.52923583984375E-06	-1.08009737687098E-06	-461863.9375	8.30745993880555E-05
2	587	122.521064690664	0.696258544921875	0.69622802734375	-1.72698974609375E-06	-1.20237859846384E-06	-403145.4375	8.29106356832199E-05
2	588	122.62177269041	0.686187744140625	0.686126708984375	-1.88720703125E-06	-1.29486306832405E-06	-363567.28125	8.27286494313739E-05
2	589	122.722480690156	0.676116943359375	0.6761474609375	-1.99615478515625E-06	-1.34969491227821E-06	-338725	8.25331080704927E-05
2	590	122.823188689901	0.666046142578125	0.666015625	-2.0428466796875E-06	-1.36056769406423E-06	-326023.34375	8.23297232273035E-05
2	591	122.923896689647	0.655975341796875	0.655975341796875	-2.0294189453125E-06	-1.33124876811053E-06	-323233.09375	8.21246721898206E-05
2	592	123.024604689393	0.645904541015625	0.645904541015625	-1.96868896484375E-06	-1.27158500617952E-06	-328088.6875	8.19233464426361E-05
2	593	123.125312689138	0.635833740234375	0.63580322265625	-1.873779296875E-06	-1.19135495424416E-06	-339315.96875	8.17298641777597E-05
2	594	123.226020688884	0.625762939453125	0.625762939453125	-1.7633056640625E-06	-1.10341125036939E-06	-354880.59375	8.15467210486531E-05
2	595	123.32672868863	0.615692138671875	0.615692138671875	-1.64794921875E-06	-1.0146293334401E-06	-373611.125	8.13749575172551E-05
2	596	123.427436688376	0.605621337890625	0.6055908203125	-1.53533935546875E-06	-9.29787347558886E-07	-394434.53125	8.1214660895057E-05
2	597	123.528144688121	0.595550537109375	0.595611572265625	-1.42913818359375E-06	-8.51211211738701E-07	-416762.78125	8.10653873486444E-05
2	598	123.628852687867	0.585479736328125	0.585540771484375	-1.3311767578125E-06	-7.79458218858053E-07	-439867.0625	8.09263947303407E-05
2	599	123.729560687613	0.575408935546875	0.575408935546875	-1.24114990234375E-06	-7.14168720605812E-07	-463609.53125	8.0796868132893E-05
2	600	123.830268687359	0.565338134765625	0.5653076171875	-1.16058349609375E-06	-6.56086683648027E-07	-487089.15625	8.06759344413877E-05
2	601	123.930976687104	0.555267333984375	0.55523681640625	-1.08673095703125E-06	-6.03393004894315E-07	-510923.9375	8.05627714726143E-05
2	602	124.03168468685	0.545196533203125	0.54522705078125	-1.01959228515625E-06	-5.55909252852871E-07	-534750.125	8.04567098384723E-05
2	603	124.132392686596	0.535125732421875	0.53515625	-9.58862304687499E-07	-5.13141173996701E-07	-558115.875	8.03570874268189E-05
2	604	124.233100686342	0.525054931640625	0.525115966796875	-9.0362548828125E-07	-4.74508141223851E-07	-581121.25	8.02633003331721E-05
2	605	124.333808686087	0.514984130859375	0.514984130859375	-8.52355957031251E-07	-4.38949768977182E-07	-604189.0625	8.01748828962445E-05
2	606	124.434516685833	0.504913330078125	0.504913330078125	-8.0596923828125E-07	-4.06944593578373E-07	-626467.3125	8.00913767307065E-05
2	607	124.535224685579	0.494842529296875	0.494903564453125	-7.6263427734375E-07	-3.77430410480883E-07	-648939.5625	8.00123962108046E-05
2	608	124.635932685325	0.484771728515625	0.484771728515625	-7.22656250000001E-07	-3.50323318798473E-07	-670819.25	7.99376066424884E-05
2	609	124.73664068507	0.474700927734375	0.474761962890625	-6.85729980468749E-07	-3.25558488611932E-07	-692345.375	7.98666878836229E-05
2	610	124.837348684816	0.464630126953125	0.464630126953125	-6.5155029296875E-07	-3.02729887380337E-07	-713114.75	7.97993488959037E-05
2	611	124.938056684562	0.454559326171875	0.454559326171875	-6.1920166015625E-07	-2.81463883311517E-07	-734105.4375	7.97353568486869E-05
2	612	125.038764684307	0.444488525390625	0.44451904296875	-5.8929443359375E-07	-2.6195257873951E-07	-754324.1875	7.96745080151595E-05
2	613	125.139472684053	0.434417724609375	0.4344482421875	-5.615234375E-07	-2.4395288278356E-07	-773695.625	7.96165622887202E-05
2	614	125.240180683799	0.424346923828125	0.424346923828125	-5.3558349609375E-07	-2.27273190489541E-07	-792307.75	7.95613159425557E-05
2	615	125.340888683545	0.414276123046875	0.414337158203125	-5.1116943359375E-07	-2.11796489679728E-07	-810567.125	7.95086089055985E-05
2	616	125.44159668329	0.404205322265625	0.404296875	-4.87060546875E-07	-1.96917056882739E-07	-830075.1875	7.94583393144421E-05
2	617	125.542304683036	0.394134521484375	0.394195556640625	-4.64477539062499E-07	-1.83094982730836E-07	-848685.9375	7.94104271335527E-05
2	618	125.643012682782	0.384063720703125	0.38409423828125	-4.43420410156251E-07	-1.70315217928874E-07	-866207.875	7.93647122918628E-05
2	619	125.743720682528	0.373992919921875	0.3740234375	-4.2266845703125E-07	-1.58087900103965E-07	-884909.75	7.93211002019234E-05
2	620	125.844428682273	0.363922119140625	0.36395263671875	-4.0283203125E-07	-1.46611782270156E-07	-903484.875	7.92795326560736E-05
2	621	125.945136682019	0.353851318359375	0.3538818359375	-3.83911132812501E-07	-1.35859181682463E-07	-921780.625	7.9239922342822E-05
2	622	126.045844681765	0.343780517578125	0.34381103515625	-3.6651611328125E-07	-1.26012281498333E-07	-938051.625	7.92021310189739E-05
2	623	126.146552681511	0.333709716796875	0.333770751953125	-3.4942626953125E-07	-1.16628271484842E-07	-955196.5	7.91660786489956E-05
2	624	126.247260681256	0.323638916015625	0.32366943359375	-3.3416748046875E-07	-1.08159802891805E-07	-968584.5	7.91316560935229E-05
2	625	126.347968681002	0.313568115234375	0.313629150390625	-3.1890869140625E-07	-1.00019057924783E-07	-983445	7.90987760410644E-05
2	626	126.448676680748	0.303497314453125	0.303497314453125	-3.0487060546875E-07	-9.25274150631594E-08	-995495.5	7.9067365732044E-05
2	627	126.549384680494	0.293426513671875	0.29345703125	-2.911376953125E-07	-8.5436404617667E-08	-1007966.4375	7.90373524068855E-05
2	628	126.650092680239	0.283355712890625	0.28338623046875	-2.789306640625E-07	-7.90451082366417E-08	-1015973.75	7.90086487540975E-05
2	629	126.750800679985	0.273284912109375	0.2733154296875	-2.67639160156249E-07	-7.31499127937241E-08	-1021208.625	7.89811238064431E-05
2	630	126.851508679731	0.263214111328125	0.263275146484375	-2.56958007812499E-07	-6.76506530794541E-08	-1024584.3125	7.89547120803036E-05
2	631	126.952216679476	0.253143310546875	0.253204345703125	-2.47802734374999E-07	-6.27447249712532E-08	-1021798.125	7.89292971603572E-05
2	632	127.052924679222	0.243072509765625	0.2431640625	-2.3956298828125E-07	-5.82531072268466E-08	-1015031.875	7.89047553553246E-05
2	633	127.153632678968	0.233001708984375	0.2330322265625	-2.32543945312499E-07	-5.41902309691977E-08	-1002099.75	7.88809775258414E-05
2	634	127.254340678714	0.222930908203125	0.22296142578125	-2.2735595703125E-07	-5.0691607356157E-08	-980671.125	7.88578254287131E-05
2	635	127.355048678459	0.212860107421875	0.212921142578125	-2.2430419921875E-07	-4.77591051151194E-08	-949251.75	7.88350807852112E-05
2	636	127.455756678205	0.202789306640625	0.202850341796875	-2.23693847656251E-07	-4.53763746577351E-08	-906821.3125	7.88125180406496E-05
2	637	127.556464677951	0.192718505859375	0.1927490234375	-2.26745605468751E-07	-4.37049934021161E-08	-850067.3125	7.87898388807662E-05
2	638	127.657172677697	0.182647705078125	0.18267822265625	-2.33154296875E-07	-4.25922124236422E-08	-783507.875	7.87666795076802E-05
2	639	127.757880677442	0.172576904296875	0.172637939453125	-2.45361328125E-07	-4.23586712372526E-08	-703607	7.87425888120197E-05
2	640	127.858588677188	0.162506103515625	0.16253662109375	-2.63671875E-07	-4.28563353693789E-08	-616435.1875	7.87169556133449E-05
2	641	127.959296676934	0.152435302734375	0.152557373046875	-2.89306640625001E-07	-4.41358594116537E-08	-527320.6875	7.86891105235554E-05
2	642	128.06000467668	0.142364501953125	0.142425537109375	-3.2470703125E-07	-4.62465727935069E-08	-438627.8125	7.86581949796528E-05
2	643	128.160712676425	0.132293701171875	0.13232421875	-3.7200927734375E-07	-4.92258358519848E-08	-355701.375	7.86231103120372E-05
2	644	128.261420676171	0.122222900390625	0.12237548828125	-4.345703125E-07	-5.31807522463623E-08	-281601.125	7.85824959166348E-05
2	645	128.362128675917	0.112152099609375	0.11224365234375	-5.19409179687499E-07	-5.83003831877704E-08	-216098.703125	7.8534460044466E-05
2	646	128.462836675663	0.102081298828125	0.102203369140625	-6.304931640625E-07	-6.44385238501854E-08	-162100.671875	7.84765579737723E-05
2	647	128.563544675408	0.092010498046875	0.092071533203125	-7.74230957031249E-07	-7.12846315309434E-08	-118919.984375	7.84058211138472E-05
2	648	128.664252675154	0.081939697265625	0.082061767578125	-9.53369140625E-07	-7.82351534667214E-08	-86075.546875	7.8318829764612E-05
2	649	128.7649606749	0.071868896484375	0.071990966796875	-1.16607666015625E-06	-8.39469862512487E-08	-61737.76171875	7.82121060183272E-05
2	650	128.865668674645	0.061798095703125	0.0618896484375	-1.4031982421875E-06	-8.68434426593012E-08	-44106.1328125	7.80827322159894E-05
2	651	128.966376674391	0.051727294921875	0.0518798828125	-1.6510009765625E-06	-8.56537383242539E-08	-31423.291015625	7.7928947575856E-05
2	652	129.067084674137	0.041656494140625	0.0417938232421875	-1.88934326171875E-06	-7.89628771258322E-08	-22120.8203125	7.77506720623933E-05
2	653	129.167792673883	0.031585693359375	0.03172607421875	-2.09747314453125E-06	-6.65445867298331E-08	-15125.85546875	7.75499211158603E-05
2	654	129.268500673628	0.021514892578125	0.0216644287109375	-2.25311279296875E-06	-4.88124030084691E-08	-9615.3330078125	7.73308493080549E-05
2	655	129.369208673374	0.011444091796875	0.0115966796875	-2.3468017578125E-06	-2.72151083891004E-08	-4941.482421875	7.7099226473365E-05
2	656	129.46991667312	0.001373291015625	0.0015228271484375	-2.37579345703125E-06	-3.61792285019646E-09	-640.976257324219	7.68614263506606E-05
2	657	129.570624672866	-0.008697509765625	-0.00853271484375	-2.3504638671875E-06	2.00558378793403E-08	3630.22607421875	7.66234443290159E-05
2	658	129.671332672611	-0.018768310546875	-0.0186187744140625	-2.28668212890625E-06	4.25752162414028E-08	8142.26611328125	7.63899442972615E-05
2	659	129.772040672357	-0.028839111328125	-0.0286712646484375	-2.20123291015625E-06	6.31121253036326E-08	13025.0947265625	7.61639603297226E-05
2	660	129.872748672103	-0.038909912109375	-0.038726806640625	-2.10723876953125E-06	8.16066290099116E-08	18377.986328125	7.59470058255829E-05
2	661	129.973456671849	-0.048980712890625	-0.048785400390625	-2.01385498046875E-06	9.8246722757267E-08	24224.880859375	7.57394955144264E-05
2	662	130.074164671594	-0.059051513671875	-0.058929443359375	-1.9268798828125E-06	1.13549951663572E-07	30582.833984375	7.55410655983724E-05
2	663	130.17487267134	-0.069122314453125	-0.0689697265625	-1.84661865234375E-06	1.27360777923968E-07	37349.19921875	7.5351053965278E-05
2	664	130.275580671086	-0.079193115234375	-0.0791015625	-1.7755126953125E-06	1.40445820306923E-07	44551.39453125	7.51686675357632E-05
2	665	130.376288670832	-0.089263916015625	-0.089141845703125	-1.71234130859375E-06	1.52641263184705E-07	52058.45703125	7.49930331949145E-05
2	666	130.476996670577	-0.099334716796875	-0.099273681640625	-1.6571044921875E-06	1.64506857913693E-07	59907.921875	7.48233724152669E-05
2	667	130.577704670323	-0.109405517578125	-0.1092529296875	-1.60858154296875E-06	1.75742243868626E-07	67918.796875	7.46589284972288E-05
2	668	130.678412670069	-0.119476318359375	-0.119384765625	-1.56707763671875E-06	1.87085191782899E-07	76183.0625	7.44990247767419E-05
2	669	130.779120669814	-0.129547119140625	-0.12939453125	-1.53045654296875E-06	1.98032708453866E-07	84546.359375	7.43430500733666E-05
2	670	130.87982866956	-0.139617919921875	-0.1395263671875	-1.4984130859375E-06	2.09068133472101E-07	93116.0859375	7.41905314498581E-05
2	671	130.980536669306	-0.149688720703125	-0.1495361328125	-1.47186279296875E-06	2.200966662258E-07	101596.515625	7.40409668651409E-05
2	672	131.081244669052	-0.159759521484375	-0.1595458984375	-1.4483642578125E-06	2.31080562684838E-07	110155.9296875	7.38939270377159E-05
2	673	131.181952668797	-0.169830322265625	-0.169647216796875	-1.42974853515625E-06	2.42552857798728E-07	118655.28125	7.3748997237999E-05
2	674	131.282660668543	-0.179901123046875	-0.179718017578125	-1.41387939453125E-06	2.54099575158762E-07	127109.8671875	7.36058136681095E-05
2	675	131.383368668289	-0.189971923828125	-0.189727783203125	-1.40289306640625E-06	2.66167802465134E-07	135240.375	7.34639761503786E-05
2	676	131.484076668035	-0.200042724609375	-0.199859619140625	-1.395263671875E-06	2.78856873592304E-07	143241.46875	7.33230772311799E-05
2	677	131.58478466778	-0.189971923828125	-0.1898193359375	-1.2493896484375E-06	2.37158303662E-07	151929.65625	7.31899126549251E-05
