Potential - Start -0.2 V, Upper Vertex 1.5 V, Lower Vertex -0.2 V, Stop -0.19 V; Scan - # end cross 5, Rate 0.1 Vps, Step 0.01 V 
Scan	Index	Time (s)	Potential applied (V)	WE(1).Potential (V)	WE(1).Current (A)	WE(1).Power (W)	WE(1).Resistance (Ω)	WE(1).Charge (C)
1	1	66.1505728329859	-0.189971923828125	-0.1898193359375	-1.861572265625E-07	3.5336238823902E-08	1019672.125	0
1	2	66.2512808327316	-0.179901123046875	-0.179718017578125	-1.5533447265625E-07	2.79164016347977E-08	1156974.5	-1.71954717131939E-08
1	3	66.3519888324773	-0.169830322265625	-0.169708251953125	-1.30615234375001E-07	2.21664837596336E-08	1299299.125	-3.15941832695898E-08
1	4	66.4526968322231	-0.159759521484375	-0.159637451171875	-1.08947753906249E-07	1.73921410606681E-08	1465266.125	-4.36571383488626E-08
1	5	66.5534048319688	-0.149688720703125	-0.149627685546875	-8.97216796875003E-08	1.34248470118337E-08	1667687	-5.3660937027189E-08
1	6	66.6541128317145	-0.139617919921875	-0.1395263671875	-7.11059570312506E-08	9.92115634090851E-09	1962231.75	-6.17592519347454E-08
1	7	66.7548208314603	-0.129547119140625	-0.12939453125	-5.27954101562506E-08	6.83143674962139E-09	2450867.25	-6.79981795315143E-08
1	8	66.855528831206	-0.119476318359375	-0.119354248046875	-3.41796874999994E-08	4.07949052316781E-09	3491964.5	-7.23777233702094E-08
1	9	66.9562368309518	-0.109405517578125	-0.109283447265625	-1.373291015625E-08	1.50077972271845E-09	7957778	-7.4790314386064E-08
1	10	67.0569448306975	-0.099334716796875	-0.099212646484375	1.068115234375E-08	-1.05970532349176E-09	-9288572	-7.49439834635268E-08
1	11	67.1576528304432	-0.089263916015625	-0.089263916015625	3.84521484374997E-08	-3.43238926170386E-09	-2321428.75	-7.2469930501029E-08
1	12	67.258360830189	-0.079193115234375	-0.079193115234375	7.41577148437506E-08	-5.87278004005043E-09	-1067901.25	-6.6799572095988E-08
1	13	67.3590688299347	-0.069122314453125	-0.069091796875	1.19934082031251E-07	-8.28646129491517E-09	-576081.4375	-5.70262734811422E-08
1	14	67.4597768296804	-0.059051513671875	-0.058990478515625	1.81884765625E-07	-1.07294688689308E-08	-324328.875	-4.18284855641105E-08
1	15	67.5604848294262	-0.048980712890625	-0.0488525390625	2.6397705078125E-07	-1.28959500855785E-08	-185063.578125	-1.93775608892111E-08
1	16	67.6611928291719	-0.038909912109375	-0.0387298583984375	3.7200927734375E-07	-1.44078668995462E-08	-104109.921875	1.26468959749104E-08
1	17	67.7619008289176	-0.028839111328125	-0.028680419921875	5.1300048828125E-07	-1.47130689853725E-08	-55907.19921875	5.72106770846403E-08
1	18	67.8626088286634	-0.018768310546875	-0.01865234375	6.8817138671875E-07	-1.28360095885682E-08	-27104.212890625	1.17694483492414E-07
1	19	67.9633168284091	-0.008697509765625	-0.00863037109375001	8.953857421875E-07	-7.72751018729423E-09	-9638.71875	1.97432925119756E-07
1	20	68.0640248281549	0.001373291015625	0.00145874023437501	1.12457275390625E-06	1.6404594349595E-09	1297.15063476563	2.99145909821164E-07
1	21	68.1647328279006	0.011444091796875	0.0115692138671875	1.35894775390625E-06	1.57219570695588E-08	8513.361328125	4.24201090254428E-07
1	22	68.2654408276463	0.021514892578125	0.0215850830078125	1.5740966796875E-06	3.39770060975297E-08	13712.6796875	5.7189163271687E-07
1	23	68.3661488273921	0.031585693359375	0.0316650390625	1.7498779296875E-06	5.54099521821172E-08	18095.5703125	7.392670227091E-07
1	24	68.4668568271378	0.041656494140625	0.0417388916015625	1.871337890625E-06	7.81075684130883E-08	22304.3046875	9.21609739634732E-07
1	25	68.5675648268835	0.051727294921875	0.051788330078125	1.9342041015625E-06	1.00169195604849E-07	26775.009765625	1.11323402052221E-06
1	26	68.6682728266293	0.061798095703125	0.061859130859375	1.94549560546875E-06	1.20346669518767E-07	31796.078125	1.30859234559466E-06
1	27	68.768980826375	0.071868896484375	0.0718994140625	1.91802978515625E-06	1.37905217911793E-07	37486.078125	1.50313633184851E-06
1	28	68.8696888261208	0.081939697265625	0.08197021484375	1.865234375E-06	1.52893662175302E-07	43946.3359375	1.69363875102135E-06
1	29	68.9703968258665	0.092010498046875	0.092010498046875	1.80023193359375E-06	1.65640230420649E-07	51110.359375	1.87820967312291E-06
1	30	69.0711048256122	0.102081298828125	0.10211181640625	1.73187255859375E-06	1.76844650923158E-07	58960.3515625	2.05606534109393E-06
1	31	69.171812825358	0.112152099609375	0.112213134765625	1.66290283203125E-06	1.86599535823007E-07	67480.2734375	2.22700577978685E-06
1	32	69.2725208251037	0.122222900390625	0.122283935546875	1.59912109375E-06	1.9554681784939E-07	76469.46875	2.39126165979542E-06
1	33	69.3732288248494	0.132293701171875	0.132354736328125	1.54022216796875E-06	2.03855691438548E-07	85932.2421875	2.54934025178954E-06
1	34	69.4739368245952	0.142364501953125	0.142425537109375	1.48651123046875E-06	2.11717164688707E-07	95811.9453125	2.70174837169179E-06
1	35	69.5746448243409	0.152435302734375	0.15252685546875	1.43829345703125E-06	2.1937837857422E-07	106047.1015625	2.84902398561826E-06
1	36	69.6753528240866	0.162506103515625	0.16259765625	1.39556884765625E-06	2.26916213819095E-07	116509.953125	2.9917202937213E-06
1	37	69.7760608238324	0.172576904296875	0.172515869140625	1.357421875E-06	2.34176809499331E-07	127090.828125	3.13034433929715E-06
1	38	69.8767688235781	0.182647705078125	0.1827392578125	1.32293701171875E-06	2.41752530882877E-07	138131.484375	3.2653110793035E-06
1	39	69.9774768233239	0.192718505859375	0.192718505859375	1.2921142578125E-06	2.49014334485764E-07	149149.75	3.39698954121559E-06
1	40	70.0781848230696	0.202789306640625	0.2027587890625	1.26434326171875E-06	2.56356713634887E-07	160366.890625	3.52571737494145E-06
1	41	70.1788928228153	0.212860107421875	0.212860107421875	1.239013671875E-06	2.63736581018748E-07	171798.03125	3.6517712942441E-06
1	42	70.2796008225611	0.222930908203125	0.222991943359375	1.21673583984375E-06	2.71322278422303E-07	183270.640625	3.77542824026023E-06
1	43	70.3803088223068	0.233001708984375	0.233062744140625	1.1956787109375E-06	2.78668153441686E-07	194920.875	3.89690285373945E-06
1	44	70.4810168220525	0.243072509765625	0.24310302734375	1.17706298828125E-06	2.86147553651972E-07	206533.59375	4.0163799894799E-06
1	45	70.5817248217983	0.253143310546875	0.25323486328125	1.15966796875E-06	2.93668335871189E-07	218368.421875	4.13404359278502E-06
1	46	70.682432821544	0.263214111328125	0.26324462890625	1.14471435546875E-06	3.01339895258934E-07	229965.34375	4.25007829107926E-06
1	47	70.7831408212897	0.273284912109375	0.273345947265625	1.13037109375E-06	3.08982350816223E-07	241819.65625	4.36463824371458E-06
1	48	70.8838488210355	0.283355712890625	0.28338623046875	1.11724853515625E-06	3.16612840833841E-07	253646.546875	4.4778148549085E-06
1	49	70.9845568207812	0.293426513671875	0.293426513671875	1.10565185546875E-06	3.24427560371987E-07	265387.8125	4.58974682260305E-06
1	50	71.085264820527	0.303497314453125	0.30352783203125	1.09466552734375E-06	3.32261464563999E-07	277279.0625	4.70054146717303E-06
1	51	71.1859728202727	0.313568115234375	0.31365966796875	1.0845947265625E-06	3.40193622605511E-07	289195.28125	4.81027609566809E-06
1	52	71.2866808200184	0.323638916015625	0.323699951171875	1.07574462890625E-06	3.48218492263186E-07	300907.78125	4.91905757371569E-06
1	53	71.3873888197642	0.333709716796875	0.333709716796875	1.06781005859375E-06	3.56338574647452E-07	312517.875	5.02699413118535E-06
1	54	71.4880968195099	0.343780517578125	0.34381103515625	1.05987548828125E-06	3.64396868235417E-07	324388.15625	5.1341316975595E-06
1	55	71.5888048192556	0.353851318359375	0.353912353515625	1.053466796875E-06	3.72834904283081E-07	335950.15625	5.24054712514044E-06
1	56	71.6895128190014	0.363922119140625	0.363922119140625	1.04766845703125E-06	3.8126972867758E-07	347363.84375	5.34634773430298E-06
1	57	71.7902208187471	0.373992919921875	0.3740234375	1.0430908203125E-06	3.90140428407904E-07	358572.25	5.45162583875936E-06
1	58	71.8909288184929	0.384063720703125	0.38409423828125	1.0394287109375E-06	3.99238558657089E-07	369524.40625	5.55648875888437E-06
1	59	71.9916368182386	0.394134521484375	0.394134521484375	1.03515625E-06	4.07990796702506E-07	380748.84375	5.66095241083531E-06
1	60	72.0923448179843	0.404205322265625	0.404205322265625	1.03240966796875E-06	4.17305471955842E-07	391516.4375	5.76506272409461E-06
1	61	72.1930528177301	0.414276123046875	0.414276123046875	1.02996826171875E-06	4.26691229904463E-07	402222.25	5.86891155762714E-06
1	62	72.2937608174758	0.424346923828125	0.42431640625	1.02752685546875E-06	4.35996525993687E-07	412949.21875	5.9725148275902E-06
1	63	72.3944688172215	0.434417724609375	0.43438720703125	1.0260009765625E-06	4.45681706651158E-07	423378.9375	6.07591800871887E-06
1	64	72.4951768169673	0.444488525390625	0.444580078125	1.0247802734375E-06	4.55596875781339E-07	433829.6875	6.17918294665287E-06
1	65	72.595884816713	0.454559326171875	0.45452880859375	1.0235595703125E-06	4.65237292246456E-07	444066.78125	6.28232510280213E-06
1	66	72.6965928164587	0.464630126953125	0.464599609375	1.02325439453125E-06	4.75403595601165E-07	454041.15625	6.38539040664909E-06
1	67	72.7973008162045	0.474700927734375	0.47467041015625	1.02325439453125E-06	4.85708596897894E-07	463883.09375	6.48844024908612E-06
1	68	72.8980088159502	0.484771728515625	0.484771728515625	1.02325439453125E-06	4.96044833653286E-07	473754.84375	6.59149009152316E-06
1	69	72.998716815696	0.494842529296875	0.494873046875	1.02447509765625E-06	5.06985088577494E-07	483050.34375	6.69460177959991E-06
1	70	73.0994248154417	0.504913330078125	0.504852294921875	1.025390625E-06	5.17670798672043E-07	492351.21875	6.79782078805147E-06
1	71	73.2001328151874	0.514984130859375	0.51495361328125	1.02813720703125E-06	5.29442957031279E-07	500860.8125	6.90122396918014E-06
1	72	73.3008408149332	0.525054931640625	0.52496337890625	1.0302734375E-06	5.40855808139895E-07	509537.90625	7.00487316862564E-06
1	73	73.4015488146789	0.535125732421875	0.53515625	1.03424072265625E-06	5.53480333564949E-07	517438.8125	7.10882977728033E-06
1	74	73.5022568144246	0.545196533203125	0.54510498046875	1.0400390625E-06	5.66930452805536E-07	524119.75	7.21327796782134E-06
1	75	73.6029648141704	0.555267333984375	0.55523681640625	1.0467529296875E-06	5.81195763516007E-07	530437.3125	7.31835643819068E-06
1	76	73.7036728139161	0.565338134765625	0.565338134765625	1.05560302734375E-06	5.96772622429853E-07	535559.4375	7.42421843824559E-06
1	77	73.8043808136619	0.575408935546875	0.575408935546875	1.06842041015625E-06	6.14778628005297E-07	538560.4375	7.53117137719528E-06
1	78	73.9050888134076	0.585479736328125	0.58551025390625	1.08612060546875E-06	6.35934782167169E-07	539084	7.63966090744361E-06
1	79	74.0057968131533	0.595550537109375	0.595489501953125	1.10992431640625E-06	6.60948217046098E-07	536513.625	7.75024091126397E-06
1	80	74.1065048128991	0.605621337890625	0.605621337890625	1.14410400390625E-06	6.92893763698521E-07	529341.1875	7.86374039307702E-06
1	81	74.2072128126448	0.615692138671875	0.61566162109375	1.19140625E-06	7.33503100036614E-07	516752.0625	7.98134260548977E-06
1	82	74.3079208123905	0.625762939453125	0.625732421875	1.2567138671875E-06	7.86366626925883E-07	497911.625	8.10461460787337E-06
1	83	74.4086288121363	0.635833740234375	0.6357421875	1.34124755859375E-06	8.52687662700191E-07	473993.1875	8.23543268779758E-06
1	84	74.509336811882	0.645904541015625	0.645843505859375	1.44622802734375E-06	9.3403696155292E-07	446571.03125	8.3757931861328E-06
1	85	74.6100448116277	0.655975341796875	0.655914306640625	1.56646728515625E-06	1.02746832908451E-06	418722	8.52749417390442E-06
1	86	74.7107528113735	0.666046142578125	0.665985107421875	1.6949462890625E-06	1.12880900360324E-06	392924.03125	8.69171981321415E-06
1	87	74.8114608111192	0.676116943359375	0.676055908203125	1.817626953125E-06	1.2288173820707E-06	371944.28125	8.86859197635204E-06
1	88	74.912168810865	0.686187744140625	0.68609619140625	1.9244384765625E-06	1.32034995203867E-06	356517.59375	9.05702017917065E-06
1	89	75.0128768106107	0.696258544921875	0.696136474609375	2.005615234375E-06	1.39618191496993E-06	347093.71875	9.25491349335061E-06
1	90	75.1135848103564	0.706329345703125	0.706268310546875	2.05963134765625E-06	1.45465230616537E-06	342910.09375	9.45961528486805E-06
1	91	75.2142928101022	0.716400146484375	0.71636962890625	2.08984375E-06	1.49710058394703E-06	342786.21875	9.66855805017985E-06
1	92	75.3150008098479	0.726470947265625	0.726409912109375	2.1051025390625E-06	1.52916732076847E-06	345071.03125	9.87979001365602E-06
1	93	75.4157088095936	0.736541748046875	0.7364501953125	2.11578369140625E-06	1.5581692878186E-06	348074.4375	1.00923289210186E-05
1	94	75.5164168093394	0.746612548828125	0.74652099609375	2.13287353515625E-06	1.59223486662086E-06	350007.15625	1.03062657217379E-05
1	95	75.6171248090851	0.756683349609375	0.75714111328125	2.16705322265625E-06	1.64076516284695E-06	349387.40625	1.05227836684207E-05
1	96	75.7178328088308	0.766754150390625	0.76690673828125	2.230224609375E-06	1.710374135655E-06	343869.75	1.07442047010409E-05
1	97	75.8185408085766	0.776824951171875	0.7769775390625	2.33367919921875E-06	1.81321615855268E-06	332941.03125	1.09740158222849E-05
1	98	75.9192488083223	0.786895751953125	0.78704833984375	2.48748779296875E-06	1.95777306544187E-06	316402.90625	1.12167808765662E-05
1	99	76.0199568080681	0.796966552734375	0.79681396484375	2.69989013671875E-06	2.15131012737402E-06	295128.3125	1.1477985935926E-05
1	100	76.1206648078138	0.807037353515625	0.8074951171875	2.972412109375E-06	2.40020813180308E-06	271663.25	1.1763609109039E-05
1	101	76.2213728075595	0.817108154296875	0.81695556640625	3.297119140625E-06	2.69359975391126E-06	247778.609375	1.20793047244661E-05
1	102	76.3220808073053	0.827178955078125	0.82733154296875	3.6590576171875E-06	3.02725356959854E-06	226105.09375	1.24295756904758E-05
1	103	76.422788807051	0.837249755859375	0.8380126953125	4.03045654296875E-06	3.37757342094847E-06	207920.0625	1.28167739603668E-05
1	104	76.5234968067967	0.847320556640625	0.84716796875	4.38140869140625E-06	3.71178884961409E-06	193355.171875	1.32403447423712E-05
1	105	76.6242048065425	0.857391357421875	0.85784912109375	4.6759033203125E-06	4.01121951654204E-06	183461.6875	1.36964163175435E-05
1	106	76.7249128062882	0.867462158203125	0.8673095703125	4.8907470703125E-06	4.24179143010406E-06	177336.84375	1.41781356433057E-05
1	107	76.825620806034	0.877532958984375	0.87738037109375	5.010986328125E-06	4.39654104411602E-06	175091.359375	1.46767279147753E-05
1	108	76.9263288057797	0.887603759765625	0.88775634765625	5.035400390625E-06	4.47020829597022E-06	176303.046875	1.51826034198166E-05
1	109	77.0270368055254	0.897674560546875	0.8978271484375	4.986572265625E-06	4.47707998318947E-06	180048.96875	1.56872501975158E-05
1	110	77.1277448052712	0.907745361328125	0.908203125	4.88800048828125E-06	4.43929684479372E-06	185802.59375	1.61844745889539E-05
1	111	77.2284528050169	0.917816162109375	0.91827392578125	4.76409912109375E-06	4.37474773207214E-06	192748.71875	1.66704958246555E-05
1	112	77.3291608047626	0.927886962890625	0.927734375	4.63531494140625E-06	4.30034106102539E-06	200144.84375	1.71437932294793E-05
1	113	77.4298688045084	0.937957763671875	0.93841552734375	4.51324462890625E-06	4.23529900217545E-06	207924.8125	1.76044595718849E-05
1	114	77.5305768042541	0.948028564453125	0.9478759765625	4.40582275390625E-06	4.17617320636055E-06	215141.671875	1.80535716935992E-05
1	115	77.6312848039998	0.958099365234375	0.95794677734375	4.31793212890625E-06	4.13634916185401E-06	221853.140625	1.84928467206191E-05
1	116	77.7319928037456	0.968170166015625	0.96832275390625	4.25262451171875E-06	4.11791279475437E-06	227700.046875	1.8924409232568E-05
1	117	77.8327008034913	0.978240966796875	0.9783935546875	4.21142578125E-06	4.12043164033093E-06	232318.84375	1.93506075447658E-05
1	118	77.9334088032371	0.988311767578125	0.98846435546875	4.19097900390625E-06	4.14263331549591E-06	235855.25	1.97737026610412E-05
1	119	78.0341168029828	0.998382568359375	0.99822998046875	4.1851806640625E-06	4.17777255279361E-06	238515.40625	2.01954753720202E-05
1	120	78.1348248027285	1.00845336914063	1.00799560546875	4.185791015625E-06	4.21925915361498E-06	240813.640625	2.06169879675144E-05
1	121	78.2355328024743	1.01852416992188	1.01837158203125	4.183349609375E-06	4.26020415034145E-06	243434.5	2.10384077945491E-05
1	122	78.33624080222	1.02859497070313	1.02874755859375	4.16961669921875E-06	4.28948305852828E-06	246724.734375	2.1459012714331E-05
1	123	78.4369488019657	1.03866577148438	1.0382080078125	4.14154052734375E-06	4.29978035754175E-06	250681.59375	2.1877513063373E-05
1	124	78.5376568017115	1.04873657226563	1.048583984375	4.10064697265625E-06	4.29987267125398E-06	255711.84375	2.22925391426543E-05
1	125	78.6383648014572	1.05880737304688	1.05865478515625	4.04937744140625E-06	4.28689281761763E-06	261436.4375	2.27029249799671E-05
1	126	78.739072801203	1.06887817382813	1.06964111328125	3.99169921875E-06	4.26968517786008E-06	267966.375	2.31078265642282E-05
1	127	78.8397808009487	1.07894897460938	1.0791015625	3.93218994140625E-06	4.24323206971167E-06	274427.625	2.35068255278748E-05
1	128	78.9404888006944	1.08901977539063	1.08917236328125	3.8739013671875E-06	4.219346010359E-06	281156.46875	2.38998927670764E-05
1	129	79.0411968004402	1.09909057617188	1.09893798828125	3.81805419921875E-06	4.19580464949831E-06	287826.71875	2.42872138187522E-05
1	130	79.1419048001859	1.10916137695313	1.10931396484375	3.76617431640625E-06	4.17786941397935E-06	294546.65625	2.46691106440267E-05
1	131	79.2426127999316	1.11923217773438	1.119384765625	3.71795654296875E-06	4.16182365370332E-06	301075.28125	2.50459670496639E-05
1	132	79.3433207996774	1.12930297851563	1.1297607421875	3.67462158203125E-06	4.15144313592464E-06	307449.5625	2.54182123171631E-05
1	133	79.4440287994231	1.13937377929688	1.1395263671875	3.6346435546875E-06	4.14177202401333E-06	313518.0625	2.57862629950978E-05
1	134	79.5447367991688	1.14944458007813	1.14959716796875	3.5986328125E-06	4.13697807744029E-06	319453.875	2.61504865193274E-05
1	135	79.6454447989146	1.15951538085938	1.15936279296875	3.56597900390625E-06	4.1342632357555E-06	325117.6875	2.65112539636903E-05
1	136	79.7461527986603	1.16958618164063	1.16943359375	3.53668212890625E-06	4.13591487813392E-06	330658.40625	2.6868901841226E-05
1	137	79.8468607984061	1.17965698242188	1.1798095703125	3.51043701171875E-06	4.14164696849184E-06	336086.25	2.72237521130592E-05
1	138	79.9475687981518	1.18972778320313	1.18988037109375	3.48724365234375E-06	4.14940268456121E-06	341209.4375	2.75761140073882E-05
1	139	80.0482767978975	1.19979858398438	1.1993408203125	3.46649169921875E-06	4.15750491811195E-06	345981.1875	2.79262621916132E-05
1	140	80.1489847976433	1.20986938476563	1.209716796875	3.44879150390625E-06	4.17206092606648E-06	350765.4375	2.82744731521234E-05
1	141	80.249692797389	1.21994018554688	1.219482421875	3.43292236328125E-06	4.18638819610351E-06	355231.59375	2.86209960904671E-05
1	142	80.3504007971347	1.23001098632813	1.2298583984375	3.41888427734375E-06	4.20474361817469E-06	359725.0625	2.89660110865952E-05
1	143	80.4511087968805	1.24008178710938	1.240234375	3.40728759765625E-06	4.22583525505615E-06	363994.625	2.93097364192363E-05
1	144	80.5518167966262	1.25015258789063	1.25030517578125	3.3984375E-06	4.24908375862287E-06	367905.90625	2.96524322038749E-05
1	145	80.6525247963719	1.26022338867188	1.26068115234375	3.39141845703125E-06	4.27549730375176E-06	371726.8125	2.99943294521654E-05
1	146	80.7532327961177	1.27029418945313	1.2701416015625	3.38714599609375E-06	4.30215504820808E-06	374988.75	3.03356573567726E-05
1	147	80.8539407958634	1.28036499023438	1.28082275390625	3.3856201171875E-06	4.33637887908844E-06	378312.625	3.06766924040858E-05
1	148	80.9546487956092	1.29043579101563	1.29058837890625	3.38714599609375E-06	4.37141125075868E-06	381025.34375	3.1017727451399E-05
1	149	81.0553567953549	1.30050659179688	1.3006591796875	3.3905029296875E-06	4.40988878835924E-06	383618.375	3.1359009881271E-05
1	150	81.1560647951006	1.31057739257813	1.31103515625	3.397216796875E-06	4.45387058789493E-06	385914.5	3.17007979901973E-05
1	151	81.2567727948464	1.32064819335938	1.32080078125	3.406982421875E-06	4.49994513473939E-06	387674.6875	3.20434155582916E-05
1	152	81.3574807945921	1.33071899414063	1.33087158203125	3.41888427734375E-06	4.5500960368372E-06	389270.71875	3.23871281580068E-05
1	153	81.4581887943378	1.34078979492188	1.34063720703125	3.4326171875E-06	4.60189448858728E-06	390558.3125	3.27321286022197E-05
1	154	81.5588967940836	1.35086059570313	1.35040283203125	3.44879150390625E-06	4.65725770482095E-06	391558.28125	3.30786351696588E-05
1	155	81.6596047938293	1.36093139648438	1.361083984375	3.466796875E-06	4.71860175821348E-06	392605.625	3.34268625010736E-05
1	156	81.7603127935751	1.37100219726563	1.370849609375	3.4857177734375E-06	4.77839466839214E-06	393276.125	3.37769488396589E-05
1	157	81.8610207933208	1.38107299804688	1.3812255859375	3.5052490234375E-06	4.84153952129418E-06	394044.9375	3.41289705829695E-05
1	158	81.9617287930665	1.39114379882813	1.3909912109375	3.5272216796875E-06	4.90633419758524E-06	394358.875	3.44830841640942E-05
1	159	82.0624367928123	1.40121459960938	1.4013671875	3.5504150390625E-06	4.97543487654184E-06	394705.1875	3.48394714819733E-05
1	160	82.163144792558	1.41128540039063	1.41143798828125	3.577880859375E-06	5.04995659866836E-06	394489.9375	3.51984090229962E-05
1	161	82.2638527923037	1.42135620117188	1.42120361328125	3.6090087890625E-06	5.12913629791001E-06	393793.34375	3.55602969648317E-05
1	162	82.3645607920495	1.43142700195313	1.43157958984375	3.64776611328125E-06	5.22206755704246E-06	392453.78125	3.59257064701524E-05
1	163	82.4652687917952	1.44149780273438	1.441650390625	3.69415283203125E-06	5.32567673872109E-06	390251.96875	3.62954015145078E-05
1	164	82.5659767915409	1.45156860351563	1.45111083984375	3.75091552734375E-06	5.44299427929218E-06	386868.4375	3.66702915925998E-05
1	165	82.6666847912867	1.46163940429688	1.461181640625	3.8201904296875E-06	5.58199189981679E-06	382489.25	3.70515263057314E-05
1	166	82.7673927910324	1.47171020507813	1.47186279296875	3.902587890625E-06	5.74407340536709E-06	377150.46875	3.7440397136379E-05
1	167	82.8681007907782	1.48178100585938	1.48162841796875	4.00177001953125E-06	5.92913602304179E-06	370243.28125	3.78384138457477E-05
1	168	82.9688087905239	1.49185180664063	1.49169921875	4.1204833984375E-06	6.1465220824175E-06	362020.4375	3.82474026991986E-05
1	169	83.0695167902696	1.50192260742188	1.50146484375	4.2596435546875E-06	6.3957049860619E-06	352486.03125	3.86693754990119E-05
1	170	83.1702247900154	1.49185180664063	1.49200439453125	3.91265869140625E-06	5.83770361117786E-06	381327.53125	3.90808818337973E-05
1	171	83.2709327897611	1.48178100585938	1.48223876953125	3.65386962890625E-06	5.41590725333663E-06	405662.75	3.9461887354264E-05
1	172	83.3716407895068	1.47171020507813	1.47186279296875	3.4478759765625E-06	5.07480035594199E-06	426889.71875	3.98194897570647E-05
1	173	83.4723487892526	1.46163940429688	1.46148681640625	3.2794189453125E-06	4.79282743981457E-06	445654.1875	4.01582365157083E-05
1	174	83.5730567889983	1.45156860351563	1.451416015625	3.138427734375E-06	4.55516419606283E-06	462465.96875	4.0481401811121E-05
1	175	83.6737647887441	1.44149780273438	1.44195556640625	3.02001953125E-06	4.35473384641227E-06	477465.65625	4.07915031246375E-05
1	176	83.7744727884898	1.43142700195313	1.43157958984375	2.91900634765625E-06	4.17878982261755E-06	490433.90625	4.10905558965169E-05
1	177	83.8751807882355	1.42135620117188	1.42120361328125	2.8326416015625E-06	4.02576051783399E-06	501723.78125	4.13801753893495E-05
1	178	83.9758887879813	1.41128540039063	1.4111328125	2.757568359375E-06	3.89129536415567E-06	511730.84375	4.16616639995482E-05
1	179	84.076596787727	1.40121459960938	1.40106201171875	2.69134521484375E-06	3.77074138668831E-06	520580.59375	4.1936040361179E-05
1	180	84.1773047874727	1.39114379882813	1.39129638671875	2.63275146484375E-06	3.66293738807144E-06	528457.1875	4.22041266574524E-05
1	181	84.2780127872185	1.38107299804688	1.38092041015625	2.58056640625E-06	3.56355690200871E-06	535123	4.24666395701934E-05
1	182	84.3787207869642	1.37100219726563	1.37054443359375	2.53326416015625E-06	3.47195100403042E-06	541019.1875	4.27241429861169E-05
1	183	84.4794287867099	1.36093139648438	1.361083984375	2.490234375E-06	3.38941799782333E-06	546568.6875	4.29770952905528E-05
1	184	84.5801367864557	1.35086059570313	1.3507080078125	2.45147705078125E-06	3.31122964780661E-06	550977.25	4.32259294029791E-05
1	185	84.6808447862014	1.34078979492188	1.3409423828125	2.415771484375E-06	3.23941026181274E-06	555078.3125	4.34710163972341E-05
1	186	84.7815527859472	1.33071899414063	1.33148193359375	2.3828125E-06	3.17267176797031E-06	558785.875	4.37126436736435E-05
1	187	84.8822607856929	1.32064819335938	1.32080078125	2.35198974609375E-06	3.10650989376882E-06	561567.4375	4.39510586147662E-05
1	188	84.9829687854386	1.31057739257813	1.3104248046875	2.3236083984375E-06	3.04491413771757E-06	563961.125	4.4186494051246E-05
1	189	85.0836767851844	1.30050659179688	1.30035400390625	2.29766845703125E-06	2.98778218166262E-06	565945.0625	4.44191937276628E-05
1	190	85.1843847849301	1.29043579101563	1.290283203125	2.27325439453125E-06	2.93314178634319E-06	567593	4.46493577328511E-05
1	191	85.2850927846758	1.28036499023438	1.28082275390625	2.25006103515625E-06	2.88192927655473E-06	569239.125	4.48771243100055E-05
1	192	85.3858007844216	1.27029418945313	1.270751953125	2.2283935546875E-06	2.83173540083226E-06	570254.75	4.51026317023207E-05
1	193	85.4865087841673	1.26022338867188	1.26068115234375	2.20733642578125E-06	2.78274728771066E-06	571132.3125	4.53259890491609E-05
1	194	85.587216783913	1.25015258789063	1.25030517578125	2.1881103515625E-06	2.73580576504173E-06	571408.625	4.55473200418055E-05
1	195	85.6879247836588	1.24008178710938	1.23992919921875	2.169189453125E-06	2.68964140559547E-06	571609.4375	4.57667265436612E-05
1	196	85.7886327834045	1.23001098632813	1.23046875	2.15179443359375E-06	2.64771574620681E-06	571833.8125	4.59843031421769E-05
1	197	85.8893407831503	1.21994018554688	1.219482421875	2.135009765625E-06	2.60360684478655E-06	571183.5625	4.62001626146957E-05
1	198	85.990048782896	1.20986938476563	1.20941162109375	2.1185302734375E-06	2.56217504102096E-06	570873	4.64143449789844E-05
1	199	86.0907567826417	1.19979858398438	1.199951171875	2.1026611328125E-06	2.52309064308065E-06	570682.1875	4.66268975287676E-05
1	200	86.1914647823875	1.18972778320313	1.18988037109375	2.088623046875E-06	2.48521155299386E-06	569696.125	4.68379475933034E-05
1	201	86.2921727821332	1.17965698242188	1.17950439453125	2.07366943359375E-06	2.44590205511486E-06	568800.625	4.70475351903588E-05
1	202	86.3928807818789	1.16958618164063	1.16973876953125	2.059326171875E-06	2.4088735699479E-06	568020.1875	4.72556494059972E-05
1	203	86.4935887816247	1.15951538085938	1.15936279296875	2.04498291015625E-06	2.37087715504458E-06	566930.3125	4.74623157060705E-05
1	204	86.5942967813704	1.14944458007813	1.14990234375	2.03094482421875E-06	2.33538821703405E-06	566190.8125	4.76675559184514E-05
1	205	86.6950047811162	1.13937377929688	1.13922119140625	2.0172119140625E-06	2.29805050366849E-06	564750.375	4.78713955089916E-05
1	206	86.7957127808619	1.12930297851563	1.1297607421875	2.00225830078125E-06	2.26207271225576E-06	564243.25	4.80737944599241E-05
1	207	86.8964207806076	1.11923217773438	1.11907958984375	1.98699951171875E-06	2.22361063606513E-06	563200.75	4.82746690977365E-05
1	208	86.9971287803534	1.10916137695313	1.10931396484375	1.97021484375E-06	2.18558670894708E-06	563042.1875	4.84739284729585E-05
1	209	87.0978367800991	1.09909057617188	1.0986328125	1.95068359375E-06	2.14308488466486E-06	563204	4.86713615828194E-05
1	210	87.1985447798448	1.08901977539063	1.08917236328125	1.92840576171875E-06	2.10036614589626E-06	564804.5625	4.88666919409297E-05
1	211	87.2992527795906	1.07894897460938	1.0791015625	1.900634765625E-06	2.05097785510588E-06	567758.5	4.9059497541748E-05
1	212	87.3999607793363	1.06887817382813	1.0687255859375	1.86614990234375E-06	1.99440205506107E-06	572690.125	4.92491708428133E-05
1	213	87.500668779082	1.05880737304688	1.05865478515625	1.82281494140625E-06	1.92973175217048E-06	580780.1875	4.94349260407034E-05
1	214	87.6013767788278	1.04873657226563	1.048583984375	1.7694091796875E-06	1.8553740801508E-06	592618.1875	4.9615806346992E-05
1	215	87.7020847785735	1.03866577148438	1.038818359375	1.70318603515625E-06	1.76930086581706E-06	609926.5625	4.97906657983549E-05
1	216	87.8027927783193	1.02859497070313	1.02874755859375	1.6259765625E-06	1.67271946338587E-06	632695.1875	4.99583038617857E-05
1	217	87.903500778065	1.01852416992188	1.01837158203125	1.54022216796875E-06	1.56851842803007E-06	661184.875	5.01177346450277E-05
1	218	88.0042087778107	1.00845336914063	1.00860595703125	1.4520263671875E-06	1.46452248372952E-06	694619.5625	5.02684051753022E-05
1	219	88.1049167775565	0.998382568359375	0.99853515625	1.36871337890625E-06	1.36670837491693E-06	729542.9375	5.04104427818675E-05
1	220	88.2056247773022	0.988311767578125	0.9881591796875	1.2994384765625E-06	1.28405201849091E-06	760450.9375	5.05447933392134E-05
1	221	88.3063327770479	0.978240966796875	0.9783935546875	1.24664306640625E-06	1.21970754207723E-06	784822.5625	5.06729993503541E-05
1	222	88.4070407767937	0.968170166015625	0.968017578125	1.20941162109375E-06	1.17073170713411E-06	800403.75	5.07966724399012E-05
1	223	88.5077487765394	0.958099365234375	0.95855712890625	1.182861328125E-06	1.13384010091977E-06	810371.5625	5.09171295561828E-05
1	224	88.6084567762852	0.948028564453125	0.94818115234375	1.15875244140625E-06	1.09870723008498E-06	818277.625	5.10350400872994E-05
1	225	88.7091647760309	0.937957763671875	0.93780517578125	1.129150390625E-06	1.05892308965849E-06	830540.5	5.11502476001624E-05
1	226	88.8098727757766	0.927886962890625	0.9283447265625	1.0845947265625E-06	1.00687782378373E-06	855937	5.12617152708117E-05
1	227	88.9105807755224	0.917816162109375	0.91796875	1.01715087890625E-06	9.33712726691738E-07	902490.25	5.13675477122888E-05
1	228	89.0112887752681	0.907745361328125	0.908203125	9.1552734375E-07	8.31484783248015E-07	992000	5.14648672833573E-05
1	229	89.1119967750138	0.897674560546875	0.897216796875	7.6873779296875E-07	6.89724458879937E-07	1167129.875	5.15496758453082E-05
1	230	89.2127047747596	0.887603759765625	0.887451171875	5.682373046875E-07	5.04282866131689E-07	1561761.625	5.16169966431335E-05
1	231	89.3134127745053	0.877532958984375	0.877685546875	3.0517578125E-07	2.67848378143754E-07	2876000	5.16609761689324E-05
1	232	89.414120774251	0.867462158203125	0.867919921875	-1.77001953125006E-08	-1.53623513909906E-08	-49034484	5.16754516866058E-05
1	233	89.5148287739968	0.857391357421875	0.8575439453125	-3.9215087890625E-07	-3.36286603896951E-07	-2186770.5	5.1654817070812E-05
1	234	89.6155367737425	0.847320556640625	0.84716796875	-7.9498291015625E-07	-6.73484066737728E-07	-1065643	5.15950378030539E-05
1	235	89.7162447734883	0.837249755859375	0.83740234375	-1.1962890625E-06	-1.0017753311331E-06	-700000	5.14947714691516E-05
1	236	89.816952773234	0.827178955078125	0.8270263671875	-1.56219482421875E-06	-1.29197633214062E-06	-529400.25	5.1355869800318E-05
1	237	89.9176607729797	0.817108154296875	0.81756591796875	-1.86004638671875E-06	-1.52071049797087E-06	-439540.59375	5.11835460201837E-05
1	238	90.0183687727255	0.807037353515625	0.8074951171875	-2.0623779296875E-06	-1.6653600596328E-06	-391535.96875	5.09860365127679E-05
1	239	90.1190767724712	0.796966552734375	0.79742431640625	-2.16552734375E-06	-1.72684417520941E-06	-368235.625	5.07731456309557E-05
1	240	90.2197847722169	0.786895751953125	0.78704833984375	-2.17681884765625E-06	-1.71326155395946E-06	-361558.96875	5.05544885527343E-05
1	241	90.3204927719627	0.776824951171875	0.77667236328125	-2.11669921875E-06	-1.6439817045466E-06	-366926.21875	5.03382943861652E-05
1	242	90.4212007717084	0.766754150390625	0.7666015625	-2.01416015625E-06	-1.54405836383376E-06	-380606.0625	5.01302893098909E-05
1	243	90.5219087714542	0.756683349609375	0.75653076171875	-1.89239501953125E-06	-1.43165493682318E-06	-399774.25	4.99335765198339E-05
1	244	90.6226167711999	0.746612548828125	0.74658203125	-1.77001953125E-06	-1.32146476516937E-06	-421793.125	4.97491600981448E-05
1	245	90.7233247709456	0.736541748046875	0.7364501953125	-1.66168212890625E-06	-1.22374603961362E-06	-443195.625	4.95763597427867E-05
1	246	90.8240327706914	0.726470947265625	0.726470947265625	-1.57501220703125E-06	-1.14420060981502E-06	-461247.8125	4.94133819302078E-05
1	247	90.9247407704371	0.716400146484375	0.71630859375	-1.51641845703125E-06	-1.08622350580845E-06	-472368.71875	4.92577128170524E-05
1	248	91.0254487701828	0.706329345703125	0.706298828125	-1.48773193359375E-06	-1.0507833394513E-06	-474748.75	4.91064420202747E-05
1	249	91.1261567699286	0.696258544921875	0.696258544921875	-1.48773193359375E-06	-1.03584602584306E-06	-468000.03125	4.89566155010834E-05
1	250	91.2268647696743	0.686187744140625	0.6861572265625	-1.5118408203125E-06	-1.03736044820835E-06	-453855.5	4.88055775349494E-05
1	251	91.32757276942	0.676116943359375	0.67608642578125	-1.54998779296875E-06	-1.04792559341149E-06	-436188.25	4.86513999931049E-05
1	252	91.4282807691658	0.666046142578125	0.665924072265625	-1.58935546875E-06	-1.05839001207642E-06	-418990.03125	4.84933225379791E-05
1	253	91.5289887689115	0.655975341796875	0.65594482421875	-1.617431640625E-06	-1.06094591956207E-06	-405547.1875	4.83318472106475E-05
1	254	91.6296967686573	0.645904541015625	0.64593505859375	-1.62384033203125E-06	-1.04889534213726E-06	-397782.375	4.8168636567425E-05
1	255	91.730404768403	0.635833740234375	0.635772705078125	-1.6046142578125E-06	-1.0201699751633E-06	-396215.3125	4.80060698464513E-05
1	256	91.8311127681487	0.625762939453125	0.625762939453125	-1.5625E-06	-9.77754552877741E-07	-400488.28125	4.78465954074636E-05
1	257	91.9318207678945	0.615692138671875	0.615631103515625	-1.5032958984375E-06	-9.25475660551456E-07	-409520.9375	4.76922177767847E-05
1	258	92.0325287676402	0.605621337890625	0.60565185546875	-1.43280029296875E-06	-8.67778112478845E-07	-422705.03125	4.75443739560433E-05
1	259	92.1332367673859	0.595550537109375	0.595611572265625	-1.358642578125E-06	-8.09223195119557E-07	-438387.25	4.74038133688737E-05
1	260	92.2339447671317	0.585479736328125	0.585418701171875	-1.28448486328125E-06	-7.51961465539353E-07	-455761.46875	4.7270721552195E-05
1	261	92.3346527668774	0.575408935546875	0.575408935546875	-1.21307373046875E-06	-6.98013423061639E-07	-474339.625	4.71449602628127E-05
1	262	92.4353607666231	0.565338134765625	0.565277099609375	-1.14654541015625E-06	-6.48115872081689E-07	-493026.34375	4.70261438749731E-05
1	263	92.5360687663689	0.555267333984375	0.55517578125	-1.0845947265625E-06	-6.02140744376811E-07	-511873.9375	4.69137994514313E-05
1	264	92.6367767661146	0.545196533203125	0.545135498046875	-1.02783203125E-06	-5.60307739760901E-07	-530374.125	4.68074285890907E-05
1	265	92.7374847658604	0.535125732421875	0.53509521484375	-9.75952148437501E-07	-5.22227310284507E-07	-548280.1875	4.6706529246876E-05
1	266	92.8381927656061	0.525054931640625	0.52508544921875	-9.27734375E-07	-4.87139800497971E-07	-565986.875	4.6610672143288E-05
1	267	92.9389007653518	0.514984130859375	0.514923095703125	-8.837890625E-07	-4.5508338075706E-07	-582631.25	4.65194534626789E-05
1	268	93.0396087650976	0.504913330078125	0.5048828125	-8.43505859375E-07	-4.25871604647909E-07	-598552.8125	4.6432476665359E-05
1	269	93.1403167648433	0.494842529296875	0.494873046875	-8.06579589843751E-07	-3.99154487240594E-07	-613545.25	4.63493888673838E-05
1	270	93.241024764589	0.484771728515625	0.484771728515625	-7.720947265625E-07	-3.74289697901986E-07	-627865.625	4.62698990304489E-05
1	271	93.3417327643348	0.474700927734375	0.4747314453125	-7.403564453125E-07	-3.51470475834503E-07	-641220.125	4.61937379441224E-05
1	272	93.4424407640805	0.464630126953125	0.464599609375	-7.10449218750001E-07	-3.30074442445039E-07	-653951.875	4.61206836916972E-05
1	273	93.5431487638263	0.454559326171875	0.454559326171875	-6.82373046875E-07	-3.1017901847008E-07	-666144.9375	4.60505507362541E-05
1	274	93.643856763572	0.444488525390625	0.44451904296875	-6.56738281249999E-07	-2.91932678919693E-07	-676858.75	4.59831207990646E-05
1	275	93.7445647633177	0.434417724609375	0.434478759765625	-6.3323974609375E-07	-2.7512919587025E-07	-686120.5	4.5918164687464E-05
1	276	93.8452727630635	0.424346923828125	0.424346923828125	-6.1004638671875E-07	-2.58871295955032E-07	-695597.8125	4.58555623481516E-05
1	277	93.9459807628092	0.414276123046875	0.41436767578125	-5.889892578125E-07	-2.44058099951872E-07	-703523.375	4.57951864518691E-05
1	278	94.0466887625549	0.404205322265625	0.404266357421875	-5.69763183593749E-07	-2.30336084428018E-07	-709534	4.57368369097821E-05
1	279	94.1473967623007	0.394134521484375	0.39410400390625	-5.50537109375E-07	-2.16968871313838E-07	-715853.6875	4.56804264103994E-05
1	280	94.2481047620464	0.384063720703125	0.384033203125	-5.33142089843749E-07	-2.0474426776218E-07	-720320.5625	4.5625856728293E-05
1	281	94.3488127617921	0.373992919921875	0.3740234375	-5.1605224609375E-07	-1.93015637250937E-07	-724778.25	4.55730260000564E-05
1	282	94.4495207615379	0.363922119140625	0.364044189453125	-4.99877929687501E-07	-1.81977640067998E-07	-728266.25	4.55218723800499E-05
1	283	94.5502287612836	0.353851318359375	0.35394287109375	-4.840087890625E-07	-1.71311441476973E-07	-731273.6875	4.54723267466761E-05
1	284	94.6509367610294	0.343780517578125	0.34381103515625	-4.681396484375E-07	-1.60951572070189E-07	-734419.8125	4.54243854619563E-05
1	285	94.7516447607751	0.333709716796875	0.33380126953125	-4.52880859375E-07	-1.51172201867666E-07	-737062	4.53780085081235E-05
1	286	94.8523527605208	0.323638916015625	0.3236083984375	-4.38537597656249E-07	-1.4191445529832E-07	-737926.25	4.53331194876228E-05
1	287	94.9530607602666	0.313568115234375	0.3135986328125	-4.2388916015625E-07	-1.32931063490105E-07	-739812.8125	4.52896929346025E-05
1	288	95.0537687600123	0.303497314453125	0.303466796875	-4.09545898437499E-07	-1.24283573654793E-07	-740983.625	4.52477288490627E-05
1	289	95.154476759758	0.293426513671875	0.29339599609375	-3.96118164062501E-07	-1.16219482038105E-07	-740677.9375	4.5207158109406E-05
1	290	95.2551847595038	0.283355712890625	0.283416748046875	-3.826904296875E-07	-1.08460874059801E-07	-740590.125	4.51679443358444E-05
1	291	95.3558927592495	0.273284912109375	0.273223876953125	-3.704833984375E-07	-1.01224905790787E-07	-737479.4375	4.51300184067804E-05
1	292	95.4566007589953	0.263214111328125	0.263214111328125	-3.5858154296875E-07	-9.43837221711874E-08	-734042.5625	4.50933075626381E-05
1	293	95.557308758741	0.253143310546875	0.253173828125	-3.466796875E-07	-8.77702248658352E-08	-730281.6875	4.50577936135232E-05
1	294	95.6580167584867	0.243072509765625	0.243072509765625	-3.36608886718751E-07	-8.18203673702556E-08	-722121.5	4.50233856099658E-05
1	295	95.7587247582325	0.233001708984375	0.233062744140625	-3.265380859375E-07	-7.61038592145269E-08	-713738.375	4.49899962404743E-05
1	296	95.8594327579782	0.222930908203125	0.222991943359375	-3.1707763671875E-07	-7.07057523641197E-08	-703272.4375	4.49575854872819E-05
1	297	95.9601407577239	0.212860107421875	0.212799072265625	-3.0853271484375E-07	-6.56554774991491E-08	-689713.125	4.49260842287913E-05
1	298	96.0608487574697	0.202789306640625	0.202850341796875	-3.0029296875E-07	-6.09145303087644E-08	-675508.1875	4.48954269813839E-05
1	299	96.1615567572154	0.192718505859375	0.192718505859375	-2.93579101562499E-07	-5.65781235195573E-08	-656444.9375	4.48655227955896E-05
1	300	96.2622647569611	0.182647705078125	0.1827392578125	-2.8717041015625E-07	-5.24773042798188E-08	-636344.375	4.48362807219382E-05
1	301	96.3629727567069	0.172576904296875	0.172576904296875	-2.83203125000001E-07	-4.88743197024633E-08	-609375	4.48075588792562E-05
1	302	96.4636807564526	0.162506103515625	0.16259765625	-2.8045654296875E-07	-4.56015740724069E-08	-579760.625	4.47791790065821E-05
1	303	96.5643887561984	0.152435302734375	0.1524658203125	-2.79846191406249E-07	-4.26669757302989E-08	-544820.125	4.47509628429543E-05
1	304	96.6650967559441	0.142364501953125	0.1424560546875	-2.81372070312499E-07	-4.00831510205535E-08	-506290.71875	4.47227030235808E-05
1	305	96.7658047556898	0.132293701171875	0.132354736328125	-2.8717041015625E-07	-3.80083626794203E-08	-460892.6875	4.46940757683478E-05
1	306	96.8665127554356	0.122222900390625	0.122222900390625	-2.978515625E-07	-3.64042804790188E-08	-410348.375	4.46646190539468E-05
1	307	96.9672207551813	0.112152099609375	0.1123046875	-3.1585693359375E-07	-3.54722153872444E-08	-355555.5625	4.46337144239806E-05
1	308	97.067928754927	0.102081298828125	0.102142333984375	-3.42712402343751E-07	-3.50054421005552E-08	-298040.96875	4.46005542471539E-05
1	309	97.1686367546728	0.092010498046875	0.092010498046875	-3.83911132812501E-07	-3.53238540640177E-08	-239666.140625	4.45639634563122E-05
1	310	97.2693447544185	0.081939697265625	0.082000732421875	-4.4219970703125E-07	-3.62607011084037E-08	-185438.234375	4.45223668066319E-05
1	311	97.3700527541642	0.071868896484375	0.071929931640625	-5.2459716796875E-07	-3.77342388446777E-08	-137114.59375	4.44736833742354E-05
1	312	97.47076075391	0.061798095703125	0.061859130859375	-6.35681152343751E-07	-3.93226819994652E-08	-97311.5703125	4.44152610725723E-05
1	313	97.5714687536557	0.051727294921875	0.051788330078125	-7.8094482421875E-07	-4.0443826065939E-08	-66314.96875	4.43439275841229E-05
1	314	97.6721767534015	0.041656494140625	0.0417999267578125	-9.600830078125E-07	-4.01313968723116E-08	-43537.828125	4.42562595708296E-05
1	315	97.7728847531472	0.031585693359375	0.031683349609375	-1.168212890625E-06	-3.70128958593341E-08	-27121.2109375	4.41490919911303E-05
1	316	97.8735927528929	0.021514892578125	0.0216339111328125	-1.3897705078125E-06	-3.00661717744788E-08	-15566.5361328125	4.40202857134864E-05
1	317	97.9743007526387	0.011444091796875	0.0115020751953125	-1.6070556640625E-06	-1.84844743955637E-08	-7157.23486328125	4.3869385990547E-05
1	318	98.0750087523844	0.001373291015625	0.001483154296875	-1.796875E-06	-2.66504263102263E-09	-825.407592773438	4.36979826190509E-05
1	319	98.1757167521301	-0.008697509765625	-0.008587646484375	-1.9384765625E-06	1.66469504847555E-08	4430.1005859375	4.35098918387666E-05
1	320	98.2764247518759	-0.018768310546875	-0.018670654296875	-2.022705078125E-06	3.77652256133842E-08	9230.537109375	4.33104323747102E-05
1	321	98.3771327516216	-0.028839111328125	-0.028668212890625	-2.052001953125E-06	5.88272293100545E-08	13970.8515625	4.31052540079691E-05
1	322	98.4778407513674	-0.038909912109375	-0.0387603759765625	-2.0355224609375E-06	7.88976137755526E-08	19041.98046875	4.2899431718979E-05
1	323	98.5785487511131	-0.048980712890625	-0.0488800048828125	-1.9879150390625E-06	9.71692983853245E-08	24588.576171875	4.26968363171909E-05
1	324	98.6792567508588	-0.059051513671875	-0.058990478515625	-1.92291259765625E-06	1.13433536341745E-07	30677.669921875	4.24999088863842E-05
1	325	98.7799647506046	-0.069122314453125	-0.069061279296875	-1.8505859375E-06	1.27803829741424E-07	37318.6015625	4.23098972532898E-05
1	326	98.8806727503503	-0.079193115234375	-0.0791015625	-1.7779541015625E-06	1.40638945822502E-07	44490.21875	4.21271870436613E-05
1	327	98.981380750096	-0.089263916015625	-0.08917236328125	-1.7083740234375E-06	1.52339737269358E-07	52197.21484375	4.1951636376325E-05
1	328	99.0820887498418	-0.099334716796875	-0.0992431640625	-1.6448974609375E-06	1.63244834539E-07	60333.953125	4.17827868659515E-05
1	329	99.1827967495875	-0.109405517578125	-0.109283447265625	-1.588134765625E-06	1.73556841787104E-07	68812.453125	4.16199909523129E-05
1	330	99.2835047493332	-0.119476318359375	-0.119415283203125	-1.5380859375E-06	1.83670962883298E-07	77638.890625	4.14625719713513E-05
1	331	99.384212749079	-0.129547119140625	-0.12945556640625	-1.49383544921875E-06	1.93385304214644E-07	86659.859375	4.13099005527329E-05
1	332	99.4849207488247	-0.139617919921875	-0.139495849609375	-1.45538330078125E-06	2.03019936861892E-07	95848.1875	4.11613982578274E-05
1	333	99.5856287485705	-0.149688720703125	-0.14959716796875	-1.42242431640625E-06	2.12790638443039E-07	105170.5703125	4.10164866480045E-05
1	334	99.6863367483162	-0.159759521484375	-0.15966796875	-1.39404296875E-06	2.22583992126602E-07	114535.90625	4.08746673201676E-05
1	335	99.7870447480619	-0.169830322265625	-0.169708251953125	-1.36932373046875E-06	2.32385545473335E-07	123935.8125	4.0735521906754E-05
1	336	99.8877527478077	-0.179901123046875	-0.179718017578125	-1.34857177734375E-06	2.4236265971922E-07	133265.4375	4.059866478201E-05
1	337	99.9884607475534	-0.189971923828125	-0.1898193359375	-1.33148193359375E-06	2.52741017447988E-07	142562.453125	4.0463713958161E-05
1	338	100.089168747299	-0.200042724609375	-0.19989013671875	-1.317138671875E-06	2.63283027379657E-07	151760.890625	4.0330345655093E-05
1	339	100.189876747045	-0.189971923828125	-0.18975830078125	-1.17034912109375E-06	2.22083443190968E-07	162138.21875	4.02050900447648E-05
2	340	100.290584746791	-0.179901123046875	-0.179718017578125	-1.06842041015625E-06	1.92014397271123E-07	168209.09375	4.00923599954695E-05
2	341	100.391292746536	-0.169830322265625	-0.169708251953125	-9.8602294921875E-07	1.67336224876635E-07	172113.90625	3.9988910430111E-05
2	342	100.492000746282	-0.159759521484375	-0.159637451171875	-9.16748046875E-07	1.46347318263906E-07	174134.484375	3.98930969822686E-05
2	343	100.592708746028	-0.149688720703125	-0.14959716796875	-8.55407714843751E-07	1.27966572449623E-07	174884.0625	3.98038610001095E-05
2	344	100.693416745774	-0.139617919921875	-0.1395263671875	-7.98950195312501E-07	1.11474612651818E-07	174637.140625	3.97205585613847E-05
2	345	100.794124745519	-0.129547119140625	-0.129425048828125	-7.47070312500001E-07	9.66896109844129E-08	173243.46875	3.96427094528917E-05
2	346	100.894832745265	-0.119476318359375	-0.119384765625	-6.9732666015625E-07	8.32501783065709E-08	171203.5	3.95699789805803E-05
2	347	100.995540745011	-0.109405517578125	-0.1092529296875	-6.49414062500001E-07	7.09503922280419E-08	168233.078125	3.95021634176373E-05
2	348	101.096248744757	-0.099334716796875	-0.099273681640625	-5.9967041015625E-07	5.95314872953168E-08	165547.078125	3.94392700400203E-05
2	349	101.196956744502	-0.089263916015625	-0.0892333984375	-5.46874999999999E-07	4.87995102105288E-08	163169.65625	3.93815353163518E-05
2	350	101.297664744248	-0.079193115234375	-0.07916259765625	-4.88891601562499E-07	3.87019305492231E-08	161922.59375	3.93293812521733E-05
2	351	101.398372743994	-0.069122314453125	-0.069091796875	-4.19921875E-07	2.90131563218665E-08	164534.890625	3.92836191167589E-05
2	352	101.499080743739	-0.059051513671875	-0.058990478515625	-3.369140625E-07	1.9874720535995E-08	175090.59375	3.92455076507758E-05
2	353	101.599788743485	-0.048980712890625	-0.0488555908203125	-2.337646484375E-07	1.1420709711274E-08	208994.796875	3.92167712561786E-05
2	354	101.700496743231	-0.038909912109375	-0.03878173828125	-1.0345458984375E-07	4.01214883538614E-09	374867.28125	3.91997928090859E-05
2	355	101.801204742977	-0.028839111328125	-0.0287139892578125	5.82885742187497E-08	-1.67369751391533E-09	-492617.8125	3.91975190723315E-05
2	356	101.901912742722	-0.018768310546875	-0.01866455078125	2.532958984375E-07	-4.72765382397711E-09	-73686.7421875	3.92132060369477E-05
2	357	102.002620742468	-0.008697509765625	-0.0086029052734375	4.78515625000001E-07	-4.11662437471705E-09	-17978.31640625	3.92500551242847E-05
2	358	102.103328742214	0.001373291015625	0.0014801025390625	7.232666015625E-07	1.07050868169978E-09	2046.41357421875	3.93105729017407E-05
2	359	102.20403674196	0.011444091796875	0.0115234375	9.6893310546875E-07	1.11654410162032E-08	11892.9130859375	3.93957816413604E-05
2	360	102.304744741705	0.021514892578125	0.021624755859375	1.19171142578125E-06	2.57704666495329E-08	18145.966796875	3.95045790355653E-05
2	361	102.405452741451	0.031585693359375	0.03170166015625	1.37237548828125E-06	4.35065814485824E-08	23099.845703125	3.96336909034289E-05
2	362	102.506160741197	0.041656494140625	0.0417510986328125	1.49627685546875E-06	6.24712015451223E-08	27903.32421875	3.97781368519645E-05
2	363	102.606868740943	0.051727294921875	0.0517578125	1.561279296875E-06	8.08083981951313E-08	33150.8984375	3.99320961150806E-05
2	364	102.707576740688	0.061798095703125	0.061767578125	1.575927734375E-06	9.73412426219511E-08	39194.421875	4.0090068068821E-05
2	365	102.808284740434	0.071868896484375	0.0718994140625	1.55242919921875E-06	1.11618746245767E-07	46314.13671875	4.02475925511681E-05
2	366	102.90899274018	0.081939697265625	0.0819091796875	1.50634765625E-06	1.23383699701662E-07	54376.01171875	4.04016172979027E-05
2	367	103.009700739926	0.092010498046875	0.092041015625	1.44866943359375E-06	1.33337010765899E-07	63534.86328125	4.05504142690916E-05
2	368	103.110408739671	0.102081298828125	0.10205078125	1.38702392578125E-06	1.41546863119402E-07	73575.359375	4.06932012992911E-05
2	369	103.211116739417	0.112152099609375	0.1121826171875	1.32659912109375E-06	1.48821357015549E-07	84564.0703125	4.08298437832855E-05
2	370	103.311824739163	0.122222900390625	0.122314453125	1.270751953125E-06	1.55431322923505E-07	96253.609375	4.09606291214004E-05
2	371	103.412532738908	0.132293701171875	0.13238525390625	1.219482421875E-06	1.61441491286496E-07	108558.5546875	4.10860229749233E-05
2	372	103.513240738654	0.142364501953125	0.142333984375	1.17340087890625E-06	1.67014817975542E-07	121300.390625	4.12065128330141E-05
2	373	103.6139487384	0.152435302734375	0.1524658203125	1.13311767578125E-06	1.72761701833224E-07	134554.28125	4.13226553064305E-05
2	374	103.714656738146	0.162506103515625	0.16253662109375	1.097412109375E-06	1.78369660375211E-07	148109.015625	4.14349742641207E-05
2	375	103.815364737891	0.172576904296875	0.17266845703125	1.06597900390625E-06	1.84060937158392E-07	161981.109375	4.15439099015202E-05
2	376	103.916072737637	0.182647705078125	0.1827392578125	1.03759765625E-06	1.89609821177328E-07	176117.65625	4.16498332924675E-05
2	377	104.016780737383	0.192718505859375	0.192779541015625	1.0125732421875E-06	1.95203398334343E-07	190385.78125	4.17530645790976E-05
2	378	104.117488737129	0.202789306640625	0.202789306640625	9.9090576171875E-07	2.00945081019199E-07	204650.453125	4.1853949369397E-05
2	379	104.218196736874	0.212860107421875	0.212890625	9.716796875E-07	2.06861500373634E-07	219095.46875	4.19527750636917E-05
2	380	104.31890473662	0.222930908203125	0.22296142578125	9.54589843750001E-07	2.12836710034026E-07	233567.78125	4.20497672166675E-05
2	381	104.419612736366	0.233001708984375	0.232940673828125	9.3841552734375E-07	2.18595133105737E-07	248227.65625	4.21450895373709E-05
2	382	104.520320736112	0.243072509765625	0.243133544921875	9.246826171875E-07	2.24821349092963E-07	262937.3125	4.22389020968694E-05
2	383	104.621028735857	0.253143310546875	0.253143310546875	9.124755859375E-07	2.30987083682521E-07	277424.75	4.2331412259955E-05
2	384	104.721736735603	0.263214111328125	0.263214111328125	9.01184082031251E-07	2.37204361042131E-07	292075.84375	4.24227364419494E-05
2	385	104.822444735349	0.273284912109375	0.27325439453125	8.9080810546875E-07	2.43417218825925E-07	306748.875	4.25129692303017E-05
2	386	104.923152735095	0.283355712890625	0.283355712890625	8.819580078125E-07	2.49907827765128E-07	321280.28125	4.26022379542701E-05
2	387	105.02386073484	0.293426513671875	0.29339599609375	8.740234375E-07	2.56434987022658E-07	335684.34375	4.26906590291765E-05
2	388	105.124568734586	0.303497314453125	0.303375244140625	8.6639404296875E-07	2.62842490883486E-07	350158.5	4.27782943006605E-05
2	389	105.225276734332	0.313568115234375	0.313629150390625	8.6029052734375E-07	2.69812176156847E-07	364561.90625	4.28652383561712E-05
2	390	105.325984734077	0.323638916015625	0.323638916015625	8.5479736328125E-07	2.76645693020328E-07	378614.78125	4.29516003350727E-05
2	391	105.426692733823	0.333709716796875	0.333709716796875	8.49304199218751E-07	2.83421059066313E-07	392921.3125	4.30374093411956E-05
2	392	105.527400733569	0.343780517578125	0.343780517578125	8.453369140625E-07	2.90610358888443E-07	406678.71875	4.31227417720947E-05
2	393	105.628108733315	0.353851318359375	0.3538818359375	8.41369628906249E-07	2.9774543008898E-07	420602.09375	4.32076740253251E-05
2	394	105.72881673306	0.363922119140625	0.36395263671875	8.38623046875001E-07	3.05219060692252E-07	433988.375	4.32922679465264E-05
2	395	105.829524732806	0.373992919921875	0.373992919921875	8.3648681640625E-07	3.12840143124049E-07	447099.625	4.33766181231476E-05
2	396	105.930232732552	0.384063720703125	0.384063720703125	8.343505859375E-07	3.20443774626256E-07	460314.59375	4.34607500210404E-05
2	397	106.030940732298	0.394134521484375	0.394195556640625	8.3282470703125E-07	3.28295783447174E-07	473323.5625	4.35447000199929E-05
2	398	106.131648732043	0.404205322265625	0.404205322265625	8.319091796875E-07	3.36262104383422E-07	485876.75	4.36285263276659E-05
2	399	106.232356731789	0.414276123046875	0.414215087890625	8.30993652343751E-07	3.44210121738797E-07	498457.59375	4.37122580478899E-05
2	400	106.333064731535	0.424346923828125	0.424346923828125	8.306884765625E-07	3.52500080680329E-07	510837.625	4.3795931560453E-05
2	401	106.433772731281	0.434417724609375	0.43438720703125	8.29162597656249E-07	3.60177608627055E-07	523886.65625	4.38795104855672E-05
2	402	106.534480731026	0.444488525390625	0.44451904296875	8.2855224609375E-07	3.6830724070569E-07	536500.9375	4.39629839092959E-05
2	403	106.635188730772	0.454559326171875	0.45458984375	8.2855224609375E-07	3.76651428268815E-07	548655.625	4.40464245912153E-05
2	404	106.735896730518	0.464630126953125	0.464599609375	8.2855224609375E-07	3.84945053610863E-07	560736.6875	4.41298689111136E-05
2	405	106.836604730264	0.474700927734375	0.4747314453125	8.2855224609375E-07	3.93339803395065E-07	572965	4.4213309593033E-05
2	406	106.937312730009	0.484771728515625	0.484832763671875	8.28857421875E-07	4.01857221277169E-07	584941.0625	4.42967684648465E-05
2	407	107.038020729755	0.494842529296875	0.494842529296875	8.30078125E-07	4.10757934332651E-07	596139.75	4.43803000962362E-05
2	408	107.138728729501	0.504913330078125	0.50482177734375	8.3160400390625E-07	4.19811811980253E-07	607045.875	4.44639736087993E-05
2	409	107.239436729246	0.514984130859375	0.5150146484375	8.34045410156251E-07	4.29545593760849E-07	617489.9375	4.4547843572218E-05
2	410	107.340144728992	0.525054931640625	0.5250244140625	8.3648681640625E-07	4.39175977362538E-07	627654.1875	4.46319645561744E-05
2	411	107.440852728738	0.535125732421875	0.53509521484375	8.4075927734375E-07	4.49886243814035E-07	636442.875	4.4716420234181E-05
2	412	107.541560728484	0.545196533203125	0.545166015625	8.46252441406251E-07	4.61348065528E-07	644212.0625	4.48013670393266E-05
2	413	107.642268728229	0.555267333984375	0.555267333984375	8.5357666015625E-07	4.73963211788941E-07	650518.4375	4.48869614046998E-05
2	414	107.742976727975	0.565338134765625	0.565338134765625	8.63037109375001E-07	4.87907755086781E-07	655056.625	4.49733997811563E-05
2	415	107.843684727721	0.575408935546875	0.575408935546875	8.76464843749999E-07	5.04325669226091E-07	656511.1875	4.50609877589159E-05
2	416	107.944392727467	0.585479736328125	0.58544921875	8.941650390625E-07	5.23488211001677E-07	654744.0625	4.51501473435201E-05
2	417	108.045100727212	0.595550537109375	0.595550537109375	9.2010498046875E-07	5.4796902304588E-07	647263.6875	4.52415042673238E-05
2	418	108.145808726958	0.605621337890625	0.60565185546875	9.56115722656251E-07	5.79073287099163E-07	633450.375	4.53359789389651E-05
2	419	108.246516726704	0.615692138671875	0.61566162109375	1.007080078125E-06	6.20020557562384E-07	611333.3125	4.54348337370902E-05
2	420	108.34722472645	0.625762939453125	0.62579345703125	1.07574462890625E-06	6.73193937927863E-07	581730.5	4.55397130281199E-05
2	421	108.447932726195	0.635833740234375	0.6357421875	1.16546630859375E-06	7.4093611601711E-07	545483.125	4.56525667686947E-05
2	422	108.548640725941	0.645904541015625	0.6458740234375	1.2750244140625E-06	8.23505104108335E-07	506558.1875	4.57754540548194E-05
2	423	108.649348725687	0.655975341796875	0.65594482421875	1.39923095703125E-06	9.17818226753297E-07	468789.5625	4.59101138403639E-05
2	424	108.750056725433	0.666046142578125	0.666046142578125	1.529541015625E-06	1.01874491065246E-06	435454.90625	4.60575902252458E-05
2	425	108.850764725178	0.676116943359375	0.67596435546875	1.65252685546875E-06	1.11704923710931E-06	409048.9375	4.62178177258465E-05
2	426	108.951472724924	0.686187744140625	0.686065673828125	1.7572021484375E-06	1.20555603189132E-06	390430.71875	4.63895121356472E-05
2	427	109.05218072467	0.696258544921875	0.6961669921875	1.83563232421875E-06	1.27790656279103E-06	379251.875	4.65704251837451E-05
2	428	109.152888724415	0.706329345703125	0.706268310546875	1.8878173828125E-06	1.33330559037859E-06	374119	4.67579156975262E-05
2	429	109.253596724161	0.716400146484375	0.71624755859375	1.91558837890625E-06	1.37203551275888E-06	373904.71875	4.69494334538467E-05
2	430	109.354304723907	0.726470947265625	0.726318359375	1.9305419921875E-06	1.40218799060676E-06	376225.125	4.71431012556423E-05
2	431	109.455012723653	0.736541748046875	0.7364501953125	1.94244384765625E-06	1.4305130662251E-06	379135.90625	4.7338122385554E-05
2	432	109.555720723398	0.746612548828125	0.746551513671875	1.9635009765625E-06	1.46585455240711E-06	380214.5	4.75348024338018E-05
2	433	109.656428723144	0.756683349609375	0.7568359375	2.00286865234375E-06	1.51584288232698E-06	377876	4.77345238323323E-05
2	434	109.75713672289	0.766754150390625	0.76690673828125	2.07427978515625E-06	1.59077910666383E-06	369721.9375	4.79398258903529E-05
2	435	109.857844722636	0.776824951171875	0.77667236328125	2.1868896484375E-06	1.69849670328404E-06	355149.34375	4.81543902424164E-05
2	436	109.958552722381	0.786895751953125	0.7867431640625	2.35076904296875E-06	1.84945133696601E-06	334674.8125	4.83828807773534E-05
2	437	110.059260722127	0.796966552734375	0.79681396484375	2.5738525390625E-06	2.05088167604117E-06	309580.28125	4.86308563267812E-05
2	438	110.159968721873	0.807037353515625	0.80718994140625	2.8570556640625E-06	2.3061863885232E-06	282525.125	4.89043231937103E-05
2	439	110.260676721619	0.817108154296875	0.81695556640625	3.189697265625E-06	2.60584101852146E-06	256123.234375	4.9208800191991E-05
2	440	110.361384721364	0.827178955078125	0.82733154296875	3.55682373046875E-06	2.94267238132306E-06	232604.03125	4.95485146529973E-05
2	441	110.46209272111	0.837249755859375	0.83740234375	3.92852783203125E-06	3.28975829688716E-06	213159.328125	4.99254347232636E-05
2	442	110.562800720856	0.847320556640625	0.8477783203125	4.2742919921875E-06	3.62365199180203E-06	198343.578125	5.03384799230844E-05
2	443	110.663508720601	0.857391357421875	0.8575439453125	4.5599365234375E-06	3.910345640179E-06	188060.515625	5.07833174197003E-05
2	444	110.764216720347	0.867462158203125	0.8673095703125	4.7613525390625E-06	4.12956660511554E-06	182156.140625	5.12526821694337E-05
2	445	110.864924720093	0.877532958984375	0.87799072265625	4.864501953125E-06	4.27098757427302E-06	180489.328125	5.17373809998389E-05
2	446	110.965632719839	0.887603759765625	0.88775634765625	4.87701416015625E-06	4.32959996032878E-06	182028.671875	5.22279042343143E-05
2	447	111.066340719584	0.897674560546875	0.89813232421875	4.8162841796875E-06	4.32566048402805E-06	186478.265625	5.27160009369254E-05
2	448	111.16704871933	0.907745361328125	0.908203125	4.71099853515625E-06	4.27854365625535E-06	192783.578125	5.31957375642378E-05
2	449	111.267756719076	0.917816162109375	0.9185791015625	4.5819091796875E-06	4.20884589402704E-06	200479.546875	5.36636725883E-05
2	450	111.368464718822	0.927886962890625	0.927734375	4.45068359375E-06	4.12905183111434E-06	208447.625	5.41184999747202E-05
2	451	111.469172718567	0.937957763671875	0.9381103515625	4.32830810546875E-06	4.06043045586557E-06	216738.359375	5.45605580555275E-05
2	452	111.569880718313	0.948028564453125	0.948486328125	4.2218017578125E-06	4.00432099922909E-06	224663.875	5.4991091019474E-05
2	453	111.670588718059	0.958099365234375	0.95855712890625	4.1357421875E-06	3.96434506910737E-06	231773.921875	5.54119251319207E-05
2	454	111.771296717805	0.968170166015625	0.968017578125	4.07318115234375E-06	3.94291100747068E-06	237656.40625	5.58252795599401E-05
2	455	111.87200471755	0.978240966796875	0.9783935546875	4.034423828125E-06	3.947254299419E-06	242511.34375	5.62335299036931E-05
2	456	111.972712717296	0.988311767578125	0.98876953125	4.0155029296875E-06	3.97040685129468E-06	246238.046875	5.66388735023793E-05
2	457	112.073420717042	0.998382568359375	0.99822998046875	4.01031494140625E-06	4.00321687266114E-06	248915.609375	5.70430056541227E-05
2	458	112.174128716788	1.00845336914063	1.0089111328125	4.00909423828125E-06	4.04481943405699E-06	251655.640625	5.74468176637311E-05
2	459	112.274836716533	1.01852416992188	1.01837158203125	4.00360107421875E-06	4.07715378969442E-06	254363.890625	5.78502877033316E-05
2	460	112.375544716279	1.02859497070313	1.02813720703125	3.9862060546875E-06	4.09836684411857E-06	257923.75	5.82526045036502E-05
2	461	112.476252716025	1.03866577148438	1.03851318359375	3.9544677734375E-06	4.1067664824368E-06	262617.71875	5.86524511163589E-05
2	462	112.57696071577	1.04873657226563	1.04888916015625	3.909912109375E-06	4.10106395065668E-06	268264.15625	5.90484523854684E-05
2	463	112.677668715516	1.05880737304688	1.0589599609375	3.85589599609375E-06	4.08323967349133E-06	274633.9375	5.94394950894639E-05
2	464	112.778376715262	1.06887817382813	1.0693359375	3.7969970703125E-06	4.0602653825772E-06	281626.75	5.98248479946051E-05
2	465	112.879084715008	1.07894897460938	1.07940673828125	3.736572265625E-06	4.03328112952295E-06	288876.1875	6.0204190958757E-05
2	466	112.979792714753	1.08901977539063	1.08917236328125	3.6767578125E-06	4.00462295147008E-06	296231.75	6.05774839641526E-05
2	467	113.080500714499	1.09909057617188	1.09893798828125	3.62030029296875E-06	3.97848543798318E-06	303548.84375	6.09449198236689E-05
2	468	113.181208714245	1.10916137695313	1.10931396484375	3.5675048828125E-06	3.95748293158249E-06	310949.53125	6.13068550592288E-05
2	469	113.281916713991	1.11923217773438	1.1199951171875	3.5186767578125E-06	3.94090056943242E-06	318300.09375	6.16636680206284E-05
2	470	113.382624713736	1.12930297851563	1.1297607421875	3.4735107421875E-06	3.92423589801183E-06	325250.40625	6.20157588855363E-05
2	471	113.483332713482	1.13937377929688	1.1395263671875	3.4326171875E-06	3.91155799661647E-06	331970.125	6.23635060037486E-05
2	472	113.584040713228	1.14944458007813	1.14959716796875	3.39569091796875E-06	3.9036763155309E-06	338545.90625	6.27073386567645E-05
2	473	113.684748712974	1.15951538085938	1.15966796875	3.36212158203125E-06	3.89894466934493E-06	344921.5	6.30476206424646E-05
2	474	113.785456712719	1.16958618164063	1.16912841796875	3.331298828125E-06	3.89471597372903E-06	350952.75	6.33846648270264E-05
2	475	113.886164712465	1.17965698242188	1.17919921875	3.304443359375E-06	3.8965968087723E-06	356852.625	6.37187986285426E-05
2	476	113.986872712211	1.18972778320313	1.190185546875	3.27911376953125E-06	3.90275363315595E-06	362959.5	6.405030580936E-05
2	477	114.087580711957	1.19979858398438	1.1993408203125	3.2574462890625E-06	3.90678815165302E-06	368184.375	6.43794483039528E-05
2	478	114.188288711702	1.20986938476563	1.21002197265625	3.2379150390625E-06	3.91794856113847E-06	373704.0625	6.47065171506256E-05
2	479	114.288996711448	1.21994018554688	1.2200927734375	3.22052001953125E-06	3.92933316106792E-06	378849.625	6.50317233521491E-05
2	480	114.389704711194	1.23001098632813	1.2298583984375	3.20556640625E-06	3.94239259549067E-06	383663.375	6.53553070151247E-05
2	481	114.490412710939	1.24008178710938	1.23992919921875	3.19305419921875E-06	3.95916094930726E-06	388320.75	6.5677500970196E-05
2	482	114.591120710685	1.25015258789063	1.25	3.18206787109375E-06	3.97758458348108E-06	392826.34375	6.59985162201338E-05
2	483	114.691828710431	1.26022338867188	1.259765625	3.173828125E-06	3.99827922592522E-06	396923.09375	6.63185564917512E-05
2	484	114.792536710177	1.27029418945313	1.2701416015625	3.1683349609375E-06	4.02423393097706E-06	400886.15625	6.6637912823353E-05
2	485	114.893244709922	1.28036499023438	1.28082275390625	3.16558837890625E-06	4.05455784857622E-06	404608.125	6.69568471494131E-05
2	486	114.993952709668	1.29043579101563	1.290283203125	3.16497802734375E-06	4.08371761295712E-06	407675.25	6.72756214044057E-05
2	487	115.094660709414	1.30050659179688	1.30126953125	3.16741943359375E-06	4.12166627938859E-06	410829.5625	6.75944829708897E-05
2	488	115.19536870916	1.31057739257813	1.31072998046875	3.1732177734375E-06	4.15923159380327E-06	413060.21875	6.79137592669576E-05
2	489	115.296076708905	1.32064819335938	1.3201904296875	3.18145751953125E-06	4.20012975155259E-06	414964.03125	6.82337413309142E-05
2	490	115.396784708651	1.33071899414063	1.33056640625	3.1915283203125E-06	4.24654035668937E-06	416905.71875	6.85546474414878E-05
2	491	115.497492708397	1.34078979492188	1.34033203125	3.2049560546875E-06	4.2957049117831E-06	418206.09375	6.88767322571948E-05
2	492	115.598200708143	1.35086059570313	1.35101318359375	3.22052001953125E-06	4.35096490036813E-06	419501.59375	6.92002795403823E-05
2	493	115.698908707888	1.36093139648438	1.361083984375	3.23822021484375E-06	4.40748954133596E-06	420318.53125	6.95255075697787E-05
2	494	115.799616707634	1.37100219726563	1.37115478515625	3.25714111328125E-06	4.46604462922551E-06	420968.8125	6.98525764164515E-05
2	495	115.90032470738	1.38107299804688	1.38153076171875	3.27850341796875E-06	4.52935319117387E-06	421390.6875	7.0181667979341E-05
2	496	116.001032707126	1.39114379882813	1.39129638671875	3.3013916015625E-06	4.59321381640621E-06	421427.28125	7.05129932612181E-05
2	497	116.101740706871	1.40121459960938	1.4013671875	3.3270263671875E-06	4.66238543594955E-06	421207.125	7.08467632648535E-05
2	498	116.202448706617	1.41128540039063	1.4111328125	3.35723876953125E-06	4.73750969831599E-06	420325.4375	7.1183341788128E-05
2	499	116.303156706363	1.42135620117188	1.42120361328125	3.3929443359375E-06	4.82206496599247E-06	418870.3125	7.15232381480746E-05
2	500	116.403864706108	1.43142700195313	1.43157958984375	3.43475341796875E-06	4.91712262373767E-06	416792.53125	7.186704169726E-05
2	501	116.504572705854	1.44149780273438	1.4410400390625	3.486328125E-06	5.02393822898739E-06	413340.34375	7.22155455150642E-05
2	502	116.6052807056	1.45156860351563	1.4520263671875	3.548583984375E-06	5.15263718625647E-06	409184.75	7.25697827874683E-05
2	503	116.705988705346	1.46163940429688	1.461181640625	3.623046875E-06	5.29392946191365E-06	403301.90625	7.29309031157754E-05
2	504	116.806696705091	1.47171020507813	1.47186279296875	3.7109375E-06	5.46199044038076E-06	396628.3125	7.33001943444833E-05
2	505	116.907404704837	1.48178100585938	1.48162841796875	3.8140869140625E-06	5.65105938221677E-06	388462.15625	7.36791116651148E-05
2	506	117.008112704583	1.49185180664063	1.49200439453125	3.9361572265625E-06	5.8727637224365E-06	379051.03125	7.40693649277091E-05
2	507	117.108820704329	1.50192260742188	1.5020751953125	4.075927734375E-06	6.12234998698113E-06	368523.5	7.4472809501458E-05
2	508	117.209528704074	1.49185180664063	1.49169921875	3.74603271484375E-06	5.58795409233426E-06	398207.75	7.48666716390289E-05
2	509	117.31023670382	1.48178100585938	1.48223876953125	3.5015869140625E-06	5.19018794875592E-06	423304.875	7.52316191210411E-05
2	510	117.410944703566	1.47171020507813	1.47186279296875	3.30963134765625E-06	4.87132319904049E-06	444721.09375	7.55745932110585E-05
2	511	117.511652703312	1.46163940429688	1.4617919921875	3.15216064453125E-06	4.60780302091734E-06	463742.875	7.58999740355648E-05
2	512	117.612360703057	1.45156860351563	1.45172119140625	3.0218505859375E-06	4.38688448411995E-06	480408	7.6210853876546E-05
2	513	117.713068702803	1.44149780273438	1.44134521484375	2.91229248046875E-06	4.197618636681E-06	494917.78125	7.65096629038453E-05
2	514	117.813776702549	1.43142700195313	1.4312744140625	2.82012939453125E-06	4.03637886847719E-06	507520.84375	7.67983146943152E-05
2	515	117.914484702295	1.42135620117188	1.4215087890625	2.74169921875E-06	3.89734941563802E-06	518477.3125	7.70783735788427E-05
2	516	118.01519270204	1.41128540039063	1.41143798828125	2.67333984375E-06	3.77325341105461E-06	527968.0625	7.73510473663919E-05
2	517	118.115900701786	1.40121459960938	1.4007568359375	2.613525390625E-06	3.66091353498632E-06	535964.5	7.76172601035796E-05
2	518	118.216608701532	1.39114379882813	1.3909912109375	2.56072998046875E-06	3.56195278072846E-06	543201.0625	7.78778048697859E-05
2	519	118.317316701277	1.38107299804688	1.38092041015625	2.5140380859375E-06	3.4716863410722E-06	549283.8125	7.8133336501196E-05
2	520	118.418024701023	1.37100219726563	1.3702392578125	2.47222900390625E-06	3.3875451208587E-06	554252.5625	7.83844152465463E-05
2	521	118.518732700769	1.36093139648438	1.36077880859375	2.43408203125E-06	3.31224714500422E-06	559052.125	7.86314703873359E-05
2	522	118.619440700515	1.35086059570313	1.351318359375	2.39959716796875E-06	3.24261964124162E-06	563143.8125	7.88748657214455E-05
2	523	118.72014870026	1.34078979492188	1.34063720703125	2.3675537109375E-06	3.17403055305476E-06	566254.1875	7.91149068390951E-05
2	524	118.820856700006	1.33071899414063	1.3311767578125	2.33856201171875E-06	3.11303915623284E-06	569228.8125	7.9351884778589E-05
2	525	118.921564699752	1.32064819335938	1.32110595703125	2.31201171875E-06	3.05441244563553E-06	571409.75	7.95860541984439E-05
2	526	119.022272699498	1.31057739257813	1.31103515625	2.2869873046875E-06	2.99832049677207E-06	573258.625	7.98176333773881E-05
2	527	119.122980699243	1.30050659179688	1.3006591796875	2.26409912109375E-06	2.94482128992968E-06	574470.9375	8.00467969384044E-05
2	528	119.223688698989	1.29043579101563	1.29058837890625	2.24212646484375E-06	2.89366221295495E-06	575609.125	8.02737049525604E-05
2	529	119.324396698735	1.28036499023438	1.2799072265625	2.2216796875E-06	2.84354382529273E-06	576098.9375	8.04984738351777E-05
2	530	119.425104698481	1.27029418945313	1.27044677734375	2.20245361328125E-06	2.79810001302394E-06	576832.5	8.07212491054088E-05
2	531	119.525812698226	1.26022338867188	1.260986328125	2.1844482421875E-06	2.75455931841861E-06	577256.1875	8.09421471785754E-05
2	532	119.626520697972	1.25015258789063	1.25	2.16705322265625E-06	2.70881650976662E-06	576820.1875	8.11612626421265E-05
2	533	119.727228697718	1.24008178710938	1.240234375	2.15057373046875E-06	2.66721531261283E-06	576699.3125	8.13786755315959E-05
2	534	119.827936697464	1.23001098632813	1.23016357421875	2.13348388671875E-06	2.62453409050067E-06	576598.5	8.15943931229413E-05
2	535	119.928644697209	1.21994018554688	1.21978759765625	2.11761474609375E-06	2.58304021372169E-06	576019.625	8.18084517959505E-05
2	536	120.029352696955	1.20986938476563	1.21002197265625	2.10235595703125E-06	2.54389692599943E-06	575555.25	8.20209461380728E-05
2	537	120.130060696701	1.19979858398438	1.199951171875	2.08770751953125E-06	2.50514722210937E-06	574769.75	8.22319343569688E-05
2	538	120.230768696446	1.18972778320313	1.18927001953125	2.07275390625E-06	2.46506397161284E-06	573763.25	8.24414237285964E-05
2	539	120.331476696192	1.17965698242188	1.17950439453125	2.05810546875E-06	2.42754435930692E-06	573102.0625	8.26494288048707E-05
2	540	120.432184695938	1.16958618164063	1.16943359375	2.0428466796875E-06	2.38897337112576E-06	572453	8.28559277579188E-05
2	541	120.532892695684	1.15951538085938	1.15966796875	2.02850341796875E-06	2.35239031098899E-06	571686.5	8.30609424156137E-05
2	542	120.633600695429	1.14944458007813	1.1492919921875	2.01416015625E-06	2.31485819313093E-06	570606.0625	8.32645018817857E-05
2	543	120.734308695175	1.13937377929688	1.13922119140625	1.99920654296875E-06	2.27753844228573E-06	569836.6875	8.34665916045196E-05
2	544	120.835016694921	1.12930297851563	1.12945556640625	1.9842529296875E-06	2.24112523028452E-06	569209.5	8.36671752040274E-05
2	545	120.935724694667	1.11923217773438	1.11907958984375	1.9677734375E-06	2.20209517465264E-06	568703.5	8.3866179920733E-05
2	546	121.036432694412	1.10916137695313	1.10870361328125	1.95037841796875E-06	2.16239163819409E-06	568455.625	8.40634747873992E-05
2	547	121.137140694158	1.09909057617188	1.0992431640625	1.9305419921875E-06	2.12213490158319E-06	569396.1875	8.42588924570009E-05
2	548	121.237848693904	1.08901977539063	1.0888671875	1.907958984375E-06	2.07751395464584E-06	570697.375	8.44521782710217E-05
2	549	121.33855669365	1.07894897460938	1.0784912109375	1.8798828125E-06	2.02743717636622E-06	573701.3125	8.46429102239199E-05
2	550	121.439264693395	1.06887817382813	1.06903076171875	1.8463134765625E-06	1.97376584765152E-06	579008.25	8.48305353429168E-05
2	551	121.539972693141	1.05880737304688	1.0589599609375	1.80389404296875E-06	1.91025151252688E-06	587041.125	8.50143405841663E-05
2	552	121.640680692887	1.04873657226563	1.0479736328125	1.7510986328125E-06	1.83510519491392E-06	598466.375	8.51933509693481E-05
2	553	121.741388692633	1.03866577148438	1.0382080078125	1.68609619140625E-06	1.75051854967023E-06	615746.625	8.53664241731167E-05
2	554	121.842096692378	1.02859497070313	1.0284423828125	1.610107421875E-06	1.65590267897642E-06	638741.5	8.55324033182114E-05
2	555	121.942804692124	1.01852416992188	1.01837158203125	1.524658203125E-06	1.55266855017544E-06	667934.375	8.56902479426935E-05
2	556	122.04351269187	1.00845336914063	1.00860595703125	1.435546875E-06	1.44790112699411E-06	702593.5	8.58393104863353E-05
2	557	122.144220691615	0.998382568359375	0.99822998046875	1.35223388671875E-06	1.34984043143049E-06	738208.0625	8.59796855365857E-05
2	558	122.244928691361	0.988311767578125	0.98876953125	1.28082275390625E-06	1.2664385167227E-06	771980	8.61122680362314E-05
2	559	122.345636691107	0.978240966796875	0.97808837890625	1.2261962890625E-06	1.19932826692093E-06	797660.5625	8.62385059008375E-05
2	560	122.446344690853	0.968170166015625	0.96832275390625	1.187744140625E-06	1.15011971502099E-06	815262.0625	8.636005804874E-05
2	561	122.547052690598	0.958099365234375	0.95794677734375	1.16058349609375E-06	1.11177712369681E-06	825401	8.64783069118857E-05
2	562	122.647760690344	0.948028564453125	0.94818115234375	1.13800048828125E-06	1.07903065327264E-06	833199.25	8.65940455696546E-05
2	563	122.74846869009	0.937957763671875	0.9381103515625	1.1102294921875E-06	1.04151774849015E-06	844969.75	8.67072594701312E-05
2	564	122.849176689836	0.927886962890625	0.92803955078125	1.0687255859375E-06	9.91819547380146E-07	868361	8.68169736349955E-05
2	565	122.949884689581	0.917816162109375	0.91766357421875	1.00555419921875E-06	9.22760420962732E-07	912594.875	8.69214200065471E-05
2	566	123.050592689327	0.907745361328125	0.9075927734375	9.10339355468751E-07	8.26217387839279E-07	996982.9375	8.70178992045112E-05
2	567	123.151300689073	0.897674560546875	0.8978271484375	7.708740234375E-07	6.92111598254996E-07	1164687.25	8.71025549713522E-05
2	568	123.252008688819	0.887603759765625	0.88714599609375	5.78918457031249E-07	5.13585177941422E-07	1532419.625	8.71705196914263E-05
2	569	123.352716688564	0.877532958984375	0.877685546875	3.25622558593749E-07	2.85794214960333E-07	2695407.75	8.72160671860911E-05
2	570	123.45342468831	0.867462158203125	0.86761474609375	1.068115234375E-08	9.26712484528025E-09	81228576	8.72329983394593E-05
2	571	123.554132688056	0.857391357421875	0.85723876953125	-3.57971191406251E-07	-3.0686678087477E-07	-2394714.5	8.72155142133124E-05
2	572	123.654840687802	0.847320556640625	0.84747314453125	-7.568359375E-07	-6.41398116840719E-07	-1119758.125	8.7159380200319E-05
2	573	123.755548687547	0.837249755859375	0.83740234375	-1.15997314453125E-06	-9.71364215729409E-07	-721915.3125	8.70628573466092E-05
2	574	123.856256687293	0.827178955078125	0.82733154296875	-1.531982421875E-06	-1.26745737816236E-06	-540039.8125	8.6927306256257E-05
2	575	123.956964687039	0.817108154296875	0.8172607421875	-1.83990478515625E-06	-1.50368191498274E-06	-444186.4375	8.675752178533E-05
2	576	124.057672686784	0.807037353515625	0.806884765625	-2.0562744140625E-06	-1.65917640515545E-06	-392401.34375	8.65613328642212E-05
2	577	124.15838068653	0.796966552734375	0.797119140625	-2.1734619140625E-06	-1.73250793977786E-06	-366750.9375	8.63483510329388E-05
2	578	124.259088686276	0.786895751953125	0.787353515625	-2.19635009765625E-06	-1.72930401731719E-06	-358482.6875	8.61283115227707E-05
2	579	124.359796686022	0.776824951171875	0.77667236328125	-2.14630126953125E-06	-1.66697293479956E-06	-361865.46875	8.5909639892634E-05
2	580	124.460504685767	0.766754150390625	0.7666015625	-2.049560546875E-06	-1.57119620780577E-06	-374032.1875	8.56983606354333E-05
2	581	124.561212685513	0.756683349609375	0.75653076171875	-1.93145751953125E-06	-1.46120703448105E-06	-391689.0625	8.5497900727205E-05
2	582	124.661920685259	0.746612548828125	0.74658203125	-1.80999755859375E-06	-1.35131153911061E-06	-412476.84375	8.53095043567009E-05
2	583	124.762628685005	0.736541748046875	0.7364501953125	-1.69952392578125E-06	-1.2516146625785E-06	-433327.375	8.51327858981676E-05
2	584	124.86333668475	0.726470947265625	0.7264404296875	-1.610107421875E-06	-1.16964702101541E-06	-451175.15625	8.49661373649724E-05
2	585	124.964044684496	0.716400146484375	0.71636962890625	-1.5478515625E-06	-1.1088337714682E-06	-462815.46875	8.48071213113144E-05
2	586	125.064752684242	0.706329345703125	0.706268310546875	-1.51458740234375E-06	-1.06970503566117E-06	-466310.71875	8.46529146656394E-05
2	587	125.165460683988	0.696258544921875	0.69622802734375	-1.51123046875E-06	-1.05216099655081E-06	-460702.78125	8.45005488372408E-05
2	588	125.266168683733	0.686187744140625	0.686126708984375	-1.53228759765625E-06	-1.05134347450075E-06	-447779.34375	8.43472953420132E-05
2	589	125.366876683479	0.676116943359375	0.675994873046875	-1.568603515625E-06	-1.0603679356791E-06	-430953.3125	8.41911532916129E-05
2	590	125.467584683225	0.666046142578125	0.66595458984375	-1.60858154296875E-06	-1.07124230908084E-06	-414001.125	8.40311695355922E-05
2	591	125.568292682971	0.655975341796875	0.655975341796875	-1.63848876953125E-06	-1.07480821043282E-06	-400353.90625	8.38676642160863E-05
2	592	125.669000682716	0.645904541015625	0.6458740234375	-1.64794921875E-06	-1.06436755231698E-06	-391925.9375	8.37021798361093E-05
2	593	125.769708682462	0.635833740234375	0.6357421875	-1.6314697265625E-06	-1.03719412436476E-06	-389674.53125	8.35370519780554E-05
2	594	125.870416682208	0.625762939453125	0.625701904296875	-1.5911865234375E-06	-9.95608388620894E-07	-393229.78125	8.33747762953863E-05
2	595	125.971124681953	0.615692138671875	0.615692138671875	-1.533203125E-06	-9.43981092405011E-07	-401572.46875	8.32174482638948E-05
2	596	126.071832681699	0.605621337890625	0.605682373046875	-1.4630126953125E-06	-8.86120972154458E-07	-413996.6875	8.30665812827647E-05
2	597	126.172540681445	0.595550537109375	0.59552001953125	-1.3885498046875E-06	-8.26909172246815E-07	-428879.125	8.29229902592488E-05
2	598	126.273248681191	0.585479736328125	0.585479736328125	-1.31317138671875E-06	-7.68835207054508E-07	-445851.75	8.27869516797364E-05
2	599	126.373956680936	0.575408935546875	0.57537841796875	-1.23992919921875E-06	-7.13428448761988E-07	-464041.375	8.26583927846514E-05
2	600	126.474664680682	0.565338134765625	0.565277099609375	-1.1712646484375E-06	-6.62089121306053E-07	-482621.15625	8.25369788799435E-05
2	601	126.575372680428	0.555267333984375	0.555206298828125	-1.1077880859375E-06	-6.1505090798164E-07	-501184.5625	8.2422215200495E-05
2	602	126.676080680174	0.545196533203125	0.545166015625	-1.04888916015625E-06	-5.71818702610472E-07	-519755.625	8.23136215331033E-05
2	603	126.776788679919	0.535125732421875	0.53515625	-9.94873046875E-07	-5.32412514075986E-07	-537914.125	8.22107103886083E-05
2	604	126.877496679665	0.525054931640625	0.525054931640625	-9.45434570312501E-07	-4.96405050398607E-07	-555358.3125	8.2113008829765E-05
2	605	126.978204679411	0.514984130859375	0.514984130859375	-8.99658203125001E-07	-4.63309675069468E-07	-572422	8.20201021269895E-05
2	606	127.078912679157	0.504913330078125	0.504913330078125	-8.5784912109375E-07	-4.33139433653196E-07	-588580.5625	8.19316046545282E-05
2	607	127.179620678902	0.494842529296875	0.494842529296875	-8.19091796875E-07	-4.05321458174512E-07	-604135.625	8.1847159890458E-05
2	608	127.280328678648	0.484771728515625	0.484710693359375	-7.830810546875E-07	-3.79567751451759E-07	-618979	8.17664840724319E-05
2	609	127.381036678394	0.474700927734375	0.474700927734375	-7.4981689453125E-07	-3.55938766460895E-07	-633089.125	8.16893007140607E-05
2	610	127.48174467814	0.464630126953125	0.464599609375	-7.19299316406249E-07	-3.34186182726626E-07	-645905.8125	8.16153187770396E-05
2	611	127.582452677885	0.454559326171875	0.45458984375	-6.903076171875E-07	-3.13806822305196E-07	-658532.25	8.15443418105133E-05
2	612	127.683160677631	0.444488525390625	0.44451904296875	-6.63146972656251E-07	-2.94781472121031E-07	-670317.5	8.14761879155412E-05
2	613	127.783868677377	0.434417724609375	0.4344482421875	-6.378173828125E-07	-2.7709864980352E-07	-681148.3125	8.14106824691407E-05
2	614	127.884576677122	0.424346923828125	0.42431640625	-6.146240234375E-07	-2.60795047779538E-07	-690367.4375	8.1347614468541E-05
2	615	127.985284676868	0.414276123046875	0.414276123046875	-5.9356689453125E-07	-2.45900594109116E-07	-697943.4375	8.12867801869288E-05
2	616	128.085992676614	0.404205322265625	0.4041748046875	-5.72814941406249E-07	-2.31517361726219E-07	-705594.0625	8.12280486570671E-05
2	617	128.18670067636	0.394134521484375	0.3941650390625	-5.535888671875E-07	-2.18205371993463E-07	-712017.6875	8.11713252915069E-05
2	618	128.287408676105	0.384063720703125	0.384063720703125	-5.3558349609375E-07	-2.05698185595793E-07	-717094.0625	8.11164863989688E-05
2	619	128.388116675851	0.373992919921875	0.37396240234375	-5.17883300781249E-07	-1.93668881820486E-07	-722097.875	8.10634373920038E-05
2	620	128.488824675597	0.363922119140625	0.36395263671875	-5.01098632812499E-07	-1.82376155066777E-07	-726309.4375	8.10121273389086E-05
2	621	128.589532675343	0.353851318359375	0.35382080078125	-4.84619140625001E-07	-1.71468329313029E-07	-730100.75	8.09624907560647E-05
2	622	128.690240675088	0.343780517578125	0.34381103515625	-4.69055175781249E-07	-1.61266342502131E-07	-732986.375	8.0914469435811E-05
2	623	128.790948674834	0.333709716796875	0.333709716796875	-4.52880859375E-07	-1.51130734593607E-07	-736859.875	8.08680488262326E-05
2	624	128.89165667458	0.323638916015625	0.323638916015625	-4.37316894531251E-07	-1.41532765951524E-07	-740055.8125	8.08232216513716E-05
2	625	128.992364674326	0.313568115234375	0.313568115234375	-4.229736328125E-07	-1.32631043925358E-07	-741342	8.07799078756943E-05
2	626	129.093072674071	0.303497314453125	0.303466796875	-4.08325195312501E-07	-1.23913139304932E-07	-743198.8125	8.07380420155823E-05
2	627	129.193780673817	0.293426513671875	0.29345703125	-3.9398193359375E-07	-1.15616771267923E-07	-744848.9375	8.06976458989084E-05
2	628	129.294488673563	0.283355712890625	0.283416748046875	-3.802490234375E-07	-1.07768940438291E-07	-745345.125	8.06586613180116E-05
2	629	129.395196673309	0.273284912109375	0.2733154296875	-3.67126464843751E-07	-1.00341324582587E-07	-744472.1875	8.0621030065231E-05
2	630	129.495904673054	0.263214111328125	0.263275146484375	-3.5430908203125E-07	-9.32807679987491E-08	-743066.375	8.05847012088634E-05
2	631	129.5966126728	0.253143310546875	0.253143310546875	-3.41796875E-07	-8.65235918467988E-08	-740625	8.05496456450783E-05
2	632	129.697320672546	0.243072509765625	0.243072509765625	-3.30200195312499E-07	-8.02625876872298E-08	-736136.8125	8.05158124421723E-05
2	633	129.798028672291	0.233001708984375	0.23297119140625	-3.19519042968749E-07	-7.44387307349825E-08	-729130.8125	8.04830924607813E-05
2	634	129.898736672037	0.222930908203125	0.22296142578125	-3.08837890624999E-07	-6.88589381070415E-08	-721936.75	8.04514565970749E-05
2	635	129.999444671783	0.212860107421875	0.212921142578125	-2.9937744140625E-07	-6.37437835848687E-08	-711213.0625	8.04208248155192E-05
2	636	130.100152671529	0.202789306640625	0.202850341796875	-2.90527343749999E-07	-5.89335691358883E-08	-698214.3125	8.03911243565381E-05
2	637	130.200860671274	0.192718505859375	0.192718505859375	-2.8350830078125E-07	-5.46372938003969E-08	-679763.25	8.03622169769369E-05
2	638	130.30156867102	0.182647705078125	0.18267822265625	-2.7740478515625E-07	-5.0675811991141E-08	-658525.875	8.03339717094786E-05
2	639	130.402276670766	0.172576904296875	0.172576904296875	-2.7191162109375E-07	-4.69256633550685E-08	-634680.1875	8.03063157945871E-05
2	640	130.502984670512	0.162506103515625	0.16253662109375	-2.67333984375E-07	-4.34515605718389E-08	-607990.875	8.0279161920771E-05
2	641	130.603692670257	0.152435302734375	0.15252685546875	-2.6580810546875E-07	-4.05428721705903E-08	-573823.1875	8.02523136371747E-05
2	642	130.704400670003	0.142364501953125	0.142425537109375	-2.66418457031251E-07	-3.79447904208519E-08	-534593.375	8.02255162852816E-05
2	643	130.805108669749	0.132293701171875	0.13238525390625	-2.7191162109375E-07	-3.59970862007231E-08	-486868.71875	8.01984060672112E-05
2	644	130.905816669495	0.122222900390625	0.122344970703125	-2.81982421875E-07	-3.44991306633347E-08	-433874.46875	8.0170517321676E-05
2	645	131.00652466924	0.112152099609375	0.1121826171875	-2.99072265625E-07	-3.35507088777831E-08	-375102.03125	8.01412606961094E-05
2	646	131.107232668986	0.102081298828125	0.10211181640625	-3.25927734375001E-07	-3.32810721204169E-08	-313295.90625	8.01097849034704E-05
2	647	131.207940668732	0.092010498046875	0.092071533203125	-3.66821289062499E-07	-3.37737979805297E-08	-250998.34375	8.0074903962668E-05
2	648	131.308648668478	0.081939697265625	0.08197021484375	-4.24804687499999E-07	-3.48213298195788E-08	-192959.765625	8.00350462668575E-05
2	649	131.409356668223	0.071868896484375	0.071929931640625	-5.0628662109375E-07	-3.64171590661044E-08	-142073.546875	7.99881599959917E-05
2	650	131.510064667969	0.061798095703125	0.061859130859375	-6.170654296875E-07	-3.81711302566146E-08	-100247.28125	7.99315967014991E-05
2	651	131.610772667715	0.051727294921875	0.051788330078125	-7.62023925781249E-07	-3.94639450007617E-08	-67961.5546875	7.98621549620293E-05
2	652	131.71148066746	0.041656494140625	0.0417449951171875	-9.41162109375E-07	-3.92888068745378E-08	-44354.734375	7.97763932496309E-05
2	653	131.812188667206	0.031585693359375	0.0316497802734375	-1.15020751953125E-06	-3.64038115208132E-08	-27516.58203125	7.96710810391232E-05
2	654	131.912896666952	0.021514892578125	0.0215728759765625	-1.3751220703125E-06	-2.96653368536681E-08	-15687.97265625	7.95439191279002E-05
2	655	132.013604666698	0.011444091796875	0.0115570068359375	-1.59759521484375E-06	-1.84634192379463E-08	-7234.00244140625	7.93942308519036E-05
2	656	132.114312666443	0.001373291015625	0.0014923095703125	-1.79351806640625E-06	-2.67648414542521E-09	-832.057250976563	7.92234786786139E-05
2	657	132.215020666189	-0.008697509765625	-0.00859985351562501	-1.94183349609375E-06	1.66994826855671E-08	4428.728515625	7.90353878983296E-05
2	658	132.315728665935	-0.018768310546875	-0.0186798095703125	-2.03369140625E-06	3.79889648627341E-08	9185.173828125	7.88352044764906E-05
2	659	132.416436665681	-0.028839111328125	-0.0287261962890625	-2.069091796875E-06	5.94371378781489E-08	13883.48046875	7.86286109359935E-05
2	660	132.517144665426	-0.038909912109375	-0.038763427734375	-2.056884765625E-06	7.97319046341727E-08	18845.697265625	7.84208532422781E-05
2	661	132.617852665172	-0.048980712890625	-0.0488433837890625	-2.01171875E-06	9.82591430442881E-08	24279.431640625	7.82159841037355E-05
2	662	132.718560664918	-0.059051513671875	-0.058990478515625	-1.94854736328125E-06	1.14945741813699E-07	30274.080078125	7.8016564657446E-05
2	663	132.819268664664	-0.069122314453125	-0.069061279296875	-1.87652587890625E-06	1.29595278508532E-07	36802.734375	7.78239555074833E-05
2	664	132.919976664409	-0.079193115234375	-0.079132080078125	-1.80389404296875E-06	1.42745875564287E-07	43867.3671875	7.76386368670501E-05
2	665	133.020684664155	-0.089263916015625	-0.08917236328125	-1.734619140625E-06	1.5468008029984E-07	51407.4609375	7.74604559410363E-05
2	666	133.121392663901	-0.099334716796875	-0.09918212890625	-1.67083740234375E-06	1.65717210620642E-07	59360.73046875	7.72889761719853E-05
2	667	133.222100663647	-0.109405517578125	-0.1092529296875	-1.6143798828125E-06	1.76375721139266E-07	67674.859375	7.71235572756268E-05
2	668	133.322808663392	-0.119476318359375	-0.119384765625	-1.5643310546875E-06	1.867572905212E-07	76316.8203125	7.69634934840724E-05
2	669	133.423516663138	-0.129547119140625	-0.12945556640625	-1.5203857421875E-06	1.96822384168627E-07	85146.53125	7.68081663409248E-05
2	670	133.524224662884	-0.139617919921875	-0.13946533203125	-1.48284912109375E-06	2.06806035407681E-07	94052.28125	7.66569428378716E-05
2	671	133.624932662629	-0.149688720703125	-0.149566650390625	-1.4501953125E-06	2.16900858163172E-07	103135.5234375	7.65092481742613E-05
2	672	133.725640662375	-0.159759521484375	-0.15960693359375	-1.422119140625E-06	2.26980077400185E-07	112231.765625	7.63646166888066E-05
2	673	133.826348662121	-0.169830322265625	-0.169677734375	-1.39892578125E-06	2.37366549526996E-07	121291.453125	7.62225681683049E-05
2	674	133.927056661867	-0.179901123046875	-0.17974853515625	-1.37908935546875E-06	2.47889289539671E-07	130338.5703125	7.60826806072146E-05
2	675	134.027764661612	-0.189971923828125	-0.1898193359375	-1.36383056640625E-06	2.58881414083589E-07	139181.03125	7.59445683797821E-05
2	676	134.128472661358	-0.200042724609375	-0.199951171875	-1.351318359375E-06	2.70197688223561E-07	147967.484375	7.5807845860254E-05
2	677	134.229180661104	-0.189971923828125	-0.1898193359375	-1.199951171875E-06	2.2777393837714E-07	158189.21875	7.5679381552618E-05
