Potential - Start -0.2 V, Upper Vertex 1.5 V, Lower Vertex -0.2 V, Stop -0.19 V; Scan - # end cross 5, Rate 0.1 Vps, Step 0.01 V 
Scan	Index	Time (s)	Potential applied (V)	WE(1).Potential (V)	WE(1).Current (A)	WE(1).Power (W)	WE(1).Resistance (Ω)	WE(1).Charge (C)
1	1	66.79057183137	-0.189971923828125	-0.189849853515625	-1.82189941406249E-07	3.45887336550277E-08	1042043.5625	0
1	2	66.8912798311158	-0.179901123046875	-0.17974853515625	-1.5106201171875E-07	2.71531757078947E-08	1189899	-1.67805680462152E-08
1	3	66.9919878308615	-0.169830322265625	-0.169647216796875	-1.263427734375E-07	2.14336992598874E-08	1342753.625	-3.07490104489716E-08
1	4	67.0926958306072	-0.159759521484375	-0.159698486328125	-1.055908203125E-07	1.68626925756143E-08	1512427.875	-4.24277928345873E-08
1	5	67.193403830353	-0.149688720703125	-0.149566650390625	-8.75854492187494E-08	1.30998625280654E-08	1707665.5	-5.2154991436737E-08
1	6	67.2941118300987	-0.139617919921875	-0.139556884765625	-7.14111328125003E-08	9.96591520419088E-09	1954273.625	-6.01611063189011E-08
1	7	67.3948198298444	-0.129547119140625	-0.12945556640625	-5.67626953124997E-08	7.34824689985203E-09	2280645.25	-6.66151649397762E-08
1	8	67.4955278295902	-0.119476318359375	-0.119384765625	-4.2724609375E-08	5.10066744396909E-09	2794285.75	-7.16247541276971E-08
1	9	67.5962358293359	-0.109405517578125	-0.109344482421875	-2.92968749999997E-08	3.20345150406354E-09	3732291.75	-7.52513216184525E-08
1	10	67.6969438290816	-0.099334716796875	-0.09930419921875	-1.52587890625E-08	1.51526169389626E-09	6508000.5	-7.74948745174697E-08
1	11	67.7976518288274	-0.089263916015625	-0.089202880859375	-1.52587890625E-09	1.36112787707532E-10	58460000	-7.83400508908016E-08
1	12	67.8983598285731	-0.079193115234375	-0.0791015625	1.31225585937506E-08	-1.03801489625965E-09	-6027907	-7.77561126596993E-08
1	13	67.9990678283189	-0.069122314453125	-0.069061279296875	2.92968749999997E-08	-2.02327954390569E-09	-2357291.75	-7.56201288254488E-08
1	14	68.0997758280646	-0.059051513671875	-0.05908203125	4.66918945312506E-08	-2.75865197352232E-09	-1265359.5	-7.17937851391071E-08
1	15	68.2004838278103	-0.048980712890625	-0.0488372802734375	6.89697265624997E-08	-3.3682938660462E-09	-708097.375	-6.59697647620305E-08
1	16	68.3011918275561	-0.038909912109375	-0.038763427734375	9.67407226562494E-08	-3.75000164254402E-09	-400694	-5.76255771989054E-08
1	17	68.4018998273018	-0.028839111328125	-0.0287017822265625	1.324462890625E-07	-3.80144449252384E-09	-216705.0625	-4.6085094851378E-08
1	18	68.5026078270475	-0.018768310546875	-0.0186431884765625	1.812744140625E-07	-3.3795333198583E-09	-102845.1171875	-3.02880032165831E-08
1	19	68.6033158267933	-0.008697509765625	-0.00856933593750001	2.46582031250001E-07	-2.1130441840711E-09	-34752.47265625	-8.74371952619413E-09
1	20	68.704023826539	0.001373291015625	0.00145263671875	3.35083007812501E-07	4.8675385944108E-10	4335.15478515625	2.05454426804863E-08
1	21	68.8047318262848	0.011444091796875	0.0115234375	4.55322265624999E-07	5.24687759906328E-09	25308.310546875	6.03455063696856E-08
1	22	68.9054398260305	0.021514892578125	0.021588134765625	6.11572265625E-07	1.32027047072825E-08	35299.40234375	1.14067916001659E-07
1	23	69.0061478257762	0.031585693359375	0.031689453125	8.0902099609375E-07	2.56374335094733E-08	39170.125	1.85600470103964E-07
1	24	69.106855825522	0.041656494140625	0.041748046875	1.04644775390625E-06	4.36871516740212E-08	39895.01171875	2.79030757610599E-07
1	25	69.2075638252677	0.051727294921875	0.0517578125	1.31134033203125E-06	6.78721008284811E-08	39469.3984375	3.97754803316275E-07
1	26	69.3082718250134	0.061798095703125	0.06182861328125	1.58477783203125E-06	9.79846106474724E-08	39014.05859375	5.43585940704361E-07
1	27	69.4089798247592	0.071868896484375	0.071868896484375	1.8389892578125E-06	1.32166121602495E-07	39080.65234375	7.15986288923887E-07
1	28	69.5096878245049	0.081939697265625	0.08197021484375	2.0501708984375E-06	1.68052949334196E-07	39982.13671875	9.11821075533226E-07
1	29	69.6103958242506	0.092010498046875	0.092041015625	2.19635009765625E-06	2.02154296857771E-07	41906.34765625	1.12565032850398E-06
1	30	69.7111038239964	0.102081298828125	0.102081298828125	2.27386474609375E-06	2.32119063525715E-07	44893.30078125	1.35074355966935E-06
1	31	69.8118118237421	0.112152099609375	0.112213134765625	2.28912353515625E-06	2.56869725490105E-07	49020.12890625	1.58050829668355E-06
1	32	69.9125198234879	0.122222900390625	0.122283935546875	2.257080078125E-06	2.76004641364125E-07	54177.93359375	1.80942788574612E-06
1	33	70.0132278232336	0.132293701171875	0.13238525390625	2.19482421875E-06	2.90562354621215E-07	60317.01953125	2.03359900297073E-06
1	34	70.1139358229793	0.142364501953125	0.14239501953125	2.11639404296875E-06	3.01363968446822E-07	67281.90625	2.25068606596324E-06
1	35	70.2146438227251	0.152435302734375	0.152435302734375	2.0330810546875E-06	3.09913332330325E-07	74977.484375	2.45962883127504E-06
1	36	70.3153518224708	0.162506103515625	0.16253662109375	1.95068359375E-06	3.17057526899589E-07	83322.90625	2.66022721007175E-06
1	37	70.4160598222165	0.172576904296875	0.172607421875	1.8731689453125E-06	3.23322865369846E-07	92147.28125	2.85277360489999E-06
1	38	70.5167678219623	0.182647705078125	0.182647705078125	1.80206298828125E-06	3.29142665123072E-07	101354.7890625	3.0378362225747E-06
1	39	70.617475821708	0.192718505859375	0.19268798828125	1.73797607421875E-06	3.34887118924598E-07	110869.1875	3.21609127240663E-06
1	40	70.7181838214537	0.202789306640625	0.202850341796875	1.6802978515625E-06	3.40848998803267E-07	120722.8515625	3.38821496370656E-06
1	41	70.8188918211995	0.212860107421875	0.212860107421875	1.62872314453125E-06	3.46690171681985E-07	130691.3984375	3.55483757630282E-06
1	42	70.9195998209452	0.222930908203125	0.222900390625	1.5826416015625E-06	3.52771422740261E-07	140840.734375	3.71654255104659E-06
1	43	71.020307820691	0.233001708984375	0.2330322265625	1.54083251953125E-06	3.5906361972593E-07	151237.875	3.87382215194521E-06
1	44	71.1210158204367	0.243072509765625	0.24310302734375	1.50421142578125E-06	3.65678346270215E-07	161614.9375	4.0271520447277E-06
1	45	71.2217238201824	0.253143310546875	0.253204345703125	1.470947265625E-06	3.7245024486765E-07	172136.921875	4.17696310250903E-06
1	46	71.3224318199282	0.263214111328125	0.263214111328125	1.44073486328125E-06	3.79221745561154E-07	182694.34375	4.32357819590834E-06
1	47	71.4231398196739	0.273284912109375	0.27325439453125	1.41326904296875E-06	3.86181966405275E-07	193349.171875	4.46728836323018E-06
1	48	71.5238478194196	0.283355712890625	0.2833251953125	1.3885498046875E-06	3.93411141885736E-07	204043.953125	4.60837145510595E-06
1	49	71.6245558191654	0.293426513671875	0.29339599609375	1.3653564453125E-06	4.00590096205633E-07	214886.015625	4.74704165753792E-06
1	50	71.7252638189111	0.303497314453125	0.30352783203125	1.343994140625E-06	4.07939609203822E-07	225840.15625	4.88346813654061E-06
1	51	71.8259718186569	0.313568115234375	0.31353759765625	1.3250732421875E-06	4.15460249314492E-07	236619.078125	5.01786644235835E-06
1	52	71.9266798184026	0.323638916015625	0.323638916015625	1.307373046875E-06	4.23116802039658E-07	247549.015625	5.15042074766825E-06
1	53	72.0273878181483	0.333709716796875	0.333740234375	1.2908935546875E-06	4.30823121178037E-07	258534.28125	5.28125383425504E-06
1	54	72.1280958178941	0.343780517578125	0.34381103515625	1.27532958984375E-06	4.38472369523879E-07	269586.03125	5.41047347724088E-06
1	55	72.2288038176398	0.353851318359375	0.35382080078125	1.260986328125E-06	4.46163198830618E-07	280590.5	5.53818699700059E-06
1	56	72.3295118173855	0.363922119140625	0.3638916015625	1.24786376953125E-06	4.54087142998105E-07	291611.625	5.66451763006626E-06
1	57	72.4302198171313	0.373992919921875	0.373931884765625	1.2353515625E-06	4.61937332829621E-07	302692.6875	5.78955723540275E-06
1	58	72.530927816877	0.384063720703125	0.384033203125	1.2237548828125E-06	4.69962515126099E-07	313815.46875	5.91338312005973E-06
1	59	72.6316358166227	0.394134521484375	0.394073486328125	1.21307373046875E-06	4.78040192319895E-07	324855.34375	6.03608714300208E-06
1	60	72.7323438163685	0.404205322265625	0.40423583984375	1.20452880859375E-06	4.86913677377743E-07	335596.65625	6.15782346358174E-06
1	61	72.8330518161142	0.414276123046875	0.414276123046875	1.19537353515625E-06	4.95214749207662E-07	346566.25	6.2786680246063E-06
1	62	72.93375981586	0.424346923828125	0.42437744140625	1.18743896484375E-06	5.03922308325855E-07	357388.875	6.398652203643E-06
1	63	73.0344678156057	0.434417724609375	0.434417724609375	1.18011474609375E-06	5.12662779783568E-07	368114.8125	6.51786785965669E-06
1	64	73.1351758153514	0.444488525390625	0.44451904296875	1.1737060546875E-06	5.2173464837324E-07	378731.1875	6.63639229969704E-06
1	65	73.2358838150972	0.454559326171875	0.454559326171875	1.16790771484375E-06	5.30883369265212E-07	389208.25	6.75430192131898E-06
1	66	73.3365918148429	0.464630126953125	0.464599609375	1.16241455078125E-06	5.40057328635157E-07	399684.96875	6.87164265400497E-06
1	67	73.4372998145886	0.474700927734375	0.474639892578125	1.1578369140625E-06	5.49555579709704E-07	409936.75	6.98847679814207E-06
1	68	73.5380078143344	0.484771728515625	0.4847412109375	1.15264892578125E-06	5.58736417133332E-07	420545.40625	7.10481890564552E-06
1	69	73.6387158140801	0.494842529296875	0.494781494140625	1.14898681640625E-06	5.68497398489853E-07	430624.15625	7.22071536074509E-06
1	70	73.7394238138259	0.504913330078125	0.504852294921875	1.14501953125E-06	5.78065737499855E-07	440911.53125	7.33622800908051E-06
1	71	73.8401318135716	0.514984130859375	0.514923095703125	1.14105224609375E-06	5.8755409781952E-07	451270.4375	7.45134093449451E-06
1	72	73.9408398133173	0.525054931640625	0.525054931640625	1.13861083984375E-06	5.97833263782377E-07	461136.40625	7.56613098928938E-06
1	73	74.0415478130631	0.535125732421875	0.535064697265625	1.13616943359375E-06	6.07924164341966E-07	470937.40625	7.68067548051476E-06
1	74	74.1422558128088	0.545196533203125	0.545166015625	1.1334228515625E-06	6.17903651800589E-07	480990.84375	7.79495803726604E-06
1	75	74.2429638125545	0.555267333984375	0.55517578125	1.1322021484375E-06	6.28571172001102E-07	490350.4375	7.90904141467763E-06
1	76	74.3436718123003	0.565338134765625	0.565338134765625	1.13037109375E-06	6.39041843442101E-07	500135	8.02297108748462E-06
1	77	74.444379812046	0.575408935546875	0.5753173828125	1.1297607421875E-06	6.49970957056212E-07	509238.28125	8.13677797850687E-06
1	78	74.5450878117917	0.585479736328125	0.58544921875	1.1285400390625E-06	6.60702880850295E-07	518766.90625	8.25049210106954E-06
1	79	74.6457958115375	0.595550537109375	0.59552001953125	1.12823486328125E-06	6.71886482450645E-07	527833.375	8.36412982607726E-06
1	80	74.7465038112832	0.605621337890625	0.605560302734375	1.12823486328125E-06	6.83214238961227E-07	536732.5	8.47775208967505E-06
1	81	74.847211811029	0.615692138671875	0.61566162109375	1.1285400390625E-06	6.94798757194803E-07	545538.125	8.59138981468277E-06
1	82	74.9479198107747	0.625762939453125	0.625732421875	1.12884521484375E-06	7.06355024249206E-07	554312	8.70505846251035E-06
1	83	75.0486278105204	0.635833740234375	0.6357421875	1.1297607421875E-06	7.18236549346329E-07	562722.875	8.81878804648295E-06
1	84	75.1493358102662	0.645904541015625	0.645843505859375	1.13067626953125E-06	7.30239889890072E-07	571201.125	8.93261039891513E-06
1	85	75.2500438100119	0.655975341796875	0.655853271484375	1.1322021484375E-06	7.42558427191398E-07	579272.25	9.04655553313205E-06
1	86	75.3507518097576	0.666046142578125	0.665985107421875	1.13372802734375E-06	7.55045959976997E-07	587429.375	9.16065346245887E-06
1	87	75.4514598095034	0.676116943359375	0.676055908203125	1.1358642578125E-06	7.67907692988956E-07	595190.8125	9.27493692870485E-06
1	88	75.5521678092491	0.686187744140625	0.68609619140625	1.13739013671875E-06	7.80359016516741E-07	603219.75	9.38940411288058E-06
1	89	75.6528758089948	0.696258544921875	0.696136474609375	1.1395263671875E-06	7.93265883203276E-07	610899.8125	9.50405592448078E-06
1	90	75.7535838087406	0.706329345703125	0.706207275390625	1.1407470703125E-06	8.05603860953852E-07	619074.375	9.61887690209551E-06
1	91	75.8542918084863	0.716400146484375	0.716400146484375	1.14349365234375E-06	8.19198987755954E-07	626501.25	9.73389796854462E-06
1	92	75.9549998082321	0.726470947265625	0.726318359375	1.14532470703125E-06	8.31870295314729E-07	634159.375	9.84914913715329E-06
1	93	76.0557078079778	0.736541748046875	0.736480712890625	1.14837646484375E-06	8.45757085699006E-07	641323.4375	9.96464586933143E-06
1	94	76.1564158077235	0.746612548828125	0.746551513671875	1.15020751953125E-06	8.58689134020096E-07	649058.125	1.00803890745738E-05
1	95	76.2571238074693	0.756683349609375	0.75653076171875	1.15234375E-06	8.71783527145453E-07	656514.8125	1.01963314591558E-05
1	96	76.357831807215	0.766754150390625	0.7666015625	1.15478515625E-06	8.85260021732392E-07	663847.8125	1.0312504855392E-05
1	97	76.4585398069607	0.776824951171875	0.7769775390625	1.1566162109375E-06	8.98664836768148E-07	671767.8125	1.04288928923779E-05
1	98	76.5592478067065	0.786895751953125	0.78704833984375	1.1590576171875E-06	9.12234327188344E-07	679041.625	1.05454964796081E-05
1	99	76.6599558064522	0.796966552734375	0.79681396484375	1.16119384765625E-06	9.25255449146789E-07	686202.375	1.06623301689979E-05
1	100	76.760663806198	0.807037353515625	0.80718994140625	1.1627197265625E-06	9.38535663408402E-07	694225.6875	1.07793484858121E-05
1	101	76.8613718059437	0.817108154296875	0.8172607421875	1.1639404296875E-06	9.5124278232106E-07	702150	1.0896505045821E-05
1	102	76.9620798056894	0.827178955078125	0.82763671875	1.165771484375E-06	9.64835294325894E-07	709947.6875	1.10138153104344E-05
1	103	77.0627878054352	0.837249755859375	0.83709716796875	1.1663818359375E-06	9.76374963101989E-07	717687.0625	1.11312483568327E-05
1	104	77.1634958051809	0.847320556640625	0.84747314453125	1.16790771484375E-06	9.89770455817052E-07	725633.625	1.12487896331004E-05
1	105	77.2642038049266	0.857391357421875	0.85723876953125	1.16851806640625E-06	1.00169893357815E-06	733611.9375	1.13664382297429E-05
1	106	77.3649118046724	0.867462158203125	0.8673095703125	1.16973876953125E-06	1.0145256510441E-06	741455.75	1.14841786853503E-05
1	107	77.4656198044181	0.877532958984375	0.87738037109375	1.1712646484375E-06	1.02764465736982E-06	749088.0625	1.16020573841524E-05
1	108	77.5663278041638	0.887603759765625	0.8880615234375	1.17218017578125E-06	1.04096807262977E-06	757615.1875	1.17200588647393E-05
1	109	77.6670358039096	0.897674560546875	0.89752197265625	1.1737060546875E-06	1.05342689948884E-06	764690.625	1.18381840366055E-05
1	110	77.7677438036553	0.907745361328125	0.90789794921875	1.17431640625E-06	1.06615937056631E-06	773128.9375	1.19564165288466E-05
1	111	77.8684518034011	0.917816162109375	0.91766357421875	1.175537109375E-06	1.07874757304671E-06	780633.4375	1.20747408800526E-05
1	112	77.9691598031468	0.927886962890625	0.927734375	1.177978515625E-06	1.09285110738711E-06	787564.8125	1.2193249858683E-05
1	113	78.0698678028925	0.937957763671875	0.9375	1.17919921875E-06	1.10549922283099E-06	795031.0625	1.23119434647379E-05
1	114	78.1705758026383	0.948028564453125	0.94818115234375	1.18133544921875E-06	1.12011991859617E-06	802635	1.24308053273126E-05
1	115	78.271283802384	0.958099365234375	0.958251953125	1.18377685546875E-06	1.1343564665367E-06	809487	1.25498982015415E-05
1	116	78.3719918021297	0.968170166015625	0.96832275390625	1.18621826171875E-06	1.14864212719112E-06	816310.8125	1.26692366393399E-05
1	117	78.4726998018755	0.978240966796875	0.9783935546875	1.18927001953125E-06	1.16357409751799E-06	822684.1875	1.27888524730224E-05
1	118	78.5734078016212	0.988311767578125	0.9881591796875	1.19140625E-06	1.17729905468877E-06	829405.75	1.29087293316843E-05
1	119	78.674115801367	0.998382568359375	0.99884033203125	1.195068359375E-06	1.19368246487284E-06	835801.875	1.30288972286507E-05
1	120	78.7748238011127	1.00845336914063	1.00830078125	1.1981201171875E-06	1.20806544146035E-06	841569	1.3149404367141E-05
1	121	78.8755318008584	1.01852416992188	1.0186767578125	1.201171875E-06	1.2236058637427E-06	848069.125	1.32702180053457E-05
1	122	78.9762398006042	1.02859497070313	1.0284423828125	1.20452880859375E-06	1.23878839985991E-06	853813.0625	1.33913545141695E-05
1	123	79.0769478003499	1.03866577148438	1.03912353515625	1.2078857421875E-06	1.25514247883984E-06	860283	1.35128293550224E-05
1	124	79.1776558000956	1.04873657226563	1.04827880859375	1.2109375E-06	1.26940017253219E-06	865675.375	1.36346270664944E-05
1	125	79.2783637998414	1.05880737304688	1.05865478515625	1.2139892578125E-06	1.28519548070472E-06	872046.3125	1.3756731277681E-05
1	126	79.3790717995871	1.06887817382813	1.0693359375	1.217041015625E-06	1.30142564103153E-06	878635.9375	1.38791438075714E-05
1	127	79.4797797993328	1.07894897460938	1.0791015625	1.22039794921875E-06	1.31693332150462E-06	884221.0625	1.40018782985862E-05
1	128	79.5804877990786	1.08901977539063	1.0888671875	1.22314453125E-06	1.33184198602976E-06	890219.5625	1.41249201988103E-05
1	129	79.6811957988243	1.09909057617188	1.09893798828125	1.2255859375E-06	1.34684296426713E-06	896663.3125	1.42482240335084E-05
1	130	79.7819037985701	1.10916137695313	1.1090087890625	1.22894287109375E-06	1.36290850605292E-06	902408.75	1.43718189065112E-05
1	131	79.8826117983158	1.11923217773438	1.11907958984375	1.231689453125E-06	1.37835854729929E-06	908572.875	1.44957220982178E-05
1	132	79.9833197980615	1.12930297851563	1.12945556640625	1.234130859375E-06	1.39389601372386E-06	915183	1.46198863149039E-05
1	133	80.0840277978073	1.13937377929688	1.138916015625	1.236572265625E-06	1.40835186357435E-06	921026.6875	1.47442960951594E-05
1	134	80.184735797553	1.14944458007813	1.14959716796875	1.23870849609375E-06	1.42401574976248E-06	928061.125	1.48689359775744E-05
1	135	80.2854437972987	1.15951538085938	1.15936279296875	1.24053955078125E-06	1.43823535836418E-06	934563.375	1.49937759488239E-05
1	136	80.3861517970445	1.16958618164063	1.16973876953125	1.2420654296875E-06	1.45289209285693E-06	941769.0625	1.51187850860879E-05
1	137	80.4868597967902	1.17965698242188	1.17950439453125	1.24481201171875E-06	1.46826118907484E-06	947536.1875	1.52440097735962E-05
1	138	80.587567796536	1.18972778320313	1.1895751953125	1.24664306640625E-06	1.48297556279431E-06	954222.8125	1.53694636537693E-05
1	139	80.6882757962817	1.19979858398438	1.1993408203125	1.24908447265625E-06	1.49807794969092E-06	960175.9375	1.54951339936815E-05
1	140	80.7889837960274	1.20986938476563	1.21002197265625	1.2506103515625E-06	1.51326605646318E-06	967545.125	1.56210044224281E-05
1	141	80.8896917957732	1.21994018554688	1.219482421875	1.25274658203125E-06	1.52770235217758E-06	973447.0625	1.5747056750115E-05
1	142	80.9903997955189	1.23001098632813	1.2298583984375	1.25457763671875E-06	1.54295275933691E-06	980296.8125	1.58733109856257E-05
1	143	81.0911077952646	1.24008178710938	1.240234375	1.2567138671875E-06	1.55861971506965E-06	986886.875	1.59997653099708E-05
1	144	81.1918157950104	1.25015258789063	1.25	1.25885009765625E-06	1.57356248564611E-06	992969.75	1.61264342750655E-05
1	145	81.2925237947561	1.26022338867188	1.26007080078125	1.26068115234375E-06	1.58854743403936E-06	999515.9375	1.62533015100053E-05
1	146	81.3932317945018	1.27029418945313	1.2701416015625	1.263427734375E-06	1.60473211963108E-06	1005314	1.63804015755886E-05
1	147	81.4939397942476	1.28036499023438	1.28021240234375	1.26617431640625E-06	1.62097205702594E-06	1011087	1.65077763085719E-05
1	148	81.5946477939933	1.29043579101563	1.290283203125	1.268310546875E-06	1.63647973749903E-06	1017324.375	1.66353984241141E-05
1	149	81.6953557937391	1.30050659179688	1.3006591796875	1.27105712890625E-06	1.65321205258806E-06	1023289.375	1.67632661032258E-05
1	150	81.7960637934848	1.31057739257813	1.31072998046875	1.2744140625E-06	1.67041264376167E-06	1028496.25	1.68914393725572E-05
1	151	81.8967717932305	1.32064819335938	1.32049560546875	1.278076171875E-06	1.68769395259005E-06	1033190.0625	1.70199673448224E-05
1	152	81.9974797929763	1.33071899414063	1.33026123046875	1.28204345703125E-06	1.70545263245003E-06	1037610.125	1.71488809428411E-05
1	153	82.098187792722	1.34078979492188	1.34033203125	1.28631591796875E-06	1.72409033893928E-06	1041992.9375	1.72782074514544E-05
1	154	82.1988957924677	1.35086059570313	1.35101318359375	1.290283203125E-06	1.74318961398967E-06	1047067.1875	1.74079505086411E-05
1	155	82.2996037922135	1.36093139648438	1.36077880859375	1.29547119140625E-06	1.76284970621055E-06	1050412.25	1.75381519511575E-05
1	156	82.4003117919592	1.37100219726563	1.37115478515625	1.30035400390625E-06	1.78298648734199E-06	1054447.375	1.76688627107069E-05
1	157	82.5010197917049	1.38107299804688	1.38092041015625	1.3055419921875E-06	1.80284962425503E-06	1057737.25	1.78000809682999E-05
1	158	82.6017277914507	1.39114379882813	1.39129638671875	1.31103515625E-06	1.82403846338275E-06	1061219.75	1.79318358277669E-05
1	159	82.7024357911964	1.40121459960938	1.4013671875	1.31622314453125E-06	1.84451187124068E-06	1064688.125	1.80641291080974E-05
1	160	82.8031437909422	1.41128540039063	1.4117431640625	1.3226318359375E-06	1.86721638328891E-06	1067374.25	1.8197004465037E-05
1	161	82.9038517906879	1.42135620117188	1.4215087890625	1.3287353515625E-06	1.88880881069053E-06	1069820.875	1.83305128302891E-05
1	162	83.0045597904336	1.43142700195313	1.43157958984375	1.3348388671875E-06	1.910928176585E-06	1072473.75	1.84646341949701E-05
1	163	83.1052677901794	1.44149780273438	1.44134521484375	1.34124755859375E-06	1.93320079233672E-06	1074630.25	1.85993849299848E-05
1	164	83.2059757899251	1.45156860351563	1.45111083984375	1.34765625E-06	1.95559846360993E-06	1076766.375	1.87347832252271E-05
1	165	83.3066837896708	1.46163940429688	1.46148681640625	1.353759765625E-06	1.978502041311E-06	1079576.125	1.88708090718137E-05
1	166	83.4073917894166	1.47171020507813	1.47186279296875	1.35955810546875E-06	2.00108297576662E-06	1082603.875	1.90074351849034E-05
1	167	83.5080997891623	1.48178100585938	1.48193359375	1.3653564453125E-06	2.02336764232314E-06	1085382.25	1.91446470125811E-05
1	168	83.6088077889081	1.49185180664063	1.4910888671875	1.370849609375E-06	2.0440584194148E-06	1087711.5	1.92824245459633E-05
1	169	83.7095157886538	1.50192260742188	1.50146484375	1.3751220703125E-06	2.06469735530845E-06	1091877.5	1.94206950254738E-05
1	170	83.8102237883995	1.49185180664063	1.49200439453125	1.28265380859375E-06	1.91372510016663E-06	1163216.75	1.95545253518503E-05
1	171	83.9109317881453	1.48178100585938	1.48162841796875	1.21978759765625E-06	1.80727192855556E-06	1214661	1.96805340237916E-05
1	172	84.011639787891	1.47171020507813	1.47186279296875	1.1712646484375E-06	1.72394084074767E-06	1256644	1.98009329324123E-05
1	173	84.1123477876367	1.46163940429688	1.4617919921875	1.13128662109375E-06	1.65370568083745E-06	1292150	1.99168753169943E-05
1	174	84.2130557873825	1.45156860351563	1.451416015625	1.09710693359375E-06	1.59235844421346E-06	1322948.625	2.00290833163308E-05
1	175	84.3137637871282	1.44149780273438	1.441650390625	1.06689453125E-06	1.53808878167183E-06	1351258.625	2.01380498765502E-05
1	176	84.4144717868739	1.43142700195313	1.4312744140625	1.0406494140625E-06	1.48945491673658E-06	1375366.625	2.02441733563319E-05
1	177	84.5151797866197	1.42135620117188	1.4215087890625	1.01654052734375E-06	1.44502132570778E-06	1398378.875	2.0347761164885E-05
1	178	84.6158877863654	1.41128540039063	1.41082763671875	9.9456787109375E-07	1.40316376473493E-06	1418533.375	2.04490279429592E-05
1	179	84.7165957861112	1.40121459960938	1.40106201171875	9.7503662109375E-07	1.3660868489751E-06	1436932.625	2.05482065211982E-05
1	180	84.8173037858569	1.39114379882813	1.3909912109375	9.5672607421875E-07	1.33079743136477E-06	1453907.625	2.06454769795528E-05
1	181	84.9180117856026	1.38107299804688	1.3812255859375	9.39331054687501E-07	1.29742807075672E-06	1470435.375	2.07409520953661E-05
1	182	85.0187197853484	1.37100219726563	1.37054443359375	9.2376708984375E-07	1.26606380490557E-06	1483647.25	2.0834766473854E-05
1	183	85.1194277850941	1.36093139648438	1.3604736328125	9.0850830078125E-07	1.23600159440684E-06	1497480.75	2.09270292543806E-05
1	184	85.2201357848398	1.35086059570313	1.35040283203125	8.94775390624999E-07	1.20830725336418E-06	1509208.75	2.10178313864162E-05
1	185	85.3208437845856	1.34078979492188	1.34063720703125	8.81042480468749E-07	1.18115826808207E-06	1521648.75	2.11072510865051E-05
1	186	85.4215517843313	1.33071899414063	1.33087158203125	8.685302734375E-07	1.15590228233486E-06	1532326.125	2.11953483812977E-05
1	187	85.5222597840771	1.32064819335938	1.32110595703125	8.55712890625E-07	1.13048736238852E-06	1543866	2.12821705645183E-05
1	188	85.6229677838228	1.31057739257813	1.3116455078125	8.4381103515625E-07	1.10678092823946E-06	1554430.5	2.13677485589869E-05
1	189	85.7236757835685	1.30050659179688	1.3006591796875	8.32519531250001E-07	1.08282415567373E-06	1562316.75	2.14521587622585E-05
1	190	85.8243837833143	1.29043579101563	1.290283203125	8.21533203124999E-07	1.0600105042613E-06	1570579.5	2.1535446649068E-05
1	191	85.92509178306	1.28036499023438	1.280517578125	8.10546875E-07	1.03791944638942E-06	1579819.375	2.16176285903202E-05
1	192	86.0257997828057	1.27029418945313	1.270751953125	8.00476074218751E-07	1.01720650036441E-06	1587495.25	2.16987500607502E-05
1	193	86.1265077825515	1.26022338867188	1.26007080078125	7.904052734375E-07	9.95966615846555E-07	1594208.625	2.17788583540823E-05
1	194	86.2272157822972	1.25015258789063	1.25	7.80639648437501E-07	9.7579959401628E-07	1601251	2.18579662032425E-05
1	195	86.3279237820429	1.24008178710938	1.240234375	7.71179199218749E-07	9.56442931965285E-07	1608231.125	2.19361063500401E-05
1	196	86.4286317817887	1.23001098632813	1.2298583984375	7.6171875E-07	9.36806202389562E-07	1614583.375	2.20132933463901E-05
1	197	86.5293397815344	1.21994018554688	1.219482421875	7.53173828125001E-07	9.18482214729011E-07	1619124.75	2.20895744860172E-05
1	198	86.6300477812802	1.20986938476563	1.209716796875	7.43713378906249E-07	8.99682561339432E-07	1626590.125	2.21649497689214E-05
1	199	86.7307557810259	1.19979858398438	1.1993408203125	7.3516845703125E-07	8.81717539868987E-07	1631382.375	2.22394173761131E-05
1	200	86.8314637807716	1.18972778320313	1.190185546875	7.26318359375E-07	8.64453568283352E-07	1638655.5	2.23130082304124E-05
1	201	86.9321717805174	1.17965698242188	1.17950439453125	7.1746826171875E-07	8.46256966724468E-07	1643981.25	2.23857077799039E-05
1	202	87.0328797802631	1.16958618164063	1.16973876953125	7.0831298828125E-07	8.28541146802309E-07	1651443.375	2.24575032916619E-05
1	203	87.1335877800088	1.15951538085938	1.15966796875	7.000732421875E-07	8.11852487458964E-07	1656495.25	2.25284202315379E-05
1	204	87.2342957797546	1.14944458007813	1.1492919921875	6.9122314453125E-07	7.94417189808883E-07	1662693.125	2.25984767894261E-05
1	205	87.3350037795003	1.13937377929688	1.1395263671875	6.8267822265625E-07	7.77929813011724E-07	1669199.875	2.26676584134111E-05
1	206	87.435711779246	1.12930297851563	1.12945556640625	6.73828125000001E-07	7.61058856824093E-07	1676177.625	2.27359651034931E-05
1	207	87.5364197789918	1.11923217773438	1.1187744140625	6.6558837890625E-07	7.44643216421537E-07	1680880.375	2.28034095925977E-05
1	208	87.6371277787375	1.10916137695313	1.1090087890625	6.5643310546875E-07	7.2799008421498E-07	1689446.875	2.28699791477993E-05
1	209	87.7378357784833	1.09909057617188	1.0986328125	6.47583007812499E-07	7.1145586844068E-07	1696512.875	2.29356410272885E-05
1	210	87.838543778229	1.08901977539063	1.0888671875	6.38732910156251E-07	6.95495316449524E-07	1704730.125	2.300041160197E-05
1	211	87.9392517779747	1.07894897460938	1.0784912109375	6.304931640625E-07	6.79981326356938E-07	1710551.75	2.3064323613653E-05
1	212	88.0399597777205	1.06887817382813	1.0687255859375	6.2225341796875E-07	6.65018148993113E-07	1717508.625	2.31274043471785E-05
1	213	88.1406677774662	1.05880737304688	1.0589599609375	6.1370849609375E-07	6.49892740511859E-07	1725509.75	2.31896392506314E-05
1	214	88.2413757772119	1.04873657226563	1.04827880859375	6.0577392578125E-07	6.35019944184023E-07	1730478.625	2.32510446949163E-05
1	215	88.3420837769577	1.03866577148438	1.03851318359375	5.9814453125E-07	6.21181015958427E-07	1736224.5	2.33116679737577E-05
1	216	88.4427917767034	1.02859497070313	1.02874755859375	5.908203125E-07	6.07804963692615E-07	1741219	2.33715363719966E-05
1	217	88.5434997764492	1.01852416992188	1.01837158203125	5.8441162109375E-07	5.95148208049068E-07	1742558.75	2.34307135542622E-05
1	218	88.6442077761949	1.00845336914063	1.00860595703125	5.7708740234375E-07	5.82053814923711E-07	1747752.5	2.34891995205544E-05
1	219	88.7449157759406	0.998382568359375	0.99884033203125	5.706787109375E-07	5.7001693676284E-07	1750267.375	2.35469942708733E-05
1	220	88.8456237756864	0.988311767578125	0.9881591796875	5.645751953125E-07	5.57890189156751E-07	1750270.25	2.36041596508585E-05
1	221	88.9463317754321	0.978240966796875	0.97808837890625	5.5816650390625E-07	5.4593618870058E-07	1752323.625	2.36606938415207E-05
1	222	89.0470397751778	0.968170166015625	0.96832275390625	5.5267333984375E-07	5.3516617981586E-07	1752070.75	2.37166295846691E-05
1	223	89.1477477749236	0.958099365234375	0.958251953125	5.462646484375E-07	5.23459164014639E-07	1754190	2.37719650613144E-05
1	224	89.2484557746693	0.948028564453125	0.94757080078125	5.4046630859375E-07	5.12130100105423E-07	1753246.75	2.38266857195413E-05
1	225	89.349163774415	0.937957763671875	0.93780517578125	5.340576171875E-07	5.00842020301207E-07	1756000	2.38807933783391E-05
1	226	89.4498717741608	0.927886962890625	0.927734375	5.267333984375E-07	4.88668661091651E-07	1761297.75	2.39342080021743E-05
1	227	89.5505797739065	0.917816162109375	0.91796875	5.19409179687499E-07	4.76801403692662E-07	1767332.5	2.3986885935301E-05
1	228	89.6512877736523	0.907745361328125	0.9075927734375	5.1116943359375E-07	4.63933702121722E-07	1775522.375	2.40387798839947E-05
1	229	89.751995773398	0.897674560546875	0.89752197265625	5.035400390625E-07	4.51938234391491E-07	1782424.25	2.40898734773509E-05
1	230	89.8527037731437	0.887603759765625	0.88775634765625	4.95300292968751E-07	4.39705985399996E-07	1792359.75	2.4140168534359E-05
1	231	89.9534117728895	0.877532958984375	0.877685546875	4.87060546875E-07	4.27486014586975E-07	1802005	2.41896359511884E-05
1	232	90.0541197726352	0.867462158203125	0.86761474609375	4.7882080078125E-07	4.15431969713609E-07	1811982.25	2.4238270270871E-05
1	233	90.1548277723809	0.857391357421875	0.85693359375	4.70886230468751E-07	4.03518214397991E-07	1819831.5	2.42860933212796E-05
1	234	90.2555357721267	0.847320556640625	0.84716796875	4.63256835937501E-07	3.92456342979131E-07	1828722.125	2.43331305682659E-05
1	235	90.3562437718724	0.837249755859375	0.83709716796875	4.55322265624999E-07	3.8114896483421E-07	1838471.875	2.43793838308193E-05
1	236	90.4569517716182	0.827178955078125	0.82794189453125	4.486083984375E-07	3.71421663203364E-07	1845578.375	2.44249004026642E-05
1	237	90.5576597713639	0.817108154296875	0.8172607421875	4.412841796875E-07	3.60644207830774E-07	1852005.625	2.44697112066206E-05
1	238	90.6583677711096	0.807037353515625	0.80718994140625	4.345703125E-07	3.50780766211756E-07	1857443.875	2.45138144236989E-05
1	239	90.7590757708554	0.796966552734375	0.79681396484375	4.28466796875E-07	3.41408309623148E-07	1859686.625	2.45572700805496E-05
1	240	90.8597837706011	0.786895751953125	0.78704833984375	4.2236328125E-07	3.32420313498005E-07	1863439.375	2.46001145569608E-05
1	241	90.9604917703468	0.776824951171875	0.7769775390625	4.17175292968749E-07	3.24135811524684E-07	1862472.625	2.46423878706992E-05
1	242	91.0611997700926	0.766754150390625	0.7666015625	4.1168212890625E-07	3.15596167865806E-07	1862120.125	2.46841245825635E-05
1	243	91.1619077698383	0.756683349609375	0.7568359375	4.06799316406251E-07	3.07880327454768E-07	1860465.125	2.47253374254797E-05
1	244	91.262615769584	0.746612548828125	0.746490478515625	4.0252685546875E-07	3.00482440707128E-07	1854511.125	2.47660900640767E-05
1	245	91.3633237693298	0.736541748046875	0.736480712890625	3.97644042968751E-07	2.92857180284045E-07	1852110.5	2.48063824983547E-05
1	246	91.4640317690755	0.726470947265625	0.72637939453125	3.936767578125E-07	2.85958662971098E-07	1845116.375	2.48462292802287E-05
1	247	91.5647397688213	0.716400146484375	0.716339111328125	3.89709472656249E-07	2.79164140692956E-07	1838136.25	2.4885675884434E-05
1	248	91.665447768567	0.706329345703125	0.706298828125	3.86962890625001E-07	2.73311428600209E-07	1825236.625	2.49247841566103E-05
1	249	91.7661557683127	0.696258544921875	0.696197509765625	3.8299560546875E-07	2.66640597601508E-07	1817768.875	2.49635540967574E-05
1	250	91.8668637680585	0.686187744140625	0.6861572265625	3.7994384765625E-07	2.60701199294999E-07	1805943.875	2.50019711529603E-05
1	251	91.9675717678042	0.676116943359375	0.676055908203125	3.7689208984375E-07	2.54800113452802E-07	1793765.25	2.5040080799954E-05
1	252	92.0682797675499	0.666046142578125	0.66595458984375	3.74755859375001E-07	2.49570376809061E-07	1777035.875	2.5077930331463E-05
1	253	92.1689877672957	0.655975341796875	0.6558837890625	3.72314453125E-07	2.44195007326198E-07	1761639.375	2.51155470323283E-05
1	254	92.2696957670414	0.645904541015625	0.645843505859375	3.69873046874999E-07	2.38880119241003E-07	1746122.125	2.51529199886136E-05
1	255	92.3704037667871	0.635833740234375	0.635772705078125	3.67431640625E-07	2.33603003607641E-07	1730315.75	2.51900455623399E-05
1	256	92.4711117665329	0.625762939453125	0.625640869140625	3.65295410156249E-07	2.28543726166208E-07	1712698.5	2.52269419434015E-05
1	257	92.5718197662786	0.615692138671875	0.6156005859375	3.6346435546875E-07	2.23748870098461E-07	1693702.75	2.52636382356286E-05
1	258	92.6725277660244	0.605621337890625	0.605560302734375	3.61328125E-07	2.18805965346291E-07	1675929.125	2.53001344390213E-05
1	259	92.7732357657701	0.595550537109375	0.595489501953125	3.59191894531249E-07	2.13894992384667E-07	1657859	2.53364141826751E-05
1	260	92.8739437655158	0.585479736328125	0.58544921875	3.570556640625E-07	2.09037949616686E-07	1639658.125	2.53724811045686E-05
1	261	92.9746517652616	0.575408935546875	0.575439453125	3.5552978515625E-07	2.0458585936467E-07	1618540.75	2.54083624895429E-05
1	262	93.0753597650073	0.565338134765625	0.565338134765625	3.5369873046875E-07	1.99959373503589E-07	1598360.75	2.54440747085027E-05
1	263	93.176067764753	0.555267333984375	0.555145263671875	3.521728515625E-07	1.95507084299607E-07	1576343.25	2.5479617761448E-05
1	264	93.2767757644988	0.545196533203125	0.545166015625	3.50341796875001E-07	1.90994441595649E-07	1556097.625	2.55149934673682E-05
1	265	93.3774837642445	0.535125732421875	0.535064697265625	3.48815917968751E-07	1.86639084631679E-07	1533945.75	2.55501981882844E-05
1	266	93.4781917639903	0.525054931640625	0.52496337890625	3.47290039062501E-07	1.82314551011586E-07	1511599.25	2.55852501140907E-05
1	267	93.578899763736	0.514984130859375	0.514923095703125	3.460693359375E-07	1.78199087486064E-07	1487918.875	2.56201637967024E-05
1	268	93.6796077634817	0.504913330078125	0.504852294921875	3.44238281250001E-07	1.73789473478791E-07	1466578.125	2.56549228652148E-05
1	269	93.7803157632275	0.494842529296875	0.49481201171875	3.43017578125E-07	1.69729219123838E-07	1442526.75	2.56895291386172E-05
1	270	93.8810237629732	0.484771728515625	0.4847412109375	3.40881347656249E-07	1.65239228522296E-07	1422023.25	2.57239662460051E-05
1	271	93.9817317627189	0.474700927734375	0.474609375	3.39355468749999E-07	1.61061279868591E-07	1398561.125	2.57582196354633E-05
1	272	94.0824397624647	0.464630126953125	0.46453857421875	3.3721923828125E-07	1.5665133901166E-07	1377556.625	2.57922874880023E-05
1	273	94.1831477622104	0.454559326171875	0.454498291015625	3.3538818359375E-07	1.52433344169367E-07	1355141.125	2.5826155251707E-05
1	274	94.2838557619561	0.444488525390625	0.4444580078125	3.33557128906251E-07	1.48252141229932E-07	1332479.375	2.58598392974818E-05
1	275	94.3845637617019	0.434417724609375	0.434478759765625	3.314208984375E-07	1.43995336543412E-07	1310957.625	2.58933232544223E-05
1	276	94.4852717614476	0.424346923828125	0.42431640625	3.2958984375E-07	1.39850371283501E-07	1287407.5	2.59266089415178E-05
1	277	94.5859797611934	0.414276123046875	0.41424560546875	3.277587890625E-07	1.35772637577247E-07	1263873.375	2.59597090916941E-05
1	278	94.6866877609391	0.404205322265625	0.404205322265625	3.25927734375001E-07	1.31741714426425E-07	1240168.625	2.59926237049513E-05
1	279	94.7873957606848	0.394134521484375	0.3941650390625	3.24401855468751E-07	1.27867863852771E-07	1215051.75	2.60253709711833E-05
1	280	94.8881037604306	0.384063720703125	0.384002685546875	3.22875976562501E-07	1.23985230970902E-07	1189319.5	2.6057963623316E-05
1	281	94.9888117601763	0.373992919921875	0.3740234375	3.2073974609375E-07	1.19964170153253E-07	1166127.5	2.6090372557519E-05
1	282	95.089519759922	0.363922119140625	0.36395263671875	3.192138671875E-07	1.16178725306781E-07	1140153	2.61225959548028E-05
1	283	95.1902277596678	0.353851318359375	0.353851318359375	3.16772460937501E-07	1.12090354775773E-07	1117052	2.61546210822416E-05
1	284	95.2909357594135	0.343780517578125	0.34381103515625	3.143310546875E-07	1.0807048766992E-07	1093786.375	2.6186400646111E-05
1	285	95.3916437591593	0.333709716796875	0.333709716796875	3.11889648437499E-07	1.04080605467516E-07	1069960.875	2.62179328274215E-05
1	286	95.492351758905	0.323638916015625	0.3236083984375	3.0975341796875E-07	1.00238800371244E-07	1044729.125	2.62492339970777E-05
1	287	95.5930597586507	0.313568115234375	0.313568115234375	3.070068359375E-07	9.62675485993714E-08	1021371.8125	2.62802914221538E-05
1	288	95.6937677583965	0.303497314453125	0.303466796875	3.04260253906249E-07	9.2332882672963E-08	997392.1875	2.63110705418512E-05
1	289	95.7944757581422	0.293426513671875	0.293426513671875	3.0181884765625E-07	8.85616486812069E-08	972194.1875	2.63415895460639E-05
1	290	95.8951837578879	0.283355712890625	0.2833251953125	2.9876708984375E-07	8.46482421934525E-08	948314.625	2.63718320638873E-05
1	291	95.9958917576337	0.273284912109375	0.273284912109375	2.947998046875E-07	8.05643409762524E-08	927018.625	2.64017198787769E-05
1	292	96.0965997573794	0.263214111328125	0.263214111328125	2.911376953125E-07	7.66315508826665E-08	904088.0625	2.64312238869024E-05
1	293	96.1973077571251	0.253143310546875	0.253143310546875	2.8656005859375E-07	7.25407574009296E-08	883386.625	2.64603131654439E-05
1	294	96.2980157568709	0.243072509765625	0.24310302734375	2.81372070312499E-07	6.84024001884609E-08	863991.375	2.64889113168465E-05
1	295	96.3987237566166	0.233001708984375	0.23297119140625	2.75573730468751E-07	6.4200733618236E-08	845404.25	2.6516954676481E-05
1	296	96.4994317563624	0.222930908203125	0.222900390625	2.6885986328125E-07	5.9928964901701E-08	829057.9375	2.65443704847712E-05
1	297	96.6001397561081	0.212860107421875	0.212890625	2.60314941406251E-07	5.54186136980661E-08	817819.4375	2.65710168605438E-05
1	298	96.7008477558538	0.202789306640625	0.202789306640625	2.49633789062501E-07	5.06230612984382E-08	812347.1875	2.65966937149642E-05
1	299	96.8015557555996	0.192718505859375	0.192718505859375	2.3651123046875E-07	4.55800908127912E-08	814838.75	2.66211736743571E-05
1	300	96.9022637553453	0.182647705078125	0.18267822265625	2.18505859375E-07	3.99162622954918E-08	836033.5	2.66440856648842E-05
1	301	97.002971755091	0.172576904296875	0.17254638671875	1.94396972656249E-07	3.3542491451044E-08	887598.1875	2.66648767137667E-05
1	302	97.1036797548368	0.162506103515625	0.162567138671875	1.60827636718749E-07	2.61452886007874E-08	1010815.9375	2.66827628365718E-05
1	303	97.2043877545825	0.152435302734375	0.1524658203125	1.1566162109375E-07	1.76344432389897E-08	1318205.75	2.66966853814665E-05
1	304	97.3050957543282	0.142364501953125	0.142425537109375	5.24902343749994E-08	7.47594963712572E-09	2713372.25	2.670515277714E-05
1	305	97.405803754074	0.132293701171875	0.132293701171875	-3.44848632812506E-08	-4.56213022914653E-09	-3836283.25	2.67060604528524E-05
1	306	97.5065117538197	0.122222900390625	0.122283935546875	-1.5106201171875E-07	-1.84724573415451E-08	-809494.9375	2.66967163042864E-05
1	307	97.6072197535655	0.112152099609375	0.112152099609375	-3.0548095703125E-07	-3.42603279079867E-08	-367132.875	2.66737279162044E-05
1	308	97.7079277533112	0.102081298828125	0.102081298828125	-5.0048828125E-07	-5.10904953898716E-08	-203963.40625	2.66331444436219E-05
1	309	97.8086357530569	0.092010498046875	0.09210205078125	-7.36389160156251E-07	-6.78229525874485E-08	-125072.5234375	2.65708622464444E-05
1	310	97.9093437528027	0.081939697265625	0.082000732421875	-1.00311279296875E-06	-8.2255979805268E-08	-81746.2734375	2.64832706307061E-05
1	311	98.0100517525484	0.071868896484375	0.0718994140625	-1.28173828125E-06	-9.21562275379983E-08	-56095.23828125	2.63682195509318E-05
1	312	98.1107597522941	0.061798095703125	0.06182861328125	-1.54510498046875E-06	-9.55316963313635E-08	-40015.80078125	2.62258763541467E-05
1	313	98.2114677520399	0.051727294921875	0.05181884765625	-1.76666259765625E-06	-9.1546418445887E-08	-29331.4921875	2.60591168625979E-05
1	314	98.3121757517856	0.041656494140625	0.041729736328125	-1.923828125E-06	-8.02808344246841E-08	-21690.9921875	2.58732852671528E-05
1	315	98.4128837515314	0.031585693359375	0.0316864013671875	-2.010498046875E-06	-6.37054498042744E-08	-15760.474609375	2.56751773122232E-05
1	316	98.5135917512771	0.021514892578125	0.021624755859375	-2.030029296875E-06	-4.38988863038503E-08	-10652.435546875	2.54717197094578E-05
1	317	98.6142997510228	0.011444091796875	0.0115631103515625	-1.99859619140625E-06	-2.31099885894537E-08	-5785.6162109375	2.52688623731956E-05
1	318	98.7150077507686	0.001373291015625	0.00146484375	-1.93328857421875E-06	-2.83196577299805E-09	-757.695373535156	2.5070876290556E-05
1	319	98.8157157505143	-0.008697509765625	-0.008575439453125	-1.8499755859375E-06	1.58643533865188E-08	4635.43408203125	2.48803735303227E-05
1	320	98.91642375026	-0.018768310546875	-0.01868896484375	-1.7608642578125E-06	3.29087299633102E-08	10613.51953125	2.46985528065125E-05
1	321	99.0171317500058	-0.028839111328125	-0.0287506103515625	-1.673583984375E-06	4.81165578491982E-08	17179.06640625	2.45256160269491E-05
1	322	99.1178397497515	-0.038909912109375	-0.0387603759765625	-1.59149169921875E-06	6.16868121028347E-08	24354.74609375	2.43612048507202E-05
1	323	99.2185477494972	-0.048980712890625	-0.0488616943359375	-1.51641845703125E-06	7.40947712074558E-08	32221.77734375	2.42047099163756E-05
1	324	99.319255749243	-0.059051513671875	-0.05902099609375	-1.44927978515625E-06	8.55379340691798E-08	40724.3671875	2.40553745243233E-05
1	325	99.4199637489887	-0.069122314453125	-0.069091796875	-1.38916015625E-06	9.59795727339952E-08	49736.37890625	2.39124492509291E-05
1	326	99.5206717487345	-0.079193115234375	-0.079193115234375	-1.33636474609375E-06	1.05830878283086E-07	59260.109375	2.37752065004315E-05
1	327	99.6213797484802	-0.089263916015625	-0.089202880859375	-1.2884521484375E-06	1.14933641270909E-07	69232.59375	2.36430369113805E-05
1	328	99.7220877482259	-0.099334716796875	-0.099273681640625	-1.2469482421875E-06	1.23789135386687E-07	79613.3203125	2.35153693211032E-05
1	329	99.8227957479717	-0.109405517578125	-0.109344482421875	-1.2103271484375E-06	1.32342591996348E-07	90342.9140625	2.33916362049058E-05
1	330	99.9235037477174	-0.119476318359375	-0.119384765625	-1.17767333984375E-06	1.40596256414938E-07	101373.4140625	2.3271390091395E-05
1	331	100.024211747463	-0.129547119140625	-0.12945556640625	-1.148681640625E-06	1.48703222180302E-07	112699.265625	2.31542489927961E-05
1	332	100.124919747209	-0.139617919921875	-0.13958740234375	-1.12335205078125E-06	1.56805796791559E-07	124259.7109375	2.303984365426E-05
1	333	100.225627746955	-0.149688720703125	-0.14959716796875	-1.1004638671875E-06	1.64626271725865E-07	135940.109375	2.29278648475884E-05
1	334	100.3263357467	-0.159759521484375	-0.159637451171875	-1.080322265625E-06	1.72459891700782E-07	147768.359375	2.28180542762857E-05
1	335	100.427043746446	-0.169830322265625	-0.169677734375	-1.06231689453125E-06	1.80251518600016E-07	159724.21875	2.27101645577932E-05
1	336	100.527751746192	-0.179901123046875	-0.1798095703125	-1.04644775390625E-06	1.88161322967062E-07	171828.515625	2.26039792323718E-05
1	337	100.628459745938	-0.189971923828125	-0.189849853515625	-1.03271484375E-06	1.9606076762102E-07	183835.6875	2.24992854782613E-05
1	338	100.729167745683	-0.200042724609375	-0.199920654296875	-1.0205078125E-06	2.04020579985809E-07	195903.125	2.23958977585426E-05
1	339	100.829875745429	-0.189971923828125	-0.18988037109375	-8.96606445312501E-07	1.70247957953507E-07	211776.71875	2.2299362171907E-05
2	340	100.930583745175	-0.179901123046875	-0.179718017578125	-8.1298828125E-07	1.46108646958965E-07	221058.5625	2.22132766793948E-05
2	341	101.031291744921	-0.169830322265625	-0.169708251953125	-7.464599609375E-07	1.26680404832769E-07	227350.78125	2.21347527258331E-05
2	342	101.131999744666	-0.159759521484375	-0.159637451171875	-6.903076171875E-07	1.10198946856599E-07	231255.53125	2.20624060602859E-05
2	343	101.232707744412	-0.149688720703125	-0.149627685546875	-6.4117431640625E-07	9.59374304443372E-08	233365.0625	2.19953599298606E-05
2	344	101.333415744158	-0.139617919921875	-0.139556884765625	-5.9783935546875E-07	8.34325959431226E-08	233435.4375	2.19329722312978E-05
2	345	101.434123743903	-0.129547119140625	-0.12945556640625	-5.584716796875E-07	7.22972615108119E-08	231803.296875	2.18747463804903E-05
2	346	101.534831743649	-0.119476318359375	-0.119384765625	-5.22460937499999E-07	6.23738785066053E-08	228504.671875	2.18203167605679E-05
2	347	101.635539743395	-0.109405517578125	-0.109283447265625	-4.8858642578125E-07	5.3394405341578E-08	223672.71875	2.17694068851415E-05
2	348	101.736247743141	-0.099334716796875	-0.099212646484375	-4.559326171875E-07	4.52342803214378E-08	217603.765625	2.1721845769207E-05
2	349	101.836955742886	-0.089263916015625	-0.089202880859375	-4.254150390625E-07	3.79482472112613E-08	209684.359375	2.16774678847287E-05
2	350	101.937663742632	-0.079193115234375	-0.07916259765625	-3.9520263671875E-07	3.12852641570771E-08	200308.890625	2.16361459024483E-05
2	351	102.038371742378	-0.069122314453125	-0.069091796875	-3.643798828125E-07	2.5175660667287E-08	189614.75	2.159789801226E-05
2	352	102.139079742124	-0.059051513671875	-0.0589599609375	-3.3233642578125E-07	1.9594541100787E-08	177410.46875	2.15628151636338E-05
2	353	102.239787741869	-0.048980712890625	-0.0488372802734375	-2.96630859374999E-07	1.44866438844815E-08	164639.9375	2.15311447391286E-05
2	354	102.340495741615	-0.038909912109375	-0.0387939453125	-2.5634765625E-07	9.94473658977313E-09	151333.328125	2.15032996493392E-05
2	355	102.441203741361	-0.028839111328125	-0.0287384033203125	-2.08129882812499E-07	5.98132032791909E-09	138079.1875	2.14799110835884E-05
2	356	102.541911741107	-0.018768310546875	-0.0186767578125	-1.47705078125E-07	2.75865197352232E-09	126446.28125	2.14619940379634E-05
2	357	102.642619740852	-0.008697509765625	-0.0086181640625	-6.98852539062503E-08	6.02282557160549E-10	123318.7734375	2.14510364457965E-05
2	358	102.743327740598	0.001373291015625	0.00148620605468749	3.14331054687506E-08	4.67160685135859E-11	47281.55859375	2.14491010410711E-05
2	359	102.844035740344	0.011444091796875	0.0115509033203125	1.629638671875E-07	1.88237980758288E-09	70880.15625	2.14588890230516E-05
2	360	102.94474374009	0.021514892578125	0.021630859375	3.3233642578125E-07	7.18872206206811E-09	65087.23828125	2.14838291867636E-05
2	361	103.045451739835	0.031585693359375	0.031671142578125	5.419921875E-07	1.71655116787406E-08	58434.69140625	2.1527856006287E-05
2	362	103.146159739581	0.041656494140625	0.0417755126953125	7.92846679687501E-07	3.31215765925208E-08	52690.53515625	2.15950694837375E-05
2	363	103.246867739327	0.051727294921875	0.0517578125	1.0699462890625E-06	5.5378077234991E-08	48374.21484375	2.16888693103101E-05
2	364	103.347575739072	0.061798095703125	0.061767578125	1.35528564453125E-06	8.37127061004139E-08	45575.32421875	2.18109889829066E-05
2	365	103.448283738818	0.071868896484375	0.0718994140625	1.62109375E-06	1.16555689544384E-07	44352.41015625	2.19608627958223E-05
2	366	103.548991738564	0.081939697265625	0.08197021484375	1.842041015625E-06	1.50992491398938E-07	44499.66796875	2.21352456719615E-05
2	367	103.64969973831	0.092010498046875	0.092041015625	1.9976806640625E-06	1.83868550607258E-07	46073.94140625	2.23285896936432E-05
2	368	103.750407738055	0.102081298828125	0.102142333984375	2.08343505859375E-06	2.12806909871688E-07	49025.9296875	2.25340900215087E-05
2	369	103.851115737801	0.112152099609375	0.112060546875	2.10357666015625E-06	2.35727952713205E-07	53271.43359375	2.27449236263055E-05
2	370	103.951823737547	0.122222900390625	0.12225341796875	2.07733154296875E-06	2.53960877216741E-07	58851.1796875	2.29554480029037E-05
2	371	104.052531737293	0.132293701171875	0.13232421875	2.01873779296875E-06	2.67127887809693E-07	65548	2.31617032113718E-05
2	372	104.153239737038	0.142364501953125	0.14239501953125	1.9439697265625E-06	2.76811590538273E-07	73249.609375	2.33612408919726E-05
2	373	104.253947736784	0.152435302734375	0.152435302734375	1.86370849609375E-06	2.84094966218618E-07	81791.390625	2.35529714700533E-05
2	374	104.35465573653	0.162506103515625	0.16253662109375	1.7840576171875E-06	2.89974678935323E-07	91105.03125	2.3736651201034E-05
2	375	104.455363736276	0.172576904296875	0.172637939453125	1.7095947265625E-06	2.95140893058488E-07	100981.796875	2.39125711232191E-05
2	376	104.556071736021	0.182647705078125	0.18267822265625	1.6412353515625E-06	2.99817941140645E-07	111305.328125	2.40812987613026E-05
2	377	104.656779735767	0.192718505859375	0.1927490234375	1.57989501953125E-06	3.04523211980268E-07	122001.1640625	2.42434962274274E-05
2	378	104.757487735513	0.202789306640625	0.20281982421875	1.5252685546875E-06	3.0935470363147E-07	132973.1875	2.43998529185774E-05
2	379	104.858195735259	0.212860107421875	0.212890625	1.47674560546875E-06	3.14385289357233E-07	144162.03125	2.45510163949803E-05
2	380	104.958903735004	0.222930908203125	0.22296142578125	1.43402099609375E-06	3.19731356057673E-07	155479.890625	2.46975851041498E-05
2	381	105.05961173475	0.233001708984375	0.23297119140625	1.39617919921875E-06	3.25269525092153E-07	166863.390625	2.48400974669494E-05
2	382	105.160319734496	0.243072509765625	0.243072509765625	1.36260986328125E-06	3.31212987703111E-07	178387.453125	2.49790136876982E-05
2	383	105.261027734241	0.253143310546875	0.25311279296875	1.331787109375E-06	3.37092359359303E-07	190055	2.51146866503404E-05
2	384	105.361735733987	0.263214111328125	0.263214111328125	1.30523681640625E-06	3.43556735060702E-07	201660.046875	2.52474710578099E-05
2	385	105.462443733733	0.273284912109375	0.27325439453125	1.28082275390625E-06	3.49990443737624E-07	213342.859375	2.53776906902203E-05
2	386	105.563151733479	0.283355712890625	0.28338623046875	1.258544921875E-06	3.56654282995805E-07	225169.75	2.5505558369332E-05
2	387	105.663859733224	0.293426513671875	0.29339599609375	1.239013671875E-06	3.63521621693508E-07	236798.046875	2.56313196587143E-05
2	388	105.76456773297	0.303497314453125	0.303436279296875	1.2200927734375E-06	3.70220391232579E-07	248699.359375	2.57551455433713E-05
2	389	105.865275732716	0.313568115234375	0.3135986328125	1.20330810546875E-06	3.77355775071919E-07	260613.75	2.58771724475082E-05
2	390	105.965983732462	0.323638916015625	0.32366943359375	1.18865966796875E-06	3.84732800284837E-07	272297.8125	2.59976186498534E-05
2	391	106.066691732207	0.333709716796875	0.333770751953125	1.17431640625E-06	3.91952454492639E-07	284225.59375	2.61166042037075E-05
2	392	106.167399731953	0.343780517578125	0.34381103515625	1.1614990234375E-06	3.99336158807273E-07	296006.3125	2.62342218775302E-05
2	393	106.268107731699	0.353851318359375	0.3538818359375	1.15020751953125E-06	4.07037532568211E-07	307667.8125	2.63506244664313E-05
2	394	106.368815731445	0.363922119140625	0.363922119140625	1.13861083984375E-06	4.14365672440908E-07	319619.40625	2.646587563504E-05
2	395	106.46952373119	0.373992919921875	0.37396240234375	1.12884521484375E-06	4.22145632228421E-07	331278.75	2.65800517809112E-05
2	396	106.570231730936	0.384063720703125	0.384063720703125	1.119384765625E-06	4.29915047561735E-07	343102.53125	2.66932584054302E-05
2	397	106.670939730682	0.394134521484375	0.3941650390625	1.112060546875E-06	4.38335376884424E-07	354445.65625	2.68056210188661E-05
2	398	106.771647730428	0.404205322265625	0.404205322265625	1.103515625E-06	4.46046897195629E-07	366288.71875	2.69171850959538E-05
2	399	106.872355730173	0.414276123046875	0.414306640625	1.0968017578125E-06	4.5441223051057E-07	377740.6875	2.70279797405237E-05
2	400	106.973063729919	0.424346923828125	0.42431640625	1.0906982421875E-06	4.62801153844339E-07	389031.90625	2.71381286438555E-05
2	401	107.073771729665	0.434417724609375	0.434356689453125	1.0858154296875E-06	4.71631182108467E-07	400028.125	2.72477245744085E-05
2	402	107.17447972941	0.444488525390625	0.4444580078125	1.08062744140625E-06	4.80293522286956E-07	411296.25	2.73568130069179E-05
2	403	107.275187729156	0.454559326171875	0.454620361328125	1.07635498046875E-06	4.8933287644104E-07	422370.3125	2.74654266831931E-05
2	404	107.375895728902	0.464630126953125	0.464599609375	1.0723876953125E-06	4.98230917855835E-07	433238.46875	2.75736238108948E-05
2	405	107.476603728648	0.474700927734375	0.474700927734375	1.06842041015625E-06	5.07180118347605E-07	444301.65625	2.76814225799171E-05
2	406	107.577311728393	0.484771728515625	0.484710693359375	1.065673828125E-06	5.16543479989195E-07	454839.625	2.77888830169104E-05
2	407	107.678019728139	0.494842529296875	0.49481201171875	1.06231689453125E-06	5.2564712405001E-07	465785.71875	2.78960360446945E-05
2	408	107.778727727885	0.504913330078125	0.5048828125	1.0595703125E-06	5.34958815023856E-07	476497.6875	2.80028816632694E-05
2	409	107.879435727631	0.514984130859375	0.51495361328125	1.05743408203125E-06	5.44529484614031E-07	486984.15625	2.81094798992854E-05
2	410	107.980143727376	0.525054931640625	0.524993896484375	1.0552978515625E-06	5.54024950361054E-07	497484.09375	2.82158653135411E-05
2	411	108.080851727122	0.535125732421875	0.53509521484375	1.05377197265625E-06	5.63868297831505E-07	507790.34375	2.83220651908778E-05
2	412	108.181559726868	0.545196533203125	0.545166015625	1.0528564453125E-06	5.73981537854706E-07	517797.125	2.84281431959243E-05
2	413	108.282267726614	0.555267333984375	0.555267333984375	1.0516357421875E-06	5.83938970066811E-07	528003.5	2.85341120616067E-05
2	414	108.382975726359	0.565338134765625	0.565277099609375	1.05133056640625E-06	5.94293055655726E-07	537677.8125	2.86400045297341E-05
2	415	108.483683726105	0.575408935546875	0.57537841796875	1.0516357421875E-06	6.05088530392095E-07	547127.0625	2.87458969978616E-05
2	416	108.584391725851	0.585479736328125	0.585479736328125	1.0516357421875E-06	6.15711428508803E-07	556732.4375	2.88518058368936E-05
2	417	108.685099725597	0.595550537109375	0.595489501953125	1.05224609375E-06	6.26601490694156E-07	565922.3125	2.89577437797561E-05
2	418	108.785807725342	0.605621337890625	0.605560302734375	1.0528564453125E-06	6.37568064121297E-07	575159.4375	2.90637453872478E-05
2	419	108.886515725088	0.615692138671875	0.615692138671875	1.0540771484375E-06	6.48986940632312E-07	584105.4375	2.91698379442096E-05
2	420	108.987223724834	0.625762939453125	0.62567138671875	1.0546875E-06	6.59887746223831E-07	593229.1875	2.92760214506416E-05
2	421	109.087931724579	0.635833740234375	0.635772705078125	1.05682373046875E-06	6.71899670123821E-07	601588.1875	2.93823450192576E-05
2	422	109.188639724325	0.645904541015625	0.6458740234375	1.0589599609375E-06	6.83954681335308E-07	609913.5625	2.94888832286233E-05
2	423	109.289347724071	0.655975341796875	0.65594482421875	1.060791015625E-06	6.9582034711857E-07	618354.4375	2.95956215268234E-05
2	424	109.390055723817	0.666046142578125	0.665924072265625	1.0638427734375E-06	7.08438506080711E-07	625961	2.97026053885929E-05
2	425	109.490763723562	0.676116943359375	0.676025390625	1.0662841796875E-06	7.2083520308297E-07	634001.125	2.98098657367518E-05
2	426	109.591471723308	0.686187744140625	0.686065673828125	1.0693359375E-06	7.33634635707858E-07	641581.0625	2.99174025713E-05
2	427	109.692179723054	0.696258544921875	0.696136474609375	1.07208251953125E-06	7.46315720334678E-07	649331.125	3.00252322631422E-05
2	428	109.7928877228	0.706329345703125	0.70623779296875	1.075439453125E-06	7.59515955905954E-07	656696.9375	3.01333675452042E-05
2	429	109.893595722545	0.716400146484375	0.71630859375	1.07879638671875E-06	7.7275109333641E-07	663988.6875	3.02418429782847E-05
2	430	109.994303722291	0.726470947265625	0.726348876953125	1.0821533203125E-06	7.86020848408953E-07	671207	3.03506549244048E-05
2	431	110.095011722037	0.736541748046875	0.73638916015625	1.08612060546875E-06	7.99807423845778E-07	677999.4375	3.04598361253738E-05
2	432	110.195719721783	0.746612548828125	0.74652099609375	1.090087890625E-06	8.13773453955946E-07	684826.4375	3.05694156850222E-05
2	433	110.296427721528	0.756683349609375	0.7562255859375	1.09405517578125E-06	8.2735249407051E-07	691213.375	3.06793954223394E-05
2	434	110.397135721274	0.766754150390625	0.76690673828125	1.09771728515625E-06	8.41846770072152E-07	698637.75	3.07897607854102E-05
2	435	110.49784372102	0.776824951171875	0.77728271484375	1.10137939453125E-06	8.56083090639004E-07	705735.6875	3.09004935843404E-05
2	436	110.598551720765	0.786895751953125	0.78643798828125	1.10565185546875E-06	8.69526559199585E-07	711289	3.10116265609395E-05
2	437	110.699259720511	0.796966552734375	0.797119140625	1.10870361328125E-06	8.83768848325417E-07	718965.0625	3.11231306113768E-05
2	438	110.799967720257	0.807037353515625	0.80718994140625	1.11175537109375E-06	8.97397683274903E-07	726050	3.12349366140552E-05
2	439	110.900675720003	0.817108154296875	0.8172607421875	1.1151123046875E-06	9.11337451725558E-07	732895.5	3.13470700348262E-05
2	440	111.001383719748	0.827178955078125	0.8270263671875	1.1181640625E-06	9.24751134334656E-07	739628.8125	3.14595235977322E-05
2	441	111.102091719494	0.837249755859375	0.83770751953125	1.12030029296875E-06	9.38483935897239E-07	747752.6875	3.15722390951123E-05
2	442	111.20279971924	0.847320556640625	0.84747314453125	1.123046875E-06	9.51752099354053E-07	754619.5625	3.16852019750513E-05
2	443	111.303507718986	0.857391357421875	0.8575439453125	1.12579345703125E-06	9.65417370935029E-07	761724.0625	3.17984413413797E-05
2	444	111.404215718731	0.867462158203125	0.8673095703125	1.12823486328125E-06	9.78528873929463E-07	768731.375	3.19119390042033E-05
2	445	111.504923718477	0.877532958984375	0.87738037109375	1.13006591796875E-06	9.91497699942556E-07	776397.5	3.20256549457554E-05
2	446	111.605631718223	0.887603759765625	0.887451171875	1.13189697265625E-06	1.00450324680423E-06	784038.8125	3.21395527862478E-05
2	447	111.706339717969	0.897674560546875	0.8984375	1.1334228515625E-06	1.01830960375082E-06	792676.375	3.22536216117442E-05
2	448	111.807047717714	0.907745361328125	0.90789794921875	1.13494873046875E-06	1.03041759302869E-06	799946.25	3.23678432323504E-05
2	449	111.90775571746	0.917816162109375	0.91766357421875	1.1358642578125E-06	1.04234118225577E-06	807899.0625	3.24821849062573E-05
2	450	112.008463717206	0.927886962890625	0.9283447265625	1.1376953125E-06	1.05617345980136E-06	815987.125	3.25966684613377E-05
2	451	112.109171716952	0.937957763671875	0.93780517578125	1.13983154296875E-06	1.06893992324331E-06	822757.75	3.27113521052524E-05
2	452	112.209879716697	0.948028564453125	0.9478759765625	1.1407470703125E-06	1.08128665488039E-06	830925.6875	3.28261885442771E-05
2	453	112.310587716443	0.958099365234375	0.95794677734375	1.142578125E-06	1.09452901142504E-06	838408.1875	3.29411632264964E-05
2	454	112.411295716189	0.968170166015625	0.96832275390625	1.14471435546875E-06	1.10845292056183E-06	845907.75	3.30563379975501E-05
2	455	112.512003715934	0.978240966796875	0.97869873046875	1.14654541015625E-06	1.12212251224264E-06	853606.625	3.31717092194594E-05
2	456	112.61271171568	0.988311767578125	0.98785400390625	1.14898681640625E-06	1.13503119791858E-06	859760.9375	3.32872987200972E-05
2	457	112.713419715426	0.998382568359375	0.99822998046875	1.151123046875E-06	1.14908550585824E-06	867179.25	3.34031210513785E-05
2	458	112.814127715172	1.00845336914063	1.00830078125	1.15447998046875E-06	1.16406306460703E-06	873380.9375	3.35192162310705E-05
2	459	112.914835714917	1.01852416992188	1.01837158203125	1.15753173828125E-06	1.17879744720994E-06	879778.5	3.36356351908762E-05
2	460	113.015543714663	1.02859497070313	1.0284423828125	1.16119384765625E-06	1.19422099942312E-06	885676.75	3.3752392482711E-05
2	461	113.116251714409	1.03866577148438	1.03851318359375	1.16455078125E-06	1.20940137549042E-06	891771.5	3.38695026584901E-05
2	462	113.216959714155	1.04873657226563	1.048583984375	1.16790771484375E-06	1.22464928153931E-06	897831.1875	3.39869511662982E-05
2	463	113.3176677139	1.05880737304688	1.0589599609375	1.1712646484375E-06	1.24032237636129E-06	904116.6875	3.41047380061354E-05
2	464	113.418375713646	1.06887817382813	1.06903076171875	1.17523193359375E-06	1.2563590416903E-06	909633.875	3.42228922818322E-05
2	465	113.519083713392	1.07894897460938	1.07879638671875	1.17919921875E-06	1.27211581002484E-06	914855.0625	3.43414503731765E-05
2	466	113.619791713138	1.08901977539063	1.0888671875	1.18255615234375E-06	1.28764656892599E-06	920774.1875	3.44603722624015E-05
2	467	113.720499712883	1.09909057617188	1.0986328125	1.1859130859375E-06	1.30288310629112E-06	926402.4375	3.45796361216344E-05
2	468	113.821207712629	1.10916137695313	1.10931396484375	1.18988037109375E-06	1.31995091123827E-06	932290.375	3.4699263778748E-05
2	469	113.921915712375	1.11923217773438	1.11907958984375	1.1932373046875E-06	1.33532751078747E-06	937851.6875	3.48192661476787E-05
2	470	114.022623712121	1.12930297851563	1.129150390625	1.19659423828125E-06	1.35113486976479E-06	943636.875	3.49396032106597E-05
2	471	114.123331711866	1.13937377929688	1.1395263671875	1.19964599609375E-06	1.36702828967827E-06	949885.5	3.50602640537545E-05
2	472	114.224039711612	1.14944458007813	1.14959716796875	1.2030029296875E-06	1.38296866225573E-06	955606.375	3.51812450389843E-05
2	473	114.324747711358	1.15951538085938	1.15966796875	1.2060546875E-06	1.39862299874949E-06	961538.5	3.5302549804328E-05
2	474	114.425455711103	1.16958618164063	1.16973876953125	1.20849609375E-06	1.41362477279472E-06	967929.3125	3.54241346940398E-05
2	475	114.526163710849	1.17965698242188	1.17919921875	1.21063232421875E-06	1.42757664889359E-06	974035.875	3.55459451384377E-05
2	476	114.626871710595	1.18972778320313	1.1895751953125	1.21307373046875E-06	1.44304237892356E-06	980628.9375	3.56679884134792E-05
2	477	114.727579710341	1.19979858398438	1.1993408203125	1.21551513671875E-06	1.45781689298019E-06	986693.4375	3.57902790710796E-05
2	478	114.828287710086	1.20986938476563	1.2091064453125	1.2176513671875E-06	1.47227001434658E-06	992982.5	3.59127989213448E-05
2	479	114.928995709832	1.21994018554688	1.2200927734375	1.21978759765625E-06	1.48825404266972E-06	1000250.1875	3.60355334123597E-05
2	480	115.029703709578	1.23001098632813	1.23016357421875	1.22222900390625E-06	1.50354162542499E-06	1006491.875	3.61584970960394E-05
2	481	115.130411709324	1.24008178710938	1.240234375	1.224365234375E-06	1.51849974372453E-06	1012961.1875	3.62816936103627E-05
2	482	115.231119709069	1.25015258789063	1.24969482421875	1.22650146484375E-06	1.53275254888285E-06	1018910.1875	3.64051047654357E-05
2	483	115.331827708815	1.26022338867188	1.259765625	1.2286376953125E-06	1.54779547756334E-06	1025335.375	3.65287305612583E-05
2	484	115.432535708561	1.27029418945313	1.2701416015625	1.23138427734375E-06	1.56403234541358E-06	1031474.6875	3.66526037396397E-05
2	485	115.533243708307	1.28036499023438	1.280517578125	1.23291015625E-06	1.57876309003768E-06	1038613.875	3.67766915587708E-05
2	486	115.633951708052	1.29043579101563	1.29058837890625	1.2347412109375E-06	1.59354260631517E-06	1045229.9375	3.69009467249271E-05
2	487	115.734659707798	1.30050659179688	1.30035400390625	1.23748779296875E-06	1.60917204539146E-06	1050801.5	3.70254347217269E-05
2	488	115.835367707544	1.31057739257813	1.3104248046875	1.23992919921875E-06	1.6248338852165E-06	1056854.625	3.71501810150221E-05
2	489	115.93607570729	1.32064819335938	1.32049560546875	1.24237060546875E-06	1.64054483775544E-06	1062883.875	3.72751746908762E-05
2	490	116.036783707035	1.33071899414063	1.33026123046875	1.24481201171875E-06	1.65592507528345E-06	1068644.25	3.74004157492891E-05
2	491	116.137491706781	1.34078979492188	1.34063720703125	1.24786376953125E-06	1.6729326262066E-06	1074345.75	3.75259296561126E-05
2	492	116.238199706527	1.35086059570313	1.3507080078125	1.25213623046875E-06	1.6912703131311E-06	1078723	3.76518146367744E-05
2	493	116.338907706272	1.36093139648438	1.361083984375	1.25640869140625E-06	1.71007764038222E-06	1083313.125	3.77781288989354E-05
2	494	116.439615706018	1.37100219726563	1.37054443359375	1.26068115234375E-06	1.72781938090338E-06	1087146	3.79048760805745E-05
2	495	116.540323705764	1.38107299804688	1.3812255859375	1.26556396484375E-06	1.74802926267148E-06	1091391.375	3.80320816475432E-05
2	496	116.64103170551	1.39114379882813	1.39068603515625	1.27105712890625E-06	1.76764126536E-06	1094117.75	3.81598110834602E-05
2	497	116.741739705255	1.40121459960938	1.40106201171875	1.27685546875E-06	1.78895356839348E-06	1097275.375	3.82881080440711E-05
2	498	116.842447705001	1.41128540039063	1.4111328125	1.282958984375E-06	1.81042537406029E-06	1099904.875	3.84170052711852E-05
2	499	116.943155704747	1.42135620117188	1.42120361328125	1.2896728515625E-06	1.83288761945732E-06	1101987.75	3.85465500585269E-05
2	500	117.043863704493	1.43142700195313	1.4312744140625	1.29608154296875E-06	1.85504836736072E-06	1104308.875	3.86767533200327E-05
2	501	117.144571704238	1.44149780273438	1.441650390625	1.30340576171875E-06	1.87905538950872E-06	1106064.125	3.88076477975119E-05
2	502	117.245279703984	1.45156860351563	1.451416015625	1.31103515625E-06	1.90285743428831E-06	1107076.375	3.89392953366041E-05
2	503	117.34598770373	1.46163940429688	1.4617919921875	1.31805419921875E-06	1.92672109733394E-06	1109053	3.90716777474154E-05
2	504	117.446695703476	1.47171020507813	1.47186279296875	1.3250732421875E-06	1.95032589545008E-06	1110778.5	3.9204769564094E-05
2	505	117.547403703221	1.48178100585938	1.48162841796875	1.33148193359375E-06	1.97276153812709E-06	1112766.5	3.93385380448308E-05
2	506	117.648111702967	1.49185180664063	1.49169921875	1.33819580078125E-06	1.99618557417125E-06	1114709.25	3.94729686377104E-05
2	507	117.748819702713	1.50192260742188	1.5020751953125	1.3446044921875E-06	2.01969692170678E-06	1117113	3.96080577047542E-05
2	508	117.849527702459	1.49185180664063	1.49169921875	1.253662109375E-06	1.8700867485677E-06	1189873.5	3.97388903365936E-05
2	509	117.950235702204	1.48178100585938	1.48193359375	1.1932373046875E-06	1.76829837528203E-06	1241943.75	3.98621014028322E-05
2	510	118.05094370195	1.47171020507813	1.4715576171875	1.14715576171875E-06	1.68810584000312E-06	1282788	3.99799500883091E-05
2	511	118.151651701696	1.46163940429688	1.46148681640625	1.1083984375E-06	1.61990976721427E-06	1318557.25	4.00935277866665E-05
2	512	118.252359701441	1.45156860351563	1.451416015625	1.07452392578125E-06	1.55958116465627E-06	1350752.625	4.0203445678344E-05
2	513	118.353067701187	1.44149780273438	1.441650390625	1.04583740234375E-06	1.50773189488973E-06	1378465.125	4.03102130803745E-05
2	514	118.453775700933	1.43142700195313	1.4312744140625	1.02020263671875E-06	1.46018987834395E-06	1402931.5	4.04142483603209E-05
2	515	118.554483700679	1.42135620117188	1.4208984375	9.967041015625E-07	1.41621535476588E-06	1425597	4.05158061766997E-05
2	516	118.655191700424	1.41128540039063	1.41082763671875	9.75341796875E-07	1.37603910843609E-06	1446495.625	4.06151084462181E-05
2	517	118.75589970017	1.40121459960938	1.40106201171875	9.56115722656251E-07	1.33957746584201E-06	1465368.625	4.07123625336681E-05
2	518	118.856607699916	1.39114379882813	1.39129638671875	9.3719482421875E-07	1.30391572383814E-06	1484532.75	4.08076994062867E-05
2	519	118.957315699662	1.38107299804688	1.38153076171875	9.197998046875E-07	1.27073167277558E-06	1501990.75	4.09012063755654E-05
2	520	119.058023699407	1.37100219726563	1.37176513671875	9.04541015625E-07	1.24081770991324E-06	1516531.75	4.09930689784233E-05
2	521	119.158731699153	1.36093139648438	1.36016845703125	8.88671874999999E-07	1.20874346976052E-06	1530563.125	4.10833636124153E-05
2	522	119.259439698899	1.35086059570313	1.3507080078125	8.7432861328125E-07	1.18096261303435E-06	1544851.75	4.11721375712659E-05
2	523	119.360147698645	1.34078979492188	1.3409423828125	8.60595703125E-07	1.15400916911312E-06	1558156.125	4.12594999943394E-05
2	524	119.46085569839	1.33071899414063	1.3299560546875	8.47473144531249E-07	1.12710199573485E-06	1569319.375	4.13455090892967E-05
2	525	119.561563698136	1.32064819335938	1.32080078125	8.349609375E-07	1.10281700926862E-06	1581871.375	4.14302230637986E-05
2	526	119.662271697882	1.31057739257813	1.31072998046875	8.2244873046875E-07	1.07800815385417E-06	1593692	4.15136819356121E-05
2	527	119.762979697628	1.30050659179688	1.3006591796875	8.10546875E-07	1.05424521734676E-06	1604668.75	4.15959111705888E-05
2	528	119.863687697373	1.29043579101563	1.28997802734375	7.9925537109375E-07	1.03102183857118E-06	1613974.875	4.16769689763896E-05
2	529	119.964395697119	1.28036499023438	1.28021240234375	7.88269042968751E-07	1.00915178791183E-06	1624080.625	4.17569062847178E-05
2	530	120.065103696865	1.27029418945313	1.2701416015625	7.769775390625E-07	9.8687144145515E-07	1634721.125	4.18357230955735E-05
2	531	120.16581169661	1.26022338867188	1.26068115234375	7.659912109375E-07	9.65670665209473E-07	1645816.75	4.19134194089565E-05
2	532	120.266519696356	1.25015258789063	1.24969482421875	7.55615234375E-07	9.44288387927372E-07	1653877.375	4.19900388806127E-05
2	533	120.367227696102	1.24008178710938	1.23992919921875	7.45544433593751E-07	9.24422295156546E-07	1663119.125	4.20656288042665E-05
2	534	120.467935695848	1.23001098632813	1.2298583984375	7.3516845703125E-07	9.04153068859159E-07	1672893.375	4.2140185541939E-05
2	535	120.568643695593	1.21994018554688	1.2200927734375	7.2479248046875E-07	8.84314033555711E-07	1683368.5	4.22137018176727E-05
2	536	120.669351695339	1.20986938476563	1.21002197265625	7.14721679687499E-07	8.6482890537809E-07	1692997.5	4.2286188545404E-05
2	537	120.770059695085	1.19979858398438	1.19964599609375	7.04345703125001E-07	8.4496548424795E-07	1703206.375	4.23576420871541E-05
2	538	120.870767694831	1.18972778320313	1.1895751953125	6.9427490234375E-07	8.25892186639976E-07	1713406.625	4.24280697188806E-05
2	539	120.971475694576	1.17965698242188	1.1798095703125	6.84204101562499E-07	8.07230549071392E-07	1724353.25	4.24974823545199E-05
2	540	121.072183694322	1.16958618164063	1.1688232421875	6.73828125000001E-07	7.87585918260447E-07	1734601.5	4.2565861804178E-05
2	541	121.172891694068	1.15951538085938	1.1590576171875	6.6375732421875E-07	7.69332984873472E-07	1746207	4.26332153438125E-05
2	542	121.273599693814	1.14944458007813	1.1492919921875	6.5338134765625E-07	7.50925948977965E-07	1758991.125	4.26995393354446E-05
2	543	121.374307693559	1.13937377929688	1.13983154296875	6.4239501953125E-07	7.32222076749167E-07	1774346.875	4.27647864853498E-05
2	544	121.475015693305	1.12930297851563	1.129150390625	6.32629394531251E-07	7.14333737050765E-07	1784852.875	4.28289895353373E-05
2	545	121.575723693051	1.11923217773438	1.119384765625	6.2255859375E-07	6.96882580086822E-07	1798039.375	4.28921921411529E-05
2	546	121.676431692797	1.10916137695313	1.1090087890625	6.1248779296875E-07	6.79254355873127E-07	1810662.75	4.29543833888602E-05
2	547	121.777139692542	1.09909057617188	1.0992431640625	6.03332519531249E-07	6.63209164031286E-07	1821952.5	4.30156032962259E-05
2	548	121.877847692288	1.08901977539063	1.0888671875	5.9417724609375E-07	6.46980083729431E-07	1832563	4.30759027949534E-05
2	549	121.978555692034	1.07894897460938	1.0791015625	5.8563232421875E-07	6.31956766028452E-07	1842626.375	4.31353109888732E-05
2	550	122.079263691779	1.06887817382813	1.06903076171875	5.77697753906251E-07	6.17576631611882E-07	1850501.875	4.3193889723625E-05
2	551	122.179971691525	1.05880737304688	1.0589599609375	5.6884765625E-07	6.02386876380478E-07	1861588	4.32516244472936E-05
2	552	122.280679691271	1.04873657226563	1.048583984375	5.615234375E-07	5.88804482504202E-07	1867391.25	4.33085406257305E-05
2	553	122.381387691017	1.03866577148438	1.038818359375	5.5389404296875E-07	5.75395290525194E-07	1875482.125	4.33647073805332E-05
2	554	122.482095690762	1.02859497070313	1.0284423828125	5.462646484375E-07	5.61801698495401E-07	1882681.625	4.34201065218076E-05
2	555	122.582803690508	1.01852416992188	1.01776123046875	5.389404296875E-07	5.48512673503865E-07	1888448.5	4.34747489634901E-05
2	556	122.683511690254	1.00845336914063	1.00860595703125	5.31921386718751E-07	5.36499101144727E-07	1896156	4.35286710853688E-05
2	557	122.78421969	0.998382568359375	0.99884033203125	5.24291992187501E-07	5.23683979736234E-07	1905122.25	4.35818546975497E-05
2	558	122.884927689745	0.988311767578125	0.9881591796875	5.1605224609375E-07	5.0994174216612E-07	1914843.375	4.36342415923718E-05
2	559	122.985635689491	0.978240966796875	0.97808837890625	5.078125E-07	4.96685515827266E-07	1926081.75	4.36857990280259E-05
2	560	123.086343689237	0.968170166015625	0.96832275390625	4.98352050781251E-07	4.82565610582242E-07	1943049.625	4.37364615208935E-05
2	561	123.187051688983	0.958099365234375	0.95794677734375	4.8858642578125E-07	4.68039786483132E-07	1960649.625	4.37861563113984E-05
2	562	123.287759688728	0.948028564453125	0.9478759765625	4.791259765625E-07	4.54151972917316E-07	1978344	4.38348870375194E-05
2	563	123.388467688474	0.937957763671875	0.9381103515625	4.69360351562501E-07	4.40311794136505E-07	1998699.625	4.38826464232989E-05
2	564	123.48917568822	0.927886962890625	0.927734375	4.58984375E-07	4.25815585458622E-07	2021276.625	4.39293908129912E-05
2	565	123.589883687966	0.917816162109375	0.91796875	4.49218749999999E-07	4.12368763136328E-07	2043478.375	4.39751238445751E-05
2	566	123.690591687711	0.907745361328125	0.9075927734375	4.39453125E-07	3.98844463234127E-07	2065277.875	4.40198709839024E-05
2	567	123.791299687457	0.897674560546875	0.8978271484375	4.29687500000001E-07	3.85785114076498E-07	2089488.625	4.40636358689517E-05
2	568	123.892007687203	0.887603759765625	0.88775634765625	4.19921875E-07	3.72788292679616E-07	2114099	4.41064184997231E-05
2	569	123.992715686948	0.877532958984375	0.877685546875	4.11071777343749E-07	3.60791744924427E-07	2135115.25	4.41482625319622E-05
2	570	124.093423686694	0.867462158203125	0.86700439453125	4.0252685546875E-07	3.48992529097814E-07	2153904.5	4.41892298113089E-05
2	571	124.19413168644	0.857391357421875	0.85723876953125	3.94592285156251E-07	3.38259781074157E-07	2172467.25	4.42293676314875E-05
2	572	124.294839686186	0.847320556640625	0.84747314453125	3.863525390625E-07	3.27423379076208E-07	2193523	4.42686905444134E-05
2	573	124.395547685931	0.837249755859375	0.83740234375	3.79333496093751E-07	3.1765475227985E-07	2207562.25	4.4307245843811E-05
2	574	124.496255685677	0.827178955078125	0.8270263671875	3.71398925781249E-07	3.0715671073267E-07	2226787.25	4.43450480815955E-05
2	575	124.596963685423	0.817108154296875	0.81695556640625	3.64074707031251E-07	2.97432848128665E-07	2243923	4.43820827058516E-05
2	576	124.697671685169	0.807037353515625	0.80718994140625	3.582763671875E-07	2.89197089387017E-07	2252981.25	4.44184552179649E-05
2	577	124.798379684914	0.796966552734375	0.797119140625	3.51867675781251E-07	2.80480463743515E-07	2265394.75	4.44542165496387E-05
2	578	124.89908768466	0.786895751953125	0.787353515625	3.466796875E-07	2.72959454150623E-07	2271126.75	4.44893885287456E-05
2	579	124.999795684406	0.776824951171875	0.77667236328125	3.41186523437501E-07	2.64990120513175E-07	2276386.5	4.45240257249679E-05
2	580	125.100503684152	0.766754150390625	0.76690673828125	3.36608886718751E-07	2.58147622389515E-07	2278332	4.45581572421361E-05
2	581	125.201211683897	0.756683349609375	0.75714111328125	3.32031250000001E-07	2.51394510542013E-07	2280331	4.45918267359957E-05
2	582	125.301919683643	0.746612548828125	0.746551513671875	3.2806396484375E-07	2.44916634528636E-07	2275628	4.46250633103773E-05
2	583	125.402627683389	0.736541748046875	0.736419677734375	3.2318115234375E-07	2.37996957253017E-07	2278659	4.46578560513444E-05
2	584	125.503335683135	0.726470947265625	0.726348876953125	3.19824218750001E-07	2.32303960956415E-07	2271087.75	4.46902340627275E-05
2	585	125.60404368288	0.716400146484375	0.71636962890625	3.16162109375E-07	2.26488921839518E-07	2265830.25	4.47222591901664E-05
2	586	125.704751682626	0.706329345703125	0.7061767578125	3.1280517578125E-07	2.20895728375581E-07	2257561	4.47539314336609E-05
2	587	125.805459682372	0.696258544921875	0.6961669921875	3.0975341796875E-07	2.15640099554548E-07	2247487.75	4.47852762590628E-05
2	588	125.906167682117	0.686187744140625	0.68609619140625	3.07312011718749E-07	2.10845598758169E-07	2232572	4.48163482360542E-05
2	589	126.006875681863	0.676116943359375	0.676025390625	3.04260253906249E-07	2.05687655352449E-07	2221865.5	4.48471437266562E-05
2	590	126.107583681609	0.666046142578125	0.66595458984375	3.01513671875001E-07	2.00794403326654E-07	2208704.5	4.48776481789537E-05
2	591	126.208291681355	0.655975341796875	0.6558837890625	2.99682617187499E-07	1.96556953824256E-07	2188594.75	4.49079198006075E-05
2	592	126.3089996811	0.645904541015625	0.645843505859375	2.978515625E-07	1.92365490647717E-07	2168340.25	4.49380095233209E-05
2	593	126.409707680846	0.635833740234375	0.63580322265625	2.9571533203125E-07	1.88016755942044E-07	2150051.75	4.49678991572E-05
2	594	126.510415680592	0.625762939453125	0.62567138671875	2.9327392578125E-07	1.83493099825682E-07	2133402.75	4.49975559604354E-05
2	595	126.611123680338	0.615692138671875	0.6156005859375	2.92358398437501E-07	1.79975984337943E-07	2105637	4.50270454166457E-05
2	596	126.711831680083	0.605621337890625	0.6055908203125	2.911376953125E-07	1.76310322785866E-07	2080083.875	4.50564257334918E-05
2	597	126.812539679829	0.595550537109375	0.59552001953125	2.89306640625001E-07	1.7228788351531E-07	2058438.875	4.5085653255228E-05
2	598	126.913247679575	0.585479736328125	0.58551025390625	2.8839111328125E-07	1.68855947890734E-07	2030264.625	4.51147425337695E-05
2	599	127.013955679321	0.575408935546875	0.57537841796875	2.87475585937499E-07	1.65407243457594E-07	2001486.25	4.51437408628408E-05
2	600	127.114663679066	0.565338134765625	0.56524658203125	2.8564453125E-07	1.61459581704548E-07	1978846.25	4.51725973107386E-05
2	601	127.215371678812	0.555267333984375	0.55523681640625	2.84423828124999E-07	1.57922585231063E-07	1952145.875	4.52013046015054E-05
2	602	127.316079678558	0.545196533203125	0.5450439453125	2.82897949218749E-07	1.54191809542681E-07	1926645.25	4.52298700110987E-05
2	603	127.416787678304	0.535125732421875	0.53509521484375	2.81982421875E-07	1.50887444760883E-07	1897619.125	4.52583153673913E-05
2	604	127.517495678049	0.525054931640625	0.5250244140625	2.8106689453125E-07	1.47566979080693E-07	1867969.625	4.5286666136235E-05
2	605	127.618203677795	0.514984130859375	0.514923095703125	2.8045654296875E-07	1.44413547786826E-07	1836017.5	4.53149405075237E-05
2	606	127.718911677541	0.504913330078125	0.5048828125	2.79846191406249E-07	1.41289518751364E-07	1804144	4.53431566711515E-05
2	607	127.819619677286	0.494842529296875	0.4947509765625	2.78625488281251E-07	1.378502361149E-07	1775684.5	4.53712746093515E-05
2	608	127.920327677032	0.484771728515625	0.48468017578125	2.7740478515625E-07	1.34452591282752E-07	1747194.75	4.53992761322297E-05
2	609	128.021035676778	0.474700927734375	0.47467041015625	2.7618408203125E-07	1.31096399513808E-07	1718674.125	4.54271503258497E-05
2	610	128.121743676524	0.464630126953125	0.464569091796875	2.7496337890625E-07	1.27739482991274E-07	1689567.125	4.5454904466169E-05
2	611	128.222451676269	0.454559326171875	0.45452880859375	2.73742675781249E-07	1.24423934266815E-07	1660423.625	4.548253127723E-05
2	612	128.323159676015	0.444488525390625	0.444488525390625	2.716064453125E-07	1.20725943020261E-07	1636516.875	4.55099943792447E-05
2	613	128.423867675761	0.434417724609375	0.4344482421875	2.703857421875E-07	1.17468601956716E-07	1606772.125	4.55372828582767E-05
2	614	128.524575675507	0.424346923828125	0.424346923828125	2.69165039062499E-07	1.14219361080359E-07	1576530.625	4.55644512840081E-05
2	615	128.625283675252	0.414276123046875	0.41424560546875	2.6824951171875E-07	1.11121174484197E-07	1544255	4.55915142083541E-05
2	616	128.725991674998	0.404205322265625	0.404205322265625	2.667236328125E-07	1.07811104044231E-07	1515446.25	4.56184534414206E-05
2	617	128.826699674744	0.394134521484375	0.3941650390625	2.6580810546875E-07	1.04772261977359E-07	1482893.25	4.56452653452288E-05
2	618	128.92740767449	0.384063720703125	0.384033203125	2.6519775390625E-07	1.018447406409E-07	1448101.375	4.5672004489461E-05
2	619	129.028115674235	0.373992919921875	0.37396240234375	2.64587402343749E-07	9.89457333844257E-08	1413379.625	4.56986817880534E-05
2	620	129.128823673981	0.363922119140625	0.363861083984375	2.63061523437499E-07	9.57178443172779E-08	1383178.75	4.57252499472816E-05
2	621	129.229531673727	0.353851318359375	0.353790283203125	2.6123046875E-07	9.24207981256586E-08	1354322.375	4.57516507594846E-05
2	622	129.330239673473	0.343780517578125	0.34381103515625	2.5970458984375E-07	8.92893012860441E-08	1323854.25	4.57778842246626E-05
2	623	129.430947673218	0.333709716796875	0.33367919921875	2.58483886718749E-07	8.62506936982754E-08	1290909.125	4.5803975808667E-05
2	624	129.531655672964	0.323638916015625	0.323577880859375	2.5634765625E-07	8.29484250175483E-08	1262262	4.58299000456464E-05
2	625	129.63236367271	0.313568115234375	0.313629150390625	2.54211425781251E-07	7.97281103359637E-08	1233733.5	4.58556096418761E-05
2	626	129.733071672455	0.303497314453125	0.303497314453125	2.5146484375E-07	7.63188978680773E-08	1206917.5	4.58810718555469E-05
2	627	129.833779672201	0.293426513671875	0.29339599609375	2.490234375E-07	7.30624805100888E-08	1178186.375	4.59062721347436E-05
2	628	129.934487671947	0.283355712890625	0.283416748046875	2.46276855468749E-07	6.97989790410247E-08	1150805.5	4.59312141174451E-05
2	629	130.035195671693	0.273284912109375	0.273284912109375	2.43530273437501E-07	6.6553148769799E-08	1122180.375	4.59558759757783E-05
2	630	130.135903671438	0.263214111328125	0.263214111328125	2.40173339843749E-07	6.32170085168582E-08	1095934	4.59802322438918E-05
2	631	130.236611671184	0.253143310546875	0.253143310546875	2.3651123046875E-07	5.98712333044205E-08	1070322.625	4.6004235628061E-05
2	632	130.33731967093	0.243072509765625	0.243072509765625	2.3162841796875E-07	5.63024968869286E-08	1049407.125	4.6027809730731E-05
2	633	130.438027670676	0.233001708984375	0.232940673828125	2.2613525390625E-07	5.26760963737161E-08	1030094.5	4.60508599644527E-05
2	634	130.538735670421	0.222930908203125	0.222900390625	2.2003173828125E-07	4.90451590451357E-08	1013037.4375	4.60733244835865E-05
2	635	130.639443670167	0.212860107421875	0.212860107421875	2.12707519531249E-07	4.52769448600066E-08	1000717.375	4.6095115976641E-05
2	636	130.740151669913	0.202789306640625	0.202880859375	2.0263671875E-07	4.1111110959946E-08	1001204.875	4.61160307168029E-05
2	637	130.840859669659	0.192718505859375	0.1927490234375	1.89208984375E-07	3.6469845809961E-08	1018709.75	4.61357594758738E-05
2	638	130.941567669404	0.182647705078125	0.18267822265625	1.71813964843751E-07	3.13866692636111E-08	1063232.625	4.61539384559728E-05
2	639	131.04227566915	0.172576904296875	0.172637939453125	1.483154296875E-07	2.56048693358935E-08	1163991.875	4.6170058340067E-05
2	640	131.142983668896	0.162506103515625	0.1624755859375	1.1566162109375E-07	1.87921891381393E-08	1404749.375	4.61833515146282E-05
2	641	131.243691668642	0.152435302734375	0.1524658203125	7.08007812499994E-08	1.07946993566088E-08	2153448.25	4.61927411379293E-05
2	642	131.344399668387	0.142364501953125	0.14239501953125	8.23974609374945E-09	1.173298791457E-09	17281482	4.61967210867442E-05
2	643	131.445107668133	0.132293701171875	0.132354736328125	-7.75146484375003E-08	-1.02594306383708E-08	-1707480.25	4.61932322650682E-05
2	644	131.545815667879	0.122222900390625	0.122283935546875	-1.93176269531251E-07	-2.36223538507829E-08	-633017.375	4.6179600758478E-05
2	645	131.646523667624	0.112152099609375	0.11224365234375	-3.4637451171875E-07	-3.88783369942303E-08	-324052.875	4.61524323327467E-05
2	646	131.74723166737	0.102081298828125	0.102142333984375	-5.413818359375E-07	-5.52980061740982E-08	-188669.671875	4.61077324871439E-05
2	647	131.847939667116	0.092010498046875	0.092071533203125	-7.77282714843749E-07	-7.15656085503724E-08	-118453.0859375	4.60413320979569E-05
2	648	131.948647666862	0.081939697265625	0.08197021484375	-1.04461669921875E-06	-8.56274482430308E-08	-78469.1875	4.59495895483997E-05
2	649	132.049355666607	0.071868896484375	0.0718994140625	-1.32537841796875E-06	-9.52939345211234E-08	-54248.21484375	4.58302529295906E-05
2	650	132.150063666353	0.061798095703125	0.061859130859375	-1.5911865234375E-06	-9.84294104000583E-08	-38876.10546875	4.56833913631272E-05
2	651	132.250771666099	0.051727294921875	0.051849365234375	-1.81610107421875E-06	-9.41636884022046E-08	-28549.82421875	4.55118206446059E-05
2	652	132.351479665845	0.041656494140625	0.0417755126953125	-1.97662353515625E-06	-8.25744592702904E-08	-21134.78515625	4.53208413091488E-05
2	653	132.45218766559	0.031585693359375	0.0316864013671875	-2.066650390625E-06	-6.54847127634639E-08	-15332.251953125	4.51172491011675E-05
2	654	132.552895665336	0.021514892578125	0.0215972900390625	-2.0880126953125E-06	-4.50954154018746E-08	-10343.466796875	4.49080434918869E-05
2	655	132.653603665082	0.011444091796875	0.0115234375	-2.05780029296875E-06	-2.37129320623808E-08	-5599.8818359375	4.46992853539996E-05
2	656	132.754311664828	0.001373291015625	0.00144348144531251	-1.99249267578125E-06	-2.87612600402554E-09	-724.460144042969	4.44953366240952E-05
2	657	132.855019664573	-0.008697509765625	-0.008587646484375	-1.90948486328125E-06	1.63979798628588E-08	4497.36279296875	4.42988566646818E-05
2	658	132.955727664319	-0.018768310546875	-0.018634033203125	-1.81976318359375E-06	3.39095258539146E-08	10239.8115234375	4.41110751125962E-05
2	659	133.056435664065	-0.028839111328125	-0.0287384033203125	-1.73126220703125E-06	4.97537122612357E-08	16599.68359375	4.39322648162488E-05
2	660	133.157143663811	-0.038909912109375	-0.0387939453125	-1.64764404296875E-06	6.39186126250024E-08	23545.099609375	4.37621238233987E-05
2	661	133.257851663556	-0.048980712890625	-0.0488311767578125	-1.57073974609375E-06	7.67010703839333E-08	31088.01171875	4.3600066419458E-05
2	662	133.358559663302	-0.059051513671875	-0.05902099609375	-1.50299072265625E-06	8.87080062739187E-08	39269.03515625	4.34452922490891E-05
2	663	133.459267663048	-0.069122314453125	-0.069000244140625	-1.4422607421875E-06	9.95163347283778E-08	47841.73046875	4.32969864050392E-05
2	664	133.559975662793	-0.079193115234375	-0.07916259765625	-1.38824462890625E-06	1.09897051459029E-07	57023.51953125	4.3154457671335E-05
2	665	133.660683662539	-0.089263916015625	-0.089202880859375	-1.34002685546875E-06	1.19534263376408E-07	66567.9765625	4.30170803156216E-05
2	666	133.761391662285	-0.099334716796875	-0.099273681640625	-1.29730224609375E-06	1.28787974063016E-07	76523.171875	4.28842795372475E-05
2	667	133.862099662031	-0.109405517578125	-0.10931396484375	-1.26068115234375E-06	1.37810047817766E-07	86710.2421875	4.27554732596036E-05
2	668	133.962807661776	-0.119476318359375	-0.119384765625	-1.2274169921875E-06	1.46534887335292E-07	97265.0390625	4.2630188545445E-05
2	669	134.063515661522	-0.129547119140625	-0.129547119140625	-1.19842529296875E-06	1.55252536160333E-07	108097.7890625	4.25080397690181E-05
2	670	134.164223661268	-0.139617919921875	-0.139556884765625	-1.173095703125E-06	1.63713579581781E-07	118964.6171875	4.23886231146753E-05
2	671	134.264931661014	-0.149688720703125	-0.14959716796875	-1.15020751953125E-06	1.72067785797481E-07	130061.03125	4.22716366301756E-05
2	672	134.365639660759	-0.159759521484375	-0.159637451171875	-1.13006591796875E-06	1.80400846261364E-07	141263.84375	4.21568147430662E-05
2	673	134.466347660505	-0.169830322265625	-0.16973876953125	-1.11236572265625E-06	1.8881158325712E-07	152592.59375	4.20438991568517E-05
2	674	134.567055660251	-0.179901123046875	-0.179779052734375	-1.09619140625E-06	1.97072239416229E-07	164003.34375	4.19326897826977E-05
2	675	134.667763659997	-0.189971923828125	-0.1898193359375	-1.08306884765625E-06	2.05587397772433E-07	175260.640625	4.18229537899606E-05
2	676	134.768471659742	-0.200042724609375	-0.199920654296875	-1.07086181640625E-06	2.14087393146656E-07	186691.375	4.17144947277848E-05
2	677	134.869179659488	-0.189971923828125	-0.1898193359375	-9.429931640625E-07	1.78998334376956E-07	201294.5	4.16130897065159E-05
