Potential - Start -0.2 V, Upper Vertex 1.5 V, Lower Vertex -0.2 V, Stop -0.19 V; Scan - # end cross 5, Rate 0.1 Vps, Step 0.01 V 
Scan	Index	Time (s)	Potential applied (V)	WE(1).Potential (V)	WE(1).Current (A)	WE(1).Power (W)	WE(1).Resistance (Ω)	WE(1).Charge (C)
1	1	62.4801638422528	-0.189971923828125	-0.1898193359375	-2.05078124999999E-07	3.89277943213528E-08	925595.25	0
1	2	62.5808718419985	-0.179901123046875	-0.179718017578125	-1.77001953125E-07	3.18104405039321E-08	1015344.8125	-1.92392608511227E-08
1	3	62.6815798417442	-0.169830322265625	-0.169769287109375	-1.544189453125E-07	2.62155932517771E-08	1099407.125	-3.59276270955888E-08
1	4	62.78228784149	-0.159759521484375	-0.15966796875	-1.35498046875E-07	2.16346975889792E-08	1178378.375	-5.05261077421437E-08
1	5	62.8829958412357	-0.149688720703125	-0.1495361328125	-1.18408203125001E-07	1.77063039785708E-08	1262886.625	-6.33113046433209E-08
1	6	62.9837038409814	-0.139617919921875	-0.139556884765625	-1.025390625E-07	1.43100322702594E-08	1361011.875	-7.44368833238696E-08
1	7	63.0844118407272	-0.129547119140625	-0.129486083984375	-8.78906250000006E-08	1.13806128965166E-08	1473263.875	-8.40257783352172E-08
1	8	63.1851198404729	-0.119476318359375	-0.119354248046875	-7.38525390624995E-08	8.81461481583301E-09	1616115.625	-9.2170189702756E-08
1	9	63.2858278402186	-0.109405517578125	-0.109344482421875	-5.92041015625003E-08	6.47364162276176E-09	1846907.25	-9.88701245319135E-08
1	10	63.3865358399644	-0.099334716796875	-0.09930419921875	-4.51660156250006E-08	4.48517489815004E-09	2198648.75	-1.04125582822689E-07
1	11	63.4872438397101	-0.089263916015625	-0.089202880859375	-2.96020507812494E-08	2.64058819254842E-09	3013402	-1.07890450351533E-07
1	12	63.5879518394559	-0.079193115234375	-0.079132080078125	-1.19018554687503E-08	9.41818623090285E-10	6648718	-1.09980341278515E-07
1	13	63.6886598392016	-0.069122314453125	-0.06903076171875	8.85009765625028E-09	-6.1092897407633E-10	-7800000	-1.10134010355978E-07
1	14	63.7893678389473	-0.059051513671875	-0.058990478515625	3.38745117187497E-08	-1.99827354663284E-09	-1741441.5	-1.07982650376925E-07
1	15	63.8900758386931	-0.048980712890625	-0.04884033203125	6.53076171875003E-08	-3.18964565870772E-09	-747850.5	-1.02988437333806E-07
1	16	63.9907838384388	-0.038909912109375	-0.038800048828125	1.0711669921875E-07	-4.15613321536057E-09	-362222.21875	-9.43061806424339E-08
1	17	64.0914918381845	-0.028839111328125	-0.0286956787109375	1.6357421875E-07	-4.69387284596223E-09	-175429.109375	-8.06758109206385E-08
1	18	64.1921998379303	-0.018768310546875	-0.018670654296875	2.398681640625E-07	-4.47849579643389E-09	-77837.1484375	-6.03608754090601E-08
1	19	64.292907837676	-0.008697509765625	-0.00859680175781249	3.42407226562499E-07	-2.94360713581909E-09	-25106.953125	-3.10409795645228E-08
1	20	64.3936158374217	0.001373291015625	0.0014617919921875	4.7882080078125E-07	6.99936386627797E-10	3052.90014648438	1.03111359450736E-08
1	21	64.4943238371675	0.011444091796875	0.011517333984375	6.536865234375E-07	7.52872608700272E-09	17619.046875	6.73374103143942E-08
1	22	64.5950318369132	0.021514892578125	0.021612548828125	8.6822509765625E-07	1.87645579075024E-08	24892.794921875	1.43971746524585E-07
1	23	64.695739836659	0.031585693359375	0.0316802978515625	1.1175537109375E-06	3.54044331629666E-08	28347.8984375	2.43963654611434E-07
1	24	64.7964478364047	0.041656494140625	0.0417510986328125	1.38763427734375E-06	5.79352530394317E-08	30087.970703125	3.70109887626313E-07
1	25	64.8971558361504	0.051727294921875	0.051788330078125	1.65496826171875E-06	8.57080380001207E-08	31292.64453125	5.23317055467487E-07
1	26	64.9978638358962	0.061798095703125	0.0618896484375	1.895751953125E-06	1.17327417115121E-07	32646.4921875	7.02110014572099E-07
1	27	65.0985718356419	0.071868896484375	0.071868896484375	2.083740234375E-06	1.49756104406151E-07	34490.3359375	9.02493354715261E-07
1	28	65.1992798353876	0.081939697265625	0.08203125	2.20855712890625E-06	1.81170705104705E-07	37142.4609375	1.11862766516424E-06
1	29	65.2999878351334	0.092010498046875	0.09210205078125	2.264404296875E-06	2.08556272696114E-07	40673.85546875	1.34385925321112E-06
1	30	65.4006958348791	0.102081298828125	0.102081298828125	2.26409912109375E-06	2.31122172067444E-07	45086.94140625	1.57188742377912E-06
1	31	65.5014038346249	0.112152099609375	0.112213134765625	2.2210693359375E-06	2.49233153226669E-07	50522.12109375	1.79773360287072E-06
1	32	65.6021118343706	0.122222900390625	0.12225341796875	2.1533203125E-06	2.63250768739454E-07	56774.375	2.01800162358268E-06
1	33	65.7028198341163	0.132293701171875	0.132415771484375	2.07366943359375E-06	2.74586511750385E-07	63855.78125	2.23084748540714E-06
1	34	65.8035278338621	0.142364501953125	0.142364501953125	1.99066162109375E-06	2.83399543832275E-07	71516.1796875	2.43550289269479E-06
1	35	65.9042358336078	0.152435302734375	0.1524658203125	1.9097900390625E-06	2.91177684630384E-07	79833.8203125	2.63190622717957E-06
1	36	66.0049438333535	0.162506103515625	0.16253662109375	1.8341064453125E-06	2.98109455343365E-07	88618.9765625	2.82042628896306E-06
1	37	66.1056518330993	0.172576904296875	0.172607421875	1.76544189453125E-06	3.04728359878936E-07	97770.09375	3.00167789646366E-06
1	38	66.206359832845	0.182647705078125	0.18267822265625	1.7041015625E-06	3.1130221600506E-07	107199.1484375	3.17638341584825E-06
1	39	66.3070678325907	0.192718505859375	0.1927490234375	1.64825439453125E-06	3.17699431207075E-07	116941.3046875	3.34518790623406E-06
1	40	66.4077758323365	0.202789306640625	0.20281982421875	1.60003662109375E-06	3.24519135119772E-07	126759.4921875	3.5087523428956E-06
1	41	66.5084838320822	0.212860107421875	0.21295166015625	1.55548095703125E-06	3.31242233642115E-07	136904.0625	3.66764516002149E-06
1	42	66.609191831828	0.222930908203125	0.22296142578125	1.51702880859375E-06	3.38238891117726E-07	146972.453125	3.82235839424538E-06
1	43	66.7098998315737	0.233001708984375	0.23297119140625	1.48284912109375E-06	3.45461103279376E-07	157110.53125	3.9734140955261E-06
1	44	66.8106078313194	0.243072509765625	0.24310302734375	1.45233154296875E-06	3.53066184288764E-07	167388.109375	4.12121244153241E-06
1	45	66.9113158310652	0.253143310546875	0.253204345703125	1.42364501953125E-06	3.60473109140003E-07	177856.375	4.26602900915896E-06
1	46	67.0120238308109	0.263214111328125	0.26318359375	1.3983154296875E-06	3.68013672868983E-07	188214.765625	4.4081261876272E-06
1	47	67.1127318305566	0.273284912109375	0.273193359375	1.37481689453125E-06	3.7559084375971E-07	198712.546875	4.54776454716921E-06
1	48	67.2134398303024	0.283355712890625	0.283355712890625	1.35345458984375E-06	3.83509075163602E-07	209357.390625	4.68514372187201E-06
1	49	67.3141478300481	0.293426513671875	0.29345703125	1.33392333984375E-06	3.91449162862045E-07	219995.4375	4.82046425531735E-06
1	50	67.4148558297939	0.303497314453125	0.303466796875	1.31683349609375E-06	3.9961523157217E-07	230451.90625	4.95394033350749E-06
1	51	67.5155638295396	0.313568115234375	0.313568115234375	1.30035400390625E-06	4.07749524811152E-07	241140.59375	5.08572611579439E-06
1	52	67.6162718292853	0.323638916015625	0.32366943359375	1.2860107421875E-06	4.16242357914598E-07	251684.859375	5.21595984537271E-06
1	53	67.7169798290311	0.333709716796875	0.33380126953125	1.2725830078125E-06	4.24789817543569E-07	262302.15625	5.34479522684705E-06
1	54	67.8176878287768	0.343780517578125	0.343719482421875	1.2603759765625E-06	4.33215774364726E-07	272711.875	5.47234003533958E-06
1	55	67.9183958285225	0.353851318359375	0.35382080078125	1.25E-06	4.42275990053531E-07	283056.65625	5.59874752070755E-06
1	56	68.0191038282683	0.363922119140625	0.3638916015625	1.2396240234375E-06	4.51088766340035E-07	293549.96875	5.72410999666317E-06
1	57	68.119811828014	0.373992919921875	0.37396240234375	1.231689453125E-06	4.60605548369131E-07	303617.4375	5.84855069973855E-06
1	58	68.2205198277597	0.384063720703125	0.384002685546875	1.224365234375E-06	4.70159505994161E-07	313634.125	5.97222287979093E-06
1	59	68.3212278275055	0.394134521484375	0.394134521484375	1.21826171875E-06	4.80158973914513E-07	323522.0625	6.09521885053255E-06
1	60	68.4219358272512	0.404205322265625	0.404205322265625	1.2127685546875E-06	4.90207526127051E-07	333291.40625	6.21763092567562E-06
1	61	68.522643826997	0.414276123046875	0.4141845703125	1.20849609375E-06	5.00540409120731E-07	342727.28125	6.33955141893239E-06
1	62	68.6233518267427	0.424346923828125	0.42431640625	1.204833984375E-06	5.11230837219045E-07	352178.3125	6.46107218926772E-06
1	63	68.7240598264884	0.434417724609375	0.43438720703125	1.202392578125E-06	5.22303935213131E-07	361269.03125	6.58228555039386E-06
1	64	68.8247678262342	0.444488525390625	0.44451904296875	1.201171875E-06	5.33943762093259E-07	370071.15625	6.70331473884289E-06
1	65	68.9254758259799	0.454559326171875	0.454559326171875	1.19964599609375E-06	5.45310285815503E-07	378911.21875	6.8242052293499E-06
1	66	69.0261838257256	0.464630126953125	0.46453857421875	1.19903564453125E-06	5.56998315914825E-07	387426.84375	6.9449883994821E-06
1	67	69.1268918254714	0.474700927734375	0.47467041015625	1.1993408203125E-06	5.69291557894758E-07	395776.09375	7.06575656295172E-06
1	68	69.2275998252171	0.484771728515625	0.4847412109375	1.19873046875E-06	5.81074004912807E-07	404378.84375	7.18650881026406E-06
1	69	69.3283078249628	0.494842529296875	0.494781494140625	1.19964599609375E-06	5.93562674566783E-07	412439.5625	7.30727697373368E-06
1	70	69.4290158247086	0.504913330078125	0.504852294921875	1.201171875E-06	6.06414346293604E-07	420299.8125	7.42816746424069E-06
1	71	69.5297238244543	0.514984130859375	0.51495361328125	1.2030029296875E-06	6.19490663211764E-07	428056.84375	7.54922712076223E-06
1	72	69.6304318242001	0.525054931640625	0.524993896484375	1.20513916015625E-06	6.32690671409364E-07	435629.28125	7.6704873208655E-06
1	73	69.7311398239458	0.535125732421875	0.535125732421875	1.20849609375E-06	6.46697344564018E-07	442803.03125	7.79202309786342E-06
1	74	69.8318478236915	0.545196533203125	0.545166015625	1.21185302734375E-06	6.60661100937432E-07	449861.5	7.9138972068904E-06
1	75	69.9325558234373	0.555267333984375	0.555206298828125	1.21612548828125E-06	6.75200510613649E-07	456537	8.03615603217622E-06
1	76	70.033263823183	0.565338134765625	0.565277099609375	1.220703125E-06	6.90035506067943E-07	463075	8.15885960037122E-06
1	77	70.1339718229287	0.575408935546875	0.575408935546875	1.22589111328125E-06	7.05388686128572E-07	469380.15625	8.28205611469457E-06
1	78	70.2346798226745	0.585479736328125	0.58544921875	1.2322998046875E-06	7.21448884632991E-07	475086.71875	8.40583561512176E-06
1	79	70.3353878224202	0.595550537109375	0.595489501953125	1.239013671875E-06	7.37819618734648E-07	480615.78125	8.53027631819714E-06
1	80	70.436095822166	0.605621337890625	0.6055908203125	1.2469482421875E-06	7.55140376895724E-07	485658.375	8.65545371198095E-06
1	81	70.5368038219117	0.615692138671875	0.615631103515625	1.256103515625E-06	7.73296392253542E-07	490111.78125	8.78149239724735E-06
1	82	70.6375118216574	0.625762939453125	0.625701904296875	1.26708984375E-06	7.92820515016501E-07	493810.21875	8.90854516910622E-06
1	83	70.7382198214032	0.635833740234375	0.635711669921875	1.28021240234375E-06	8.13845929314994E-07	496567.34375	9.03681211639196E-06
1	84	70.8389278211489	0.645904541015625	0.6458740234375	1.29638671875E-06	8.37302479794744E-07	498210.9375	9.16655426408397E-06
1	85	70.9396358208946	0.655975341796875	0.6558837890625	1.31622314453125E-06	8.63289415065083E-07	498307.4375	9.29810994421132E-06
1	86	71.0403438206404	0.666046142578125	0.66595458984375	1.34124755859375E-06	8.93209971764009E-07	496518.78125	9.43192389968317E-06
1	87	71.1410518203861	0.676116943359375	0.676055908203125	1.3714599609375E-06	9.27183577914548E-07	492946.15625	9.56851999944774E-06
1	88	71.2417598201318	0.686187744140625	0.686187744140625	1.4068603515625E-06	9.65370304584212E-07	487744.0625	9.70841938396916E-06
1	89	71.3424678198776	0.696258544921875	0.696197509765625	1.4483642578125E-06	1.00834756722179E-06	480678.5	9.85219139693072E-06
1	90	71.4431758196233	0.706329345703125	0.706268310546875	1.4898681640625E-06	1.05224671642645E-06	474047.53125	1.00001434475416E-05
1	91	71.5438838193691	0.716400146484375	0.71630859375	1.5289306640625E-06	1.09518612134707E-06	468503	1.01521518445225E-05
1	92	71.6445918191148	0.726470947265625	0.726348876953125	1.56158447265625E-06	1.13425505787745E-06	465135.84375	1.0307771844964E-05
1	93	71.7452998188605	0.736541748046875	0.73638916015625	1.583251953125E-06	1.16588955734187E-06	465111.8125	1.04661266959738E-05
1	94	71.8460078186063	0.746612548828125	0.746490478515625	1.595458984375E-06	1.1909949080291E-06	467884.5	1.06261877590441E-05
1	95	71.946715818352	0.756683349609375	0.75714111328125	1.59698486328125E-06	1.20914285162144E-06	474106.65625	1.07869400380878E-05
1	96	72.0474238180977	0.766754150390625	0.76690673828125	1.59271240234375E-06	1.22146184367011E-06	481509.875	1.09475540739368E-05
1	97	72.1481318178435	0.776824951171875	0.7769775390625	1.58233642578125E-06	1.22943981750723E-06	491031.84375	1.11074305095826E-05
1	98	72.2488398175892	0.786895751953125	0.78704833984375	1.57073974609375E-06	1.23624806747102E-06	501068.59375	1.12662000901764E-05
1	99	72.349547817335	0.796966552734375	0.79681396484375	1.55853271484375E-06	1.24186055927566E-06	511259.09375	1.1423771866248E-05
1	100	72.4502558170807	0.807037353515625	0.8074951171875	1.54754638671875E-06	1.24963617054163E-06	521790.5625	1.15801749416278E-05
1	101	72.5509638168264	0.817108154296875	0.81695556640625	1.53778076171875E-06	1.2562984466058E-06	531256.25	1.17355339170899E-05
1	102	72.6516718165722	0.827178955078125	0.82763671875	1.5301513671875E-06	1.26640941289224E-06	540885.5625	1.18900161396596E-05
1	103	72.7523798163179	0.837249755859375	0.83709716796875	1.52587890625E-06	1.27730879739829E-06	548600.0625	1.20438999147154E-05
1	104	72.8530878160636	0.847320556640625	0.84747314453125	1.5240478515625E-06	1.29158956951869E-06	556067.3125	1.21974753710674E-05
1	105	72.9537958158094	0.857391357421875	0.85723876953125	1.52618408203125E-06	1.30830414946104E-06	561687.6875	1.2351067198324E-05
1	106	73.0545038155551	0.867462158203125	0.86761474609375	1.529541015625E-06	1.32705235955655E-06	567238.625	1.25049346024753E-05
1	107	73.1552118153008	0.877532958984375	0.87738037109375	1.5350341796875E-06	1.34680885821581E-06	571570.625	1.26592485685251E-05
1	108	73.2559198150466	0.887603759765625	0.887451171875	1.5399169921875E-06	1.36660116822895E-06	576298.0625	1.28140845845337E-05
1	109	73.3566278147923	0.897674560546875	0.89752197265625	1.5435791015625E-06	1.38539610361477E-06	581455.125	1.29693507915363E-05
1	110	73.4573358145381	0.907745361328125	0.90789794921875	1.54571533203125E-06	1.40335180276452E-06	587364.25	1.31249089463381E-05
1	111	73.5580438142838	0.917816162109375	0.91796875	1.54571533203125E-06	1.41891837301955E-06	593879.5625	1.32805753310095E-05
1	112	73.6587518140295	0.927886962890625	0.92803955078125	1.54388427734375E-06	1.43278555242432E-06	601107	1.34361489472212E-05
1	113	73.7594598137753	0.937957763671875	0.9381103515625	1.5411376953125E-06	1.44575722060836E-06	608712.875	1.35914924612734E-05
1	114	73.860167813521	0.948028564453125	0.9478759765625	1.53778076171875E-06	1.45762533065863E-06	616392.1875	1.37465276566218E-05
1	115	73.9608758132667	0.958099365234375	0.958251953125	1.53350830078125E-06	1.46948730161967E-06	624875.625	1.39011799547006E-05
1	116	74.0615838130125	0.968170166015625	0.9686279296875	1.5301513671875E-06	1.48214724049467E-06	633027.5625	1.40554475365207E-05
1	117	74.1622918127582	0.978240966796875	0.9783935546875	1.527099609375E-06	1.49410436733888E-06	640687.4375	1.42093922477216E-05
1	118	74.2629998125039	0.988311767578125	0.98876953125	1.524658203125E-06	1.50753555772098E-06	648518.8125	1.43630604725331E-05
1	119	74.3637078122497	0.998382568359375	0.99822998046875	1.5234375E-06	1.52074096604338E-06	655248.375	1.45165440699202E-05
1	120	74.4644158119954	1.00845336914063	1.00830078125	1.5228271484375E-06	1.53546773162816E-06	662124.25	1.46699358083424E-05
1	121	74.5651238117412	1.01852416992188	1.0186767578125	1.5228271484375E-06	1.55126861045574E-06	668937.875	1.48232966239448E-05
1	122	74.6658318114869	1.02859497070313	1.02874755859375	1.5234375E-06	1.56723262989544E-06	675280.4375	1.4976688362367E-05
1	123	74.7665398112326	1.03866577148438	1.038818359375	1.524658203125E-06	1.58384284532076E-06	681345.125	1.51301719597541E-05
1	124	74.8672478109784	1.04873657226563	1.04888916015625	1.52587890625E-06	1.60047773078986E-06	687400.0625	1.52837783389259E-05
1	125	74.9679558107241	1.05880737304688	1.058349609375	1.527099609375E-06	1.61620528160711E-06	693045.5625	1.54375084093772E-05
1	126	75.0686638104698	1.06887817382813	1.06903076171875	1.52801513671875E-06	1.63349511694832E-06	699620.5625	1.55913458002033E-05
1	127	75.1693718102156	1.07894897460938	1.0791015625	1.529541015625E-06	1.65053006639937E-06	705506.8125	1.57453050633194E-05
1	128	75.2700798099613	1.08901977539063	1.0888671875	1.5301513671875E-06	1.66613153851358E-06	711607.5625	1.58993734657997E-05
1	129	75.3707878097071	1.09909057617188	1.0986328125	1.53045654296875E-06	1.68140979894815E-06	717846.4375	1.60534873430151E-05
1	130	75.4714958094528	1.10916137695313	1.10931396484375	1.53167724609375E-06	1.69911083958141E-06	724247.875	1.62076776177855E-05
1	131	75.5722038091985	1.11923217773438	1.119384765625	1.5325927734375E-06	1.71556087025238E-06	730386.3125	1.63619770319201E-05
1	132	75.6729118089443	1.12930297851563	1.12945556640625	1.53411865234375E-06	1.73271882886183E-06	736224.4375	1.65163964993553E-05
1	133	75.77361980869	1.13937377929688	1.13922119140625	1.5362548828125E-06	1.7501341744719E-06	741557.375	1.66710033226991E-05
1	134	75.8743278084357	1.14944458007813	1.14990234375	1.53900146484375E-06	1.76970138454635E-06	747174.3125	1.6825853890623E-05
1	135	75.9750358081815	1.15951538085938	1.15936279296875	1.54266357421875E-06	1.7885066654344E-06	751533.125	1.69810282386607E-05
1	136	76.0757438079272	1.16958618164063	1.16973876953125	1.5460205078125E-06	1.80844006081315E-06	756612.75	1.71365554706426E-05
1	137	76.1764518076729	1.17965698242188	1.17919921875	1.55059814453125E-06	1.82846406460158E-06	760480.25	1.72924828802934E-05
1	138	76.2771598074187	1.18972778320313	1.190185546875	1.55548095703125E-06	1.85131091257063E-06	765156	1.74488868651679E-05
1	139	76.3778678071644	1.19979858398438	1.199951171875	1.56097412109375E-06	1.87309262855706E-06	768719.5	1.76058129000012E-05
1	140	76.4785758069102	1.20986938476563	1.209716796875	1.5667724609375E-06	1.89535091976722E-06	772107.5625	1.77633064595284E-05
1	141	76.5792838066559	1.21994018554688	1.2200927734375	1.573486328125E-06	1.9197993879061E-06	775407.3125	1.79214312083786E-05
1	142	76.6799918064016	1.23001098632813	1.22955322265625	1.58111572265625E-06	1.94406584341777E-06	777649.125	1.80802780960221E-05
1	143	76.7806998061474	1.24008178710938	1.240234375	1.58843994140625E-06	1.97003782886895E-06	780787.75	1.82398780452786E-05
1	144	76.8814078058931	1.25015258789063	1.24969482421875	1.5972900390625E-06	1.99612509277358E-06	782384.4375	1.84002929017879E-05
1	145	76.9821158056388	1.26022338867188	1.26007080078125	1.6064453125E-06	2.02423484552128E-06	784384.5	1.85616136150202E-05
1	146	77.0828238053846	1.27029418945313	1.2701416015625	1.61590576171875E-06	2.05242918127624E-06	786024.5625	1.87238711077953E-05
1	147	77.1835318051303	1.28036499023438	1.28082275390625	1.6259765625E-06	2.08258779821335E-06	787725.25	1.88871144928271E-05
1	148	77.2842398048761	1.29043579101563	1.290283203125	1.6357421875E-06	2.11057067645015E-06	788806	1.90513546840521E-05
1	149	77.3849478046218	1.30050659179688	1.300048828125	1.646728515625E-06	2.14082751881506E-06	789473.6875	1.92166389751947E-05
1	150	77.4856558043675	1.31057739257813	1.31072998046875	1.65740966796875E-06	2.17241654354439E-06	790830.4375	1.93830164789688E-05
1	151	77.5863638041133	1.32064819335938	1.32080078125	1.668701171875E-06	2.20402171180467E-06	791514.3125	1.95504999283003E-05
1	152	77.687071803859	1.33071899414063	1.33087158203125	1.6796875E-06	2.23544839172973E-06	792332.875	1.97191038751043E-05
1	153	77.7877798036047	1.34078979492188	1.34063720703125	1.690673828125E-06	2.26658016799774E-06	792960.3125	1.98888155864552E-05
1	154	77.8884878033505	1.35086059570313	1.35040283203125	1.702880859375E-06	2.29957504416234E-06	793010.75	2.00596950890031E-05
1	155	77.9891958030962	1.36093139648438	1.36077880859375	1.715087890625E-06	2.33385526371421E-06	793416.375	2.02318024093984E-05
1	156	78.0899038028419	1.37100219726563	1.37115478515625	1.72760009765625E-06	2.36880714510335E-06	793676.0625	2.04051557375351E-05
1	157	78.1906118025877	1.38107299804688	1.380615234375	1.74102783203125E-06	2.40368945014779E-06	792988.625	2.05798151000636E-05
1	158	78.2913198023334	1.39114379882813	1.39068603515625	1.75445556640625E-06	2.43989688897273E-06	792659.625	2.07558259717189E-05
1	159	78.3920278020792	1.40121459960938	1.4013671875	1.76910400390625E-06	2.47916432272177E-06	792133.875	2.09332520171301E-05
1	160	78.4927358018249	1.41128540039063	1.4111328125	1.78375244140625E-06	2.51711162491119E-06	791103.5	2.11121532629477E-05
1	161	78.5934438015706	1.42135620117188	1.4215087890625	1.79840087890625E-06	2.55644249591569E-06	790429.375	2.12925278901821E-05
1	162	78.6941518013164	1.43142700195313	1.4312744140625	1.81365966796875E-06	2.59584476225427E-06	789163.75	2.14744104596321E-05
1	163	78.7948598010621	1.44149780273438	1.44134521484375	1.82861328125E-06	2.63566289504524E-06	788217.625	2.16578137042234E-05
1	164	78.8955678008078	1.45156860351563	1.4508056640625	1.844482421875E-06	2.67598557002202E-06	786565.1875	2.18427685467759E-05
1	165	78.9962758005536	1.46163940429688	1.4617919921875	1.8603515625E-06	2.71944691121462E-06	785761.1875	2.20293204620248E-05
1	166	79.0969838002993	1.47171020507813	1.47125244140625	1.8780517578125E-06	2.76308833235817E-06	783392.9375	2.22175640374189E-05
1	167	79.197691800045	1.48178100585938	1.48223876953125	1.89605712890625E-06	2.81040934169141E-06	781748	2.24076065933332E-05
1	168	79.2983997997908	1.49185180664063	1.49139404296875	1.9158935546875E-06	2.85735222860239E-06	778432.625	2.2599553631153E-05
1	169	79.3991077995365	1.50192260742188	1.5020751953125	1.93817138671875E-06	2.91127912532829E-06	774996.0625	2.27936216106173E-05
1	170	79.4998157992823	1.49185180664063	1.49139404296875	1.79656982421875E-06	2.67939344666956E-06	830134.1875	2.29816796490923E-05
1	171	79.600523799028	1.48178100585938	1.48162841796875	1.6986083984375E-06	2.51670644502155E-06	872260.1875	2.31576759688323E-05
1	172	79.7012317987737	1.47171020507813	1.47186279296875	1.622314453125E-06	2.38782422457007E-06	907261.125	2.33248974836897E-05
1	173	79.8019397985195	1.46163940429688	1.461181640625	1.561279296875E-06	2.28131261792441E-06	935887.4375	2.34852050198242E-05
1	174	79.9026477982652	1.45156860351563	1.451416015625	1.50787353515625E-06	2.18855188904854E-06	962558.1875	2.36397481785389E-05
1	175	80.0033557980109	1.44149780273438	1.44134521484375	1.4630126953125E-06	2.10870621231152E-06	985189.875	2.37893455050653E-05
1	176	80.1040637977567	1.43142700195313	1.431884765625	1.4227294921875E-06	2.03718468583247E-06	1006435	2.39346536545781E-05
1	177	80.2047717975024	1.42135620117188	1.42120361328125	1.38763427734375E-06	1.97211079466797E-06	1024191.8125	2.40761655732058E-05
1	178	80.3054797972482	1.41128540039063	1.41143798828125	1.35528564453125E-06	1.91290155271417E-06	1041432.1875	2.42142832576064E-05
1	179	80.4061877969939	1.40121459960938	1.4013671875	1.3262939453125E-06	1.85862484158861E-06	1056603.75	2.43493122979999E-05
1	180	80.5068957967396	1.39114379882813	1.39068603515625	1.2994384765625E-06	1.80711083430651E-06	1070220.875	2.4481527361786E-05
1	181	80.6076037964854	1.38107299804688	1.38092041015625	1.275634765625E-06	1.76155003828171E-06	1082535.875	2.46111922024284E-05
1	182	80.7083117962311	1.37100219726563	1.3714599609375	1.25274658203125E-06	1.7180916529469E-06	1094762.5	2.47385069087613E-05
1	183	80.8090197959768	1.36093139648438	1.36077880859375	1.2310791015625E-06	1.67522625815764E-06	1105354.5	2.48635769821703E-05
1	184	80.9097277957226	1.35086059570313	1.35009765625	1.2115478515625E-06	1.6357078038709E-06	1114357.75	2.49865734076593E-05
1	185	81.0104357954683	1.34078979492188	1.34124755859375	1.19171142578125E-06	1.59837998126022E-06	1125480.25	2.51075871346984E-05
1	186	81.111143795214	1.33071899414063	1.33056640625	1.1737060546875E-06	1.56169380716165E-06	1133645.375	2.5226696379832E-05
1	187	81.2118517949598	1.32064819335938	1.32080078125	1.15692138671875E-06	1.52806262576632E-06	1141651.25	2.53440521191806E-05
1	188	81.3125597947055	1.31057739257813	1.3104248046875	1.14044189453125E-06	1.4944633903724E-06	1149050	2.54597325692885E-05
1	189	81.4132677944513	1.30050659179688	1.30035400390625	1.12457275390625E-06	1.46234265230305E-06	1156309.375	2.55737868428696E-05
1	190	81.513975794197	1.29043579101563	1.2908935546875	1.109619140625E-06	1.43240015404444E-06	1163366.375	2.56862858805107E-05
1	191	81.6146837939427	1.28036499023438	1.28021240234375	1.09466552734375E-06	1.40140446092119E-06	1169501	2.57972806139151E-05
1	192	81.7153917936885	1.27029418945313	1.27044677734375	1.08062744140625E-06	1.37287952384213E-06	1175656.625	2.59068165178178E-05
1	193	81.8160997934342	1.26022338867188	1.26007080078125	1.06719970703125E-06	1.34474726110057E-06	1180726.375	2.60149681707844E-05
1	194	81.9168077931799	1.25015258789063	1.25030517578125	1.0540771484375E-06	1.31791807689297E-06	1186161	2.61217828665394E-05
1	195	82.0175157929257	1.24008178710938	1.24053955078125	1.04156494140625E-06	1.29210252453049E-06	1191034.25	2.62273060798179E-05
1	196	82.1182237926714	1.23001098632813	1.23016357421875	1.02874755859375E-06	1.26552777146571E-06	1195787.625	2.63315541815246E-05
1	197	82.2189317924172	1.21994018554688	1.21978759765625	1.0162353515625E-06	1.23959114262107E-06	1200300.375	2.64345271716593E-05
1	198	82.3196397921629	1.20986938476563	1.20941162109375	1.004638671875E-06	1.21502171168686E-06	1203827.5	2.65362868958618E-05
1	199	82.4203477919086	1.19979858398438	1.1993408203125	9.92736816406251E-07	1.19062974590634E-06	1208115.625	2.66368624579627E-05
1	200	82.5210557916544	1.18972778320313	1.1895751953125	9.808349609375E-07	1.16677688311029E-06	1212819	2.67362393060466E-05
1	201	82.6217637914001	1.17965698242188	1.1798095703125	9.6954345703125E-07	1.14387660232751E-06	1216871.375	2.68344483629335E-05
1	202	82.7224717911458	1.16958618164063	1.16912841796875	9.58251953125E-07	1.12031955268321E-06	1220063.75	2.69315223704325E-05
1	203	82.8231797908916	1.15951538085938	1.15875244140625	9.47265625E-07	1.09764630451537E-06	1223260.375	2.70274722424801E-05
1	204	82.9238877906373	1.14944458007813	1.14898681640625	9.35974121093749E-07	1.07542189198284E-06	1227584	2.71222997980658E-05
1	205	83.024595790383	1.13937377929688	1.1395263671875	9.25292968749999E-07	1.0543957387199E-06	1231530.375	2.72160232270835E-05
1	206	83.1253037901288	1.12930297851563	1.129150390625	9.136962890625E-07	1.03170054899238E-06	1235805	2.73086225206498E-05
1	207	83.2260117898745	1.11923217773438	1.11907958984375	9.0301513671875E-07	1.01054581591598E-06	1239270	2.74001013167435E-05
1	208	83.3267197896203	1.10916137695313	1.10931396484375	8.9141845703125E-07	9.8886289379152E-07	1244436.875	2.74904596153647E-05
1	209	83.427427789366	1.09909057617188	1.09893798828125	8.80126953125E-07	9.67204982771364E-07	1248613	2.75796628557146E-05
1	210	83.5281357891117	1.08901977539063	1.0894775390625	8.6822509765625E-07	9.45911722283199E-07	1254833.125	2.76677001238568E-05
1	211	83.6288437888575	1.07894897460938	1.07879638671875	8.55712890625E-07	9.23139964470465E-07	1260699	2.77545077551622E-05
1	212	83.7295517886032	1.06887817382813	1.06842041015625	8.4381103515625E-07	9.0154486542815E-07	1266184.5	2.78400839306414E-05
1	213	83.8302597883489	1.05880737304688	1.0589599609375	8.30993652343751E-07	8.79988988344849E-07	1274329.75	2.7924417736358E-05
1	214	83.9309677880947	1.04873657226563	1.04827880859375	8.17260742187501E-07	8.56717122132977E-07	1282673.625	2.8007414584863E-05
1	215	84.0316757878404	1.03866577148438	1.03851318359375	8.05053710937501E-07	8.36058859476907E-07	1289992.5	2.80891035799868E-05
1	216	84.1323837875861	1.02859497070313	1.02874755859375	7.9315185546875E-07	8.15953058008745E-07	1297037.375	2.81695793091785E-05
1	217	84.2330917873319	1.01852416992188	1.01837158203125	7.82470703125E-07	7.96845938566548E-07	1301482.125	2.8248918169993E-05
1	218	84.3337997870776	1.00845336914063	1.0089111328125	7.708740234375E-07	7.77743366597861E-07	1308788.625	2.83271365333349E-05
1	219	84.4345077868234	0.998382568359375	0.99853515625	7.598876953125E-07	7.58774547193752E-07	1314056.25	2.84042162093101E-05
1	220	84.5352157865691	0.988311767578125	0.98785400390625	7.4951171875E-07	7.40408097499312E-07	1317996.75	2.84802208625479E-05
1	221	84.6359237863148	0.978240966796875	0.9783935546875	7.3883056640625E-07	7.22867014246731E-07	1324246.25	2.85551650449634E-05
1	222	84.7366317860606	0.968170166015625	0.96832275390625	7.275390625E-07	7.0449260647365E-07	1330956.375	2.86290014628321E-05
1	223	84.8373397858063	0.958099365234375	0.95855712890625	7.16552734375001E-07	6.86856708398409E-07	1337734.25	2.87017173832282E-05
1	224	84.938047785552	0.948028564453125	0.94818115234375	7.037353515625E-07	6.67268579945812E-07	1347354.75	2.87732345896075E-05
1	225	85.0387557852978	0.937957763671875	0.93780517578125	6.903076171875E-07	6.47374065465556E-07	1358532.25	2.88434312096797E-05
1	226	85.1394637850435	0.927886962890625	0.9283447265625	6.7596435546875E-07	6.2752792473475E-07	1373363.5	2.89122272079112E-05
1	227	85.2401717847893	0.917816162109375	0.91827392578125	6.610107421875E-07	6.0698891957145E-07	1389196.625	2.89795498247258E-05
1	228	85.340879784535	0.907745361328125	0.9075927734375	6.439208984375E-07	5.84417932714132E-07	1409478.75	2.90452589979395E-05
1	229	85.4415877842807	0.897674560546875	0.8978271484375	6.2591552734375E-07	5.6196392961283E-07	1434422.25	2.9109200113453E-05
1	230	85.5422957840265	0.887603759765625	0.88775634765625	6.0882568359375E-07	5.4048882702773E-07	1458145.5	2.91713731712662E-05
1	231	85.6430037837722	0.877532958984375	0.87738037109375	5.91430664062501E-07	5.18909644142695E-07	1483488.125	2.92318109131884E-05
1	232	85.7437117835179	0.867462158203125	0.86761474609375	5.767822265625E-07	5.00424732763349E-07	1504232.875	2.92906352115097E-05
1	233	85.8444197832637	0.857391357421875	0.8575439453125	5.6304931640625E-07	4.82839539017732E-07	1523035.25	2.93480316031491E-05
1	234	85.9451277830094	0.847320556640625	0.84747314453125	5.5084228515625E-07	4.66824047862247E-07	1538504.125	2.94041201414075E-05
1	235	86.0458357827551	0.837249755859375	0.83709716796875	5.4046630859375E-07	4.5242282453728E-07	1548842.5	2.94590718112886E-05
1	236	86.1465437825009	0.827178955078125	0.82733154296875	5.30090332031249E-07	4.38560476823113E-07	1560736.875	2.95129775622627E-05
1	237	86.2472517822466	0.817108154296875	0.8172607421875	5.2032470703125E-07	4.25240955337358E-07	1570674.5	2.9565870136139E-05
1	238	86.3479597819924	0.807037353515625	0.80718994140625	5.0933837890625E-07	4.11132788258328E-07	1584781.375	2.96177186100977E-05
1	239	86.4486677817381	0.796966552734375	0.797119140625	4.96520996093749E-07	3.95786400986253E-07	1605408.625	2.96683683700394E-05
1	240	86.5493757814838	0.786895751953125	0.78704833984375	4.8065185546875E-07	3.78296249436971E-07	1637460.25	2.97175720334053E-05
1	241	86.6500837812296	0.776824951171875	0.77728271484375	4.61425781249999E-07	3.58658269306034E-07	1684523.875	2.97650094580604E-05
1	242	86.7507917809753	0.766754150390625	0.76690673828125	4.37316894531251E-07	3.35381258764755E-07	1753663.625	2.98102640954312E-05
1	243	86.851499780721	0.756683349609375	0.7568359375	4.071044921875E-07	3.08111310687309E-07	1859070.5	2.98527847917285E-05
1	244	86.9522077804668	0.746612548828125	0.74652099609375	3.7078857421875E-07	2.76801443988006E-07	2013333.375	2.98919549095444E-05
1	245	87.0529157802125	0.736541748046875	0.7364501953125	3.2806396484375E-07	2.41602748474179E-07	2244837.25	2.99271450785454E-05
1	246	87.1536237799583	0.726470947265625	0.726409912109375	2.80151367187501E-07	2.03504725959647E-07	2592919.5	2.99577714031329E-05
1	247	87.254331779704	0.716400146484375	0.716278076171875	2.31323242187501E-07	1.65691773190701E-07	3096438	2.99835264740977E-05
1	248	87.3550397794497	0.706329345703125	0.70623779296875	1.84020996093751E-07	1.29962572259501E-07	3837811	3.00044393952703E-05
1	249	87.4557477791955	0.696258544921875	0.696197509765625	1.45263671875E-07	1.01132208385479E-07	4792647	3.0021021302673E-05
1	250	87.5564557789412	0.686187744140625	0.68609619140625	1.171875E-07	8.0401896696003E-08	5854687.5	3.00342362606898E-05
1	251	87.6571637786869	0.676116943359375	0.67596435546875	1.025390625E-07	6.93127475415167E-08	6592262	3.00453011732316E-05
1	252	87.7578717784327	0.666046142578125	0.665985107421875	9.97924804687495E-08	6.64603021505172E-08	6673700.5	3.00554893328808E-05
1	253	87.8585797781784	0.655975341796875	0.6558837890625	1.0498046875E-07	6.88549874894306E-08	6247674.5	3.00657993648201E-05
1	254	87.9592877779241	0.645904541015625	0.645843505859375	1.141357421875E-07	7.37138279305327E-08	5658556.5	3.0076833354542E-05
1	255	88.0599957776699	0.635833740234375	0.635833740234375	1.2481689453125E-07	7.93627918938E-08	5094132	3.00888659694465E-05
1	256	88.1607037774156	0.625762939453125	0.625762939453125	1.35498046875E-07	8.47896544087234E-08	4618243.5	3.01019736070884E-05
1	257	88.2614117771614	0.615692138671875	0.615692138671875	1.45263671875E-07	8.94376981364076E-08	4238445.5	3.01161107927328E-05
1	258	88.3621197769071	0.605621337890625	0.605560302734375	1.544189453125E-07	9.35099819798779E-08	3921541.5	3.01312011288246E-05
1	259	88.4628277766528	0.595550537109375	0.59552001953125	1.62658691406251E-07	9.68665077039077E-08	3661163.25	3.01471663988195E-05
1	260	88.5635357763986	0.585479736328125	0.585418701171875	1.69982910156249E-07	9.95111761881162E-08	3443985.5	3.01639174722368E-05
1	261	88.6642437761443	0.575408935546875	0.575408935546875	1.7669677734375E-07	1.01672902985683E-07	3256476.75	3.01813743135426E-05
1	262	88.76495177589	0.565338134765625	0.56536865234375	1.8280029296875E-07	1.03349556468402E-07	3092821.5	3.01994750770973E-05
1	263	88.8656597756358	0.555267333984375	0.55523681640625	1.8798828125E-07	1.04378010234996E-07	2953571.5	3.02181470033247E-05
1	264	88.9663677753815	0.545196533203125	0.545135498046875	1.922607421875E-07	1.0480815859637E-07	2835396.75	3.02372936857864E-05
1	265	89.0670757751273	0.535125732421875	0.535064697265625	1.9561767578125E-07	1.04668110623152E-07	2735257.5	3.02568241750123E-05
1	266	89.167783774873	0.525054931640625	0.5250244140625	1.98974609374999E-07	1.04466522543589E-07	2638650.5	3.02766948152566E-05
1	267	89.2684917746187	0.514984130859375	0.514984130859375	2.02331542968751E-07	1.04197532380113E-07	2545249	3.02969019685406E-05
1	268	89.3691997743645	0.504913330078125	0.504913330078125	2.05078124999999E-07	1.03546675234156E-07	2462053.5	3.03174165310338E-05
1	269	89.4699077741102	0.494842529296875	0.49481201171875	2.06909179687501E-07	1.0238114356298E-07	2391445.5	3.03381621051813E-05
1	270	89.5706157738559	0.484771728515625	0.4847412109375	2.0904541015625E-07	1.01332922497477E-07	2318832	3.03591059491737E-05
1	271	89.6713237736017	0.474700927734375	0.474639892578125	2.105712890625E-07	9.99455309624864E-08	2254058	3.03802353300853E-05
1	272	89.7720317733474	0.464630126953125	0.464691162109375	2.1240234375E-07	9.87014914244355E-08	2187787.5	3.04015338770114E-05
1	273	89.8727397730931	0.454559326171875	0.45452880859375	2.12707519531249E-07	9.66816955383365E-08	2136872.25	3.04229397443123E-05
1	274	89.9734477728389	0.444488525390625	0.4444580078125	2.1331787109375E-07	9.48108294096528E-08	2083548	3.04443929053377E-05
1	275	90.0741557725846	0.434417724609375	0.434326171875	2.13623046875E-07	9.27820735796558E-08	2033142.875	3.04658897221088E-05
1	276	90.1748637723304	0.424346923828125	0.424346923828125	2.14233398437499E-07	9.09092818801582E-08	1980769.25	3.04874338326044E-05
1	277	90.2755717720761	0.414276123046875	0.414215087890625	2.14233398437499E-07	8.87387017201036E-08	1933475.75	3.05090088659199E-05
1	278	90.3762797718218	0.404205322265625	0.40423583984375	2.14538574218751E-07	8.67241780611039E-08	1884210.5	3.05305984511506E-05
1	279	90.4769877715676	0.394134521484375	0.394195556640625	2.1514892578125E-07	8.48107433171208E-08	1832198.625	3.05522371490952E-05
1	280	90.5776957713133	0.384063720703125	0.384063720703125	2.16064453125001E-07	8.29825168580101E-08	1777542.375	3.05739486066159E-05
1	281	90.678403771059	0.373992919921875	0.37396240234375	2.166748046875E-07	8.10282330121481E-08	1725915.5	3.05957400996704E-05
1	282	90.7791117708048	0.363922119140625	0.363922119140625	2.17285156249999E-07	7.90748728718427E-08	1674859.625	3.06175898003858E-05
1	283	90.8798197705505	0.353851318359375	0.35382080078125	2.178955078125E-07	7.70959616147593E-08	1623809.5	3.06395049847197E-05
1	284	90.9805277702962	0.343780517578125	0.343780517578125	2.178955078125E-07	7.49082289530634E-08	1577731.125	3.06614492728841E-05
1	285	91.081235770042	0.333709716796875	0.333709716796875	2.17590332031251E-07	7.26120035210442E-08	1533660.625	3.06833753711544E-05
1	286	91.1819437697877	0.323638916015625	0.323638916015625	2.166748046875E-07	7.01244005085755E-08	1493662	3.07052432617638E-05
1	287	91.2826517695335	0.313568115234375	0.31353759765625	2.1636962890625E-07	6.78400127185341E-08	1449083.25	3.07270493067335E-05
1	288	91.3833597692792	0.303497314453125	0.303466796875	2.14538574218751E-07	6.51053326805595E-08	1414509.25	3.0748746212339E-05
1	289	91.4840677690249	0.293426513671875	0.293365478515625	2.13623046875E-07	6.26696277095107E-08	1373285.75	3.07703085127287E-05
1	290	91.5847757687707	0.283355712890625	0.283355712890625	2.117919921875E-07	6.00124678840075E-08	1337896.25	3.07917289319448E-05
1	291	91.6854837685164	0.273284912109375	0.273284912109375	2.093505859375E-07	5.72123539654967E-08	1305393.625	3.08129347104114E-05
1	292	91.7861917682621	0.263214111328125	0.26318359375	2.0599365234375E-07	5.42141478376834E-08	1277629.625	3.08338494505733E-05
1	293	91.8868997680079	0.253143310546875	0.253082275390625	2.0263671875E-07	5.12837594612847E-08	1248945.875	3.08544258587062E-05
1	294	91.9876077677536	0.243072509765625	0.24310302734375	1.9866943359375E-07	4.8297138732778E-08	1223656	3.08746311930008E-05
1	295	92.0883157674994	0.233001708984375	0.23297119140625	1.92871093749999E-07	4.49334081054076E-08	1207911.5	3.08943490381353E-05
1	296	92.1890237672451	0.222930908203125	0.22283935546875	1.8768310546875E-07	4.1823181362588E-08	1187317.125	3.09135102725122E-05
1	297	92.2897317669908	0.212860107421875	0.212860107421875	1.8157958984375E-07	3.86510485839153E-08	1172269	3.09321039821953E-05
1	298	92.3904397667366	0.202789306640625	0.202880859375	1.7364501953125E-07	3.52292524041786E-08	1168365.5	3.09499919239897E-05
1	299	92.4911477664823	0.192718505859375	0.19268798828125	1.6448974609375E-07	3.16951975776192E-08	1171428.5	3.09670176648069E-05
1	300	92.591855766228	0.182647705078125	0.18267822265625	1.52587890625E-07	2.78744831661015E-08	1197200	3.09829847537912E-05
1	301	92.6925637659738	0.172576904296875	0.172607421875	1.3763427734375E-07	2.37566979421899E-08	1254102	3.09975985146593E-05
1	302	92.7932717657195	0.162506103515625	0.16259765625	1.1474609375E-07	1.86574453664434E-08	1417021.25	3.10103059746325E-05
1	303	92.8939797654652	0.152435302734375	0.152496337890625	8.57543945312497E-08	1.3077230853753E-08	1778291.875	3.10204013658222E-05
1	304	92.994687765211	0.142364501953125	0.142364501953125	4.54711914062503E-08	6.47348308291384E-09	3130872.5	3.10270115733147E-05
1	305	93.0953957649567	0.132293701171875	0.13232421875	-1.068115234375E-08	-1.41337508363648E-09	-12388572	3.10287614411209E-05
1	306	93.1961037647025	0.122222900390625	0.12225341796875	-8.85009765625E-08	-1.08195470360783E-08	-1381379.375	3.10237664962187E-05
1	307	93.2968117644482	0.112152099609375	0.11224365234375	-1.94396972656249E-07	-2.1819824169711E-08	-577394.0625	3.1009523809189E-05
1	308	93.3975197641939	0.102081298828125	0.102081298828125	-3.338623046875E-07	-3.40810970556049E-08	-305758.6875	3.09829229081515E-05
1	309	93.4982277639397	0.092010498046875	0.092071533203125	-5.133056640625E-07	-4.72608405743813E-08	-179369.796875	3.09402639686596E-05
1	310	93.5989357636854	0.081939697265625	0.08203125	-7.32421875E-07	-6.00814828999319E-08	-112000	3.08775379380677E-05
1	311	93.6996437634311	0.071868896484375	0.071868896484375	-9.8846435546875E-07	-7.10398424530467E-08	-72707.6328125	3.07908849208616E-05
1	312	93.8003517631769	0.061798095703125	0.061859130859375	-1.263427734375E-06	-7.81545423933494E-08	-48961.3515625	3.06774927594233E-05
1	313	93.9010597629226	0.051727294921875	0.0517578125	-1.53900146484375E-06	-7.96553507598219E-08	-33630.77734375	3.0536379199475E-05
1	314	94.0017677626684	0.041656494140625	0.0417724609375	-1.78436279296875E-06	-7.45372261690136E-08	-23410.296875	3.03690339933382E-05
1	315	94.1024757624141	0.031585693359375	0.0316375732421875	-1.97509765625E-06	-6.24872882326599E-08	-16018.232421875	3.01797299471218E-05
1	316	94.2031837621598	0.021514892578125	0.021575927734375	-2.0977783203125E-06	-4.52615118717858E-08	-10285.1328125	2.99746443488402E-05
1	317	94.3038917619056	0.011444091796875	0.0115631103515625	-2.15118408203125E-06	-2.487437633647E-08	-5375.23095703125	2.97606911772164E-05
1	318	94.4045997616513	0.001373291015625	0.00144042968749999	-2.14447021484375E-06	-3.08895864442604E-09	-671.694885253906	2.95443878712831E-05
1	319	94.505307761397	-0.008697509765625	-0.00863037109375001	-2.09320068359375E-06	1.80650978620633E-08	4123.0498046875	2.93310040433425E-05
1	320	94.6060157611428	-0.018768310546875	-0.0186431884765625	-2.01568603515625E-06	3.75788147266576E-08	9249.0537109375	2.91241049126256E-05
1	321	94.7067237608885	-0.028839111328125	-0.0286865234375	-1.927490234375E-06	5.52929897423837E-08	14882.8388671875	2.89255513052922E-05
1	322	94.8074317606342	-0.038909912109375	-0.0388031005859375	-1.837158203125E-06	7.12874310693223E-08	21121.263671875	2.87359853246016E-05
1	323	94.90813976038	-0.048980712890625	-0.0488494873046875	-1.75018310546875E-06	8.54955430895643E-08	27911.072265625	2.85553487628931E-05
1	324	95.0088477601257	-0.059051513671875	-0.058990478515625	-1.66900634765625E-06	9.84554802130333E-08	35344.671875	2.83831795968581E-05
1	325	95.1095557598715	-0.069122314453125	-0.069122314453125	-1.59576416015625E-06	1.10302913469695E-07	43316.12109375	2.82187847915338E-05
1	326	95.2102637596172	-0.079193115234375	-0.079132080078125	-1.53106689453125E-06	1.21156503496422E-07	51684.27734375	2.80613367067417E-05
1	327	95.3109717593629	-0.089263916015625	-0.08917236328125	-1.47247314453125E-06	1.3130390641436E-07	60559.58984375	2.79100968327839E-05
1	328	95.4116797591087	-0.099334716796875	-0.099273681640625	-1.42181396484375E-06	1.41148703391991E-07	69821.8515625	2.77643575827824E-05
1	329	95.5123877588544	-0.109405517578125	-0.109375	-1.375732421875E-06	1.50470725657215E-07	79503.109375	2.76234895864036E-05
1	330	95.6130957586001	-0.119476318359375	-0.119415283203125	-1.33575439453125E-06	1.59509497166255E-07	89399.1328125	2.7486954422784E-05
1	331	95.7138037583459	-0.129547119140625	-0.12945556640625	-1.3006591796875E-06	1.68377567888456E-07	99530.734375	2.73542009381345E-05
1	332	95.8145117580916	-0.139617919921875	-0.1395263671875	-1.26922607421875E-06	1.77090498709731E-07	109930.28125	2.72247980319662E-05
1	333	95.9152197578373	-0.149688720703125	-0.14959716796875	-1.24114990234375E-06	1.85672504926515E-07	120531.1015625	2.70983891823562E-05
1	334	96.0159277575831	-0.159759521484375	-0.159637451171875	-1.2164306640625E-06	1.94187890656394E-07	131234.328125	2.69746415142436E-05
1	335	96.1166357573288	-0.169830322265625	-0.169677734375	-1.19476318359375E-06	2.02724706355184E-07	142017.875	2.68532276095357E-05
1	336	96.2173437570746	-0.179901123046875	-0.17974853515625	-1.17523193359375E-06	2.11246216963445E-07	152947.296875	2.67338891717372E-05
1	337	96.3180517568203	-0.189971923828125	-0.1898193359375	-1.15814208984375E-06	2.19837744452889E-07	163899.875	2.66163933702046E-05
1	338	96.418759756566	-0.200042724609375	-0.199920654296875	-1.1431884765625E-06	2.28546980451938E-07	174879.875	2.65005128312623E-05
1	339	96.5194677563118	-0.189971923828125	-0.1898193359375	-1.0064697265625E-06	1.91047405451172E-07	188599.15625	2.63922684098361E-05
2	340	96.6201757560575	-0.179901123046875	-0.17974853515625	-9.14611816406249E-07	1.64400134394782E-07	196529.859375	2.62955345533555E-05
2	341	96.7208837558032	-0.169830322265625	-0.169677734375	-8.4197998046875E-07	1.42865246743895E-07	201522.296875	2.62070825556293E-05
2	342	96.821591755549	-0.159759521484375	-0.159637451171875	-7.80639648437501E-07	1.24619319308295E-07	204495.703125	2.61253771896008E-05
2	343	96.9222997552947	-0.149688720703125	-0.1495361328125	-7.27233886718751E-07	1.0874774147851E-07	205623.15625	2.60494507529074E-05
2	344	97.0230077550405	-0.139617919921875	-0.13946533203125	-6.79931640625001E-07	9.48268947809083E-08	205116.6875	2.59785938396817E-05
2	345	97.1237157547862	-0.129547119140625	-0.129425048828125	-6.365966796875E-07	8.2391551359251E-08	203307.765625	2.59123025898589E-05
2	346	97.2244237545319	-0.119476318359375	-0.119384765625	-5.96923828125E-07	7.12636136768197E-08	200000	2.5850189558696E-05
2	347	97.3251317542777	-0.109405517578125	-0.1092529296875	-5.59082031249999E-07	6.10813515322661E-08	195414.84375	2.57919800787931E-05
2	348	97.4258397540234	-0.099334716796875	-0.099273681640625	-5.22766113281251E-07	5.18969116569679E-08	189900.78125	2.57375049841357E-05
2	349	97.5265477537691	-0.089263916015625	-0.089202880859375	-4.8797607421875E-07	4.35288711742032E-08	182801.75	2.56866096606245E-05
2	350	97.6272557535149	-0.079193115234375	-0.07904052734375	-4.5166015625E-07	3.56994576122815E-08	175000	2.56392941082595E-05
2	351	97.7279637532606	-0.069122314453125	-0.069061279296875	-4.13818359375E-07	2.85788246401353E-08	166887.90625	2.55957147601293E-05
2	352	97.8286717530063	-0.059051513671875	-0.059051513671875	-3.7261962890625E-07	2.20037517095761E-08	158476.671875	2.55561135418247E-05
2	353	97.9293797527521	-0.048980712890625	-0.0488494873046875	-3.25622558593749E-07	1.59064938998199E-08	150018.75	2.55209542956436E-05
2	354	98.0300877524978	-0.038909912109375	-0.038800048828125	-2.6824951171875E-07	1.04080939422602E-08	144641.65625	2.54910519288387E-05
2	355	98.1307957522436	-0.028839111328125	-0.02869873046875	-1.971435546875E-07	5.65776980820942E-09	145572.765625	2.54676160693634E-05
2	356	98.2315037519893	-0.018768310546875	-0.0186279296875	-1.06201171875001E-07	1.9783079618918E-09	175402.3125	2.54523420153419E-05
2	357	98.332211751735	-0.008697509765625	-0.00865478515625	1.09863281249997E-08	-9.50843084823738E-11	-787777.875	2.54475471592741E-05
2	358	98.4329197514808	0.001373291015625	0.001483154296875	1.6204833984375E-07	2.4034269019424E-10	9152.5419921875	2.54562601185171E-05
2	359	98.5336277512265	0.011444091796875	0.0115325927734375	3.521728515625E-07	4.06146583031841E-09	32746.96875	2.54821534326766E-05
2	360	98.6343357509722	0.021514892578125	0.021636962890625	5.8258056640625E-07	1.2605273269628E-08	37139.8671875	2.55292216024827E-05
2	361	98.735043750718	0.031585693359375	0.0316619873046875	8.4716796875E-07	2.68230202493669E-08	37373.921875	2.56012153840857E-05
2	362	98.8357517504637	0.041656494140625	0.0417694091796875	1.1322021484375E-06	4.72914116755874E-08	36892.18359375	2.57008850894636E-05
2	363	98.9364597502095	0.051727294921875	0.0517578125	1.41571044921875E-06	7.32740730313708E-08	36559.60546875	2.58291820500745E-05
2	364	99.0371677499552	0.061798095703125	0.061859130859375	1.6705322265625E-06	1.03337669088432E-07	37029.59765625	2.59845874097664E-05
2	365	99.1378757497009	0.071868896484375	0.071929931640625	1.87255859375E-06	1.34693010522824E-07	38412.6484375	2.61629957094556E-05
2	366	99.2385837494467	0.081939697265625	0.08203125	2.00897216796875E-06	1.64798493074159E-07	40832.44921875	2.63584461208666E-05
2	367	99.3392917491924	0.092010498046875	0.092071533203125	2.07489013671875E-06	1.91038310504155E-07	44374.17578125	2.65640846919268E-05
2	368	99.4399997489381	0.102081298828125	0.102081298828125	2.08099365234375E-06	2.12430535384556E-07	49054.11328125	2.67733503278578E-05
2	369	99.5407077486839	0.112152099609375	0.112213134765625	2.04376220703125E-06	2.29336961865556E-07	54905.18359375	2.69810479949228E-05
2	370	99.6414157484296	0.122222900390625	0.122283935546875	1.97998046875E-06	2.42119796212137E-07	61760.17578125	2.71836597676156E-05
2	371	99.7421237481753	0.132293701171875	0.13226318359375	1.90338134765625E-06	2.51747280799464E-07	69488.5390625	2.73792029474862E-05
2	372	99.8428317479211	0.142364501953125	0.14239501953125	1.8231201171875E-06	2.59603211816284E-07	78105.125	2.75668480753666E-05
2	373	99.9435397476668	0.152435302734375	0.15240478515625	1.7449951171875E-06	2.65945601540807E-07	87338.234375	2.77465169347124E-05
2	374	100.044247747413	0.162506103515625	0.16253662109375	1.67266845703125E-06	2.71869879497899E-07	97172.0546875	2.79186097031925E-05
2	375	100.144955747158	0.172576904296875	0.172576904296875	1.60736083984375E-06	2.77393354508604E-07	107366.625	2.8083772122045E-05
2	376	100.245663746904	0.182647705078125	0.18267822265625	1.549072265625E-06	2.82981744703648E-07	117927.5078125	2.82427099591587E-05
2	377	100.34637174665	0.192718505859375	0.192718505859375	1.4971923828125E-06	2.88536682546692E-07	128719.9375	2.83961016975809E-05
2	378	100.447079746396	0.202789306640625	0.202850341796875	1.451416015625E-06	2.9442023219417E-07	139760.3125	2.85445767076453E-05
2	379	100.547787746141	0.212860107421875	0.212860107421875	1.4111328125E-06	3.00373869777104E-07	150843.4375	2.86887170659611E-05
2	380	100.648495745887	0.222930908203125	0.222930908203125	1.375732421875E-06	3.06693266338698E-07	162045.25	2.88290466414765E-05
2	381	100.749203745633	0.233001708984375	0.232940673828125	1.3446044921875E-06	3.13213064373485E-07	173241.03125	2.89660274574999E-05
2	382	100.849911745378	0.243072509765625	0.243072509765625	1.317138671875E-06	3.20160182809559E-07	184545.875	2.91000560537213E-05
2	383	100.950619745124	0.253143310546875	0.253204345703125	1.29241943359375E-06	3.27246198139619E-07	195915	2.92314580292441E-05
2	384	101.05132774487	0.263214111328125	0.26318359375	1.2701416015625E-06	3.34280400693387E-07	207208.078125	2.93604934995528E-05
2	385	101.152035744616	0.273284912109375	0.273284912109375	1.24908447265625E-06	3.41355928412668E-07	218788.171875	2.94873461825773E-05
2	386	101.252743744361	0.283355712890625	0.2833251953125	1.23077392578125E-06	3.4870927834163E-07	230200.84375	2.96122179861413E-05
2	387	101.353451744107	0.293426513671875	0.29339599609375	1.21429443359375E-06	3.56269140411314E-07	241618.5	2.97353362839203E-05
2	388	101.454159743853	0.303497314453125	0.303497314453125	1.19842529296875E-06	3.63718839935245E-07	253246.765625	2.98568265861832E-05
2	389	101.554867743599	0.313568115234375	0.313507080078125	1.185302734375E-06	3.71600805237904E-07	264495.375	2.99768562399549E-05
2	390	101.655575743344	0.323638916015625	0.3236083984375	1.17279052734375E-06	3.79524834670519E-07	275930.28125	3.00955962302396E-05
2	391	101.75628374309	0.333709716796875	0.333709716796875	1.162109375E-06	3.87807176593924E-07	287158.625	3.02131684293272E-05
2	392	101.856991742836	0.343780517578125	0.34381103515625	1.1517333984375E-06	3.95978645428841E-07	298516.15625	3.03296783386031E-05
2	393	101.957699742582	0.353851318359375	0.3538818359375	1.14288330078125E-06	4.04445643198414E-07	309639.5	3.04452223645058E-05
2	394	102.058407742327	0.363922119140625	0.36383056640625	1.13494873046875E-06	4.1292901187262E-07	320570.0625	3.05599205603357E-05
2	395	102.159115742073	0.373992919921875	0.374053955078125	1.12823486328125E-06	4.22020718815475E-07	331539.09375	3.06738802464679E-05
2	396	102.259823741819	0.384063720703125	0.384063720703125	1.12213134765625E-06	4.30969919307245E-07	342262.75	3.07871960103512E-05
2	397	102.360531741565	0.394134521484375	0.394134521484375	1.11663818359375E-06	4.40105651478007E-07	352965.3125	3.08999260596465E-05
2	398	102.46123974131	0.404205322265625	0.404144287109375	1.11297607421875E-06	4.49802911361985E-07	363120.375	3.10121977236122E-05
2	399	102.561947741056	0.414276123046875	0.41424560546875	1.10870361328125E-06	4.59275582898044E-07	373630.625	3.11240655719303E-05
2	400	102.662655740802	0.424346923828125	0.42431640625	1.10626220703125E-06	4.69405193825878E-07	383558.625	3.12355987261981E-05
2	401	102.763363740547	0.434417724609375	0.43438720703125	1.10504150390625E-06	4.8001589902924E-07	393095.8125	3.13469463435467E-05
2	402	102.864071740293	0.444488525390625	0.44451904296875	1.103515625E-06	4.90533693664474E-07	402820.8125	3.14581557177007E-05
2	403	102.964779740039	0.454559326171875	0.454498291015625	1.10260009765625E-06	5.01129875374318E-07	412205.9375	3.15692450385541E-05
2	404	103.065487739785	0.464630126953125	0.464569091796875	1.1016845703125E-06	5.11808593728347E-07	421689.75	3.16802361339796E-05
2	405	103.16619573953	0.474700927734375	0.474761962890625	1.1016845703125E-06	5.23037954280881E-07	430941.8125	3.17911872116383E-05
2	406	103.266903739276	0.484771728515625	0.484710693359375	1.10198974609375E-06	5.34146181507822E-07	439850.46875	3.19021492032334E-05
2	407	103.367611739022	0.494842529296875	0.49481201171875	1.10260009765625E-06	5.45579780464323E-07	448768.34375	3.2013158488553E-05
2	408	103.468319738768	0.504913330078125	0.504791259765625	1.103515625E-06	5.57045041205129E-07	457439.15625	3.21242478094064E-05
2	409	103.569027738513	0.514984130859375	0.51495361328125	1.10443115234375E-06	5.68730797567696E-07	466261.40625	3.22354244417511E-05
2	410	103.669735738259	0.525054931640625	0.52508544921875	1.1065673828125E-06	5.81042399971921E-07	474517.40625	3.23467575071845E-05
2	411	103.770443738005	0.535125732421875	0.535064697265625	1.1090087890625E-06	5.93391405345756E-07	482471.125	3.24583197652828E-05
2	412	103.871151737751	0.545196533203125	0.545135498046875	1.112060546875E-06	6.06223693466745E-07	490203.0625	3.25701621477492E-05
2	413	103.971859737496	0.555267333984375	0.55517578125	1.1163330078125E-06	6.19761067355284E-07	497320.9375	3.26823683280963E-05
2	414	104.072567737242	0.565338134765625	0.565338134765625	1.1199951171875E-06	6.33175943676179E-07	504768.40625	3.27949783240911E-05
2	415	104.173275736988	0.575408935546875	0.575347900390625	1.12548828125E-06	6.47547267362825E-07	511198.5	3.29080467054155E-05
2	416	104.273983736733	0.585479736328125	0.585479736328125	1.1309814453125E-06	6.62166712572798E-07	517674.03125	3.30216680595186E-05
2	417	104.374691736479	0.595550537109375	0.59552001953125	1.1376953125E-06	6.77520347380778E-07	523444.1875	3.31359078700189E-05
2	418	104.475399736225	0.605621337890625	0.605560302734375	1.146240234375E-06	6.94117545663175E-07	528301.4375	3.32509116560686E-05
2	419	104.576107735971	0.615692138671875	0.6156005859375	1.15570068359375E-06	7.11449956725119E-07	532664.4375	3.33668249368202E-05
2	420	104.676815735716	0.625762939453125	0.62567138671875	1.1676025390625E-06	7.30535475668148E-07	535859.9375	3.34838114213198E-05
2	421	104.777523735462	0.635833740234375	0.6357421875	1.1822509765625E-06	7.51606762605661E-07	537738.8125	3.36021366820205E-05
2	422	104.878231735208	0.645904541015625	0.6458740234375	1.2005615234375E-06	7.75411535869353E-07	537976.625	3.37221208610572E-05
2	423	104.978939734954	0.655975341796875	0.6558837890625	1.22314453125E-06	8.02240663233533E-07	536227.5625	3.38441641360987E-05
2	424	105.079647734699	0.666046142578125	0.665985107421875	1.25152587890625E-06	8.33497608709877E-07	532138.5	3.39687721861992E-05
2	425	105.180355734445	0.676116943359375	0.676025390625	1.2847900390625E-06	8.68550614541164E-07	526175.8125	3.4096487070201E-05
2	426	105.281063734191	0.686187744140625	0.68621826171875	1.32476806640625E-06	9.09080029032339E-07	517991.25	3.42278872267343E-05
2	427	105.381771733937	0.696258544921875	0.69622802734375	1.36871337890625E-06	9.52936602516274E-07	508673.375	3.43635147146415E-05
2	428	105.482479733682	0.706329345703125	0.70623779296875	1.4141845703125E-06	9.98750579128682E-07	499395.78125	3.45036460203119E-05
2	429	105.583187733428	0.716400146484375	0.716278076171875	1.45599365234375E-06	1.04289631508436E-06	491951.40625	3.46481720043812E-05
2	430	105.683895733174	0.726470947265625	0.72637939453125	1.4910888671875E-06	1.0830962082764E-06	487146.96875	3.47965687979013E-05
2	431	105.78460373292	0.736541748046875	0.736480712890625	1.5155029296875E-06	1.11613860553916E-06	485964.59375	3.49479632859584E-05
2	432	105.885311732665	0.746612548828125	0.7464599609375	1.53076171875E-06	1.14265230877209E-06	487639.5625	3.51013550243806E-05
2	433	105.986019732411	0.756683349609375	0.75714111328125	1.536865234375E-06	1.16362377866608E-06	492652.90625	3.52558199665509E-05
2	434	106.086727732157	0.766754150390625	0.76690673828125	1.53594970703125E-06	1.17793013032497E-06	499304.59375	3.54105504811741E-05
2	435	106.187435731902	0.776824951171875	0.77667236328125	1.5313720703125E-06	1.18937430215738E-06	507174.1875	3.55650008714292E-05
2	436	106.288143731648	0.786895751953125	0.78704833984375	1.52313232421875E-06	1.19877870474738E-06	516730.125	3.57188073394354E-05
2	437	106.388851731394	0.796966552734375	0.797119140625	1.5155029296875E-06	1.20803633762989E-06	525976.6875	3.58718134521041E-05
2	438	106.48955973114	0.807037353515625	0.80657958984375	1.50787353515625E-06	1.21622008464328E-06	534911.9375	3.60240555892233E-05
2	439	106.590267730885	0.817108154296875	0.81756591796875	1.5008544921875E-06	1.22704739169421E-06	544733.6875	3.61755555786658E-05
2	440	106.690975730631	0.827178955078125	0.82733154296875	1.49505615234375E-06	1.2369071100693E-06	553378.25	3.63264116458595E-05
2	441	106.791683730377	0.837249755859375	0.83709716796875	1.49200439453125E-06	1.24895257158641E-06	561055.4375	3.64768202416599E-05
2	442	106.892391730123	0.847320556640625	0.84716796875	1.4898681640625E-06	1.26216855278471E-06	568619.4375	3.6626970540965E-05
2	443	106.993099729868	0.857391357421875	0.8575439453125	1.4898681640625E-06	1.27762746160442E-06	575583.75	3.67770117009059E-05
2	444	107.093807729614	0.867462158203125	0.86761474609375	1.4923095703125E-06	1.29474972254684E-06	581390.625	3.69271765521262E-05
2	445	107.19451572936	0.877532958984375	0.87799072265625	1.49505615234375E-06	1.31264539504627E-06	587262.6875	3.70776033378206E-05
2	446	107.295223729106	0.887603759765625	0.8880615234375	1.4971923828125E-06	1.32959894472151E-06	593151.25	3.72282738680951E-05
2	447	107.395931728851	0.897674560546875	0.8978271484375	1.49932861328125E-06	1.34613799218641E-06	598819.4375	3.73791626770981E-05
2	448	107.496639728597	0.907745361328125	0.90789794921875	1.50115966796875E-06	1.36289975216641E-06	604797.75	3.75302479369566E-05
2	449	107.597347728343	0.917816162109375	0.91827392578125	1.5008544921875E-06	1.37819552037399E-06	611834.125	3.76814132323489E-05
2	450	107.698055728089	0.927886962890625	0.92803955078125	1.49993896484375E-06	1.39200255944161E-06	618718.25	3.78325130441226E-05
2	451	107.798763727834	0.937957763671875	0.9381103515625	1.4984130859375E-06	1.40567681228276E-06	626069.25	3.79834928025957E-05
2	452	107.89947172758	0.948028564453125	0.9478759765625	1.49688720703125E-06	1.41886346227693E-06	633231.375	3.81343197659589E-05
2	453	108.000179727326	0.958099365234375	0.958251953125	1.49444580078125E-06	1.43205556923931E-06	641208.9375	3.8284943002509E-05
2	454	108.100887727071	0.968170166015625	0.968017578125	1.4923095703125E-06	1.44458181239315E-06	648670.8125	3.84353370463941E-05
2	455	108.201595726817	0.978240966796875	0.9783935546875	1.4910888671875E-06	1.45887167946057E-06	656160.5	3.85855637432542E-05
2	456	108.302303726563	0.988311767578125	0.98846435546875	1.4892578125E-06	1.47207822465134E-06	663729.5	3.87356376450043E-05
2	457	108.403011726309	0.998382568359375	0.9979248046875	1.4892578125E-06	1.48616732076334E-06	670082	3.88856169593055E-05
2	458	108.503719726054	1.00845336914063	1.00860595703125	1.48956298828125E-06	1.50238201968023E-06	677115.375	3.90356144635007E-05
2	459	108.6044277258	1.01852416992188	1.01806640625	1.48956298828125E-06	1.51647395796317E-06	683466.5625	3.91856228816323E-05
2	460	108.705135725546	1.02859497070313	1.0284423828125	1.49078369140625E-06	1.53318512730038E-06	689866.9375	3.93356967833824E-05
2	461	108.805843725292	1.03866577148438	1.038818359375	1.492919921875E-06	1.55087252551311E-06	695829.9375	3.94859380321577E-05
2	462	108.906551725037	1.04873657226563	1.04888916015625	1.494140625E-06	1.56718795096822E-06	702001.625	3.96363466279581E-05
2	463	109.007259724783	1.05880737304688	1.05926513671875	1.495361328125E-06	1.58398404437321E-06	708367.375	3.97868825530168E-05
2	464	109.107967724529	1.06887817382813	1.06903076171875	1.4959716796875E-06	1.59923968112707E-06	714606.3125	3.99375057895668E-05
2	465	109.208675724275	1.07894897460938	1.0784912109375	1.49688720703125E-06	1.61437969836697E-06	720489.3125	4.00882090616506E-05
2	466	109.30938372402	1.08901977539063	1.08917236328125	1.4971923828125E-06	1.63070046710345E-06	727476.5625	4.02389741793741E-05
2	467	109.410091723766	1.09909057617188	1.09893798828125	1.49688720703125E-06	1.64498624144471E-06	734148.8125	4.03897356591187E-05
2	468	109.510799723512	1.10916137695313	1.109619140625	1.49627685546875E-06	1.66029735737538E-06	741586.8125	4.05404534831177E-05
2	469	109.611507723258	1.11923217773438	1.1187744140625	1.49658203125E-06	1.67433756814717E-06	747553.0625	4.06911567552015E-05
2	470	109.712215723003	1.12930297851563	1.129150390625	1.49658203125E-06	1.68986605331156E-06	754486.1875	4.08418745792005E-05
2	471	109.812923722749	1.13937377929688	1.1395263671875	1.4971923828125E-06	1.70609018823598E-06	761108.875	4.09926251450088E-05
2	472	109.913631722495	1.14944458007813	1.1492919921875	1.49871826171875E-06	1.72246484453353E-06	766849.9375	4.11434812122025E-05
2	473	110.01433972224	1.15951538085938	1.15966796875	1.49993896484375E-06	1.73943112713459E-06	773143.5	4.12944755225908E-05
2	474	110.115047721986	1.16958618164063	1.1700439453125	1.50146484375E-06	1.75677973857091E-06	779268.3125	4.14456080761738E-05
2	475	110.215755721732	1.17965698242188	1.1785888671875	1.50360107421875E-06	1.77212746166333E-06	783844.125	4.15969225286972E-05
2	476	110.316463721478	1.18972778320313	1.1895751953125	1.50604248046875E-06	1.79155063051439E-06	789868.3125	4.17484698118642E-05
2	477	110.417171721223	1.19979858398438	1.19964599609375	1.5081787109375E-06	1.80928054760443E-06	795426.9375	4.19002499256749E-05
2	478	110.517879720969	1.20986938476563	1.209716796875	1.51153564453125E-06	1.82853000296745E-06	800323.0625	4.20523028878961E-05
2	479	110.618587720715	1.21994018554688	1.2200927734375	1.51580810546875E-06	1.84942655323539E-06	804912.4375	4.22047414758708E-05
2	480	110.719295720461	1.23001098632813	1.22955322265625	1.52069091796875E-06	1.86977035809832E-06	808549.125	4.23576420871541E-05
2	481	110.820003720206	1.24008178710938	1.240234375	1.52557373046875E-06	1.89206889444904E-06	812962.625	4.25110338255763E-05
2	482	110.920711719952	1.25015258789063	1.25	1.53106689453125E-06	1.91383355740982E-06	816424.1875	4.26649494329467E-05
2	483	111.021419719698	1.26022338867188	1.2603759765625	1.5380859375E-06	1.9385665837035E-06	819444.4375	4.28194944106508E-05
2	484	111.122127719444	1.27029418945313	1.2701416015625	1.5447998046875E-06	1.96211431102711E-06	822204.6875	4.29747269663494E-05
2	485	111.222835719189	1.28036499023438	1.280517578125	1.55242919921875E-06	1.98791281036392E-06	824847.6875	4.31306871178094E-05
2	486	111.323543718935	1.29043579101563	1.29058837890625	1.56036376953125E-06	2.01378747988201E-06	827107.375	4.3287429434713E-05
2	487	111.424251718681	1.30050659179688	1.30035400390625	1.56890869140625E-06	2.04013667826075E-06	828827.125	4.34449975728057E-05
2	488	111.524959718427	1.31057739257813	1.31072998046875	1.57745361328125E-06	2.06761569643277E-06	830915.125	4.36034315498546E-05
2	489	111.625667718172	1.32064819335938	1.32049560546875	1.58660888671875E-06	2.09510994864104E-06	832275.4375	4.37627531937324E-05
2	490	111.726375717918	1.33071899414063	1.3311767578125	1.59576416015625E-06	2.12424424717028E-06	834193.9375	4.39229988842271E-05
2	491	111.827083717664	1.34078979492188	1.3409423828125	1.60614013671875E-06	2.15374143408553E-06	834885.0625	4.40842268289998E-05
2	492	111.927791717409	1.35086059570313	1.35101318359375	1.6156005859375E-06	2.1826976990269E-06	836229.6875	4.42464552179445E-05
2	493	112.028499717155	1.36093139648438	1.3604736328125	1.6265869140625E-06	2.21292839341913E-06	836397.8125	4.44097131548915E-05
2	494	112.129207716901	1.37100219726563	1.37115478515625	1.63818359375E-06	2.2462031665782E-06	836997.0625	4.45741061412264E-05
2	495	112.229915716647	1.38107299804688	1.38092041015625	1.6497802734375E-06	2.27821510634385E-06	837033	4.47396705567371E-05
2	496	112.330623716392	1.39114379882813	1.390380859375	1.66290283203125E-06	2.31206831813324E-06	836116.6875	4.49064755230211E-05
2	497	112.431331716138	1.40121459960938	1.40167236328125	1.676025390625E-06	2.3492384571E-06	836307.375	4.50746047135908E-05
2	498	112.532039715884	1.41128540039063	1.41082763671875	1.69036865234375E-06	2.38481879932806E-06	834627.1875	4.52441163361073E-05
2	499	112.63274771563	1.42135620117188	1.4208984375	1.70562744140625E-06	2.42352325585671E-06	833065	4.54151195299346E-05
2	500	112.733455715375	1.43142700195313	1.4312744140625	1.71966552734375E-06	2.46131321546272E-06	832298.125	4.55875961051788E-05
2	501	112.834163715121	1.44149780273438	1.44134521484375	1.73492431640625E-06	2.50062475970481E-06	830782.8125	4.57615460618399E-05
2	502	112.934871714867	1.45156860351563	1.45172119140625	1.75048828125E-06	2.54122073783947E-06	829323.625	4.59370530734304E-05
2	503	113.035579714613	1.46163940429688	1.461181640625	1.766357421875E-06	2.58096906691208E-06	827228.75	4.61141389678232E-05
2	504	113.136287714358	1.47171020507813	1.4715576171875	1.78314208984375E-06	2.62399612438458E-06	825261.0625	4.62928692286368E-05
2	505	113.236995714104	1.48178100585938	1.4813232421875	1.80084228515625E-06	2.66762958744948E-06	822572.4375	4.64733384433202E-05
2	506	113.33770371385	1.49185180664063	1.49139404296875	1.81976318359375E-06	2.71398403128842E-06	819553.9375	4.66556521132588E-05
2	507	113.438411713596	1.50192260742188	1.50146484375	1.8402099609375E-06	2.76301057056116E-06	815920.375	4.68399448436685E-05
2	508	113.539119713341	1.49185180664063	1.49200439453125	1.69952392578125E-06	2.53569714914192E-06	877895.5	4.70181839773431E-05
2	509	113.639827713087	1.48178100585938	1.48162841796875	1.60308837890625E-06	2.37518111134705E-06	924233.8125	4.71844832645729E-05
2	510	113.740535712833	1.47171020507813	1.4715576171875	1.52923583984375E-06	2.25035842049692E-06	962283	4.73422078357544E-05
2	511	113.841243712578	1.46163940429688	1.46209716796875	1.46820068359375E-06	2.14665192288521E-06	995842.9375	4.74931439384818E-05
2	512	113.941951712324	1.45156860351563	1.451416015625	1.416015625E-06	2.05522769647359E-06	1025000	4.76383756904397E-05
2	513	114.04265971207	1.44149780273438	1.4410400390625	1.37176513671875E-06	1.97676831703575E-06	1050500.625	4.77787507406902E-05
2	514	114.143367711816	1.43142700195313	1.43157958984375	1.3323974609375E-06	1.90743298844609E-06	1074438.875	4.79149166494608E-05
2	515	114.244075711561	1.42135620117188	1.4208984375	1.297607421875E-06	1.84376824563515E-06	1095014.125	4.80473463539965E-05
2	516	114.344783711307	1.41128540039063	1.41143798828125	1.26556396484375E-06	1.7862649883682E-06	1115264.125	4.81764109281357E-05
2	517	114.445491711053	1.40121459960938	1.40045166015625	1.23626708984375E-06	1.73133219050214E-06	1132806.75	4.83023904962465E-05
2	518	114.546199710799	1.39114379882813	1.39129638671875	1.209716796875E-06	1.68307451531291E-06	1150101	4.84255542687606E-05
2	519	114.646907710544	1.38107299804688	1.38092041015625	1.18438720703125E-06	1.63554443588509E-06	1165936.625	4.85461059724912E-05
2	520	114.74761571029	1.37100219726563	1.37115478515625	1.16119384765625E-06	1.59217643158627E-06	1180814.75	4.86642165924422E-05
2	521	114.848323710036	1.36093139648438	1.361083984375	1.138916015625E-06	1.55016027747479E-06	1195069.75	4.87800352857448E-05
2	522	114.949031709782	1.35086059570313	1.35040283203125	1.11785888671875E-06	1.50955986555346E-06	1208026.125	4.88936748297419E-05
2	523	115.049739709527	1.34078979492188	1.34002685546875	1.0986328125E-06	1.47219736845727E-06	1219722.25	4.90052843815647E-05
2	524	115.150447709273	1.33071899414063	1.33087158203125	1.0797119140625E-06	1.4369578593687E-06	1232617.375	4.91149730805773E-05
2	525	115.251155709019	1.32064819335938	1.32110595703125	1.06201171875E-06	1.40303006901377E-06	1243965.5	4.92228173243348E-05
2	526	115.351863708765	1.31057739257813	1.31072998046875	1.04461669921875E-06	1.36921028115466E-06	1254747.375	4.93288935103919E-05
2	527	115.45257170851	1.30050659179688	1.3006591796875	1.02752685546875E-06	1.33646221911476E-06	1265815.25	4.94332343805581E-05
2	528	115.553279708256	1.29043579101563	1.290283203125	1.011962890625E-06	1.30571856971073E-06	1275030.25	4.95359308843035E-05
2	529	115.653987708002	1.28036499023438	1.28021240234375	9.967041015625E-07	1.2759929859385E-06	1284445.75	4.96370739710983E-05
2	530	115.754695707747	1.27029418945313	1.26983642578125	9.81750488281249E-07	1.24666246392735E-06	1293441.125	4.97366963827517E-05
2	531	115.855403707493	1.26022338867188	1.2603759765625	9.66796875000001E-07	1.21852747270168E-06	1303661.625	4.98348163091578E-05
2	532	115.956111707239	1.25015258789063	1.25030517578125	9.527587890625E-07	1.19123922104336E-06	1312299.875	4.99314737680834E-05
2	533	116.056819706985	1.24008178710938	1.24053955078125	9.39331054687501E-07	1.1652772400339E-06	1320662.875	5.00267451570835E-05
2	534	116.15752770673	1.23001098632813	1.2298583984375	9.259033203125E-07	1.13872988549701E-06	1328279.5	5.0120670493925E-05
2	535	116.258235706476	1.21994018554688	1.2200927734375	9.130859375E-07	1.11404949620919E-06	1336230	5.02132679685019E-05
2	536	116.358943706222	1.20986938476563	1.21002197265625	9.0057373046875E-07	1.08971391910018E-06	1343612.375	5.03045957884751E-05
2	537	116.459651705968	1.19979858398438	1.19964599609375	8.8775634765625E-07	1.0649932846718E-06	1351323.5	5.03946430399083E-05
2	538	116.560359705713	1.18972778320313	1.18988037109375	8.75244140625001E-07	1.04143578028015E-06	1359484	5.04834169987589E-05
2	539	116.661067705459	1.17965698242188	1.17950439453125	8.63037109375001E-07	1.01795603768551E-06	1366690.25	5.05709467688575E-05
2	540	116.761775705205	1.16958618164063	1.16912841796875	8.50524902343749E-07	9.94372840068536E-07	1374596.375	5.06572323502041E-05
2	541	116.862483704951	1.15951538085938	1.15936279296875	8.38623046875001E-07	9.72268367149809E-07	1382460	5.07422882947139E-05
2	542	116.963191704696	1.14944458007813	1.1492919921875	8.2672119140625E-07	9.501440558779E-07	1390180.875	5.08261437062174E-05
2	543	117.063899704442	1.13937377929688	1.13922119140625	8.13903808593749E-07	9.27216433410649E-07	1399700	5.09087549289688E-05
2	544	117.164607704188	1.12930297851563	1.12945556640625	8.0169677734375E-07	9.05480874280329E-07	1408831.375	5.0990107411053E-05
2	545	117.265315703934	1.11923217773438	1.1187744140625	7.8887939453125E-07	8.82578092387121E-07	1418181.875	5.107020115247E-05
2	546	117.366023703679	1.10916137695313	1.1090087890625	7.757568359375E-07	8.6032110857559E-07	1429583.125	5.11489852215163E-05
2	547	117.466731703425	1.09909057617188	1.09893798828125	7.62023925781249E-07	8.37417019283748E-07	1442130.625	5.12264196004253E-05
2	548	117.567439703171	1.08901977539063	1.0894775390625	7.489013671875E-07	8.15911221252463E-07	1454767.75	5.1302500651218E-05
2	549	117.668147702916	1.07894897460938	1.0797119140625	7.3455810546875E-07	7.93111155417137E-07	1469879.5	5.1377199270064E-05
2	550	117.768855702662	1.06887817382813	1.06903076171875	7.2021484375E-07	7.69931773447752E-07	1484322.125	5.14504536113236E-05
2	551	117.869563702408	1.05880737304688	1.05865478515625	7.0526123046875E-07	7.46628131764737E-07	1501081.875	5.15222309331875E-05
2	552	117.970271702154	1.04873657226563	1.04827880859375	6.903076171875E-07	7.23634855148703E-07	1518567.625	5.15925021318253E-05
2	553	118.070979701899	1.03866577148438	1.038818359375	6.75354003906251E-07	7.01570115779759E-07	1538183.5	5.16612708452158E-05
2	554	118.171687701645	1.02859497070313	1.02813720703125	6.6192626953125E-07	6.80551011100761E-07	1553250.375	5.17286061949562E-05
2	555	118.272395701391	1.01852416992188	1.0174560546875	6.47583007812499E-07	6.58887188365043E-07	1571159.375	5.17945445608348E-05
2	556	118.373103701137	1.00845336914063	1.00860595703125	6.3507080078125E-07	6.40536143237114E-07	1588178.875	5.18591332365759E-05
2	557	118.473811700882	0.998382568359375	0.99822998046875	6.2286376953125E-07	6.21761273578159E-07	1602645.75	5.19224740855861E-05
2	558	118.574519700628	0.988311767578125	0.98846435546875	6.103515625E-07	6.03310752467223E-07	1619500	5.19845707458444E-05
2	559	118.675227700374	0.978240966796875	0.97869873046875	5.9844970703125E-07	5.8570191185936E-07	1635390.25	5.20454414072447E-05
2	560	118.77593570012	0.968170166015625	0.968017578125	5.8624267578125E-07	5.67493202652258E-07	1651223.375	5.21050933457445E-05
2	561	118.876643699865	0.958099365234375	0.958251953125	5.74951171875E-07	5.50948072941537E-07	1666666.625	5.21635629411321E-05
2	562	118.977351699611	0.948028564453125	0.94757080078125	5.633544921875E-07	5.33818251824414E-07	1682015.125	5.22208829352167E-05
2	563	119.078059699357	0.937957763671875	0.93841552734375	5.50231933593751E-07	5.1634617648233E-07	1705491	5.22769551025704E-05
2	564	119.178767699103	0.927886962890625	0.92742919921875	5.36499023437501E-07	4.97564826673624E-07	1728669	5.23316775797866E-05
2	565	119.279475698848	0.917816162109375	0.91796875	5.23681640625E-07	4.80723372220382E-07	1752913.75	5.23850612808019E-05
2	566	119.380183698594	0.907745361328125	0.9075927734375	5.0933837890625E-07	4.62271799506198E-07	1781905.375	5.24370771017857E-05
2	567	119.48089169834	0.897674560546875	0.8978271484375	4.9468994140625E-07	4.44146024847214E-07	1814929.125	5.24876340932678E-05
2	568	119.581599698085	0.887603759765625	0.88714599609375	4.7943115234375E-07	4.25325424657785E-07	1850413.75	5.25366849615239E-05
2	569	119.682307697831	0.877532958984375	0.87738037109375	4.64477539062499E-07	4.07523458534342E-07	1888962	5.25842151546385E-05
2	570	119.783015697577	0.867462158203125	0.86761474609375	4.49523925781251E-07	3.90013582318716E-07	1930074.625	5.2630239224527E-05
2	571	119.883723697323	0.857391357421875	0.85693359375	4.34265136718751E-07	3.7213638393041E-07	1973295.875	5.26747426192742E-05
2	572	119.984431697068	0.847320556640625	0.84716796875	4.193115234375E-07	3.55227285808724E-07	2020378.5	5.27177217009012E-05
2	573	120.085139696814	0.837249755859375	0.8367919921875	4.046630859375E-07	3.38618804107682E-07	2067873.375	5.2759212849196E-05
2	574	120.18584769656	0.827178955078125	0.8270263671875	3.887939453125E-07	3.2154281370822E-07	2127158.75	5.27991687704343E-05
2	575	120.286555696306	0.817108154296875	0.8172607421875	3.72924804687499E-07	3.04776790471806E-07	2191489.5	5.28375239809975E-05
2	576	120.387263696051	0.807037353515625	0.80718994140625	3.5675048828125E-07	2.87965406187141E-07	2262617.5	5.28742639289703E-05
2	577	120.487971695797	0.796966552734375	0.797119140625	3.39660644531251E-07	2.70749978881213E-07	2346810.5	5.29093304066919E-05
2	578	120.588679695543	0.786895751953125	0.78704833984375	3.21044921874999E-07	2.52677864409634E-07	2451521	5.29425997228827E-05
2	579	120.689387695289	0.776824951171875	0.77667236328125	2.99682617187499E-07	2.32755184015332E-07	2591649.75	5.29738572367933E-05
2	580	120.790095695034	0.766754150390625	0.7666015625	2.74658203125E-07	2.10553395163515E-07	2791111.25	5.30027791683096E-05
2	581	120.89080369478	0.756683349609375	0.7568359375	2.45056152343751E-07	1.85467300184428E-07	3088418.5	5.30289471498691E-05
2	582	120.991511694526	0.746612548828125	0.746551513671875	2.09960937500001E-07	1.56746651214235E-07	3555668.75	5.30518591403961E-05
2	583	121.092219694272	0.736541748046875	0.736419677734375	1.68457031249999E-07	1.24055063110973E-07	4371558	5.30709148733877E-05
2	584	121.192927694017	0.726470947265625	0.72637939453125	1.22985839843751E-07	8.93343781172007E-08	5906203.5	5.30855904798955E-05
2	585	121.293635693763	0.716400146484375	0.716278076171875	7.44628906250003E-08	5.33361337318183E-08	9619262	5.30955330759753E-05
2	586	121.394343693509	0.706329345703125	0.70623779296875	2.74658203125E-08	1.93973992423935E-08	25713334	5.31006626260933E-05
2	587	121.495051693254	0.696258544921875	0.69610595703125	-1.220703125E-08	-8.49738679420398E-09	-57025000	5.31014338776004E-05
2	588	121.595759693	0.686187744140625	0.686126708984375	-4.18090820312494E-08	-2.86863262033421E-08	-16410949	5.30987126694527E-05
2	589	121.696467692746	0.676116943359375	0.67608642578125	-5.82885742187497E-08	-3.94081141052993E-08	-11598953	5.30936740688048E-05
2	590	121.797175692492	0.666046142578125	0.666015625	-6.22558593750003E-08	-4.14633731793401E-08	-10698040	5.30876022821758E-05
2	591	121.897883692237	0.655975341796875	0.6558837890625	-5.61523437500003E-08	-3.68294088559651E-08	-11680435	5.3081639634911E-05
2	592	121.998591691983	0.645904541015625	0.6458740234375	-4.45556640624997E-08	-2.87773449514361E-08	-14495891	5.30765682924539E-05
2	593	122.099299691729	0.635833740234375	0.63580322265625	-3.17382812500003E-08	-2.0179301785106E-08	-20032692	5.30727265868336E-05
2	594	122.200007691475	0.625762939453125	0.625701904296875	-1.89208984374994E-08	-1.18388419068083E-08	-33069354	5.30701763636898E-05
2	595	122.30071569122	0.615692138671875	0.61566162109375	-5.79833984375028E-09	-3.56981511018262E-09	-106178952	5.30689321749378E-05
2	596	122.401423690966	0.605621337890625	0.6055908203125	6.103515625E-09	3.69623287532761E-09	99220000	5.3068946726853E-05
2	597	122.502131690712	0.595550537109375	0.595428466796875	1.70898437499997E-08	1.01757784420897E-08	34841076	5.30701145180501E-05
2	598	122.602839690458	0.585479736328125	0.585418701171875	2.71606445312503E-08	1.59003494815124E-08	21553934	5.30723445990589E-05
2	599	122.703547690203	0.575408935546875	0.57537841796875	3.60107421875006E-08	2.07198045387713E-08	15977966	5.30755241925362E-05
2	600	122.804255689949	0.565338134765625	0.56524658203125	4.425048828125E-08	2.50124365663851E-08	12773793	5.30795659869909E-05
2	601	122.904963689695	0.555267333984375	0.555145263671875	5.15747070312503E-08	2.86314527642162E-08	10763906	5.30843899468891E-05
2	602	123.005671689441	0.545196533203125	0.545166015625	5.79833984375E-08	3.16105754905038E-08	9402106	5.30899087607395E-05
2	603	123.106379689186	0.535125732421875	0.535125732421875	6.40869140625E-08	3.42945547515683E-08	8350000.5	5.30960533069447E-05
2	604	123.207087688932	0.525054931640625	0.524993896484375	6.98852539062503E-08	3.66893324610373E-08	7512227	5.31028017576318E-05
2	605	123.307795688678	0.514984130859375	0.5150146484375	7.476806640625E-08	3.85066485364405E-08	6888163	5.31100849912036E-05
2	606	123.408503688423	0.504913330078125	0.504852294921875	7.96508789062497E-08	4.0211926233269E-08	6338314.5	5.31178593519144E-05
2	607	123.509211688169	0.494842529296875	0.49481201171875	8.36181640625003E-08	4.13752694328196E-08	5917518.5	5.31260811840184E-05
2	608	123.609919687915	0.484771728515625	0.484710693359375	8.81958007812503E-08	4.27494448729249E-08	5495848	5.31347322976217E-05
2	609	123.710627687661	0.474700927734375	0.47467041015625	9.1552734375E-08	4.34573728114174E-08	5184666.5	5.31437835888937E-05
2	610	123.811335687406	0.464630126953125	0.464569091796875	9.39941406250006E-08	4.36667733083596E-08	4942532.5	5.31531259184703E-05
2	611	123.912043687152	0.454559326171875	0.45458984375	9.73510742187503E-08	4.42548078183336E-08	4669592.5	5.31627629243303E-05
2	612	124.012751686898	0.444488525390625	0.44451904296875	9.88769531250003E-08	4.39526885998021E-08	4495679	5.31726436747704E-05
2	613	124.113459686644	0.434417724609375	0.4344482421875	1.0101318359375E-07	4.38849987460799E-08	4300906.5	5.31827063241508E-05
2	614	124.214167686389	0.424346923828125	0.42431640625	1.02844238281249E-07	4.36384937074763E-08	4125816.25	5.31929727003444E-05
2	615	124.314875686135	0.414276123046875	0.414276123046875	1.04675292968751E-07	4.33644729014304E-08	3957726.25	5.32034209754784E-05
2	616	124.415583685881	0.404205322265625	0.404205322265625	1.0711669921875E-07	4.32971383190761E-08	3773504.25	5.32140875293408E-05
2	617	124.516291685627	0.394134521484375	0.3941650390625	1.08947753906249E-07	4.29433946180779E-08	3617927.25	5.3224965085974E-05
2	618	124.616999685372	0.384063720703125	0.384033203125	1.10778808593751E-07	4.25427408856649E-08	3466666.75	5.32360318175051E-05
2	619	124.717707685118	0.373992919921875	0.373931884765625	1.1260986328125E-07	4.21084180857179E-08	3320596.25	5.32472804479767E-05
2	620	124.818415684864	0.363922119140625	0.3638916015625	1.1474609375E-07	4.17551397902116E-08	3171276.5	5.32587255293038E-05
2	621	124.91912368461	0.353851318359375	0.35382080078125	1.15966796875E-07	4.1031462671981E-08	3051052.75	5.32703452336136E-05
2	622	125.019831684355	0.343780517578125	0.343780517578125	1.1749267578125E-07	4.03916935454163E-08	2925974	5.32820995431393E-05
2	623	125.120539684101	0.333709716796875	0.333709716796875	1.18103027343749E-07	3.94121251190427E-08	2825581.5	5.32939629920293E-05
2	624	125.221247683847	0.323638916015625	0.3236083984375	1.1871337890625E-07	3.84166440881017E-08	2725964.25	5.33058882865589E-05
2	625	125.321955683592	0.313568115234375	0.313629150390625	1.190185546875E-07	3.73276876075579E-08	2635128.25	5.33178572368342E-05
2	626	125.422663683338	0.303497314453125	0.303466796875	1.190185546875E-07	3.61181768937513E-08	2549743.75	5.33298443770036E-05
2	627	125.523371683084	0.293426513671875	0.293426513671875	1.1871337890625E-07	3.48336506306168E-08	2471722.5	5.33418169652577E-05
2	628	125.62407968283	0.283355712890625	0.283294677734375	1.1749267578125E-07	3.32850511597371E-08	2411168.75	5.33537095179781E-05
2	629	125.724787682575	0.273284912109375	0.2733154296875	1.1627197265625E-07	3.17789243808875E-08	2350656.25	5.33654820173979E-05
2	630	125.825495682321	0.263214111328125	0.263275146484375	1.13830566406251E-07	2.99687599181198E-08	2312868.75	5.33770689798985E-05
2	631	125.926203682067	0.253143310546875	0.2530517578125	1.1138916015625E-07	2.8187221445819E-08	2271781	5.33884085598402E-05
2	632	126.026911681813	0.243072509765625	0.24310302734375	1.07727050781251E-07	2.6188772039859E-08	2256657.25	5.33994425495621E-05
2	633	126.127619681558	0.233001708984375	0.23297119140625	1.0345458984375E-07	2.41019382229979E-08	2251917.5	5.34100763616152E-05
2	634	126.228327681304	0.222930908203125	0.22296142578125	9.94873046874997E-08	2.2181831482726E-08	2241104.25	5.34202954440843E-05
2	635	126.32903568105	0.212860107421875	0.212860107421875	9.36889648437495E-08	1.99426430924632E-08	2271987	5.34300197614357E-05
2	636	126.429743680796	0.202789306640625	0.2027587890625	8.75854492187494E-08	1.77587189398309E-08	2314982.5	5.34391474502627E-05
2	637	126.530451680541	0.192718505859375	0.192657470703125	7.84301757812495E-08	1.51101602341441E-08	2456420.25	5.34475075255614E-05
2	638	126.631159680287	0.182647705078125	0.182647705078125	6.7138671875E-08	1.22627241694317E-08	2720454.5	5.34548380528577E-05
2	639	126.731867680033	0.172576904296875	0.172576904296875	5.24902343749994E-08	9.05860186861673E-09	3287790.75	5.34608625457622E-05
2	640	126.832575679779	0.162506103515625	0.16253662109375	3.14331054687506E-08	5.10903053196898E-09	5170874	5.34650898771361E-05
2	641	126.933283679524	0.152435302734375	0.1524658203125	2.13623046874945E-09	3.25702104175818E-10	71371432	5.34667778993025E-05
2	642	127.03399167927	0.142364501953125	0.1424560546875	-3.93676757812503E-08	-5.60816326711233E-09	-3618604.75	5.34649043402169E-05
2	643	127.134699679016	0.132293701171875	0.132354736328125	-9.58251953125003E-08	-1.26829178270782E-08	-1381210.25	5.34580976818688E-05
2	644	127.235407678761	0.122222900390625	0.122283935546875	-1.739501953125E-07	-2.12713135994136E-08	-702982.5	5.34445134690031E-05
2	645	127.336115678507	0.112152099609375	0.112213134765625	-2.8076171875E-07	-3.15051522647991E-08	-399673.90625	5.34216160303913E-05
2	646	127.436823678253	0.102081298828125	0.10205078125	-4.21142578125E-07	-4.29779269950359E-08	-242318.84375	5.33862730662804E-05
2	647	127.537531677999	0.092010498046875	0.092010498046875	-6.024169921875E-07	-5.54286891940592E-08	-152735.5625	5.33347301825415E-05
2	648	127.638239677744	0.081939697265625	0.081939697265625	-8.24584960937499E-07	-6.75662406024458E-08	-99370.8359375	5.32628764631227E-05
2	649	127.73894767749	0.071868896484375	0.0718994140625	-1.08154296875E-06	-7.77623014869278E-08	-66478.5625	5.31668956682552E-05
2	650	127.839655677236	0.061798095703125	0.06182861328125	-1.35772705078125E-06	-8.3946375184496E-08	-45538.32421875	5.30440665897913E-05
2	651	127.940363676982	0.051727294921875	0.0517578125	-1.630859375E-06	-8.44097058916304E-08	-31736.529296875	5.2893581596436E-05
2	652	128.041071676727	0.041656494140625	0.041729736328125	-1.8743896484375E-06	-7.82177806968321E-08	-22263.107421875	5.27170777786523E-05
2	653	128.141779676473	0.031585693359375	0.0316314697265625	-2.0648193359375E-06	-6.53132659067523E-08	-15319.244140625	5.25187242601532E-05
2	654	128.242487676219	0.021514892578125	0.0216094970703125	-2.183837890625E-06	-4.71916337119183E-08	-9895.193359375	5.23047856404446E-05
2	655	128.343195675965	0.011444091796875	0.0115142822265625	-2.2332763671875E-06	-2.57145718052243E-08	-5155.7802734375	5.20823668921366E-05
2	656	128.44390367571	0.001373291015625	0.0014190673828125	-2.222900390625E-06	-3.15444537157816E-09	-638.385498046875	5.1857979997294E-05
2	657	128.544611675456	-0.008697509765625	-0.00861206054687499	-2.16949462890625E-06	1.8683818936438E-08	3969.6162109375	5.16368054377381E-05
2	658	128.645319675202	-0.018768310546875	-0.0186798095703125	-2.091064453125E-06	3.90606800237947E-08	8933.158203125	5.14222701895051E-05
2	659	128.746027674948	-0.028839111328125	-0.0287353515625	-2.0013427734375E-06	5.75092826693435E-08	14358.0361328125	5.12162005179562E-05
2	660	128.846735674693	-0.038909912109375	-0.0387664794921875	-1.91070556640625E-06	7.40713304026031E-08	20289.091796875	5.10192112415098E-05
2	661	128.947443674439	-0.048980712890625	-0.048797607421875	-1.8231201171875E-06	8.89639011347754E-08	26765.986328125	5.08312004967593E-05
2	662	129.048151674185	-0.059051513671875	-0.059051513671875	-1.74285888671875E-06	1.02918455979761E-07	33881.98046875	5.06516371387988E-05
2	663	129.14885967393	-0.069122314453125	-0.069061279296875	-1.669921875E-06	1.15326940886007E-07	41355.99609375	5.04797899338882E-05
2	664	129.249567673676	-0.079193115234375	-0.0791015625	-1.60430908203125E-06	1.26903358932395E-07	49305.6875	5.03149203723297E-05
2	665	129.350275673422	-0.089263916015625	-0.089141845703125	-1.54693603515625E-06	1.37896734031528E-07	57624.77734375	5.01562426507007E-05
2	666	129.450983673168	-0.099334716796875	-0.0992431640625	-1.4959716796875E-06	1.48464962990147E-07	66340.2734375	5.00030218972825E-05
2	667	129.551691672913	-0.109405517578125	-0.109344482421875	-1.4508056640625E-06	1.58637590175204E-07	75368.1171875	4.98546396556776E-05
2	668	129.652399672659	-0.119476318359375	-0.119384765625	-1.4111328125E-06	1.68467749972478E-07	84602.078125	4.97105284011923E-05
2	669	129.753107672405	-0.129547119140625	-0.12945556640625	-1.375732421875E-06	1.78096215108781E-07	94099.3828125	4.95701970066875E-05
2	670	129.853815672151	-0.139617919921875	-0.139495849609375	-1.3446044921875E-06	1.87566740805778E-07	103744.8984375	4.94332198286429E-05
2	671	129.954523671896	-0.149688720703125	-0.14959716796875	-1.31683349609375E-06	1.96994562884356E-07	113603.7109375	4.92992039653473E-05
2	672	130.055231671642	-0.159759521484375	-0.15960693359375	-1.2921142578125E-06	2.06230396315732E-07	123523.859375	4.91678329126444E-05
2	673	130.155939671388	-0.169830322265625	-0.169708251953125	-1.2713623046875E-06	2.15760678656807E-07	133485.359375	4.903875378659E-05
2	674	130.256647671134	-0.179901123046875	-0.179718017578125	-1.25213623046875E-06	2.25031428158218E-07	143529.140625	4.8911682824837E-05
2	675	130.357355670879	-0.189971923828125	-0.1898193359375	-1.2353515625E-06	2.34493612083497E-07	153656.125	4.87864308524877E-05
2	676	130.458063670625	-0.200042724609375	-0.199920654296875	-1.22161865234375E-06	2.44226782797341E-07	163652.265625	4.86627104692161E-05
2	677	130.558771670371	-0.189971923828125	-0.189788818359375	-1.07879638671875E-06	2.04743486165171E-07	175926.453125	4.85468772239983E-05
