Potential - Start -0.2 V, Upper Vertex 1.5 V, Lower Vertex -0.2 V, Stop -0.19 V; Scan - # end cross 5, Rate 0.1 Vps, Step 0.01 V 
Scan	Index	Time (s)	Potential applied (V)	WE(1).Potential (V)	WE(1).Current (A)	WE(1).Power (W)	WE(1).Resistance (Ω)	WE(1).Charge (C)
1	1	48.8132548767584	-0.189971923828125	-0.189788818359375	-2.423095703125E-07	4.59876474678822E-08	783249.375	0
1	2	48.9139628765041	-0.179901123046875	-0.17974853515625	-2.0416259765625E-07	3.66979264754264E-08	880418.5625	-2.24816592009347E-08
1	3	49.0146708762499	-0.169830322265625	-0.169647216796875	-1.74560546874999E-07	2.96137105948446E-08	971853.1875	-4.15518819352201E-08
1	4	49.1153788759956	-0.159759521484375	-0.15966796875	-1.48925781250001E-07	2.37786768053638E-08	1072131.125	-5.78407117757251E-08
1	5	49.2160868757413	-0.149688720703125	-0.149566650390625	-1.263427734375E-07	1.88966655656486E-08	1183816.5	-7.17015851137148E-08
1	6	49.3167948754871	-0.139617919921875	-0.1395263671875	-1.05895996093749E-07	1.47752832191372E-08	1317579.25	-8.33957400914187E-08
1	7	49.4175028752328	-0.129547119140625	-0.1295166015625	-8.697509765625E-08	1.12647180472436E-08	1489122.875	-9.31075661014802E-08
1	8	49.5182108749785	-0.119476318359375	-0.119354248046875	-6.92749023437495E-08	8.26825363731132E-09	1722907.5	-1.00975377392842E-07
1	9	49.6189188747243	-0.109405517578125	-0.1092529296875	-5.00488281250003E-08	5.46798073486343E-09	2182927	-1.06983804926131E-07
1	10	49.71962687447	-0.099334716796875	-0.09918212890625	-2.96020507812494E-08	2.93599433653924E-09	3350515.5	-1.10994548663257E-07
1	11	49.8203348742157	-0.089263916015625	-0.089202880859375	-3.66210937499945E-09	3.26670690498077E-10	24358334	-1.12669532370546E-07
1	12	49.9210428739615	-0.079193115234375	-0.0791015625	2.74658203125E-08	-2.17258921964003E-09	-2880000	-1.11470917829593E-07
1	13	50.0217508737072	-0.069122314453125	-0.0689697265625	6.7138671875E-08	-4.630535954675E-09	-1027272.75	-1.06707204849954E-07
1	14	50.122458873453	-0.059051513671875	-0.058990478515625	1.177978515625E-07	-6.9489511922427E-09	-500777.21875	-9.73949099147831E-08
1	15	50.2231668731987	-0.048980712890625	-0.0488525390625	1.84326171875E-07	-9.00480134902182E-09	-265033.125	-8.21817565110905E-08
1	16	50.3238748729444	-0.038909912109375	-0.0387664794921875	2.72521972656251E-07	-1.05647171011469E-08	-142250.859375	-5.91776263547672E-08
1	17	50.4245828726902	-0.028839111328125	-0.028729248046875	3.875732421875E-07	-1.11346878384211E-08	-74125.984375	-2.59391939039233E-08
1	18	50.5252908724359	-0.018768310546875	-0.01866455078125	5.3253173828125E-07	-9.93946525085221E-09	-35048.7109375	2.03917718266666E-08
1	19	50.6259988721816	-0.008697509765625	-0.0086212158203125	7.07092285156249E-07	-6.09599526413263E-09	-12192.490234375	8.2811794754889E-08
1	20	50.7267068719274	0.001373291015625	0.00145874023437501	9.05761718750001E-07	1.32127098151358E-09	1610.51220703125	1.64025450999361E-07
1	21	50.8274148716731	0.011444091796875	0.011529541015625	1.11358642578125E-06	1.28391404174977E-08	10353.5205078125	2.65707711832874E-07
1	22	50.9281228714189	0.021514892578125	0.0216522216796875	1.3116455078125E-06	2.84000396533202E-08	16507.677734375	3.8782783917668E-07
1	23	51.0288308711646	0.031585693359375	0.031695556640625	1.4801025390625E-06	4.69126710811452E-08	21414.43359375	5.2840351827399E-07
1	24	51.1295388709103	0.041656494140625	0.0417694091796875	1.60430908203125E-06	6.70110438250049E-08	26035.76171875	6.83715995819512E-07
1	25	51.2302468706561	0.051727294921875	0.051788330078125	1.676025390625E-06	8.67985576746833E-08	30899.490234375	8.48893932925421E-07
1	26	51.3309548704018	0.061798095703125	0.0618896484375	1.69952392578125E-06	1.05182934362347E-07	36415.875	1.01886632819514E-06
1	27	51.4316628701475	0.071868896484375	0.071868896484375	1.6851806640625E-06	1.21112080364583E-07	42647.58984375	1.18929972359183E-06
1	28	51.5323708698933	0.081939697265625	0.08197021484375	1.646728515625E-06	1.34982684585339E-07	49777.61328125	1.35707466597523E-06
1	29	51.633078869639	0.092010498046875	0.092041015625	1.59271240234375E-06	1.4659485714219E-07	57788.8515625	1.52019356391975E-06
1	30	51.7337868693847	0.102081298828125	0.1021728515625	1.5325927734375E-06	1.56589365474247E-07	66666.671875	1.67756513747008E-06
1	31	51.8344948691305	0.112152099609375	0.1121826171875	1.47216796875E-06	1.65151647024686E-07	76202.3203125	1.82886685706762E-06
1	32	51.9352028688762	0.122222900390625	0.12225341796875	1.41326904296875E-06	1.72776978502043E-07	86503.9921875	1.97416011360474E-06
1	33	52.035910868622	0.132293701171875	0.13238525390625	1.35986328125E-06	1.80025850227139E-07	97351.8828125	2.11379847314674E-06
1	34	52.1366188683677	0.142364501953125	0.142425537109375	1.31103515625E-06	1.86724889772449E-07	108635.9453125	2.24828886530304E-06
1	35	52.2373268681134	0.152435302734375	0.1524658203125	1.268310546875E-06	1.93373992374291E-07	120211.75	2.37816925618972E-06
1	36	52.3380348678592	0.162506103515625	0.16253662109375	1.2298583984375E-06	1.99897030483953E-07	132158.8125	2.50396192313929E-06
1	37	52.4387428676049	0.172576904296875	0.172607421875	1.1962890625E-06	2.06488380172232E-07	144285.71875	2.62612820733921E-06
1	38	52.5394508673506	0.182647705078125	0.182647705078125	1.165771484375E-06	2.12925471032577E-07	156675.40625	2.74506737696356E-06
1	39	52.6401588670964	0.192718505859375	0.192779541015625	1.138916015625E-06	2.19559694869531E-07	169265.8125	2.86111776404141E-06
1	40	52.7408668668421	0.202789306640625	0.20281982421875	1.11480712890625E-06	2.26104987177678E-07	181932.65625	2.97460155707086E-06
1	41	52.8415748665878	0.212860107421875	0.212860107421875	1.0931396484375E-06	2.32685820833467E-07	194723.625	3.08578069052601E-06
1	42	52.9422828663336	0.222930908203125	0.22296142578125	1.07421875E-06	2.39509347466083E-07	207556.8125	3.19491573463893E-06
1	43	53.0429908660793	0.233001708984375	0.233062744140625	1.05712890625E-06	2.46377368284811E-07	220467.671875	3.30223770106386E-06
1	44	53.1436988658251	0.243072509765625	0.243072509765625	1.04278564453125E-06	2.53472506983599E-07	233099.21875	3.40797669196036E-06
1	45	53.2444068655708	0.253143310546875	0.253143310546875	1.02996826171875E-06	2.60729564161011E-07	245777.796875	3.51234825757274E-06
1	46	53.3451148653165	0.263214111328125	0.26324462890625	1.01806640625E-06	2.68000519554334E-07	258573.140625	3.61547495231207E-06
1	47	53.4458228650623	0.273284912109375	0.273284912109375	1.0064697265625E-06	2.75052968845557E-07	271528.21875	3.71741839444439E-06
1	48	53.546530864808	0.283355712890625	0.2833251953125	9.9639892578125E-07	2.82304910115272E-07	284349.1875	3.81827067030827E-06
1	49	53.6472388645537	0.293426513671875	0.293426513671875	9.86328124999999E-07	2.89414828102963E-07	297493.8125	3.91810908695334E-06
1	50	53.7479468642995	0.303497314453125	0.303436279296875	9.783935546875E-07	2.96880102723662E-07	310137.21875	4.01704073738074E-06
1	51	53.8486548640452	0.313568115234375	0.3135986328125	9.716796875E-07	3.04717417520806E-07	322738.6875	4.115234787605E-06
1	52	53.949362863791	0.323638916015625	0.323638916015625	9.6466064453125E-07	3.12201734686823E-07	335495.09375	4.21273716710857E-06
1	53	54.0500708635367	0.333709716796875	0.333709716796875	9.59167480468751E-07	3.20083501037516E-07	347916.03125	4.30960972153116E-06
1	54	54.1507788632824	0.343780517578125	0.343780517578125	9.5367431640625E-07	3.27854650095105E-07	360480	4.40592884842772E-06
1	55	54.2514868630282	0.353851318359375	0.353851318359375	9.4879150390625E-07	3.35731101586134E-07	372949.53125	4.50172547061811E-06
1	56	54.3521948627739	0.363922119140625	0.363922119140625	9.43603515624999E-07	3.43398170343789E-07	385672.71875	4.59701504951227E-06
1	57	54.4529028625196	0.373992919921875	0.37396240234375	9.3963623046875E-07	3.51388621311344E-07	397986.375	4.69184396933997E-06
1	58	54.5536108622654	0.384063720703125	0.384002685546875	9.3658447265625E-07	3.59650954351309E-07	410003.25	4.78631909572869E-06
1	59	54.6543188620111	0.394134521484375	0.394195556640625	9.3505859375E-07	3.68595920008374E-07	421573.125	4.8805636652105E-06
1	60	54.7550268617568	0.404205322265625	0.404205322265625	9.3414306640625E-07	3.77585593014373E-07	432701.75	4.97468545290758E-06
1	61	54.8557348615026	0.414276123046875	0.414276123046875	9.33227539062501E-07	3.86613862701779E-07	443917.59375	5.06871538163978E-06
1	62	54.9564428612483	0.424346923828125	0.424346923828125	9.32922363281249E-07	3.95882722159513E-07	454857.71875	5.16268346473225E-06
1	63	55.0571508609941	0.434417724609375	0.434356689453125	9.32922363281249E-07	4.05221044275095E-07	465587.1875	5.2566360864148E-06
1	64	55.1578588607398	0.444488525390625	0.444488525390625	9.32922363281249E-07	4.14673252180364E-07	476447.53125	5.35058870809735E-06
1	65	55.2585668604855	0.454559326171875	0.454559326171875	9.33227539062501E-07	4.24207257765374E-07	487083.0625	5.44455679118983E-06
1	66	55.3592748602313	0.464630126953125	0.46466064453125	9.344482421875E-07	4.34201325560934E-07	497256.71875	5.5386017265846E-06
1	67	55.459982859977	0.474700927734375	0.47467041015625	9.368896484375E-07	4.44713805336505E-07	506644.9375	5.63283128940384E-06
1	68	55.5606908597227	0.484771728515625	0.484710693359375	9.3994140625E-07	4.55599661108863E-07	515681.8125	5.72733733861241E-06
1	69	55.6613988594685	0.494842529296875	0.49481201171875	9.43908691406251E-07	4.67057361674961E-07	524215.96875	5.82219672651263E-06
1	70	55.7621068592142	0.504913330078125	0.5048828125	9.4757080078125E-07	4.7841217565292E-07	532818.0625	5.91743992117699E-06
1	71	55.86281485896	0.514984130859375	0.514984130859375	9.5184326171875E-07	4.90184163481899E-07	541038.8125	6.01308329351014E-06
1	72	55.9635228587057	0.525054931640625	0.525054931640625	9.56115722656251E-07	5.02013278946833E-07	549154.125	6.10915640208987E-06
1	73	56.0642308584514	0.535125732421875	0.53515625	9.6099853515625E-07	5.1428435199341E-07	556875.25	6.20569107923075E-06
1	74	56.1649388581972	0.545196533203125	0.545135498046875	9.661865234375E-07	5.26702535807999E-07	564213.5625	6.30273234492051E-06
1	75	56.2656468579429	0.555267333984375	0.55523681640625	9.72900390625001E-07	5.40190114861616E-07	570702.6875	6.40037296761875E-06
1	76	56.3663548576886	0.565338134765625	0.5653076171875	9.7930908203125E-07	5.53610902898072E-07	577251.4375	6.49867479296518E-06
1	77	56.4670628574344	0.575408935546875	0.575408935546875	9.8724365234375E-07	5.68068799111643E-07	582843.875	6.59769830235746E-06
1	78	56.5677708571801	0.585479736328125	0.585418701171875	9.9517822265625E-07	5.82595930609386E-07	588255.125	6.6975212575926E-06
1	79	56.6684788569258	0.595550537109375	0.59552001953125	1.00433349609375E-06	5.98100712068117E-07	592950.4375	6.79820459481562E-06
1	80	56.7691868566716	0.605621337890625	0.6055908203125	1.01348876953125E-06	6.13759482348541E-07	597530.875	6.89981015966623E-06
1	81	56.8698948564173	0.615692138671875	0.615631103515625	1.02447509765625E-06	6.30698707482225E-07	600923.4375	7.00242981110932E-06
1	82	56.9706028561631	0.625762939453125	0.625732421875	1.0382080078125E-06	6.49640412575536E-07	602704.3125	7.10629410605179E-06
1	83	57.0713108559088	0.635833740234375	0.63580322265625	1.0546875E-06	6.70573683692055E-07	602835.6875	7.21167998563033E-06
1	84	57.1720188556545	0.645904541015625	0.645843505859375	1.07421875E-06	6.93777224114456E-07	601221.625	7.31887894289684E-06
1	85	57.2727268554003	0.655975341796875	0.65582275390625	1.09588623046875E-06	7.18707099167659E-07	598440.5625	7.42815200283076E-06
1	86	57.373434855146	0.666046142578125	0.666015625	1.119384765625E-06	7.45527700019011E-07	594983.6875	7.53970016376115E-06
1	87	57.4741428548917	0.676116943359375	0.6761474609375	1.14288330078125E-06	7.72757630329579E-07	591615.5	7.65361437515821E-06
1	88	57.5748508546375	0.686187744140625	0.68609619140625	1.1639404296875E-06	7.98575058524875E-07	589459.875	7.76977230998455E-06
1	89	57.6755588543832	0.696258544921875	0.696197509765625	1.1822509765625E-06	8.23080142708932E-07	588874.5625	7.88791203376604E-06
1	90	57.7762668541289	0.706329345703125	0.706207275390625	1.1981201171875E-06	8.46121167796809E-07	589429.4375	8.00777343101799E-06
1	91	57.8769748538747	0.716400146484375	0.71636962890625	1.2115478515625E-06	8.67916014613002E-07	591284.6875	8.12911002867622E-06
1	92	57.9776828536204	0.726470947265625	0.726348876953125	1.224365234375E-06	8.89316254415462E-07	593245.3125	8.25176812213613E-06
1	93	58.0783908533662	0.736541748046875	0.7364501953125	1.23870849609375E-06	9.12247116957587E-07	594530.6875	8.3757931861328E-06
1	94	58.1790988531119	0.746612548828125	0.74652099609375	1.25518798828125E-06	9.37024140057474E-07	594748.375	8.50137075758539E-06
1	95	58.2798068528576	0.756683349609375	0.7568359375	1.278076171875E-06	9.672939995653E-07	592168.125	8.62893102748785E-06
1	96	58.3805148526034	0.766754150390625	0.7666015625	1.30859375E-06	1.00316992757143E-06	585820.9375	8.75917976372875E-06
1	97	58.4812228523491	0.776824951171875	0.7769775390625	1.35162353515625E-06	1.05018114027189E-06	574847.625	8.89313287188997E-06
1	98	58.5819308520948	0.786895751953125	0.7867431640625	1.41021728515625E-06	1.10947871689859E-06	557887.9375	9.03220279724337E-06
1	99	58.6826388518406	0.796966552734375	0.79681396484375	1.488037109375E-06	1.18568880225212E-06	535479.875	9.17814122658456E-06
1	100	58.7833468515863	0.807037353515625	0.806884765625	1.58721923828125E-06	1.28070303162531E-06	508363.78125	9.33299270400312E-06
1	101	58.8840548513321	0.817108154296875	0.81756591796875	1.70684814453125E-06	1.3954609130451E-06	478991.59375	9.49886180023896E-06
1	102	58.9847628510778	0.827178955078125	0.82794189453125	1.84051513671875E-06	1.52383950080548E-06	449842.5	9.67748565017246E-06
1	103	59.0854708508235	0.837249755859375	0.83740234375	1.9781494140625E-06	1.65650692451891E-06	423326.125	9.86977102002129E-06
1	104	59.1861788505693	0.847320556640625	0.8477783203125	2.10693359375E-06	1.78621257873601E-06	402375.4375	1.00754714367213E-05
1	105	59.286886850315	0.857391357421875	0.85784912109375	2.215576171875E-06	1.90063008176367E-06	387190.09375	1.02931271612761E-05
1	106	59.3875948500607	0.867462158203125	0.86761474609375	2.29522705078125E-06	1.99137275558314E-06	378008.25	1.05202643680968E-05
1	107	59.4883028498065	0.877532958984375	0.877685546875	2.342529296875E-06	2.05600417757523E-06	374674.3125	1.07537935036817E-05
1	108	59.5890108495522	0.887603759765625	0.8880615234375	2.3614501953125E-06	2.09711311072169E-06	376066.15625	1.09906577563379E-05
1	109	59.6897188492979	0.897674560546875	0.8978271484375	2.3590087890625E-06	2.1179821487749E-06	380595.09375	1.12283514681621E-05
1	110	59.7904268490437	0.907745361328125	0.90789794921875	2.3443603515625E-06	2.12843997360324E-06	387268.9375	1.14651847979985E-05
1	111	59.8911348487894	0.917816162109375	0.91796875	2.32513427734375E-06	2.1344003471313E-06	394802.5	1.17003128252691E-05
1	112	59.9918428485352	0.927886962890625	0.92803955078125	2.30804443359375E-06	2.14195665648731E-06	402089.09375	1.19336118586943E-05
1	113	60.0925508482809	0.937957763671875	0.93780517578125	2.2979736328125E-06	2.15505156120344E-06	408100.9375	1.21655430120882E-05
1	114	60.1932588480266	0.948028564453125	0.94818115234375	2.301025390625E-06	2.18178865907248E-06	412069	1.23971212815377E-05
1	115	60.2939668477724	0.958099365234375	0.95794677734375	2.3199462890625E-06	2.22238486458082E-06	412917.6875	1.26298054965446E-05
1	116	60.3946748475181	0.968170166015625	0.968017578125	2.3583984375E-06	2.2829710815131E-06	410455.5	1.2865379176219E-05
1	117	60.4953828472638	0.978240966796875	0.977783203125	2.41607666015625E-06	2.36239907280833E-06	404698.78125	1.31057931866962E-05
1	118	60.5960908470096	0.988311767578125	0.98846435546875	2.490234375E-06	2.4615078473289E-06	396936.28125	1.33528455990017E-05
1	119	60.6967988467553	0.998382568359375	0.99853515625	2.57171630859375E-06	2.56794919550885E-06	388275.78125	1.36077351271524E-05
1	120	60.7975068465011	1.00845336914063	1.00860595703125	2.6531982421875E-06	2.67603149950446E-06	380147.25	1.38708301165025E-05
1	121	60.8982148462468	1.01852416992188	1.01837158203125	2.72247314453125E-06	2.77248909696937E-06	374061.21875	1.41415166581282E-05
1	122	60.9989228459925	1.02859497070313	1.0284423828125	2.77008056640625E-06	2.84886823465058E-06	371268.03125	1.44180885399692E-05
1	123	61.0996308457383	1.03866577148438	1.0382080078125	2.7935791015625E-06	2.9003163035668E-06	371640.8125	1.4698241102451E-05
1	124	61.200338845484	1.04873657226563	1.048583984375	2.7935791015625E-06	2.92930235445965E-06	375355.03125	1.49795769175398E-05
1	125	61.3010468452297	1.05880737304688	1.05865478515625	2.77618408203125E-06	2.93902030534809E-06	381334.53125	1.52600368892308E-05
1	126	61.4017548449755	1.06887817382813	1.06903076171875	2.745361328125E-06	2.93487573799212E-06	389395.28125	1.55380694195628E-05
1	127	61.5024628447212	1.07894897460938	1.07879638671875	2.70843505859375E-06	2.92184995487332E-06	398309.875	1.58126895257737E-05
1	128	61.6031708444669	1.08901977539063	1.0888671875	2.66754150390625E-06	2.90459820462274E-06	408191.3125	1.60833915288094E-05
1	129	61.7038788442127	1.09909057617188	1.0992431640625	2.626953125E-06	2.88766023004428E-06	418447.96875	1.63499898917507E-05
1	130	61.8045868439584	1.10916137695313	1.10931396484375	2.58819580078125E-06	2.87112152363989E-06	428605.125	1.66125937539618E-05
1	131	61.9052948437042	1.11923217773438	1.11907958984375	2.552490234375E-06	2.85643955066917E-06	438426.625	1.68714486790122E-05
1	132	62.0060028434499	1.12930297851563	1.129150390625	2.52105712890625E-06	2.84665247818339E-06	447887.6875	1.71269221027615E-05
1	133	62.1067108431956	1.13937377929688	1.1395263671875	2.493896484375E-06	2.84186057797342E-06	456926.125	1.73794451256981E-05
1	134	62.2074188429414	1.14944458007813	1.1492919921875	2.46978759765625E-06	2.83850681626063E-06	465340.4375	1.76293851836817E-05
1	135	62.3081268426871	1.15951538085938	1.15936279296875	2.44964599609375E-06	2.8400284008967E-06	473277.6875	1.78770987986354E-05
1	136	62.4088348424328	1.16958618164063	1.1700439453125	2.43072509765625E-06	2.8440551886888E-06	481355.9375	1.81228442670545E-05
1	137	62.5095428421786	1.17965698242188	1.1798095703125	2.41455078125E-06	2.84870998257247E-06	488624.90625	1.83668234967627E-05
1	138	62.6102508419243	1.18972778320313	1.18927001953125	2.401123046875E-06	2.8555837161548E-06	495297.40625	1.86093129741494E-05
1	139	62.71095884167	1.19979858398438	1.19964599609375	2.388916015625E-06	2.86585327557987E-06	502171.71875	1.88505091500701E-05
1	140	62.8116668414158	1.20986938476563	1.21002197265625	2.3797607421875E-06	2.87956277134072E-06	508463.71875	1.90906321222428E-05
1	141	62.9123748411615	1.21994018554688	1.21978759765625	2.37274169921875E-06	2.89424087895895E-06	514083.625	1.93299401871627E-05
1	142	63.0130828409073	1.23001098632813	1.23016357421875	2.36663818359375E-06	2.91135211227811E-06	519793.65625	1.95685861399397E-05
1	143	63.113790840653	1.24008178710938	1.23992919921875	2.362060546875E-06	2.92878780783212E-06	524935.4375	1.98066954908427E-05
1	144	63.2144988403987	1.25015258789063	1.2506103515625	2.35809326171875E-06	2.94905589726113E-06	530348.125	2.0044373741257E-05
1	145	63.3152068401445	1.26022338867188	1.259765625	2.354736328125E-06	2.96641587738122E-06	534992.1875	2.02816827368224E-05
1	146	63.4159148398902	1.27029418945313	1.2701416015625	2.35137939453125E-06	2.98658483188774E-06	540168.6875	2.05186552193481E-05
1	147	63.5166228396359	1.28036499023438	1.28082275390625	2.34893798828125E-06	3.00857300317148E-06	545277.4375	2.07553348445799E-05
1	148	63.6173308393817	1.29043579101563	1.29058837890625	2.3468017578125E-06	3.02875491797749E-06	549935	2.09917834581574E-05
1	149	63.7180388391274	1.30050659179688	1.30035400390625	2.34588623046875E-06	3.0504822916555E-06	554312.5	2.12280792766251E-05
1	150	63.8187468388732	1.31057739257813	1.3104248046875	2.3455810546875E-06	3.07370737573365E-06	558678.125	2.1464313249453E-05
1	151	63.9194548386189	1.32064819335938	1.32080078125	2.34527587890625E-06	3.09764209305285E-06	563175.0625	2.17005181184504E-05
1	152	64.0201628383646	1.33071899414063	1.33026123046875	2.344970703125E-06	3.11942358166561E-06	567282.6875	2.19366902456386E-05
1	153	64.1208708381104	1.34078979492188	1.3409423828125	2.34466552734375E-06	3.14406133838929E-06	571912	2.21728314500069E-05
1	154	64.2215788378561	1.35086059570313	1.3507080078125	2.34405517578125E-06	3.16613386530662E-06	576227.0625	2.24089271796402E-05
1	155	64.3222868376018	1.36093139648438	1.36077880859375	2.34375E-06	3.18932507070713E-06	580599	2.26449774345383E-05
1	156	64.4229948373476	1.37100219726563	1.37115478515625	2.34527587890625E-06	3.21573611472559E-06	584645.4375	2.28810895350762E-05
1	157	64.5237028370933	1.38107299804688	1.380615234375	2.34771728515625E-06	3.24129428008746E-06	588067.0625	2.3117399905459E-05
1	158	64.624410836839	1.39114379882813	1.39129638671875	2.35107421875E-06	3.27104112329835E-06	591770.5	2.33540031331358E-05
1	159	64.7251188365848	1.40121459960938	1.4013671875	2.354736328125E-06	3.29985027747171E-06	595127	2.3590959244757E-05
1	160	64.8258268363305	1.41128540039063	1.41143798828125	2.3590087890625E-06	3.32959439219849E-06	598318.25	2.38283155340469E-05
1	161	64.9265348360763	1.42135620117188	1.42120361328125	2.3638916015625E-06	3.35957111019525E-06	601213.5625	2.40661320276558E-05
1	162	65.027242835822	1.43142700195313	1.4312744140625	2.3675537109375E-06	3.38861900672782E-06	604537.25	2.43043796217535E-05
1	163	65.1279508355677	1.44149780273438	1.44134521484375	2.371826171875E-06	3.41862028108153E-06	607694.25	2.45430255745305E-05
1	164	65.2286588353135	1.45156860351563	1.451416015625	2.3773193359375E-06	3.45047942573729E-06	610526.3125	2.47821644734358E-05
1	165	65.3293668350592	1.46163940429688	1.4617919921875	2.384033203125E-06	3.48496064361825E-06	613159.25	2.50219181907596E-05
1	166	65.4300748348049	1.47171020507813	1.470947265625	2.39227294921875E-06	3.51890707861457E-06	614874.375	2.5262423150707E-05
1	167	65.5307828345507	1.48178100585938	1.48162841796875	2.40203857421875E-06	3.55892848347139E-06	616821.25	2.55038357863668E-05
1	168	65.6314908342964	1.49185180664063	1.4910888671875	2.41302490234375E-06	3.5980342545372E-06	617933.5	2.57462943409337E-05
1	169	65.7321988340422	1.50192260742188	1.50177001953125	2.42584228515625E-06	3.64305719813274E-06	619071.5625	2.5989949790528E-05
1	170	65.8329068337879	1.49185180664063	1.49200439453125	2.28179931640625E-06	3.40445444635407E-06	653871.9375	2.62269986706087E-05
1	171	65.9336148335336	1.48178100585938	1.48162841796875	2.177734375E-06	3.226593207728E-06	680353.125	2.64515547314659E-05
1	172	66.0343228332794	1.47171020507813	1.4715576171875	2.09564208984375E-06	3.08385801872646E-06	702198.9375	2.66667357209371E-05
1	173	66.1350308330251	1.46163940429688	1.4617919921875	2.02728271484375E-06	2.96346547656867E-06	721059.8125	2.6874342438532E-05
1	174	66.2357388327708	1.45156860351563	1.4508056640625	1.968994140625E-06	2.85662781607243E-06	736825.75	2.70755699602887E-05
1	175	66.3364468325166	1.44149780273438	1.44134521484375	1.9171142578125E-06	2.7632231649477E-06	751830.6875	2.7271251383354E-05
1	176	66.4371548322623	1.43142700195313	1.431884765625	1.87103271484375E-06	2.67910309048602E-06	765291.1875	2.74619997071568E-05
1	177	66.537862832008	1.42135620117188	1.4208984375	1.82861328125E-06	2.59827356785536E-06	777036.0625	2.76482915069209E-05
1	178	66.6385708317538	1.41128540039063	1.4111328125	1.78985595703125E-06	2.52572431236331E-06	788405.8125	2.78304960374953E-05
1	179	66.7392788314995	1.40121459960938	1.40106201171875	1.7535400390625E-06	2.45681826527289E-06	798990.625	2.80089207080891E-05
1	180	66.8399868312453	1.39114379882813	1.3909912109375	1.71905517578125E-06	2.391190491835E-06	809160.3125	2.81837783404626E-05
1	181	66.940694830991	1.38107299804688	1.38092041015625	1.68792724609375E-06	2.33089326684421E-06	818116.0625	2.83553345070686E-05
1	182	67.0414028307367	1.37100219726563	1.370849609375	1.65863037109375E-06	2.27373288907984E-06	826494.9375	2.85238475044025E-05
1	183	67.1421108304825	1.36093139648438	1.36077880859375	1.632080078125E-06	2.2208998871065E-06	833769.625	2.86895465251291E-05
1	184	67.2428188302282	1.35086059570313	1.3507080078125	1.607666015625E-06	2.17148726733285E-06	840167.125	2.88526807707967E-05
1	185	67.3435268299739	1.34078979492188	1.34063720703125	1.5838623046875E-06	2.12338477467711E-06	846435.4375	2.90133884846E-05
1	186	67.4442348297197	1.33071899414063	1.33056640625	1.56219482421875E-06	2.07860398404591E-06	851728.875	2.91718042717548E-05
1	187	67.5449428294654	1.32064819335938	1.3201904296875	1.53961181640625E-06	2.03258059627842E-06	857482.6875	2.93279917968903E-05
1	188	67.6456508292111	1.31057739257813	1.31072998046875	1.519775390625E-06	1.99201508621627E-06	862449.875	2.94820456474554E-05
1	189	67.7463588289569	1.30050659179688	1.30035400390625	1.50115966796875E-06	1.95203892872087E-06	866233	2.96341604553163E-05
1	190	67.8470668287026	1.29043579101563	1.2896728515625	1.4837646484375E-06	1.91357094081468E-06	869189.625	2.97844635497313E-05
1	191	67.9477748284484	1.28036499023438	1.28021240234375	1.46728515625E-06	1.878436592051E-06	872504.1875	2.99330604320858E-05
1	192	68.0484828281941	1.27029418945313	1.26983642578125	1.45233154296875E-06	1.84422344773338E-06	874343.375	3.00800747936592E-05
1	193	68.1491908279398	1.26022338867188	1.259765625	1.4385986328125E-06	1.8122970004697E-06	875689.4375	3.02256448776461E-05
1	194	68.2498988276856	1.25015258789063	1.24969482421875	1.424560546875E-06	1.78026596131531E-06	877249.375	3.03698161587818E-05
1	195	68.3506068274313	1.24008178710938	1.23992919921875	1.41021728515625E-06	1.74856950252433E-06	879246.9375	3.05125595332356E-05
1	196	68.451314827177	1.23001098632813	1.23016357421875	1.396484375E-06	1.71790418335149E-06	880900.375	3.06538895529229E-05
1	197	68.5520228269228	1.21994018554688	1.21978759765625	1.38214111328125E-06	1.68591850524535E-06	882534.8125	3.07938025798649E-05
1	198	68.6527308266685	1.20986938476563	1.209716796875	1.3690185546875E-06	1.65612470937049E-06	883638	3.09323331748601E-05
1	199	68.7534388264143	1.19979858398438	1.199951171875	1.35650634765625E-06	1.62774142609123E-06	884589.4375	3.10695759253576E-05
1	200	68.85414682616	1.18972778320313	1.18988037109375	1.343994140625E-06	1.59919216002891E-06	885331.5625	3.12055562972091E-05
1	201	68.9548548259057	1.17965698242188	1.17950439453125	1.33087158203125E-06	1.56976886955817E-06	886264.625	3.13402488245629E-05
1	202	69.0555628256515	1.16958618164063	1.16943359375	1.317138671875E-06	1.54030612975475E-06	887859.125	3.14735843858216E-05
1	203	69.1562708253972	1.15951538085938	1.1590576171875	1.302490234375E-06	1.50966116052587E-06	889878.1875	3.16054938593879E-05
1	204	69.2569788251429	1.14944458007813	1.14959716796875	1.2872314453125E-06	1.47979756093264E-06	893077.3125	3.17358972097281E-05
1	205	69.3576868248887	1.13937377929688	1.13922119140625	1.27044677734375E-06	1.44731984619284E-06	896709.125	3.1864685297478E-05
1	206	69.4583948246344	1.12930297851563	1.12884521484375	1.2530517578125E-06	1.41450152568723E-06	900876.75	3.19917526212521E-05
1	207	69.5591028243801	1.11923217773438	1.11907958984375	1.2347412109375E-06	1.38177358621761E-06	906327.3125	3.21170227834955E-05
1	208	69.6598108241259	1.10916137695313	1.10931396484375	1.21429443359375E-06	1.34703384446766E-06	913546.125	3.22403429890983E-05
1	209	69.7605188238716	1.09909057617188	1.0992431640625	1.19049072265625E-06	1.30863872982445E-06	923353	3.23614331136923E-05
1	210	69.8612268236174	1.08901977539063	1.08917236328125	1.16119384765625E-06	1.26474026274082E-06	937976.375	3.24798493238632E-05
1	211	69.9619348233631	1.07894897460938	1.0791015625	1.124267578125E-06	1.21319885693083E-06	959826.3125	3.25949331454467E-05
1	212	70.0626428231088	1.06887817382813	1.06903076171875	1.07757568359375E-06	1.15196155547892E-06	992070.25	3.27058041875716E-05
1	213	70.1633508228546	1.05880737304688	1.05865478515625	1.01776123046875E-06	1.07745779587276E-06	1040179.9375	3.28113128489349E-05
1	214	70.2640588226003	1.04873657226563	1.0491943359375	9.43603515624999E-07	9.90023409030982E-07	1111901.75	3.29100766975898E-05
1	215	70.364766822346	1.03866577148438	1.038818359375	8.5418701171875E-07	8.87345095179626E-07	1216148.75	3.30006005242467E-05
1	216	70.4654748220918	1.02859497070313	1.02874755859375	7.4981689453125E-07	7.71372299368522E-07	1371998.375	3.30813709297217E-05
1	217	70.5661828218375	1.01852416992188	1.0186767578125	6.35681152343751E-07	6.47553633825737E-07	1602496.375	3.31511364493053E-05
1	218	70.6668908215833	1.00845336914063	1.00860595703125	5.1910400390625E-07	5.2357137292347E-07	1942974.75	3.32092822645791E-05
1	219	70.767598821329	0.998382568359375	0.99853515625	4.107666015625E-07	4.10164886943676E-07	2430906.5	3.32561066898052E-05
1	220	70.8683068210747	0.988311767578125	0.9881591796875	3.19824218750001E-07	3.16037215952747E-07	3089694.75	3.32928939315025E-05
1	221	70.9690148208205	0.978240966796875	0.97869873046875	2.54211425781251E-07	2.48796396817852E-07	3849940.25	3.33217976731248E-05
1	222	71.0697228205662	0.968170166015625	0.96771240234375	2.13623046875E-07	2.06725658813411E-07	4530000	3.33453572238795E-05
1	223	71.1704308203119	0.958099365234375	0.9576416015625	1.97448730468749E-07	1.89085113788678E-07	4850077.5	3.33660536853131E-05
1	224	71.2711388200577	0.948028564453125	0.94818115234375	1.983642578125E-07	1.88085238050917E-07	4780000	3.33859861711971E-05
1	225	71.3718468198034	0.937957763671875	0.9381103515625	2.06604003906249E-07	1.9381735683055E-07	4540620.5	3.34063770424109E-05
1	226	71.4725548195491	0.927886962890625	0.927734375	2.13012695312501E-07	1.97619186792508E-07	4355301	3.34275064233225E-05
1	227	71.5732628192949	0.917816162109375	0.91766357421875	2.09960937500001E-07	1.92673496712814E-07	4370639.5	3.3448806789238E-05
1	228	71.6739708190406	0.907745361328125	0.90789794921875	1.9256591796875E-07	1.74830191213005E-07	4714739	3.34690739691723E-05
1	229	71.7746788187864	0.897674560546875	0.8978271484375	1.5594482421875E-07	1.40011493954262E-07	5757339	3.34866235789377E-05
1	230	71.8753868185321	0.887603759765625	0.887451171875	9.765625E-08	8.66651532760443E-08	9087500	3.34993928845506E-05
1	231	71.9760948182778	0.877532958984375	0.87799072265625	1.52587890625E-08	1.33970745608281E-08	57540004	3.35050790454261E-05
1	232	72.0768028180236	0.867462158203125	0.86761474609375	-8.97216796875003E-08	-7.78438504767109E-08	-9670068	3.3501328289276E-05
1	233	72.1775108177693	0.857391357421875	0.85723876953125	-2.1392822265625E-07	-1.83387555807712E-07	-4007132.75	3.34860378643498E-05
1	234	72.278218817515	0.847320556640625	0.84686279296875	-3.4515380859375E-07	-2.92297926307583E-07	-2453581	3.34578871843405E-05
1	235	72.3789268172608	0.837249755859375	0.83740234375	-4.730224609375E-07	-3.96110124256666E-07	-1770322.625	3.34166870743502E-05
1	236	72.4796348170065	0.827178955078125	0.82672119140625	-5.816650390625E-07	-4.80874803088227E-07	-1421301.25	3.33635798597243E-05
1	237	72.5803428167522	0.817108154296875	0.8172607421875	-6.62841796874999E-07	-5.41714541668625E-07	-1232965	3.33009156747721E-05
1	238	72.681050816498	0.807037353515625	0.80718994140625	-7.098388671875E-07	-5.72974784063263E-07	-1137145.375	3.32317940774374E-05
1	239	72.7817588162437	0.796966552734375	0.797119140625	-7.244873046875E-07	-5.77502703436039E-07	-1100252.75	3.3159572922159E-05
1	240	72.8824668159895	0.786895751953125	0.7867431640625	-7.1380615234375E-07	-5.61582055524923E-07	-1102180.5	3.30871480400674E-05
1	241	72.9831748157352	0.776824951171875	0.77667236328125	-6.84814453125E-07	-5.3187642379271E-07	-1134135.5	3.30167204083409E-05
1	242	73.0838828154809	0.766754150390625	0.76690673828125	-6.4605712890625E-07	-4.95465542371676E-07	-1187057.125	3.29497052007355E-05
1	243	73.1845908152267	0.756683349609375	0.75653076171875	-6.0394287109375E-07	-4.56901346979066E-07	-1252652.875	3.2886764529394E-05
1	244	73.2852988149724	0.746612548828125	0.7464599609375	-5.62744140625E-07	-4.2006593048427E-07	-1326464.25	3.28280148096383E-05
1	245	73.3860068147181	0.736541748046875	0.736419677734375	-5.25512695312499E-07	-3.86997896839603E-07	-1401335.625	3.27732195728458E-05
1	246	73.4867148144639	0.726470947265625	0.726348876953125	-4.92248535156251E-07	-3.57544166718071E-07	-1475573.375	3.27219713653903E-05
1	247	73.5874228142096	0.716400146484375	0.716339111328125	-4.656982421875E-07	-3.33597853341416E-07	-1538204.5	3.26737354043871E-05
1	248	73.6881308139554	0.706329345703125	0.706329345703125	-4.4403076171875E-07	-3.13631943527071E-07	-1590721.75	3.26279259752482E-05
1	249	73.7888388137011	0.696258544921875	0.6961669921875	-4.27856445312499E-07	-2.97859514830634E-07	-1627104.125	3.25840228470042E-05
1	250	73.8895468134468	0.686187744140625	0.6861572265625	-4.1656494140625E-07	-2.85829059976095E-07	-1647179.5	3.25415021507069E-05
1	251	73.9902548131926	0.676116943359375	0.67608642578125	-4.08325195312501E-07	-2.76063104820423E-07	-1655754.875	3.24999673466664E-05
1	252	74.0909628129383	0.666046142578125	0.665985107421875	-4.00695800781251E-07	-2.66857426822753E-07	-1662071.625	3.24592292599846E-05
1	253	74.191670812684	0.655975341796875	0.6558837890625	-3.9398193359375E-07	-2.5840637363217E-07	-1664756	3.24192114931066E-05
1	254	74.2923788124298	0.645904541015625	0.6458740234375	-3.8482666015625E-07	-2.48549525849739E-07	-1678350.625	3.23799977195449E-05
1	255	74.3930868121755	0.635833740234375	0.63580322265625	-3.73229980468751E-07	-2.37300810113084E-07	-1703516	3.23418244079221E-05
1	256	74.4937948119212	0.625762939453125	0.62567138671875	-3.5888671875E-07	-2.24545146920718E-07	-1743367.375	3.23049607686698E-05
1	257	74.594502811667	0.615692138671875	0.61566162109375	-3.43017578125E-07	-2.11182751286287E-07	-1794839.875	3.22696178045589E-05
1	258	74.6952108114127	0.605621337890625	0.605560302734375	-3.2623291015625E-07	-1.9755370317398E-07	-1856220.75	3.22359192068689E-05
1	259	74.7959188111585	0.595550537109375	0.595550537109375	-3.08837890624999E-07	-1.8392856304672E-07	-1928359.75	3.22039377351757E-05
1	260	74.8966268109042	0.585479736328125	0.58544921875	-2.9266357421875E-07	-1.71339664234438E-07	-2000417.125	3.21736515616067E-05
1	261	74.9973348106499	0.575408935546875	0.57537841796875	-2.77099609375001E-07	-1.59437135494045E-07	-2076431.625	3.2144962460734E-05
1	262	75.0980428103957	0.565338134765625	0.56536865234375	-2.6275634765625E-07	-1.48554207157758E-07	-2151684	3.21177758451086E-05
1	263	75.1987508101414	0.555267333984375	0.55523681640625	-2.4871826171875E-07	-1.38097533408654E-07	-2232392.5	3.20920225931332E-05
1	264	75.2994588098871	0.545196533203125	0.545135498046875	-2.3468017578125E-07	-1.27932494820016E-07	-2322887	3.20676808769349E-05
1	265	75.4001668096329	0.535125732421875	0.53509521484375	-2.22167968750001E-07	-1.1888101880686E-07	-2408516.5	3.20446779369377E-05
1	266	75.5008748093786	0.525054931640625	0.52508544921875	-2.09960937500001E-07	-1.1024742718746E-07	-2500872.25	3.20229191856924E-05
1	267	75.6015828091244	0.514984130859375	0.51495361328125	-1.9989013671875E-07	-1.02934151868794E-07	-2576183.25	3.20022809319198E-05
1	268	75.7022908088701	0.504913330078125	0.504852294921875	-1.9256591796875E-07	-9.72173381796892E-08	-2621711.75	3.19825194310397E-05
1	269	75.8029988086158	0.494842529296875	0.49481201171875	-1.86767578124999E-07	-9.2414843777533E-08	-2649346.5	3.19634164043237E-05
1	270	75.9037068083616	0.484771728515625	0.4847412109375	-1.812744140625E-07	-8.7871178777732E-08	-2674074	3.19448845402803E-05
1	271	76.0044148081073	0.474700927734375	0.47467041015625	-1.77001953125E-07	-8.40175857774739E-08	-2681724.25	3.1926843803376E-05
1	272	76.105122807853	0.464630126953125	0.464630126953125	-1.727294921875E-07	-8.02553259404704E-08	-2689929.5	3.19092359859496E-05
1	273	76.2058308075988	0.454559326171875	0.45458984375	-1.678466796875E-07	-7.63013972004956E-08	-2708363.75	3.1892086553853E-05
1	274	76.3065388073445	0.444488525390625	0.44451904296875	-1.617431640625E-07	-7.18979151770327E-08	-2748302	3.18754900945351E-05
1	275	76.4072468070902	0.434417724609375	0.434417724609375	-1.56555175781251E-07	-6.80103440231505E-08	-2774853.75	3.1859461159911E-05
1	276	76.507954806836	0.424346923828125	0.424346923828125	-1.51672363281249E-07	-6.43616928641677E-08	-2797787	3.184394154232E-05
1	277	76.6086628065817	0.414276123046875	0.414337158203125	-1.46484375E-07	-6.06939138947382E-08	-2828541.75	3.18289276037831E-05
1	278	76.7093708063275	0.404205322265625	0.404205322265625	-1.42822265625001E-07	-5.7729518943006E-08	-2830128.25	3.18143611366395E-05
1	279	76.8100788060732	0.394134521484375	0.39410400390625	-1.385498046875E-07	-5.46030349823923E-08	-2844493.25	3.18001912091859E-05
1	280	76.9107868058189	0.384063720703125	0.384063720703125	-1.3427734375E-07	-5.15710567583483E-08	-2860227.25	3.17864542012103E-05
1	281	77.0114948055647	0.373992919921875	0.3740234375	-1.2939453125E-07	-4.83965827413613E-08	-2890566.25	3.17731755785644E-05
1	282	77.1122028053104	0.363922119140625	0.363983154296875	-1.24206542968749E-07	-4.52090880287415E-08	-2930467	3.17604062729515E-05
1	283	77.2129108050561	0.353851318359375	0.353759765625	-1.1932373046875E-07	-4.22119335041771E-08	-2964706	3.17481426463928E-05
1	284	77.3136188048019	0.343780517578125	0.343780517578125	-1.141357421875E-07	-3.92376442448494E-08	-3012032.25	3.17363883368671E-05
1	285	77.4143268045476	0.333709716796875	0.333770751953125	-1.0955810546875E-07	-3.65672896407432E-08	-3046518.25	3.17251251544803E-05
1	286	77.5150348042934	0.323638916015625	0.3236083984375	-1.06201171875001E-07	-3.43675914393771E-08	-3047126.5	3.17142585117836E-05
1	287	77.6157428040391	0.313568115234375	0.313568115234375	-1.03149414062501E-07	-3.2344367184578E-08	-3039941	3.17037192871794E-05
1	288	77.7164508037848	0.303497314453125	0.303436279296875	-1.00097656250001E-07	-3.03732576867333E-08	-3031402.5	3.16934856527951E-05
1	289	77.8171588035306	0.293426513671875	0.293426513671875	-9.73510742187503E-08	-2.85653847242884E-08	-3014106.75	3.16835430567153E-05
1	290	77.9178668032763	0.283355712890625	0.283447265625	-9.52148437499995E-08	-2.69883866366172E-08	-2976923	3.16738442052156E-05
1	291	78.018574803022	0.273284912109375	0.273284912109375	-9.1552734375E-08	-2.5019980753882E-08	-2985000	3.16644400299992E-05
1	292	78.1192828027678	0.263214111328125	0.263214111328125	-8.81958007812503E-08	-2.32143779754779E-08	-2984429.25	3.16553887387272E-05
1	293	78.2199908025135	0.253143310546875	0.253173828125	-8.66699218750003E-08	-2.19425562164588E-08	-2921126.75	3.1646584830014E-05
1	294	78.3206988022592	0.243072509765625	0.2430419921875	-8.544921875E-08	-2.07677484098667E-08	-2844285.75	3.16379191644955E-05
1	295	78.421406802005	0.233001708984375	0.2330322265625	-8.48388671875006E-08	-1.97701908177805E-08	-2746762.5	3.16293444484472E-05
1	296	78.5221148017507	0.222930908203125	0.222991943359375	-8.544921875E-08	-1.90544859890451E-08	-2609643	3.16207697323989E-05
1	297	78.6228228014965	0.212860107421875	0.212860107421875	-8.63647460937506E-08	-1.83836093015088E-08	-2464664.5	3.16121186187956E-05
1	298	78.7235308012422	0.202789306640625	0.20281982421875	-8.66699218750003E-08	-1.75783778644245E-08	-2340140.75	3.16034056595527E-05
1	299	78.8242388009879	0.192718505859375	0.19268798828125	-8.85009765625E-08	-1.70530753962339E-08	-2177241.5	3.15945835609455E-05
1	300	78.9249468007337	0.182647705078125	0.18267822265625	-9.03320312499997E-08	-1.65016942332841E-08	-2022297.375	3.15855795633979E-05
1	301	79.0256548004794	0.172576904296875	0.172576904296875	-9.49096679687497E-08	-1.63792162055643E-08	-1818328	3.15762517857365E-05
1	302	79.1263628002251	0.162506103515625	0.162567138671875	-1.007080078125E-07	-1.63718123502576E-08	-1614242.375	3.15664001391269E-05
1	303	79.2270707999709	0.152435302734375	0.152496337890625	-1.0955810546875E-07	-1.67072098378185E-08	-1391922	3.15558136207983E-05
1	304	79.3277787997166	0.142364501953125	0.142425537109375	-1.2054443359375E-07	-1.7168604315998E-08	-1181519	3.15442266582977E-05
1	305	79.4284867994623	0.132293701171875	0.132354736328125	-1.3580322265625E-07	-1.79741999062344E-08	-974606.75	3.15313191094901E-05
1	306	79.5291947992081	0.122222900390625	0.12225341796875	-1.556396484375E-07	-1.90274782596589E-08	-785490.25	3.15166435029823E-05
1	307	79.6299027989538	0.112152099609375	0.1121826171875	-1.82189941406249E-07	-2.0438543302248E-08	-615745.4375	3.14996323140804E-05
1	308	79.7306107986996	0.102081298828125	0.102081298828125	-2.18811035156249E-07	-2.23365130835873E-08	-466527.21875	3.1479441531701E-05
1	309	79.8313187984453	0.092010498046875	0.092132568359375	-2.6824951171875E-07	-2.47145148790651E-08	-343458.5	3.14549142785836E-05
1	310	79.932026798191	0.081939697265625	0.082000732421875	-3.375244140625E-07	-2.76772471607956E-08	-242947.578125	3.14244098262861E-05
1	311	80.0327347979368	0.071868896484375	0.0718994140625	-4.3060302734375E-07	-3.09601055903386E-08	-166973.78125	3.13857344735879E-05
1	312	80.1334427976825	0.061798095703125	0.06182861328125	-5.511474609375E-07	-3.40766810325022E-08	-112181.625	3.13362979795784E-05
1	313	80.2341507974282	0.051727294921875	0.05181884765625	-7.04040527343749E-07	-3.64825680776448E-08	-73602.078125	3.12730953737628E-05
1	314	80.334858797174	0.041656494140625	0.041766357421875	-8.8653564453125E-07	-3.70273625094342E-08	-47111.875	3.11930016323458E-05
1	315	80.4355667969197	0.031585693359375	0.0316558837890625	-1.0906982421875E-06	-3.45270194657132E-08	-29023.505859375	3.10934410663322E-05
1	316	80.5362747966655	0.021514892578125	0.02161865234375	-1.30096435546875E-06	-2.81250951417178E-08	-16617.40625	3.09730094159022E-05
1	317	80.6369827964112	0.011444091796875	0.0115386962890625	-1.49932861328125E-06	-1.73002980830006E-08	-7695.90869140625	3.08320049953181E-05
1	318	80.7376907961569	0.001373291015625	0.0014190673828125	-1.6650390625E-06	-2.36280262022603E-09	-852.272766113281	3.06726651615463E-05
1	319	80.8383987959027	-0.008697509765625	-0.0086029052734375	-1.78314208984375E-06	1.53402019975601E-08	4824.57666015625	3.04990371660097E-05
1	320	80.9391067956484	-0.018768310546875	-0.01866455078125	-1.84844970703125E-06	3.45004806945326E-08	10097.408203125	3.03161723422818E-05
1	321	81.0398147953941	-0.028839111328125	-0.028680419921875	-1.86614990234375E-06	5.35219619735017E-08	15368.765625	3.01291256619152E-05
1	322	81.1405227951399	-0.038909912109375	-0.0388092041015625	-1.846923828125E-06	7.16776398235197E-08	21012.888671875	2.99421590170823E-05
1	323	81.2412307948856	-0.048980712890625	-0.048797607421875	-1.8035888671875E-06	8.80108217415909E-08	27055.837890625	2.9758341042907E-05
1	324	81.3419387946313	-0.059051513671875	-0.058990478515625	-1.74774169921875E-06	1.03100113335586E-07	33752.40234375	2.95795161946444E-05
1	325	81.4426467943771	-0.069122314453125	-0.06903076171875	-1.6876220703125E-06	1.16497830049411E-07	40904.16015625	2.94065321213566E-05
1	326	81.5433547941228	-0.079193115234375	-0.079132080078125	-1.62994384765625E-06	1.28980843783211E-07	48548.96484375	2.92394797725137E-05
1	327	81.6440627938686	-0.089263916015625	-0.0892333984375	-1.5771484375E-06	1.40734314868496E-07	56578.94921875	2.90779898932669E-05
1	328	81.7447707936143	-0.099334716796875	-0.099273681640625	-1.53167724609375E-06	1.5205523595796E-07	64813.7109375	2.89214476651978E-05
1	329	81.84547879336	-0.109405517578125	-0.109344482421875	-1.492919921875E-06	1.63242546591391E-07	73242.03125	2.87691473204177E-05
1	330	81.9461867931058	-0.119476318359375	-0.119354248046875	-1.4605712890625E-06	1.74325393231811E-07	81717.5078125	2.86204267467838E-05
1	331	82.0468947928515	-0.129547119140625	-0.12945556640625	-1.4337158203125E-06	1.85602488045333E-07	90293.75	2.84746893157717E-05
1	332	82.1476027925972	-0.139617919921875	-0.13946533203125	-1.41204833984375E-06	1.96931779328224E-07	98768.1015625	2.83313929685391E-05
1	333	82.248310792343	-0.149688720703125	-0.149566650390625	-1.39495849609375E-06	2.08639264087651E-07	107219.4296875	2.81900483969366E-05
1	334	82.3490187920887	-0.159759521484375	-0.159637451171875	-1.383056640625E-06	2.20787640614617E-07	115423.65625	2.80501644738251E-05
1	335	82.4497267918345	-0.169830322265625	-0.169647216796875	-1.37420654296875E-06	2.33130307947249E-07	123451.0390625	2.79113246506313E-05
1	336	82.5504347915802	-0.179901123046875	-0.179718017578125	-1.370849609375E-06	2.46366369083262E-07	131099.734375	2.77731014648452E-05
1	337	82.6511427913259	-0.189971923828125	-0.189788818359375	-1.370849609375E-06	2.60171901800277E-07	138446.140625	2.76350456260843E-05
1	338	82.7518507910717	-0.200042724609375	-0.19989013671875	-1.37420654296875E-06	2.74690307833225E-07	145458.59375	2.74968206213089E-05
1	339	82.8525587908174	-0.189971923828125	-0.18988037109375	-1.1956787109375E-06	2.27035911848361E-07	158805.515625	2.73674177151406E-05
2	340	82.9532667905631	-0.179901123046875	-0.179718017578125	-1.07086181640625E-06	1.92453157410455E-07	167825.59375	2.72532870440045E-05
2	341	83.0539747903089	-0.169830322265625	-0.169708251953125	-9.7015380859375E-07	1.64643097377848E-07	174929.21875	2.71505141427042E-05
2	342	83.1546827900546	-0.159759521484375	-0.15960693359375	-8.8531494140625E-07	1.41302407996591E-07	180282.65625	2.70570835709805E-05
2	343	83.2553907898003	-0.149688720703125	-0.149658203125	-8.1146240234375E-07	1.21441999567651E-07	184430.25	2.69716438197065E-05
2	344	83.3560987895461	-0.139617919921875	-0.139495849609375	-7.45849609375E-07	1.04042925386238E-07	187029.46875	2.68932271865197E-05
2	345	83.4568067892918	-0.129547119140625	-0.129486083984375	-6.8695068359375E-07	8.89505500367704E-08	188494	2.68210806098068E-05
2	346	83.5575147890376	-0.119476318359375	-0.119384765625	-6.32629394531251E-07	7.5526308762619E-08	188712.015625	2.67546347458847E-05
2	347	83.6582227887833	-0.109405517578125	-0.109283447265625	-5.80444335937499E-07	6.34329566651104E-08	188275.515625	2.66935512627242E-05
2	348	83.758930788529	-0.099334716796875	-0.0992431640625	-5.28869628906251E-07	5.24866976547855E-08	187651.46875	2.66376919171307E-05
2	349	83.8596387882748	-0.089263916015625	-0.089202880859375	-4.7637939453125E-07	4.24944133214922E-08	187251.765625	2.65870748989983E-05
2	350	83.9603467880205	-0.079193115234375	-0.0791015625	-4.20227050781249E-07	3.32406173697564E-08	188235.296875	2.65419257630128E-05
2	351	84.0610547877662	-0.069122314453125	-0.06903076171875	-3.57666015624999E-07	2.46899567457604E-08	193003.421875	2.65027574641863E-05
2	352	84.161762787512	-0.059051513671875	-0.0589599609375	-2.850341796875E-07	1.68056022431529E-08	206852.265625	2.64703940047184E-05
2	353	84.2624707872577	-0.048980712890625	-0.04884033203125	-1.97448730468749E-07	9.64346114074033E-09	247357.046875	2.64460995822446E-05
2	354	84.3631787870034	-0.038909912109375	-0.038787841796875	-8.85009765625E-08	3.43276185255093E-09	438275.875	2.64317004621262E-05
2	355	84.4638867867492	-0.028839111328125	-0.0287078857421875	4.730224609375E-08	-1.35794742117668E-09	-606903.25	2.64296249952167E-05
2	356	84.5645947864949	-0.018768310546875	-0.018670654296875	2.1240234375E-07	-3.96569044269768E-09	-87902.296875	2.64427035290282E-05
2	357	84.6653027862407	-0.008697509765625	-0.00859680175781249	4.06494140624999E-07	-3.4945497606742E-09	-21148.650390625	2.64738664554898E-05
2	358	84.7660107859864	0.001373291015625	0.00146484375	6.21948242187501E-07	9.11057007613181E-10	2355.25024414063	2.65256530838087E-05
2	359	84.8667187857321	0.011444091796875	0.0115447998046875	8.453369140625E-07	9.75924496771086E-09	13657.0390625	2.65995367954019E-05
2	360	84.9674267854779	0.021514892578125	0.0216156005859375	1.0552978515625E-06	2.28108962829765E-08	20482.9375	2.66952411038801E-05
2	361	85.0681347852236	0.031585693359375	0.0316619873046875	1.23260498046875E-06	3.90267231864527E-08	25687.05078125	2.68104467977537E-05
2	362	85.1688427849693	0.041656494140625	0.0417510986328125	1.3629150390625E-06	5.69031968211675E-08	30633.677734375	2.69411411863985E-05
2	363	85.2695507847151	0.051727294921875	0.051788330078125	1.44073486328125E-06	7.46132542417399E-08	35945.7734375	2.70823165919865E-05
2	364	85.3702587844608	0.061798095703125	0.061798095703125	1.4691162109375E-06	9.07885819856347E-08	42064.80859375	2.72288380074315E-05
2	365	85.4709667842066	0.071868896484375	0.0718994140625	1.4599609375E-06	1.0497033287038E-07	49247.4921875	2.73763289442286E-05
2	366	85.5716747839523	0.081939697265625	0.08203125	1.42608642578125E-06	1.1698365653956E-07	57521.93359375	2.75216534646461E-05
2	367	85.672382783698	0.092010498046875	0.09210205078125	1.37786865234375E-06	1.26904524222482E-07	66843.8515625	2.76628434221493E-05
2	368	85.7730907834438	0.102081298828125	0.10211181640625	1.3238525390625E-06	1.35180982852035E-07	77132.3203125	2.77988856396405E-05
2	369	85.8737987831895	0.112152099609375	0.112274169921875	1.26922607421875E-06	1.42501292543784E-07	88458.765625	2.79294581559952E-05
2	370	85.9745067829352	0.122222900390625	0.1221923828125	1.21734619140625E-06	1.48750430639666E-07	100376.0390625	2.80546664725989E-05
2	371	86.075214782681	0.132293701171875	0.132415771484375	1.1688232421875E-06	1.54770631866086E-07	113289.8203125	2.81748198176501E-05
2	372	86.1759227824267	0.142364501953125	0.142364501953125	1.1260986328125E-06	1.60316460551257E-07	126422.765625	2.8290378395468E-05
2	373	86.2766307821724	0.152435302734375	0.1524658203125	1.08856201171875E-06	1.65968486953716E-07	140061.6875	2.84018951788312E-05
2	374	86.3773387819182	0.162506103515625	0.16259765625	1.0552978515625E-06	1.71588951047852E-07	154077.5	2.85098485619528E-05
2	375	86.4780467816639	0.172576904296875	0.172515869140625	1.02630615234375E-06	1.77054090499951E-07	168093.96875	2.86146641883533E-05
2	376	86.5787547814097	0.182647705078125	0.182647705078125	9.99755859375E-07	1.82603102416579E-07	182692.3125	2.871668584703E-05
2	377	86.6794627811554	0.192718505859375	0.192718505859375	9.7564697265625E-07	1.880252114006E-07	197528.953125	2.88161554635735E-05
2	378	86.7801707809011	0.202789306640625	0.20281982421875	9.54589843750001E-07	1.93609736243161E-07	212468.03125	2.89133495243732E-05
2	379	86.8808787806469	0.212860107421875	0.212860107421875	9.34753417968751E-07	1.98971719100882E-07	227717.921875	2.90084863081574E-05
2	380	86.9815867803926	0.222930908203125	0.222991943359375	9.17663574218749E-07	2.04631575684289E-07	242999.671875	2.91017622657819E-05
2	381	87.0822947801383	0.233001708984375	0.2330322265625	9.02709960937501E-07	2.10360511232466E-07	258147.40625	2.91934247798054E-05
2	382	87.1830027798841	0.243072509765625	0.243011474609375	8.89892578125E-07	2.16254093743373E-07	273079.5625	2.92836903099669E-05
2	383	87.2837107796298	0.253143310546875	0.253173828125	8.7921142578125E-07	2.22593328658149E-07	287955.5625	2.93727716780268E-05
2	384	87.3844187793756	0.263214111328125	0.263214111328125	8.69140625000001E-07	2.28770062449257E-07	302844.125	2.9460808946169E-05
2	385	87.4851267791213	0.273284912109375	0.27325439453125	8.59375E-07	2.34827979284091E-07	317968.78125	2.95478457701392E-05
2	386	87.585834778867	0.283355712890625	0.283416748046875	8.50830078125001E-07	2.41139503032173E-07	333106.15625	2.96339621854713E-05
2	387	87.6865427786128	0.293426513671875	0.29339599609375	8.43200683593751E-07	2.47391710672673E-07	347955.125	2.97192618745612E-05
2	388	87.7872507783585	0.303497314453125	0.303466796875	8.3740234375E-07	2.54123790455196E-07	362390.6875	2.98038885375718E-05
2	389	87.8879587781042	0.313568115234375	0.31353759765625	8.32214355468749E-07	2.60930477224974E-07	376751.03125	2.98879604088143E-05
2	390	87.98866677785	0.323638916015625	0.323638916015625	8.28857421875E-07	2.68250516910484E-07	390463.90625	2.99716011795681E-05
2	391	88.0893747775957	0.333709716796875	0.333740234375	8.258056640625E-07	2.75604577382182E-07	404138.9375	3.00549199891975E-05
2	392	88.1900827773414	0.343780517578125	0.34381103515625	8.2366943359375E-07	2.83186636806931E-07	417413.84375	3.01379786833422E-05
2	393	88.2907907770872	0.353851318359375	0.35382080078125	8.21838378906251E-07	2.90783503942293E-07	430523.59375	3.02208354696631E-05
2	394	88.3914987768329	0.363922119140625	0.36395263671875	8.2000732421875E-07	2.98443808333104E-07	443840.71875	3.03035085380543E-05
2	395	88.4922067765787	0.373992919921875	0.373992919921875	8.19091796875E-07	3.06334527522267E-07	456594.65625	3.03860451822402E-05
2	396	88.5929147763244	0.384063720703125	0.384063720703125	8.1787109375E-07	3.14114600996618E-07	469589.5625	3.04684726870619E-05
2	397	88.6936227760701	0.394134521484375	0.394134521484375	8.1817626953125E-07	3.22471521485568E-07	481723.25	3.05508547171485E-05
2	398	88.7943307758159	0.404205322265625	0.404266357421875	8.18786621093751E-07	3.31007868226152E-07	493738.375	3.06332804029807E-05
2	399	88.8950387755616	0.414276123046875	0.414337158203125	8.1939697265625E-07	3.3950661304516E-07	505661.09375	3.07157715724315E-05
2	400	88.9957467753073	0.424346923828125	0.42437744140625	8.20312500000001E-07	3.48122114246507E-07	517336.3125	3.07983355014585E-05
2	401	89.0964547750531	0.434417724609375	0.434417724609375	8.209228515625E-07	3.56623417019364E-07	529182.1875	3.08809794660192E-05
2	402	89.1971627747988	0.444488525390625	0.44451904296875	8.209228515625E-07	3.64915820227907E-07	541487	3.09636525344104E-05
2	403	89.2978707745445	0.454559326171875	0.454498291015625	8.209228515625E-07	3.73108008488998E-07	553643.125	3.10463256028015E-05
2	404	89.3985787742903	0.464630126953125	0.464599609375	8.21533203124999E-07	3.81684003514238E-07	565527.5	3.11290314130019E-05
2	405	89.499286774036	0.474700927734375	0.474700927734375	8.221435546875E-07	3.90272305139661E-07	577394.25	3.12117954308633E-05
2	406	89.5999947737818	0.484771728515625	0.484771728515625	8.2366943359375E-07	3.99291650410305E-07	588551.3125	3.12946685880888E-05
2	407	89.7007027735275	0.494842529296875	0.494873046875	8.258056640625E-07	4.08668967111225E-07	599260.875	3.13777272822335E-05
2	408	89.8014107732732	0.504913330078125	0.50494384765625	8.2855224609375E-07	4.18372337662731E-07	609429.125	3.14610297209583E-05
2	409	89.902118773019	0.514984130859375	0.5150146484375	8.31298828125E-07	4.28131045282498E-07	619530.125	3.15446122840513E-05
2	410	90.0028267727647	0.525054931640625	0.525054931640625	8.349609375E-07	4.38400348912182E-07	628837.75	3.16285149892792E-05
2	411	90.1035347725104	0.535125732421875	0.535064697265625	8.380126953125E-07	4.48391006102611E-07	638492.375	3.17127560265362E-05
2	412	90.2042427722562	0.545196533203125	0.54522705078125	8.4228515625E-07	4.59236645156125E-07	647318.875	3.17973644996528E-05
2	413	90.3049507720019	0.555267333984375	0.5552978515625	8.4808349609375E-07	4.70938914531871E-07	654767.9375	3.18824822898023E-05
2	414	90.4056587717477	0.565338134765625	0.565338134765625	8.53881835937501E-07	4.82731934425829E-07	662080.0625	3.19681821565609E-05
2	415	90.5063667714934	0.575408935546875	0.575408935546875	8.6181640625E-07	4.95896870233992E-07	667670	3.20545732392929E-05
2	416	90.6070747712391	0.585479736328125	0.58544921875	8.70361328124999E-07	5.09552364746924E-07	672650.8125	3.21417974191718E-05
2	417	90.7077827709849	0.595550537109375	0.595550537109375	8.8043212890625E-07	5.24341771779291E-07	676429.875	3.2229956559604E-05
2	418	90.8084907707306	0.605621337890625	0.605560302734375	8.92028808593751E-07	5.40177211405535E-07	678857.375	3.23192070936784E-05
2	419	90.9091987704763	0.615692138671875	0.615570068359375	9.0545654296875E-07	5.57371947706997E-07	679844.9375	3.240971636842E-05
2	420	91.0099067702221	0.625762939453125	0.625701904296875	9.2132568359375E-07	5.76475201796711E-07	679132.1875	3.25017026625574E-05
2	421	91.1106147699678	0.635833740234375	0.6357421875	9.39331054687501E-07	5.97172345351282E-07	676803.125	3.25953951687552E-05
2	422	91.2113227697135	0.645904541015625	0.645782470703125	9.6099853515625E-07	6.20595983491512E-07	671991.125	3.26910812873393E-05
2	423	91.3120307694593	0.655975341796875	0.655914306640625	9.8602294921875E-07	6.46746514121332E-07	665212.0625	3.27891248161905E-05
2	424	91.412738769205	0.666046142578125	0.666015625	1.01348876953125E-06	6.74999341754301E-07	657151.5	3.28898058796767E-05
2	425	91.5134467689508	0.676116943359375	0.676025390625	1.0406494140625E-06	7.03505406818294E-07	649618.75	3.29932408931199E-05
2	426	91.6141547686965	0.686187744140625	0.68609619140625	1.06597900390625E-06	7.31364082184882E-07	643630.125	3.30993170791771E-05
2	427	91.7148627684422	0.696258544921875	0.696258544921875	1.0882568359375E-06	7.57708107812505E-07	639792.5	3.32077906932682E-05
2	428	91.815570768188	0.706329345703125	0.706298828125	1.10748291015625E-06	7.82213817274169E-07	637751.5	3.33183561451733E-05
2	429	91.9162787679337	0.716400146484375	0.71630859375	1.1248779296875E-06	8.05759725608368E-07	636787.8125	3.34307660523336E-05
2	430	92.0169867676794	0.726470947265625	0.72637939453125	1.1419677734375E-06	8.29501857424475E-07	636076.9375	3.35449112753849E-05
2	431	92.1176947674252	0.736541748046875	0.736480712890625	1.1602783203125E-06	8.54522625104437E-07	634744.875	3.36608354700729E-05
2	432	92.2184027671709	0.746612548828125	0.74652099609375	1.18194580078125E-06	8.82347364949965E-07	631603.4375	3.37787787429988E-05
2	433	92.3191107669167	0.756683349609375	0.75653076171875	1.20849609375E-06	9.14264489892957E-07	626010.125	3.38991449098103E-05
2	434	92.4198187666624	0.766754150390625	0.7666015625	1.2432861328125E-06	9.53105029566359E-07	616593.0625	3.40226033586077E-05
2	435	92.5205267664081	0.776824951171875	0.77667236328125	1.287841796875E-06	1.00023112281633E-06	603080.5625	3.41500563081354E-05
2	436	92.6212347661539	0.786895751953125	0.787353515625	1.34490966796875E-06	1.05891933799285E-06	585432.3125	3.42826242558658E-05
2	437	92.7219427658996	0.796966552734375	0.7977294921875	1.4190673828125E-06	1.13203179807897E-06	562150.5625	3.44218024110887E-05
2	438	92.8226507656453	0.807037353515625	0.80718994140625	1.512451171875E-06	1.22083531550743E-06	533696.5625	3.45694170391653E-05
2	439	92.9233587653911	0.817108154296875	0.81756591796875	1.62261962890625E-06	1.32659852170036E-06	503855.5625	3.47272798535414E-05
2	440	93.0240667651368	0.827178955078125	0.82733154296875	1.7474365234375E-06	1.44570935844968E-06	473454.4375	3.48969733749982E-05
2	441	93.1247747648825	0.837249755859375	0.83770751953125	1.875E-06	1.57070155637484E-06	446777.34375	3.5079377994407E-05
2	442	93.2254827646283	0.847320556640625	0.84747314453125	1.9952392578125E-06	1.69091163115809E-06	424747.625	3.52742608811241E-05
2	443	93.326190764374	0.857391357421875	0.8575439453125	2.09564208984375E-06	1.7971051420318E-06	409203.46875	3.5480254155118E-05
2	444	93.4268987641198	0.867462158203125	0.86822509765625	2.1685791015625E-06	1.88281489954534E-06	400365.875	3.56949749402702E-05
2	445	93.5276067638655	0.877532958984375	0.877685546875	2.2113037109375E-06	1.94082917914784E-06	396908.65625	3.59155201294925E-05
2	446	93.6283147636112	0.887603759765625	0.88775634765625	2.22930908203125E-06	1.97908320842544E-06	398220.40625	3.61391212209128E-05
2	447	93.729022763357	0.897674560546875	0.8978271484375	2.22808837890625E-06	2.00043814402306E-06	402958.5	3.63635699613951E-05
2	448	93.8297307631027	0.907745361328125	0.90789794921875	2.2174072265625E-06	2.01317948267388E-06	409441.25	3.65874184353743E-05
2	449	93.9304387628484	0.917816162109375	0.91796875	2.2027587890625E-06	2.02206365429447E-06	416735.96875	3.68099899787921E-05
2	450	94.0311467625942	0.927886962890625	0.92803955078125	2.19207763671875E-06	2.03433455681079E-06	423360.71875	3.70312882296275E-05
2	451	94.1318547623399	0.937957763671875	0.93841552734375	2.18994140625E-06	2.0550749013637E-06	428511.71875	3.72519389202353E-05
2	452	94.2325627620856	0.948028564453125	0.9478759765625	2.19970703125E-06	2.08504957299738E-06	430910.09375	3.74729752365965E-05
2	453	94.3332707618314	0.958099365234375	0.958251953125	2.225341796875E-06	2.13243788493855E-06	430608.90625	3.76957941625733E-05
2	454	94.4339787615771	0.968170166015625	0.96832275390625	2.269287109375E-06	2.19740218199149E-06	426707.90625	3.79221164621413E-05
2	455	94.5346867613229	0.978240966796875	0.97808837890625	2.33154296875E-06	2.28045496442064E-06	419502.625	3.81537865905557E-05
2	456	94.6353947610686	0.988311767578125	0.98846435546875	2.4066162109375E-06	2.37885433307383E-06	410727.875	3.83923725166824E-05
2	457	94.7361027608143	0.998382568359375	0.99853515625	2.489013671875E-06	2.48536775870889E-06	401177.03125	3.86388892366085E-05
2	458	94.8368107605601	1.00845336914063	1.00860595703125	2.56805419921875E-06	2.59015473602631E-06	392751.03125	3.88935332011897E-05
2	459	94.9375187603058	1.01852416992188	1.01806640625	2.633056640625E-06	2.68062626673782E-06	386648.15625	3.91554276575334E-05
2	460	95.0382267600515	1.02859497070313	1.0284423828125	2.6751708984375E-06	2.75125921689323E-06	384439.875	3.94227172364481E-05
2	461	95.1389347597973	1.03866577148438	1.0382080078125	2.69287109375E-06	2.79576033790363E-06	385539.4375	3.96930226997938E-05
2	462	95.239642759543	1.04873657226563	1.04827880859375	2.68798828125E-06	2.81776101473952E-06	389986.40625	3.99639684474096E-05
2	463	95.3403507592888	1.05880737304688	1.05865478515625	2.6666259765625E-06	2.82303631138348E-06	397001.59375	4.02335936087184E-05
2	464	95.4410587590345	1.06887817382813	1.0693359375	2.63336181640625E-06	2.81594816442521E-06	406072.5625	4.05004720960278E-05
2	465	95.5417667587802	1.07894897460938	1.07879638671875	2.59552001953125E-06	2.80003746411239E-06	415637.875	4.07637671742123E-05
2	466	95.642474758526	1.08901977539063	1.08856201171875	2.5555419921875E-06	2.78186575997097E-06	425961.34375	4.10231405112427E-05
2	467	95.7431827582717	1.09909057617188	1.09893798828125	2.51678466796875E-06	2.76579021374346E-06	436643.625	4.1278555727331E-05
2	468	95.8438907580174	1.10916137695313	1.10931396484375	2.47894287109375E-06	2.74992589766043E-06	447494.78125	4.15301074099261E-05
2	469	95.9445987577632	1.11923217773438	1.1187744140625	2.44415283203125E-06	2.73445562015695E-06	457735.03125	4.1778006561799E-05
2	470	96.0453067575089	1.12930297851563	1.129150390625	2.412109375E-06	2.72363422482158E-06	468117.40625	4.20225405832753E-05
2	471	96.1460147572546	1.13937377929688	1.13922119140625	2.3834228515625E-06	2.71524572781345E-06	477976.96875	4.2264011426596E-05
2	472	96.2467227570004	1.14944458007813	1.1492919921875	2.357177734375E-06	2.70908549282467E-06	487571.21875	4.25027210440021E-05
2	473	96.3474307567461	1.15951538085938	1.15966796875	2.33489990234375E-06	2.70770851784619E-06	496667.125	4.27389859396499E-05
2	474	96.4481387564919	1.16958618164063	1.16973876953125	2.31536865234375E-06	2.70837654170464E-06	505206.28125	4.29731444455683E-05
2	475	96.5488467562376	1.17965698242188	1.1798095703125	2.29766845703125E-06	2.71081103164761E-06	513481.25	4.32054293924011E-05
2	476	96.6495547559833	1.18972778320313	1.1895751953125	2.28118896484375E-06	2.71364569925936E-06	521471.59375	4.34359935752582E-05
2	477	96.7502627557291	1.19979858398438	1.199951171875	2.26531982421875E-06	2.71827320830198E-06	529704.9375	4.36649279436097E-05
2	478	96.8509707554748	1.20986938476563	1.209716796875	2.25189208984375E-06	2.72415172730689E-06	537200.1875	4.38923889305443E-05
2	479	96.9516787552205	1.21994018554688	1.219482421875	2.2393798828125E-06	2.73088448921044E-06	544562.5625	4.41185438830871E-05
2	480	97.0523867549663	1.23001098632813	1.23016357421875	2.2283935546875E-06	2.74128842647769E-06	552040.5625	4.43435128545389E-05
2	481	97.153094754712	1.24008178710938	1.2408447265625	2.21893310546875E-06	2.75335150945466E-06	559207.8125	4.45674522779882E-05
2	482	97.2538027544578	1.25015258789063	1.25	2.21160888671875E-06	2.76451123681909E-06	565199.375	4.47905476903543E-05
2	483	97.3545107542035	1.26022338867188	1.259765625	2.20489501953125E-06	2.77765093414928E-06	571349.5	4.50129373348318E-05
2	484	97.4552187539492	1.27029418945313	1.27044677734375	2.19970703125E-06	2.79461073660059E-06	577552.6875	4.52347267128062E-05
2	485	97.555926753695	1.28036499023438	1.280517578125	2.19482421875E-06	2.81051097772433E-06	583426	4.54560104117263E-05
2	486	97.6566347534407	1.29043579101563	1.290283203125	2.1905517578125E-06	2.82643190985254E-06	589022.0625	4.5676832087338E-05
2	487	97.7573427531864	1.30050659179688	1.3006591796875	2.18841552734375E-06	2.84638258563064E-06	594338.3125	4.58973299828358E-05
2	488	97.8580507529322	1.31057739257813	1.31072998046875	2.186279296875E-06	2.86562180917826E-06	599525.4375	4.6117613237584E-05
2	489	97.9587587526779	1.32064819335938	1.32049560546875	2.186279296875E-06	2.88697219730238E-06	603992.1875	4.6337787352968E-05
2	490	98.0594667524236	1.33071899414063	1.33087158203125	2.1875E-06	2.91128162643872E-06	608398.4375	4.65580269519705E-05
2	491	98.1601747521694	1.34078979492188	1.34033203125	2.18994140625E-06	2.93524863081984E-06	612040.125	4.67784484499134E-05
2	492	98.2608827519151	1.35086059570313	1.35040283203125	2.193603515625E-06	2.96224834528402E-06	615609.375	4.69991755380761E-05
2	493	98.3615907516609	1.36093139648438	1.361083984375	2.19757080078125E-06	2.99107819046185E-06	619358.4375	4.72202882519923E-05
2	494	98.4622987514066	1.37100219726563	1.370849609375	2.2015380859375E-06	3.01797763313516E-06	622678.125	4.74418011435773E-05
2	495	98.5630067511523	1.38107299804688	1.38092041015625	2.20611572265625E-06	3.04647005577863E-06	625951.0625	4.76637433166616E-05
2	496	98.6637147508981	1.39114379882813	1.39068603515625	2.2113037109375E-06	3.07522896036971E-06	628898.75	4.78861802548636E-05
2	497	98.7644227506438	1.40121459960938	1.40045166015625	2.2174072265625E-06	3.10537166114955E-06	631571.6875	4.81091847177595E-05
2	498	98.8651307503895	1.41128540039063	1.41082763671875	2.22381591796875E-06	3.13742111757165E-06	634417.4375	4.83328149130102E-05
2	499	98.9658387501353	1.42135620117188	1.4215087890625	2.2314453125E-06	3.17201897814812E-06	637035	4.85571581521071E-05
2	500	99.066546749881	1.43142700195313	1.43157958984375	2.2381591796875E-06	3.20410299536888E-06	639623.6875	4.87822180730291E-05
2	501	99.1672547496267	1.44149780273438	1.4422607421875	2.2454833984375E-06	3.23857238981873E-06	642294.125	4.90079873998184E-05
2	502	99.2679627493725	1.45156860351563	1.4508056640625	2.252197265625E-06	3.26750046042434E-06	644173.4375	4.92344661324751E-05
2	503	99.3686707491182	1.46163940429688	1.4617919921875	2.2589111328125E-06	3.30205807586026E-06	647122.4375	4.94616178912111E-05
2	504	99.469378748864	1.47171020507813	1.4715576171875	2.266845703125E-06	3.3357941902068E-06	649165.3125	4.96895081596449E-05
2	505	99.5700867486097	1.48178100585938	1.48193359375	2.27630615234375E-06	3.37333449351718E-06	651025.625	4.99182715429924E-05
2	506	99.6707947483554	1.49185180664063	1.49139404296875	2.28851318359375E-06	3.41307486451115E-06	651686.9375	5.01481299579609E-05
2	507	99.7715027481012	1.50192260742188	1.50177001953125	2.3028564453125E-06	3.45836042470182E-06	652133.625	5.03793235111516E-05
2	508	99.8722107478469	1.49185180664063	1.49139404296875	2.17498779296875E-06	3.24376378557645E-06	685702.3125	5.06048017996363E-05
2	509	99.9729187475926	1.48178100585938	1.48193359375	2.0843505859375E-06	3.08886910715955E-06	710980.9375	5.08192752022296E-05
2	510	100.073626747338	1.47171020507813	1.47186279296875	2.010498046875E-06	2.95917720904981E-06	732088.625	5.1025468565058E-05
2	511	100.174334747084	1.46163940429688	1.461181640625	1.9488525390625E-06	2.84762745650369E-06	749765.125	5.12248370796442E-05
2	512	100.27504274683	1.45156860351563	1.451416015625	1.89605712890625E-06	2.75196748589224E-06	765491.75	5.14184430358E-05
2	513	100.375750746576	1.44149780273438	1.4410400390625	1.84906005859375E-06	2.66456959252537E-06	779336.5625	5.16070249432232E-05
2	514	100.476458746321	1.43142700195313	1.43096923828125	1.80877685546875E-06	2.5883039143082E-06	791125.375	5.17912121722475E-05
2	515	100.577166746067	1.42135620117188	1.42181396484375	1.7730712890625E-06	2.52097743214108E-06	801893.3125	5.19715722475667E-05
2	516	100.677874745813	1.41128540039063	1.41143798828125	1.74072265625E-06	2.45692194766889E-06	810834.5	5.21485053468496E-05
2	517	100.778582745559	1.40121459960938	1.4013671875	1.7108154296875E-06	2.39748055719247E-06	819122.375	5.23223025084008E-05
2	518	100.879290745304	1.39114379882813	1.3909912109375	1.68304443359375E-06	2.34109984376119E-06	826473.25	5.24932002008427E-05
2	519	100.97999874505	1.38107299804688	1.3812255859375	1.65679931640625E-06	2.28841372518218E-06	833671	5.26613730471581E-05
2	520	101.080706744796	1.37100219726563	1.370849609375	1.6326904296875E-06	2.23817301048257E-06	839626.1875	5.28270138602238E-05
2	521	101.181414744541	1.36093139648438	1.36077880859375	1.60980224609375E-06	2.19058483708068E-06	845308.0625	5.29902863490861E-05
2	522	101.282122744287	1.35086059570313	1.35101318359375	1.58782958984375E-06	2.14517854146834E-06	850855.3125	5.31512996531092E-05
2	523	101.382830744033	1.34078979492188	1.3409423828125	1.56707763671875E-06	2.10136067835265E-06	855696.25	5.33101592736784E-05
2	524	101.483538743779	1.33071899414063	1.33087158203125	1.54754638671875E-06	2.05958554033714E-06	859988.1875	5.34669925400522E-05
2	525	101.584246743524	1.32064819335938	1.32049560546875	1.52984619140625E-06	2.0201550796628E-06	863155.8125	5.36219522473402E-05
2	526	101.68495474327	1.31057739257813	1.31103515625	1.51123046875E-06	1.98127622752509E-06	867528.3125	5.37750820512883E-05
2	527	101.785662743016	1.30050659179688	1.30035400390625	1.49261474609375E-06	1.94092763194931E-06	871192	5.39263382961508E-05
2	528	101.886370742762	1.29043579101563	1.290283203125	1.474609375E-06	1.90266371191683E-06	875000	5.4075750085758E-05
2	529	101.987078742507	1.28036499023438	1.280517578125	1.45660400390625E-06	1.86520696843218E-06	879111.6875	5.42233501619194E-05
2	530	102.087786742253	1.27029418945313	1.270751953125	1.439208984375E-06	1.82887765731721E-06	882951.6875	5.43691639904864E-05
2	531	102.188494741999	1.26022338867188	1.26007080078125	1.42333984375E-06	1.79350888629415E-06	885291.625	5.45133043488022E-05
2	532	102.289202741745	1.25015258789063	1.25030517578125	1.4080810546875E-06	1.76053106315521E-06	887949.6875	5.46558803762309E-05
2	533	102.38991074149	1.24008178710938	1.2396240234375	1.3934326171875E-06	1.72733257386426E-06	889618.9375	5.47969466424547E-05
2	534	102.490618741236	1.23001098632813	1.22955322265625	1.37847900390625E-06	1.69491318047221E-06	891963.75	5.49365249753464E-05
2	535	102.591326740982	1.21994018554688	1.219482421875	1.36444091796875E-06	1.66391168932023E-06	893759.8125	5.50746408407576E-05
2	536	102.692034740728	1.20986938476563	1.20941162109375	1.34979248046875E-06	1.6324546550095E-06	895998.1875	5.52113124285825E-05
2	537	102.792742740473	1.19979858398438	1.199951171875	1.3360595703125E-06	1.60320621489518E-06	898127	5.53465542907361E-05
2	538	102.893450740219	1.18972778320313	1.1895751953125	1.32232666015625E-06	1.57300689807016E-06	899607.6875	5.54804173589218E-05
2	539	102.994158739965	1.17965698242188	1.1798095703125	1.30950927734375E-06	1.54497149651434E-06	900955.5	5.56129416509066E-05
2	540	103.09486673971	1.16958618164063	1.16943359375	1.29730224609375E-06	1.51710878526501E-06	901435	5.57442035642453E-05
2	541	103.195574739456	1.15951538085938	1.15997314453125	1.2847900390625E-06	1.49032189256104E-06	902850.4375	5.58742212888319E-05
2	542	103.296282739202	1.14944458007813	1.14990234375	1.27197265625E-06	1.46264437717036E-06	904030.6875	5.60029657208361E-05
2	543	103.396990738948	1.13937377929688	1.13922119140625	1.25732421875E-06	1.43237036809296E-06	906067.9375	5.61303240829147E-05
2	544	103.497698738693	1.12930297851563	1.12884521484375	1.24176025390625E-06	1.40175507112872E-06	909068.625	5.62561654078308E-05
2	545	103.598406738439	1.11923217773438	1.11968994140625	1.2249755859375E-06	1.3715928162128E-06	914050.8125	5.63803732802626E-05
2	546	103.699114738185	1.10916137695313	1.10870361328125	1.204833984375E-06	1.33580385863752E-06	920212.75	5.65027257835027E-05
2	547	103.799822737931	1.09909057617188	1.0986328125	1.18194580078125E-06	1.29852446661971E-06	929512	5.66229100513738E-05
2	548	103.900530737676	1.08901977539063	1.0888671875	1.15447998046875E-06	1.25707538245479E-06	943166.8125	5.67405586480163E-05
2	549	104.001238737422	1.07894897460938	1.0791015625	1.119384765625E-06	1.20792981306295E-06	964013.125	5.68550567550119E-05
2	550	104.101946737168	1.06887817382813	1.0687255859375	1.0748291015625E-06	1.14869737899426E-06	994321.375	5.69655421713833E-05
2	551	104.202654736914	1.05880737304688	1.0589599609375	1.01837158203125E-06	1.07841469798586E-06	1039856.1875	5.70709453313611E-05
2	552	104.303362736659	1.04873657226563	1.0479736328125	9.46044921875E-07	9.9143016996095E-07	1107742	5.71698583371472E-05
2	553	104.404070736405	1.03866577148438	1.0382080078125	8.575439453125E-07	8.90308967882447E-07	1210676.25	5.72606768400874E-05
2	554	104.504778736151	1.02859497070313	1.02874755859375	7.525634765625E-07	7.74197815189837E-07	1366991.125	5.73417528357822E-05
2	555	104.605486735897	1.01852416992188	1.0186767578125	6.36901855468749E-07	6.48797140456736E-07	1599425	5.74117184442002E-05
2	556	104.706194735642	1.00845336914063	1.00830078125	5.157470703125E-07	5.2002815209562E-07	1955029.625	5.74697587580886E-05
2	557	104.806902735388	0.998382568359375	0.99822998046875	4.02221679687501E-07	4.01509737457673E-07	2481790.75	5.75159829168115E-05
2	558	104.907610735134	0.988311767578125	0.98846435546875	3.0517578125E-07	3.01655376233612E-07	3239000	5.75516023673117E-05
2	559	105.008318734879	0.978240966796875	0.9783935546875	2.3162841796875E-07	2.26623740218201E-07	4223979	5.75786325498484E-05
2	560	105.109026734625	0.968170166015625	0.96832275390625	1.8341064453125E-07	1.77600696815716E-07	5279534.5	5.75995327380951E-05
2	561	105.209734734371	0.958099365234375	0.958251953125	1.59606933593751E-07	1.5294365596219E-07	6003824.5	5.76168058614712E-05
2	562	105.310442734117	0.948028564453125	0.94879150390625	1.544189453125E-07	1.46511382581593E-07	6144269	5.76326165173668E-05
2	563	105.411150733862	0.937957763671875	0.9381103515625	1.59606933593751E-07	1.49728904830226E-07	5877629.5	5.76484308112413E-05
2	564	105.511858733608	0.927886962890625	0.9283447265625	1.6448974609375E-07	1.52703194089554E-07	5643784.5	5.76647471461911E-05
2	565	105.612566733354	0.917816162109375	0.91766357421875	1.64184570312501E-07	1.50666195963822E-07	5589219.5	5.76812999497633E-05
2	566	105.7132747331	0.907745361328125	0.9075927734375	1.495361328125E-07	1.35717911575739E-07	6069387.5	5.76970960537437E-05
2	567	105.813982732845	0.897674560546875	0.8978271484375	1.20849609375E-07	1.08502057116766E-07	7429293	5.77107093704399E-05
2	568	105.914690732591	0.887603759765625	0.88775634765625	6.74438476562497E-08	5.98736988877135E-08	13162897	5.772019358119E-05
2	569	106.015398732337	0.877532958984375	0.87799072265625	-6.103515625E-09	-5.35882982433122E-09	-143850000	5.77232822251972E-05
2	570	106.116106732083	0.867462158203125	0.86761474609375	-1.07727050781251E-07	-9.34655730588929E-08	-8053824.5	5.77175487705972E-05
2	571	106.216814731828	0.857391357421875	0.8575439453125	-2.26745605468751E-07	-1.94444311318875E-07	-3781965.25	5.77007085666992E-05
2	572	106.317522731574	0.847320556640625	0.8477783203125	-3.54919433593751E-07	-3.0089299229985E-07	-2388650	5.76714191993233E-05
2	573	106.41823073132	0.837249755859375	0.83709716796875	-4.79736328125E-07	-4.01585936060656E-07	-1744910.875	5.7629389630165E-05
2	574	106.518938731066	0.827178955078125	0.82733154296875	-5.88378906250001E-07	-4.86784415443253E-07	-1406120.375	5.75756057514809E-05
2	575	106.619646730811	0.817108154296875	0.81695556640625	-6.7138671875E-07	-5.48493119367777E-07	-1216818.25	5.75121703150216E-05
2	576	106.720354730557	0.807037353515625	0.80718994140625	-7.220458984375E-07	-5.82828135975433E-07	-1117920.625	5.74420082557481E-05
2	577	106.821062730303	0.796966552734375	0.79742431640625	-7.4310302734375E-07	-5.9256836948407E-07	-1073100.625	5.73682300455403E-05
2	578	106.921770730048	0.786895751953125	0.78643798828125	-7.3974609375E-07	-5.81764425078291E-07	-1063118.75	5.72935641685035E-05
2	579	107.022478729794	0.776824951171875	0.7769775390625	-7.17773437499999E-07	-5.57693851988006E-07	-1082483	5.72201715840492E-05
2	580	107.12318672954	0.766754150390625	0.7666015625	-6.84814453125E-07	-5.24979839156003E-07	-1119429.625	5.71495438634884E-05
2	581	107.223894729286	0.756683349609375	0.75714111328125	-6.47583007812499E-07	-4.90311663270404E-07	-1169180.125	5.7082452258328E-05
2	582	107.324602729031	0.746612548828125	0.74652099609375	-6.0943603515625E-07	-4.54956790463257E-07	-1224937.375	5.70191587030422E-05
2	583	107.425310728777	0.736541748046875	0.73638916015625	-5.7373046875E-07	-4.22488881213212E-07	-1283510.625	5.69595795241185E-05
2	584	107.526018728523	0.726470947265625	0.726409912109375	-5.4168701171875E-07	-3.9348677205453E-07	-1341014.125	5.69034164072946E-05
2	585	107.626726728269	0.716400146484375	0.716339111328125	-5.1605224609375E-07	-3.69668413213731E-07	-1388113.5	5.68501527595799E-05
2	586	107.727434728014	0.706329345703125	0.70623779296875	-4.9560546875E-07	-3.50015284311667E-07	-1425000.125	5.6799213780323E-05
2	587	107.82814272776	0.696258544921875	0.69610595703125	-4.81262207031249E-07	-3.35009474383696E-07	-1446417.25	5.67500246688724E-05
2	588	107.928850727506	0.686187744140625	0.6861572265625	-4.7027587890625E-07	-3.22683177955696E-07	-1459052.625	5.67021088500042E-05
2	589	108.029558727252	0.676116943359375	0.676025390625	-4.620361328125E-07	-3.12348163333809E-07	-1463144	5.66551643714774E-05
2	590	108.130266726997	0.666046142578125	0.666015625	-4.54101562500001E-07	-3.02438735388932E-07	-1466666.75	5.66090311622247E-05
2	591	108.230974726743	0.655975341796875	0.655975341796875	-4.4525146484375E-07	-2.92073991658981E-07	-1473269.375	5.6563745602034E-05
2	592	108.331682726489	0.645904541015625	0.64593505859375	-4.34265136718751E-07	-2.80507066463542E-07	-1487421	5.65194604860153E-05
2	593	108.432390726235	0.635833740234375	0.63580322265625	-4.21142578125E-07	-2.67763795136489E-07	-1509710.125	5.64763868169393E-05
2	594	108.53309872598	0.625762939453125	0.62567138671875	-4.06799316406251E-07	-2.54522689147052E-07	-1538034.625	5.64346955798101E-05
2	595	108.633806725726	0.615692138671875	0.61566162109375	-3.91235351562499E-07	-2.40868587297882E-07	-1573635	5.63945104659069E-05
2	596	108.734514725472	0.605621337890625	0.60552978515625	-3.74755859375001E-07	-2.26925820356882E-07	-1615798.125	5.63559406145941E-05
2	597	108.835222725217	0.595550537109375	0.595550537109375	-3.5858154296875E-07	-2.13553420280732E-07	-1660851.125	5.63190151297022E-05
2	598	108.935930724963	0.585479736328125	0.58544921875	-3.41796875E-07	-2.00104707914761E-07	-1712857.25	5.62837485631462E-05
2	599	109.036638724709	0.575408935546875	0.575439453125	-3.25927734375001E-07	-1.87551663088925E-07	-1765543.125	5.62501263630111E-05
2	600	109.137346724455	0.565338134765625	0.565277099609375	-3.1097412109375E-07	-1.75786553313628E-07	-1817762.5	5.62180539418478E-05
2	601	109.2380547242	0.555267333984375	0.55517578125	-2.9754638671875E-07	-1.65190556344896E-07	-1865846.125	5.61874148843344E-05
2	602	109.338762723946	0.545196533203125	0.545166015625	-2.86254882812501E-07	-1.56056430000717E-07	-1904477.625	5.61580163775943E-05
2	603	109.439470723692	0.535125732421875	0.535125732421875	-2.777099609375E-07	-1.48609743177985E-07	-1926923.25	5.61296183150262E-05
2	604	109.540178723438	0.525054931640625	0.52508544921875	-2.703857421875E-07	-1.41975604606159E-07	-1941986.625	5.61020206077956E-05
2	605	109.640886723183	0.514984130859375	0.514984130859375	-2.64892578125001E-07	-1.36415479801144E-07	-1944124.375	5.60750668228138E-05
2	606	109.741594722929	0.504913330078125	0.504852294921875	-2.6123046875E-07	-1.31882799792038E-07	-1932593.5	5.60485750611406E-05
2	607	109.842302722675	0.494842529296875	0.494842529296875	-2.56958007812499E-07	-1.27153754192477E-07	-1925772	5.60224798391573E-05
2	608	109.943010722421	0.484771728515625	0.48480224609375	-2.532958984375E-07	-1.22798425650217E-07	-1913975.875	5.59967884328216E-05
2	609	110.043718722166	0.474700927734375	0.47467041015625	-2.490234375E-07	-1.18204056320792E-07	-1906127.5	5.59714935661759E-05
2	610	110.144426721912	0.464630126953125	0.464630126953125	-2.45056152343751E-07	-1.13860473049954E-07	-1896014.875	5.59466134291142E-05
2	611	110.245134721658	0.454559326171875	0.45452880859375	-2.40478515625001E-07	-1.09304409079414E-07	-1890101.625	5.59221662115306E-05
2	612	110.345842721404	0.444488525390625	0.44451904296875	-2.35900878906251E-07	-1.04862429850527E-07	-1884346.75	5.58981773792766E-05
2	613	110.446550721149	0.434417724609375	0.434478759765625	-2.29492187499999E-07	-9.97094815602395E-08	-1893218.125	5.58747451577801E-05
2	614	110.547258720895	0.424346923828125	0.42431640625	-2.23693847656251E-07	-9.49169702835206E-08	-1896862.25	5.58519241167232E-05
2	615	110.647966720641	0.414276123046875	0.414276123046875	-2.1697998046875E-07	-8.98896175272057E-08	-1909282.75	5.58297360839788E-05
2	616	110.748674720386	0.404205322265625	0.404266357421875	-2.08740234375E-07	-8.43866558852824E-08	-1936695.875	5.58082974748686E-05
2	617	110.849382720132	0.394134521484375	0.394073486328125	-2.00805664062501E-07	-7.91321852489091E-08	-1962462	5.578767741099E-05
2	618	110.950090719878	0.384063720703125	0.384063720703125	-1.934814453125E-07	-7.43091987942535E-08	-1985015.875	5.57678213226609E-05
2	619	111.050798719624	0.373992919921875	0.373992919921875	-1.86767578124999E-07	-6.98497544249221E-08	-2002451	5.57486746401992E-05
2	620	111.151506719369	0.363922119140625	0.363922119140625	-1.79443359375001E-07	-6.53034106790074E-08	-2028061.25	5.5730233725626E-05
2	621	111.252214719115	0.353851318359375	0.35382080078125	-1.73034667968749E-07	-6.12232611274521E-08	-2044797.25	5.5712487665005E-05
2	622	111.352922718861	0.343780517578125	0.34375	-1.6632080078125E-07	-5.71727767351149E-08	-2066789	5.56954000785481E-05
2	623	111.453630718607	0.333709716796875	0.33367919921875	-1.6021728515625E-07	-5.34611750424574E-08	-2082666.75	5.56789564143401E-05
2	624	111.554338718352	0.323638916015625	0.3236083984375	-1.544189453125E-07	-4.99712662360707E-08	-2095652.25	5.56631130166352E-05
2	625	111.655046718098	0.313568115234375	0.3135986328125	-1.495361328125E-07	-4.68943284204215E-08	-2097142.875	5.56478080397937E-05
2	626	111.755754717844	0.303497314453125	0.30352783203125	-1.45874023437501E-07	-4.42768275377148E-08	-2080753.125	5.56329323444515E-05
2	627	111.85646271759	0.293426513671875	0.293426513671875	-1.434326171875E-07	-4.20869312733885E-08	-2045744.75	5.5618365877308E-05
2	628	111.957170717335	0.283355712890625	0.283355712890625	-1.40991210937499E-07	-3.99506632220437E-08	-2009740.375	5.56040431547444E-05
2	629	112.057878717081	0.273284912109375	0.27325439453125	-1.4007568359375E-07	-3.82762976869344E-08	-1950762.5	5.55898914171848E-05
2	630	112.158586716827	0.263214111328125	0.263214111328125	-1.3916015625E-07	-3.66289150122157E-08	-1891447.5	5.55758306290954E-05
2	631	112.259294716573	0.253143310546875	0.253204345703125	-1.38244628906251E-07	-3.50041418073488E-08	-1831567.375	5.55618607904762E-05
2	632	112.360002716318	0.243072509765625	0.243072509765625	-1.3702392578125E-07	-3.33067475821736E-08	-1773942.25	5.55480000912212E-05
2	633	112.460710716064	0.233001708984375	0.23297119140625	-1.36718750000001E-07	-3.18515311903411E-08	-1704017.75	5.55342157895211E-05
2	634	112.56141871581	0.222930908203125	0.222930908203125	-1.36413574218749E-07	-3.04108027648908E-08	-1634228.125	5.55204605916515E-05
2	635	112.662126715555	0.212860107421875	0.21295166015625	-1.38244628906251E-07	-2.94394233435469E-08	-1540397.375	5.55066326342057E-05
2	636	112.762834715301	0.202789306640625	0.2027587890625	-1.40380859375E-07	-2.84634538161299E-08	-1444347.75	5.54926009499468E-05
2	637	112.863542715047	0.192718505859375	0.19281005859375	-1.434326171875E-07	-2.76552505340533E-08	-1344255.375	5.54783109691925E-05
2	638	112.964250714793	0.182647705078125	0.1827392578125	-1.45874023437501E-07	-2.66569113449577E-08	-1252719.625	5.54637445020489E-05
2	639	113.064958714538	0.172576904296875	0.172637939453125	-1.50451660156251E-07	-2.59736641083919E-08	-1147464.5	5.54488215129822E-05
2	640	113.165666714284	0.162506103515625	0.162506103515625	-1.544189453125E-07	-2.50940210833051E-08	-1052371.625	5.54334692424163E-05
2	641	113.26637471403	0.152435302734375	0.152496337890625	-1.60827636718749E-07	-2.45256259745474E-08	-948197.3125	5.5417596740881E-05
2	642	113.367082713776	0.142364501953125	0.142333984375	-1.6937255859375E-07	-2.41074697981958E-08	-840360.375	5.54009711777326E-05
2	643	113.467790713521	0.132293701171875	0.13238525390625	-1.82189941406249E-07	-2.41192612548957E-08	-726633.1875	5.53832687728573E-05
2	644	113.568498713267	0.122222900390625	0.1221923828125	-2.001953125E-07	-2.4462341485787E-08	-610365.875	5.53640129510313E-05
2	645	113.669206713013	0.112152099609375	0.112152099609375	-2.25830078125E-07	-2.53273171324508E-08	-496621.625	5.53425597900059E-05
2	646	113.769914712759	0.102081298828125	0.102081298828125	-2.61535644531249E-07	-2.66978972263132E-08	-390315.0625	5.53180216229521E-05
2	647	113.870622712504	0.092010498046875	0.092041015625	-3.1005859375E-07	-2.85381087650194E-08	-296850.40625	5.52892379346304E-05
2	648	113.97133071225	0.081939697265625	0.081939697265625	-3.7689208984375E-07	-3.08824219530379E-08	-217408.921875	5.52546480321325E-05
2	649	114.072038711996	0.071868896484375	0.071929931640625	-4.656982421875E-07	-3.34976419935629E-08	-154456.09375	5.52122182853054E-05
2	650	114.172746711742	0.061798095703125	0.061859130859375	-5.83801269531251E-07	-3.61134375737038E-08	-105959.234375	5.51593730051536E-05
2	651	114.273454711487	0.051727294921875	0.051788330078125	-7.33642578125E-07	-3.79941234029957E-08	-70590.6875	5.50930344616063E-05
2	652	114.374162711233	0.041656494140625	0.041790771484375	-9.1400146484375E-07	-3.81968234819396E-08	-45722.875	5.50100703549106E-05
2	653	114.474870710979	0.031585693359375	0.0316864013671875	-1.11968994140625E-06	-3.54789477796658E-08	-28299.265625	5.49076648894697E-05
2	654	114.575578710724	0.021514892578125	0.0216156005859375	-1.33514404296875E-06	-2.88599402153977E-08	-16189.7138671875	5.47840536455624E-05
2	655	114.67628671047	0.011444091796875	0.011541748046875	-1.5399169921875E-06	-1.77733348039055E-08	-7495.0458984375	5.4639283916913E-05
2	656	114.776994710216	0.001373291015625	0.00145874023437501	-1.71295166015625E-06	-2.49875142799283E-09	-851.594482421875	5.44754875591025E-05
2	657	114.877702709962	-0.008697509765625	-0.0086090087890625	-1.83929443359375E-06	1.58345017098327E-08	4680.60400390625	5.42966190550942E-05
2	658	114.978410709707	-0.018768310546875	-0.0186676025390625	-1.9122314453125E-06	3.56967788661677E-08	9762.208984375	5.41077133675572E-05
2	659	115.079118709453	-0.028839111328125	-0.02869873046875	-1.93603515625E-06	5.55617489794713E-08	14823.45703125	5.39139364263974E-05
2	660	115.179826709199	-0.038909912109375	-0.038787841796875	-1.92138671875E-06	7.45264401302848E-08	20187.421875	5.3719701099908E-05
2	661	115.280534708945	-0.048980712890625	-0.0488525390625	-1.88201904296875E-06	9.1941409152696E-08	25957.517578125	5.35281833435874E-05
2	662	115.38124270869	-0.059051513671875	-0.0589599609375	-1.8292236328125E-06	1.07850951280852E-07	32232.232421875	5.33413076482248E-05
2	663	115.481950708436	-0.069122314453125	-0.069061279296875	-1.7718505859375E-06	1.22366259347473E-07	38976.921875	5.31599798705429E-05
2	664	115.582658708182	-0.079193115234375	-0.079132080078125	-1.71539306640625E-06	1.35742624252089E-07	46130.58203125	5.29843819094822E-05
2	665	115.683366707928	-0.089263916015625	-0.089141845703125	-1.661376953125E-06	1.48098209251657E-07	53655.40234375	5.28143500559963E-05
2	666	115.784074707673	-0.099334716796875	-0.099212646484375	-1.61376953125E-06	1.60106353064293E-07	61478.8203125	5.26494332007132E-05
2	667	115.884782707419	-0.109405517578125	-0.10931396484375	-1.572265625E-06	1.71870581766598E-07	69526.3984375	5.24890019732993E-05
2	668	115.985490707165	-0.119476318359375	-0.119384765625	-1.5374755859375E-06	1.83551165378049E-07	77649.859375	5.23324160894845E-05
2	669	116.086198706911	-0.129547119140625	-0.12945556640625	-1.50970458984375E-06	1.95439668004838E-07	85748.9375	5.21789770573378E-05
2	670	116.186906706656	-0.139617919921875	-0.139495849609375	-1.4874267578125E-06	2.07489861736576E-07	93783.34375	5.20280591445044E-05
2	671	116.287614706402	-0.149688720703125	-0.1495361328125	-1.4703369140625E-06	2.19868496742492E-07	101701.953125	5.18791239301208E-05
2	672	116.388322706148	-0.159759521484375	-0.159637451171875	-1.458740234375E-06	2.3286955297408E-07	109435.15625	5.17316329933237E-05
2	673	116.489030705893	-0.169830322265625	-0.169647216796875	-1.4508056640625E-06	2.46125125613617E-07	116933.1171875	5.15851279487833E-05
2	674	116.589738705639	-0.179901123046875	-0.17974853515625	-1.44683837890625E-06	2.60067082535897E-07	124235.390625	5.14392195327673E-05
2	675	116.690446705385	-0.189971923828125	-0.189849853515625	-1.4471435546875E-06	2.7473998898131E-07	131189.375	5.12934966536704E-05
2	676	116.791154705131	-0.200042724609375	-0.199859619140625	-1.45233154296875E-06	2.90262420321596E-07	137612.953125	5.11474936502054E-05
2	677	116.891862704876	-0.189971923828125	-0.18988037109375	-1.26190185546875E-06	2.39610386643108E-07	150471.578125	5.10108220623806E-05
