Potential - Start -0.2 V, Upper Vertex 1.5 V, Lower Vertex -0.2 V, Stop -0.19 V; Scan - # end cross 5, Rate 0.1 Vps, Step 0.01 V 
Scan	Index	Time (s)	Potential applied (V)	WE(1).Potential (V)	WE(1).Current (A)	WE(1).Power (W)	WE(1).Resistance (Ω)	WE(1).Charge (C)
1	1	66.2015818328571	-0.189971923828125	-0.18988037109375	-2.3651123046875E-07	4.49088410903187E-08	802838.75	0
1	2	66.3022898326028	-0.179901123046875	-0.17974853515625	-2.06604003906249E-07	3.71367647744592E-08	870014.8125	-2.23126246368111E-08
1	3	66.4029978323485	-0.169830322265625	-0.16973876953125	-1.8157958984375E-07	3.08210950095145E-08	934789.9375	-4.18592200901458E-08
1	4	66.5037058320943	-0.159759521484375	-0.15960693359375	-1.61132812500001E-07	2.57179131324392E-08	990530.375	-5.91161608554103E-08
1	5	66.60441383184	-0.149688720703125	-0.1495361328125	-1.42517089843749E-07	2.13114539349135E-08	1049250.625	-7.44061452451206E-08
1	6	66.7051218315858	-0.139617919921875	-0.1395263671875	-1.2481689453125E-07	1.7415247910435E-08	1117848.375	-8.7867483955506E-08
1	7	66.8058298313315	-0.129547119140625	-0.129425048828125	-1.0833740234375E-07	1.40215732358229E-08	1194647.875	-9.96077318404787E-08
1	8	66.9065378310772	-0.119476318359375	-0.119384765625	-9.1552734375E-08	1.09300017925307E-08	1304000	-1.09673003123589E-07
1	9	67.007245830823	-0.109405517578125	-0.1092529296875	-7.476806640625E-08	8.16863021668723E-09	1461224.5	-1.18047914554609E-07
1	10	67.1079538305687	-0.099334716796875	-0.099212646484375	-5.70678710937494E-08	5.66185409667241E-09	1738502.75	-1.24686380331696E-07
1	11	67.2086618303144	-0.089263916015625	-0.089202880859375	-3.75366210937506E-08	3.34837446658298E-09	2376423	-1.29450100416761E-07
1	12	67.3093698300602	-0.079193115234375	-0.07916259765625	-1.43432617187494E-08	1.1354498452576E-09	5519149	-1.32062453417348E-07
1	13	67.4100778298059	-0.069122314453125	-0.069122314453125	1.43432617187494E-08	-9.91439486064394E-10	-4819149	-1.32062453417348E-07
1	14	67.5107858295517	-0.059051513671875	-0.058990478515625	4.97436523437506E-08	-2.93440183263272E-09	-1185889.625	-1.2883542410691E-07
1	15	67.6114938292974	-0.048980712890625	-0.048846435546875	9.613037109375E-08	-4.69562611016272E-09	-508126.96875	-1.21490089100007E-07
1	16	67.7122018290431	-0.038909912109375	-0.038787841796875	1.5869140625E-07	-6.15529716085916E-09	-244423.078125	-1.0865878863342E-07
1	17	67.8129098287889	-0.028839111328125	-0.02874755859375	2.41699218749999E-07	-6.94826240987823E-09	-118939.3984375	-8.84975221993045E-08
1	18	67.9136178285346	-0.018768310546875	-0.0186248779296875	3.52783203125E-07	-6.57054366470788E-09	-52794.1171875	-5.85629535976295E-08
1	19	68.0143258282803	-0.008697509765625	-0.008587646484375	4.9713134765625E-07	-4.26918811413657E-09	-17274.40234375	-1.57663571087596E-08
1	20	68.1150338280261	0.001373291015625	0.0014495849609375	6.8023681640625E-07	9.86061010621597E-10	2131.00048828125	4.35188383107743E-08
1	21	68.2157418277718	0.011444091796875	0.01153564453125	8.9874267578125E-07	1.03675761309319E-08	12835.314453125	1.23026765663781E-07
1	22	68.3164498275175	0.021514892578125	0.0216094970703125	1.14410400390625E-06	2.47235103500998E-08	18887.703125	2.25892264893446E-07
1	23	68.4171578272633	0.031585693359375	0.0316436767578125	1.397705078125E-06	4.42285283952515E-08	22639.73828125	3.53882512627024E-07
1	24	68.517865827009	0.041656494140625	0.041766357421875	1.6357421875E-06	6.831898957671E-08	25533.58203125	5.06628737184656E-07
1	25	68.6185738267548	0.051727294921875	0.0517578125	1.83319091796875E-06	9.4881947632075E-08	28233.728515625	6.81303390592802E-07
1	26	68.7192818265005	0.061798095703125	0.061798095703125	1.97235107421875E-06	1.21887538284682E-07	31332.197265625	8.72927614636865E-07
1	27	68.8199898262462	0.071868896484375	0.071929931640625	2.04803466796875E-06	1.47314977994029E-07	35121.4453125	1.07537016447168E-06
1	28	68.920697825992	0.081939697265625	0.082000732421875	2.06756591796875E-06	1.69541920058691E-07	39660.515625	1.28260705878347E-06
1	29	69.0214058257377	0.092010498046875	0.092071533203125	2.0428466796875E-06	1.88088009167586E-07	45070.21484375	1.48958281442901E-06
1	30	69.1221138254834	0.102081298828125	0.10211181640625	1.99005126953125E-06	2.03207747517808E-07	51311.1484375	1.69265535987506E-06
1	31	69.2228218252292	0.112152099609375	0.11212158203125	1.9219970703125E-06	2.15497337308079E-07	58335.984375	1.88964258995838E-06
1	32	69.3235298249749	0.122222900390625	0.122283935546875	1.84783935546875E-06	2.25961059641122E-07	66176.71875	2.0794689135073E-06
1	33	69.4242378247206	0.132293701171875	0.13226318359375	1.7742919921875E-06	2.34673507293337E-07	74544.203125	2.26185761675879E-06
1	34	69.5249458244664	0.142364501953125	0.1424560546875	1.7047119140625E-06	2.42846510900563E-07	83566.0625	2.43703948399343E-06
1	35	69.6256538242121	0.152435302734375	0.152496337890625	1.64031982421875E-06	2.5014276161528E-07	92967.4453125	2.60547517427767E-06
1	36	69.7263618239579	0.162506103515625	0.162567138671875	1.58203125E-06	2.57186286489741E-07	102758.484375	2.7677333491738E-06
1	37	69.8270698237036	0.172576904296875	0.172576904296875	1.5301513671875E-06	2.6406877395857E-07	112784.2109375	2.92444428851013E-06
1	38	69.9277778234493	0.182647705078125	0.182647705078125	1.48406982421875E-06	2.71061935563921E-07	123072.1796875	3.07622235595773E-06
1	39	70.0284858231951	0.192718505859375	0.19281005859375	1.44256591796875E-06	2.78141214948846E-07	133657.71875	3.22359028359642E-06
1	40	70.1291938229408	0.202789306640625	0.202850341796875	1.40594482421875E-06	2.85196364302465E-07	144280.453125	3.3670241919026E-06
1	41	70.2299018226865	0.212860107421875	0.212890625	1.37237548828125E-06	2.9216585062386E-07	155125.640625	3.50692357642401E-06
1	42	70.3306098224323	0.222930908203125	0.222930908203125	1.3427734375E-06	2.99345714438459E-07	166022.734375	3.64364223059965E-06
1	43	70.431317822178	0.233001708984375	0.23297119140625	1.3165283203125E-06	3.06713161535299E-07	176958.75	3.77754872715741E-06
1	44	70.5320258219238	0.243072509765625	0.243133544921875	1.29241943359375E-06	3.14230504727675E-07	188122.796875	3.90891955248662E-06
1	45	70.6327338216695	0.253143310546875	0.253143310546875	1.2713623046875E-06	3.21836864713987E-07	199111.859375	4.03801641368773E-06
1	46	70.7334418214152	0.263214111328125	0.263214111328125	1.251220703125E-06	3.29338917026689E-07	210365.859375	4.16503826272674E-06
1	47	70.834149821161	0.273284912109375	0.2733154296875	1.2335205078125E-06	3.37140193096275E-07	221573.484375	4.29015517511289E-06
1	48	70.9348578209067	0.283355712890625	0.283294677734375	1.2176513671875E-06	3.44954116826557E-07	232656.65625	4.41358133684844E-06
1	49	71.0355658206524	0.293426513671875	0.293487548828125	1.20330810546875E-06	3.53155940047145E-07	243900.578125	4.53548636869527E-06
1	50	71.1362738203982	0.303497314453125	0.303436279296875	1.190185546875E-06	3.61145481519998E-07	254948.71875	4.65600851384806E-06
1	51	71.2369818201439	0.313568115234375	0.31353759765625	1.17919921875E-06	3.69723295534641E-07	265890.28125	4.77531648357399E-06
1	52	71.3376898198896	0.323638916015625	0.32366943359375	1.16851806640625E-06	3.78213570684238E-07	276991.40625	4.89353351440514E-06
1	53	71.4383978196354	0.333709716796875	0.333740234375	1.15936279296875E-06	3.86926018336453E-07	287865.21875	5.01075146530638E-06
1	54	71.5391058193811	0.343780517578125	0.34375	1.15081787109375E-06	3.95593644952896E-07	298700.625	5.1270781113999E-06
1	55	71.6398138191269	0.353851318359375	0.353790283203125	1.14410400390625E-06	4.04772862339087E-07	309229.125	5.24263668921776E-06
1	56	71.7405218188726	0.363922119140625	0.36395263671875	1.13739013671875E-06	4.13956115608016E-07	319989.28125	5.35751905772486E-06
1	57	71.8412298186183	0.373992919921875	0.373992919921875	1.1328125E-06	4.23663863102774E-07	330145.46875	5.47183299204335E-06
1	58	71.9419378183641	0.384063720703125	0.38409423828125	1.129150390625E-06	4.33700165558548E-07	340162.15625	5.58573174203048E-06
1	59	72.0426458181098	0.394134521484375	0.3941650390625	1.12548828125E-06	4.43628096036264E-07	350216.9375	5.69926169191604E-06
1	60	72.1433538178555	0.404205322265625	0.40423583984375	1.123046875E-06	4.53975815162266E-07	359945.65625	5.81248468733975E-06
1	61	72.2440618176013	0.414276123046875	0.414276123046875	1.121826171875E-06	4.64745767203567E-07	369287.28125	5.925523055339E-06
1	62	72.344769817347	0.424346923828125	0.42437744140625	1.12091064453125E-06	4.75689176937522E-07	378600.625	6.03845364821609E-06
1	63	72.4454778170928	0.434417724609375	0.43438720703125	1.12060546875E-06	4.86776684738288E-07	387636.15625	6.15132285020081E-06
1	64	72.5461858168385	0.444488525390625	0.444488525390625	1.1212158203125E-06	4.98367512591358E-07	396434.4375	6.26420751359547E-06
1	65	72.6468938165842	0.454559326171875	0.45458984375	1.1224365234375E-06	5.10248241880618E-07	405002.71875	6.37718449070235E-06
1	66	72.74760181633	0.464630126953125	0.46466064453125	1.12396240234375E-06	5.2226107527531E-07	413412.96875	6.4902997110039E-06
1	67	72.8483098160757	0.474700927734375	0.47467041015625	1.12640380859375E-06	5.34670505203394E-07	421403.4375	6.60361456539249E-06
1	68	72.9490178158214	0.484771728515625	0.484771728515625	1.129150390625E-06	5.47380182069901E-07	429324.3125	6.71719089950784E-06
1	69	73.0497258155672	0.494842529296875	0.494781494140625	1.13250732421875E-06	5.60343664801621E-07	436890.3125	6.83107418808504E-06
1	70	73.1504338153129	0.504913330078125	0.50494384765625	1.136474609375E-06	5.73855857055605E-07	444307.21875	6.94532673151116E-06
1	71	73.2511418150586	0.514984130859375	0.514984130859375	1.1419677734375E-06	5.88095304010494E-07	450962.03125	7.06005539541366E-06
1	72	73.3518498148044	0.525054931640625	0.525054931640625	1.1474609375E-06	6.02480042743991E-07	457579.78125	7.17533703209483E-06
1	73	73.4525578145501	0.535125732421875	0.53515625	1.15447998046875E-06	6.17827140558802E-07	463547.46875	7.29124940335169E-06
1	74	73.5532658142959	0.545196533203125	0.545166015625	1.162109375E-06	6.33542526884412E-07	469117.65625	7.40789892006433E-06
1	75	73.6539738140416	0.555267333984375	0.5552978515625	1.17156982421875E-06	6.50570200377842E-07	473977.59375	7.52540881876484E-06
1	76	73.7546818137873	0.565338134765625	0.56536865234375	1.182861328125E-06	6.68752704768849E-07	477967	7.6439637268777E-06
1	77	73.8553898135331	0.575408935546875	0.575408935546875	1.19598388671875E-06	6.88179795815813E-07	481117.65625	7.76374781708E-06
1	78	73.9560978132788	0.585479736328125	0.585418701171875	1.2127685546875E-06	7.09977371116111E-07	482712.625	7.88503894000314E-06
1	79	74.0568058130245	0.595550537109375	0.595550537109375	1.23443603515625E-06	7.35169010113168E-07	482447.46875	8.00826546765165E-06
1	80	74.1575138127703	0.605621337890625	0.605560302734375	1.26220703125E-06	7.64342416914587E-07	479763.0625	8.13398128229892E-06
1	81	74.258221812516	0.615692138671875	0.61566162109375	1.2982177734375E-06	7.99262863893091E-07	474236.03125	8.26290852273814E-06
1	82	74.3589298122617	0.625762939453125	0.625732421875	1.34735107421875E-06	8.43081238599552E-07	464416.78125	8.39612403069623E-06
1	83	74.4596378120075	0.635833740234375	0.63580322265625	1.41357421875E-06	8.9875504727388E-07	449784.125	8.53514757181983E-06
1	84	74.5603458117532	0.645904541015625	0.6458740234375	1.50115966796875E-06	9.69560005614767E-07	430250.0625	8.68191546032904E-06
1	85	74.661053811499	0.655975341796875	0.65594482421875	1.61224365234375E-06	1.05754281776171E-06	406852.15625	8.83868779055774E-06
1	86	74.7617618112447	0.666046142578125	0.666046142578125	1.7474365234375E-06	1.16387332127488E-06	381156.125	9.00786108104512E-06
1	87	74.8624698109904	0.676116943359375	0.676025390625	1.90277099609375E-06	1.28632143514551E-06	355284.6875	9.19166359381052E-06
1	88	74.9631778107362	0.686187744140625	0.68609619140625	2.0672607421875E-06	1.41833970701555E-06	331886.625	9.39157052926021E-06
1	89	75.0638858104819	0.696258544921875	0.69622802734375	2.2271728515625E-06	1.55062014073337E-06	312606.1875	9.60781289904844E-06
1	90	75.1645938102276	0.706329345703125	0.706268310546875	2.366943359375E-06	1.67169707765424E-06	298388.34375	9.83914469543379E-06
1	91	75.2653018099734	0.716400146484375	0.71630859375	2.474365234375E-06	1.77240906396037E-06	289491.875	1.00829238363076E-05
1	92	75.3660098097191	0.726470947265625	0.726409912109375	2.54180908203125E-06	1.84639520739438E-06	285784.625	1.0335508704884E-05
1	93	75.4667178094649	0.736541748046875	0.736419677734375	2.572021484375E-06	1.89408717687911E-06	286319.40625	1.05930103018181E-05
1	94	75.5674258092106	0.746612548828125	0.74652099609375	2.57354736328125E-06	1.92120705833076E-06	290074.71875	1.0852110790438E-05
1	95	75.6681338089563	0.756683349609375	0.7568359375	2.5555419921875E-06	1.9341259758221E-06	296154.78125	1.11103809103952E-05
1	96	75.7688418087021	0.766754150390625	0.76629638671875	2.52899169921875E-06	1.93795722225332E-06	303004.71875	1.13664073069231E-05
1	97	75.8695498084478	0.776824951171875	0.77728271484375	2.50335693359375E-06	1.94581593859766E-06	310496.15625	1.16198061732575E-05
1	98	75.9702578081935	0.786895751953125	0.787353515625	2.48565673828125E-06	1.95709048966819E-06	316758.75	1.18710231618024E-05
1	99	76.0709658079393	0.796966552734375	0.797119140625	2.481689453125E-06	1.97820213543309E-06	321200.21875	1.21211487567052E-05
1	100	76.171673807685	0.807037353515625	0.80718994140625	2.49725341796875E-06	2.01575767277973E-06	323231.09375	1.23718582472065E-05
1	101	76.2723818074307	0.817108154296875	0.81695556640625	2.53631591796875E-06	2.07205744118255E-06	322103.25	1.26253189591807E-05
1	102	76.3730898071765	0.827178955078125	0.82733154296875	2.60223388671875E-06	2.15291015592811E-06	317931.28125	1.28840647448669E-05
1	103	76.4737978069222	0.837249755859375	0.83740234375	2.69317626953125E-06	2.25527196562325E-06	310934.84375	1.31507104015327E-05
1	104	76.574505806668	0.847320556640625	0.84716796875	2.8033447265625E-06	2.37490371546301E-06	302199	1.3427482372208E-05
1	105	76.6752138064137	0.857391357421875	0.8575439453125	2.92236328125E-06	2.50605489782174E-06	293441.9375	1.37157940116595E-05
1	106	76.7759218061594	0.867462158203125	0.86761474609375	3.03680419921875E-06	2.63477613771101E-06	285699.9375	1.4015861779626E-05
1	107	76.8766298059052	0.877532958984375	0.87799072265625	3.12957763671875E-06	2.7477401545184E-06	280546.0625	1.4326364180306E-05
1	108	76.9773378056509	0.887603759765625	0.88775634765625	3.1927490234375E-06	2.83438316728279E-06	278053.9375	1.46447182487464E-05
1	109	77.0780458053966	0.897674560546875	0.89752197265625	3.2220458984375E-06	2.89185686597193E-06	278556.5625	1.49677289300598E-05
1	110	77.1787538051424	0.907745361328125	0.908203125	3.2208251953125E-06	2.92516347144556E-06	281978.40625	1.52921529661398E-05
1	111	77.2794618048881	0.917816162109375	0.91766357421875	3.19580078125E-06	2.93266975859297E-06	287146.6875	1.56152564159129E-05
1	112	77.3801698046339	0.927886962890625	0.92803955078125	3.15521240234375E-06	2.92816184810363E-06	294129.03125	1.59350547619397E-05
1	113	77.4808778043796	0.937957763671875	0.9381103515625	3.1072998046875E-06	2.9149900910852E-06	301905.3125	1.62503984029172E-05
1	114	77.5815858041253	0.948028564453125	0.948486328125	3.05511474609375E-06	2.89773447548214E-06	310458.5	1.65606998052681E-05
1	115	77.6822938038711	0.958099365234375	0.95794677734375	3.0035400390625E-06	2.87723128167272E-06	318939.25	1.6865777070052E-05
1	116	77.7830018036168	0.968170166015625	0.96832275390625	2.9547119140625E-06	2.86111458080995E-06	327721.5625	1.71657993632834E-05
1	117	77.8837098033625	0.978240966796875	0.97808837890625	2.90863037109375E-06	2.84489738078264E-06	336271.125	1.74610413523624E-05
1	118	77.9844178031083	0.988311767578125	0.98846435546875	2.8668212890625E-06	2.83375061371771E-06	344794.5625	1.77518595592119E-05
1	119	78.085125802854	0.998382568359375	0.99822998046875	2.82928466796875E-06	2.82427663478302E-06	352820.625	1.80386814463418E-05
1	120	78.1858338025997	1.00845336914063	1.00860595703125	2.79510498046875E-06	2.81915936284349E-06	360847.28125	1.83218908205163E-05
1	121	78.2865418023455	1.01852416992188	1.01898193359375	2.76458740234375E-06	2.81706456917163E-06	368583.71875	1.86018442036584E-05
1	122	78.3872498020912	1.02859497070313	1.02874755859375	2.73651123046875E-06	2.81517918665486E-06	375934	1.8878847185988E-05
1	123	78.487957801837	1.03866577148438	1.038818359375	2.7117919921875E-06	2.8170593395771E-06	383074.5	1.91531908058096E-05
1	124	78.5886658015827	1.04873657226563	1.04888916015625	2.68890380859375E-06	2.82036194221291E-06	390080.59375	1.94251369975973E-05
1	125	78.6893738013284	1.05880737304688	1.05926513671875	2.66876220703125E-06	2.82692667497031E-06	396912.53125	1.96949167730054E-05
1	126	78.7900818010742	1.06887817382813	1.0687255859375	2.65045166015625E-06	2.8326053325145E-06	403223.96875	1.99627611436881E-05
1	127	78.8907898008199	1.07894897460938	1.0791015625	2.6336669921875E-06	2.84199427369458E-06	409733.5	2.02288374566706E-05
1	128	78.9914978005656	1.08901977539063	1.0888671875	2.61871337890625E-06	2.8514309633465E-06	415802.375	2.04933148779674E-05
1	129	79.0922058003114	1.09909057617188	1.09954833984375	2.60498046875E-06	2.86430190499232E-06	422094.65625	2.07563498406671E-05
1	130	79.1929138000571	1.10916137695313	1.10931396484375	2.59246826171875E-06	2.87586135527818E-06	427898.75	2.10180605790811E-05
1	131	79.2936217998028	1.11923217773438	1.11907958984375	2.581787109375E-06	2.88922524305235E-06	433451.53125	2.12786053452874E-05
1	132	79.3943297995486	1.12930297851563	1.129150390625	2.57171630859375E-06	2.90385446533037E-06	439064.90625	2.1538106011576E-05
1	133	79.4950377992943	1.13937377929688	1.13922119140625	2.56317138671875E-06	2.92001914203865E-06	444457.6875	2.17966680793324E-05
1	134	79.5957457990401	1.14944458007813	1.14959716796875	2.55523681640625E-06	2.93749280899647E-06	449898.5	2.20544006879209E-05
1	135	79.6964537987858	1.15951538085938	1.15966796875	2.548828125E-06	2.95579411613289E-06	454980.875	2.23114093387267E-05
1	136	79.7971617985315	1.16958618164063	1.16973876953125	2.5433349609375E-06	2.97503743240668E-06	459923.21875	2.25678213610081E-05
1	137	79.8978697982773	1.17965698242188	1.1798095703125	2.53875732421875E-06	2.99525027003256E-06	464719.3125	2.28237240662565E-05
1	138	79.998577798023	1.18972778320313	1.1895751953125	2.5347900390625E-06	3.01532327284804E-06	469299.3125	2.30791974900058E-05
1	139	80.0992857977687	1.19979858398438	1.20025634765625	2.5323486328125E-06	3.03946740132233E-06	473969.625	2.33343489526305E-05
1	140	80.1999937975145	1.20986938476563	1.209716796875	2.53082275390625E-06	3.06157880913815E-06	477993.5	2.35893003264209E-05
1	141	80.3007017972602	1.21994018554688	1.2200927734375	2.53021240234375E-06	3.08709400087537E-06	482209.625	2.38441425608471E-05
1	142	80.401409797006	1.23001098632813	1.2298583984375	2.53021240234375E-06	3.11180292555946E-06	486069.21875	2.40989556914428E-05
1	143	80.5021177967517	1.24008178710938	1.23992919921875	2.53143310546875E-06	3.13879763780278E-06	489813.15625	2.43538288486889E-05
1	144	80.6028257964974	1.25015258789063	1.2506103515625	2.532958984375E-06	3.16774458042346E-06	493734.96875	2.4608842068119E-05
1	145	80.7035337962432	1.26022338867188	1.2603759765625	2.535400390625E-06	3.19555783789838E-06	497111.21875	2.48640535573941E-05
1	146	80.8042417959889	1.27029418945313	1.2701416015625	2.53875732421875E-06	3.22458140544768E-06	500300.5	2.51195579039631E-05
1	147	80.9049497957346	1.28036499023438	1.28021240234375	2.542724609375E-06	3.25522751154494E-06	503480.5625	2.53754315053811E-05
1	148	81.0056577954804	1.29043579101563	1.29058837890625	2.5469970703125E-06	3.2871246276045E-06	506709.8125	2.56317198363831E-05
1	149	81.1063657952261	1.30050659179688	1.30035400390625	2.5518798828125E-06	3.31834712596901E-06	509567.09375	2.58884683717042E-05
1	150	81.2070737949718	1.31057739257813	1.31103515625	2.5579833984375E-06	3.35360618919367E-06	512526.84375	2.6145769879804E-05
1	151	81.3077817947176	1.32064819335938	1.32110595703125	2.56500244140625E-06	3.38863992510596E-06	515050.5625	2.64037335000467E-05
1	152	81.4084897944633	1.33071899414063	1.33087158203125	2.572021484375E-06	3.42303019351675E-06	517441.875	2.66624028881779E-05
1	153	81.5091977942091	1.34078979492188	1.34063720703125	2.58056640625E-06	3.4596032492118E-06	519512.78125	2.69218562607421E-05
1	154	81.6099057939548	1.35086059570313	1.3507080078125	2.5885009765625E-06	3.49630886375962E-06	521810.9375	2.71821390924742E-05
1	155	81.7106137937005	1.36093139648438	1.36138916015625	2.59765625E-06	3.53642099071294E-06	524083.65625	2.74432823061943E-05
1	156	81.8113217934463	1.37100219726563	1.37115478515625	2.6080322265625E-06	3.57601584255463E-06	525743.0625	2.77054095931817E-05
1	157	81.912029793192	1.38107299804688	1.38092041015625	2.6177978515625E-06	3.61497018275259E-06	527512.25	2.79685518762562E-05
1	158	82.0127377929377	1.39114379882813	1.3916015625	2.6275634765625E-06	3.65652135769778E-06	529616.75	2.82326764136087E-05
1	159	82.1134457926835	1.40121459960938	1.40106201171875	2.63763427734375E-06	3.6954891129426E-06	531181.3125	2.84977995761437E-05
1	160	82.2141537924292	1.41128540039063	1.41143798828125	2.64801025390625E-06	3.73750208382262E-06	533018.3125	2.87639541056706E-05
1	161	82.314861792175	1.42135620117188	1.42181396484375	2.6593017578125E-06	3.78103254661255E-06	534656.875	2.90311982098501E-05
1	162	82.4155697919207	1.43142700195313	1.4312744140625	2.6715087890625E-06	3.82366215490038E-06	535755.0625	2.9299624657142E-05
1	163	82.5162777916664	1.44149780273438	1.44134521484375	2.6849365234375E-06	3.86991996492725E-06	536826.5625	2.95693444058998E-05
1	164	82.6169857914122	1.45156860351563	1.451416015625	2.70233154296875E-06	3.92220727007953E-06	537097.6875	2.98406139336294E-05
1	165	82.7176937911579	1.46163940429688	1.4617919921875	2.72247314453125E-06	3.97968915422098E-06	536935.375	3.01137752103386E-05
1	166	82.8184017909036	1.47171020507813	1.47216796875	2.74627685546875E-06	4.04298089051736E-06	536059.5625	3.03891483781626E-05
1	167	82.9191097906494	1.48178100585938	1.48223876953125	2.77435302734375E-06	4.11225346397259E-06	534264.6875	3.06671354337595E-05
1	168	83.0198177903951	1.49185180664063	1.49200439453125	2.808837890625E-06	4.1907983359124E-06	531182.125	3.0948271160014E-05
1	169	83.1205257901408	1.50192260742188	1.5020751953125	2.84881591796875E-06	4.27913573730621E-06	527263	3.12331540044397E-05
1	170	83.2212337898866	1.49185180664063	1.49139404296875	2.646484375E-06	3.94695098293596E-06	563537.8125	3.15098659484647E-05
1	171	83.3219417896323	1.48178100585938	1.48223876953125	2.50335693359375E-06	3.71057262782415E-06	592100.4375	3.17691810778342E-05
1	172	83.4226497893781	1.47171020507813	1.47186279296875	2.3919677734375E-06	3.52064830622112E-06	615335.5625	3.20156796078663E-05
1	173	83.5233577891238	1.46163940429688	1.4617919921875	2.3016357421875E-06	3.36451262228366E-06	635110.0625	3.2252020901069E-05
1	174	83.6240657888695	1.45156860351563	1.4520263671875	2.225341796875E-06	3.23125482282194E-06	652495.9375	3.24799730151426E-05
1	175	83.7247737886153	1.44149780273438	1.44134521484375	2.15972900390625E-06	3.11291478283238E-06	667373.25	3.2700780138839E-05
1	176	83.825481788361	1.43142700195313	1.4312744140625	2.1038818359375E-06	3.01123213830579E-06	680301.75	3.29154681821819E-05
1	177	83.9261897881067	1.42135620117188	1.42120361328125	2.05413818359375E-06	2.91934861706977E-06	691873.4375	3.31248411384877E-05
1	178	84.0268977878525	1.41128540039063	1.41143798828125	2.010498046875E-06	2.8376932732499E-06	702034	3.33295138261747E-05
1	179	84.1276057875982	1.40121459960938	1.4007568359375	1.9708251953125E-06	2.76064679383126E-06	710746.375	3.35299882863183E-05
1	180	84.228313787344	1.39114379882813	1.3909912109375	1.93511962890625E-06	2.69173438027792E-06	718814.0625	3.37266683345661E-05
1	181	84.3290217870897	1.38107299804688	1.38153076171875	1.9036865234375E-06	2.63000129052671E-06	725713.375	3.39199687005021E-05
1	182	84.4297297868354	1.37100219726563	1.37115478515625	1.873779296875E-06	2.56924136010639E-06	731758.9375	3.41101767844521E-05
1	183	84.5304377865812	1.36093139648438	1.36077880859375	1.84783935546875E-06	2.5145004656224E-06	736416.25	3.4297576348763E-05
1	184	84.6311457863269	1.35086059570313	1.3507080078125	1.82464599609375E-06	2.46456397690054E-06	740257.5625	3.4482502087485E-05
1	185	84.7318537860726	1.34078979492188	1.34124755859375	1.802978515625E-06	2.41824045588146E-06	743906.625	3.46651650033891E-05
1	186	84.8325617858184	1.33071899414063	1.33056640625	1.78253173828125E-06	2.37177687267831E-06	746447.5	3.48457106156275E-05
1	187	84.9332697855641	1.32064819335938	1.32110595703125	1.76300048828125E-06	2.32911042985506E-06	749350.875	3.50242444255855E-05
1	188	85.0339777853098	1.31057739257813	1.31103515625	1.744384765625E-06	2.286949666086E-06	751574.5625	3.52008537447546E-05
1	189	85.1346857850556	1.30050659179688	1.30096435546875	1.72607421875E-06	2.24556106331875E-06	753712.875	3.53756040567532E-05
1	190	85.2353937848013	1.29043579101563	1.28997802734375	1.70867919921875E-06	2.20415859075729E-06	754956.25	3.55485572072212E-05
1	191	85.3361017845471	1.28036499023438	1.28082275390625	1.69219970703125E-06	2.16740795622172E-06	756898.125	3.57198077836074E-05
1	192	85.4368097842928	1.27029418945313	1.27044677734375	1.6766357421875E-06	2.1300763819454E-06	757735.6875	3.58894394594245E-05
1	193	85.5375177840385	1.26022338867188	1.26068115234375	1.661376953125E-06	2.09446648113953E-06	758817.0625	3.60575213562697E-05
1	194	85.6382257837843	1.25015258789063	1.25030517578125	1.6461181640625E-06	2.05814990295039E-06	759547.6875	3.62240680260584E-05
1	195	85.73893378353	1.24008178710938	1.23992919921875	1.6314697265625E-06	2.02290698325669E-06	760007.5	3.63891085726209E-05
1	196	85.8396417832757	1.23001098632813	1.2298583984375	1.61773681640625E-06	1.98958719010989E-06	760233.9375	3.65527193935122E-05
1	197	85.9403497830215	1.21994018554688	1.2200927734375	1.60400390625E-06	1.95703341887565E-06	760654.5	3.67149477824569E-05
1	198	86.0410577827672	1.20986938476563	1.21002197265625	1.5899658203125E-06	1.92389347830613E-06	761036.5	3.68757755495608E-05
1	199	86.1417657825129	1.19979858398438	1.199951171875	1.5765380859375E-06	1.89176864751062E-06	761130.5	3.7035220884718E-05
1	200	86.2424737822587	1.18972778320313	1.1895751953125	1.5631103515625E-06	1.85943724773097E-06	761030.875	3.71933165297378E-05
1	201	86.3431817820044	1.17965698242188	1.17950439453125	1.5496826171875E-06	1.82785743163549E-06	761126.4375	3.73500588466413E-05
1	202	86.4438897817502	1.16958618164063	1.16912841796875	1.536865234375E-06	1.79679273060174E-06	760722.8125	3.75054769392591E-05
1	203	86.5445977814959	1.15951538085938	1.15966796875	1.52374267578125E-06	1.76703554188862E-06	761065.5	3.76595926354639E-05
1	204	86.6453057812416	1.14944458007813	1.1492919921875	1.5106201171875E-06	1.7361436448482E-06	760808.0625	3.7812384107383E-05
1	205	86.7460137809874	1.13937377929688	1.1395263671875	1.49749755859375E-06	1.70643784258573E-06	760953.8125	3.7963854992995E-05
1	206	86.8467217807331	1.12930297851563	1.1297607421875	1.48468017578125E-06	1.67733333000797E-06	760945.5	3.81140198442154E-05
1	207	86.9474297804788	1.11923217773438	1.119384765625	1.4715576171875E-06	1.647239059821E-06	760680.25	3.82628786610439E-05
1	208	87.0481377802246	1.10916137695313	1.10870361328125	1.4581298828125E-06	1.61663388098532E-06	760360	3.84103987016715E-05
1	209	87.1488457799703	1.09909057617188	1.0992431640625	1.44561767578125E-06	1.58908528646862E-06	760396.9375	3.85566127079073E-05
1	210	87.2495537797161	1.08901977539063	1.0888671875	1.43218994140625E-06	1.5594646356476E-06	760281.25	3.87015243177302E-05
1	211	87.3502617794618	1.07894897460938	1.0784912109375	1.4190673828125E-06	1.53045164097421E-06	760000.0625	3.88450935133733E-05
1	212	87.4509697792075	1.06887817382813	1.06903076171875	1.40625E-06	1.50332448356494E-06	760199.625	3.89873603126034E-05
1	213	87.5516777789533	1.05880737304688	1.0589599609375	1.39312744140625E-06	1.47526611726789E-06	760131.5	3.91283210774418E-05
1	214	87.652385778699	1.04873657226563	1.0491943359375	1.38031005859375E-06	1.44821342473733E-06	760115	3.92679758078884E-05
1	215	87.7530937784447	1.03866577148438	1.0382080078125	1.36688232421875E-06	1.41910811635171E-06	759544.5625	3.94063063140493E-05
1	216	87.8538017781905	1.02859497070313	1.0284423828125	1.3531494140625E-06	1.39163614676363E-06	760036.0625	3.95432725781575E-05
1	217	87.9545097779362	1.01852416992188	1.01898193359375	1.339111328125E-06	1.36453024879302E-06	760938.9375	3.9678838220425E-05
1	218	88.0552177776819	1.00845336914063	1.00860595703125	1.324462890625E-06	1.33586104311689E-06	761520.8125	3.9812959585106E-05
1	219	88.1559257774277	0.998382568359375	0.99853515625	1.30889892578125E-06	1.30698151679098E-06	762881.8125	3.99455602746457E-05
1	220	88.2566337771734	0.988311767578125	0.98846435546875	1.29180908203125E-06	1.27690725548746E-06	765178.375	4.00765165977646E-05
1	221	88.3573417769192	0.978240966796875	0.9783935546875	1.2725830078125E-06	1.2450869917302E-06	768825	4.02056430175435E-05
1	222	88.4580497766649	0.968170166015625	0.968017578125	1.2493896484375E-06	1.20943104775506E-06	774792.4375	4.03326339437626E-05
1	223	88.5587577764106	0.958099365234375	0.95794677734375	1.22222900390625E-06	1.17083038730925E-06	783770.3125	4.04570891987532E-05
1	224	88.6594657761564	0.948028564453125	0.94818115234375	1.18865966796875E-06	1.12706470645207E-06	797689.375	4.05784885515459E-05
1	225	88.7601737759021	0.937957763671875	0.93780517578125	1.1456298828125E-06	1.07437767837837E-06	818593.5	4.06960280088242E-05
1	226	88.8608817756478	0.927886962890625	0.9283447265625	1.0894775390625E-06	1.01141074537736E-06	852100.8125	4.08085761591792E-05
1	227	88.9615897753936	0.917816162109375	0.91827392578125	1.0174560546875E-06	9.34303329813702E-07	902519.5	4.09146668971516E-05
1	228	89.0622977751393	0.907745361328125	0.9075927734375	9.259033203125E-07	8.40343147956446E-07	980224.125	4.10125248890836E-05
1	229	89.1630057748851	0.897674560546875	0.89813232421875	8.11767578125E-07	7.29074713490263E-07	1106391	4.11000219173729E-05
1	230	89.2637137746308	0.887603759765625	0.88775634765625	6.756591796875E-07	5.99820737079426E-07	1313911.5	4.11749206250533E-05
1	231	89.3644217743765	0.877532958984375	0.87799072265625	5.22460937499999E-07	4.58715845752522E-07	1680490.625	4.12352492276113E-05
1	232	89.4651297741223	0.867462158203125	0.86822509765625	3.62548828125001E-07	3.14773984655403E-07	2394781	4.12798144679982E-05
1	233	89.565837773868	0.857391357421875	0.85723876953125	2.09960937500001E-07	1.79986656689834E-07	4082849	4.13086418120656E-05
1	234	89.6665457736137	0.847320556640625	0.84747314453125	7.90405273437503E-08	6.69847253220723E-08	10722008	4.1323193727294E-05
1	235	89.7672537733595	0.837249755859375	0.83770751953125	-2.07519531250006E-08	-1.7384067518833E-08	-40367648	4.13261295761913E-05
1	236	89.8679617731052	0.827178955078125	0.8270263671875	-8.30078124999995E-08	-6.86496477442233E-08	-9963235	4.13209054386243E-05
1	237	89.9686697728509	0.817108154296875	0.81787109375	-1.1260986328125E-07	-9.21003504572582E-08	-7262873	4.13110537920147E-05
1	238	90.0693777725967	0.807037353515625	0.806884765625	-1.1566162109375E-07	-9.33256032453755E-08	-6976253.5	4.12995614169631E-05
1	239	90.1700857723424	0.796966552734375	0.797119140625	-1.019287109375E-07	-8.12493254898072E-08	-7820359.5	4.12886038247962E-05
1	240	90.2707937720882	0.786895751953125	0.787353515625	-7.99560546874995E-08	-6.29536813789855E-08	-9847329	4.12794470321387E-05
1	241	90.3715017718339	0.776824951171875	0.77728271484375	-6.04248046875006E-08	-4.69671554981232E-08	-12863637	4.12723784393165E-05
1	242	90.4722097715796	0.766754150390625	0.7672119140625	-5.18798828125E-08	-3.98028632275782E-08	-14788236	4.12667213822715E-05
1	243	90.5729177713254	0.756683349609375	0.75714111328125	-6.34765625000006E-08	-4.80607162955948E-08	-11927885	4.12609115301166E-05
1	244	90.6736257710711	0.746612548828125	0.746551513671875	-9.918212890625E-08	-7.4044564257747E-08	-7527077.5	4.12527224398218E-05
1	245	90.7743337708168	0.736541748046875	0.736480712890625	-1.6448974609375E-07	-1.21143528986067E-07	-4477365.5	4.12394438171759E-05
1	246	90.8750417705626	0.726470947265625	0.726409912109375	-2.5970458984375E-07	-1.88651995358669E-07	-2797062.25	4.12180852435995E-05
1	247	90.9757497703083	0.716400146484375	0.71630859375	-3.8330078125E-07	-2.74561642754634E-07	-1868789.875	4.11857072322164E-05
1	248	91.076457770054	0.706329345703125	0.706298828125	-5.2490234375E-07	-3.70737893717887E-07	-1345581.5	4.11399778386112E-05
1	249	91.1771657697998	0.696258544921875	0.696136474609375	-6.73522949218749E-07	-4.68863902369776E-07	-1033575	4.10796310461592E-05
1	250	91.2778737695455	0.686187744140625	0.68609619140625	-8.087158203125E-07	-5.54856853796082E-07	-848377.375	4.10049942729529E-05
1	251	91.3785817692913	0.676116943359375	0.676025390625	-9.161376953125E-07	-6.19332297446817E-07	-737908.125	4.09181411669124E-05
1	252	91.479289769037	0.666046142578125	0.665985107421875	-9.844970703125E-07	-6.5566041484999E-07	-676472.375	4.08224368584342E-05
1	253	91.5799977687827	0.655975341796875	0.65594482421875	-1.01287841796875E-06	-6.64392359794874E-07	-647604.6875	4.07218612963334E-05
1	254	91.6807057685285	0.645904541015625	0.6458740234375	-1.00555419921875E-06	-6.49461298962706E-07	-642306.5625	4.06202234444208E-05
1	255	91.7814137682742	0.635833740234375	0.6358642578125	-9.722900390625E-07	-6.18244428096659E-07	-653986.25	4.05206301365979E-05
1	256	91.8821217680199	0.625762939453125	0.625701904296875	-9.21630859375E-07	-5.76666138840665E-07	-678907.3125	4.04252641601488E-05
1	257	91.9828297677657	0.615692138671875	0.61572265625	-8.6334228515625E-07	-5.31579416929162E-07	-713184.875	4.03353842557408E-05
1	258	92.0835377675114	0.605621337890625	0.605621337890625	-8.026123046875E-07	-4.86079159145447E-07	-754562.75	4.02514961024281E-05
1	259	92.1842457672572	0.595550537109375	0.5955810546875	-7.421875E-07	-4.42032785485935E-07	-802467.125	4.01737088395748E-05
1	260	92.2849537670029	0.585479736328125	0.58544921875	-6.854248046875E-07	-4.01281397444109E-07	-854140.75	4.01018260163255E-05
1	261	92.3856617667486	0.575408935546875	0.575439453125	-6.32629394531251E-07	-3.64039919986681E-07	-909599.625	4.00354547309689E-05
1	262	92.4863697664944	0.565338134765625	0.5653076171875	-5.8349609375E-07	-3.2985479947456E-07	-968828.4375	3.99742166337091E-05
1	263	92.5870777662401	0.555267333984375	0.55523681640625	-5.3985595703125E-07	-2.99747881626899E-07	-1028490.75	3.99176533392165E-05
1	264	92.6877857659858	0.545196533203125	0.545135498046875	-4.99572753906249E-07	-2.72334858664181E-07	-1091203.375	3.98653137381189E-05
1	265	92.7884937657316	0.535125732421875	0.53515625	-4.63256835937501E-07	-2.4791478381303E-07	-1155204.25	3.98168303945567E-05
1	266	92.8892017654773	0.525054931640625	0.52508544921875	-4.29687500000001E-07	-2.25622656557789E-07	-1222017	3.97718686144799E-05
1	267	92.989909765223	0.514984130859375	0.514923095703125	-3.985595703125E-07	-2.05227522087625E-07	-1291960.25	3.97301628254354E-05
1	268	93.0906177649688	0.504913330078125	0.504852294921875	-3.6956787109375E-07	-1.8657718214854E-07	-1366061.125	3.96914838347584E-05
1	269	93.1913257647145	0.494842529296875	0.494903564453125	-3.4149169921875E-07	-1.69005460293192E-07	-1449240.375	3.9655678847339E-05
1	270	93.2920337644603	0.484771728515625	0.484710693359375	-3.1463623046875E-07	-1.52507539041835E-07	-1540543.25	3.96226423617918E-05
1	271	93.392741764206	0.474700927734375	0.47467041015625	-2.886962890625E-07	-1.37035570446642E-07	-1644186.125	3.95922616007738E-05
1	272	93.4934497639517	0.464630126953125	0.464630126953125	-2.62451171875E-07	-1.21942719033541E-07	-1770349	3.95645074604545E-05
1	273	93.5941577636975	0.454559326171875	0.45458984375	-2.38037109375E-07	-1.08209249560787E-07	-1909743.625	3.95393071812578E-05
1	274	93.6948657634432	0.444488525390625	0.444488525390625	-2.14538574218751E-07	-9.53599368358482E-08	-2071835	3.95165188820101E-05
1	275	93.7955737631889	0.434417724609375	0.434356689453125	-1.91650390625001E-07	-8.32446289678046E-08	-2266401.25	3.94960661651567E-05
1	276	93.8962817629347	0.424346923828125	0.42431640625	-1.71508789062499E-07	-7.27739930539428E-08	-2474021.25	3.94777780456934E-05
1	277	93.9969897626804	0.414276123046875	0.41424560546875	-1.5289306640625E-07	-6.33352783552255E-08	-2709381.25	3.94614435208496E-05
1	278	94.0976977624262	0.404205322265625	0.40423583984375	-1.36413574218749E-07	-5.5143257071677E-08	-2963311	3.94468734157272E-05
1	279	94.1984057621719	0.394134521484375	0.3941650390625	-1.20849609375E-07	-4.76346890820878E-08	-3261616.25	3.94339222111739E-05
1	280	94.2991137619176	0.384063720703125	0.384063720703125	-1.0711669921875E-07	-4.11396392507868E-08	-3585470.25	3.94224407500587E-05
1	281	94.3998217616634	0.373992919921875	0.373992919921875	-9.42993164062503E-08	-3.52672770986828E-08	-3966019.5	3.94122980651446E-05
1	282	94.5005297614091	0.363922119140625	0.363922119140625	-8.27026367187497E-08	-3.00973184153008E-08	-4400369	3.9403388655046E-05
1	283	94.6012377611548	0.353851318359375	0.353851318359375	-7.20214843749997E-08	-2.5484897747674E-08	-4913135.5	3.93955961044412E-05
1	284	94.7019457609006	0.343780517578125	0.343841552734375	-6.22558593750003E-08	-2.14061515180219E-08	-5523039.5	3.93888331018388E-05
1	285	94.8026537606463	0.333709716796875	0.333709716796875	-5.27954101562506E-08	-1.76183405642405E-08	-6320809.5	3.93830414395779E-05
1	286	94.903361760392	0.323638916015625	0.32366943359375	-4.48608398437494E-08	-1.45200829138048E-08	-7214966	3.93781228922307E-05
1	287	95.0040697601378	0.313568115234375	0.3135986328125	-3.75366210937506E-08	-1.17714327174667E-08	-8354472	3.93739755963907E-05
1	288	95.1047777598835	0.303497314453125	0.303497314453125	-3.0517578125E-08	-9.26200272033384E-09	-9945001	3.93705486203544E-05
1	289	95.2054857596293	0.293426513671875	0.29345703125	-2.47192382812497E-08	-7.25403426216076E-09	-11871605	3.9367765566567E-05
1	290	95.306193759375	0.283355712890625	0.28338623046875	-1.89208984374994E-08	-5.36192201749941E-09	-14977419	3.93655682273675E-05
1	291	95.4069017591207	0.273284912109375	0.27325439453125	-1.40380859374997E-08	-3.8359684317868E-09	-19465218	3.93639093090314E-05
1	292	95.5076097588665	0.263214111328125	0.263153076171875	-9.46044921874972E-09	-2.48954634685106E-09	-27816128	3.93627269659191E-05
1	293	95.6083177586122	0.253143310546875	0.253173828125	-6.71386718749945E-09	-1.69977532049614E-09	-37709092	3.93619120586663E-05
1	294	95.7090257583579	0.243072509765625	0.2430419921875	-3.96728515625056E-09	-9.64216928522887E-10	-61261540	3.93613736378029E-05
1	295	95.8097337581037	0.233001708984375	0.2330322265625	-2.44140625000056E-09	-5.68926294963745E-10	-95450000	3.93610498576891E-05
1	296	95.9104417578494	0.222930908203125	0.222930908203125	-1.22070312500028E-09	-2.72132455458873E-10	-182625008	3.93608679587487E-05
1	297	96.0111497575951	0.212860107421875	0.212890625	-9.15527343750555E-10	-1.94907187611726E-10	-232533344	3.93607588193845E-05
1	298	96.1118577573409	0.202789306640625	0.20281982421875	-2.74658203125028E-09	-5.57061285988425E-10	-73844440	3.93605769204441E-05
1	299	96.2125657570866	0.192718505859375	0.192779541015625	-4.57763671875E-09	-8.82474648911113E-10	-42113336	3.93602058466058E-05
1	300	96.3132737568324	0.182647705078125	0.18267822265625	-8.54492187500056E-09	-1.56097113013232E-09	-21378570	3.93595437344629E-05
1	301	96.4139817565781	0.172576904296875	0.172607421875	-1.49536132812503E-08	-2.58110466333505E-09	-11542857	3.93583613913506E-05
1	302	96.5146897563238	0.162506103515625	0.162567138671875	-2.47192382812497E-08	-4.01853572640221E-09	-6576543	3.93563641409855E-05
1	303	96.6153977560696	0.152435302734375	0.1524658203125	-3.84521484374997E-08	-5.86263793067587E-09	-3965079.5	3.93531845475081E-05
1	304	96.7161057558153	0.142364501953125	0.14239501953125	-5.82885742187497E-08	-8.30000246310192E-09	-2442932	3.93483132938854E-05
1	305	96.816813755561	0.132293701171875	0.13226318359375	-8.66699218750003E-08	-1.14632392467229E-08	-1526056.375	3.93410118704196E-05
1	306	96.9175217553068	0.122222900390625	0.122283935546875	-1.2664794921875E-07	-1.54870090085524E-08	-965542.1875	3.93302725569811E-05
1	307	97.0182297550525	0.112152099609375	0.1121826171875	-1.83715820312499E-07	-2.060972015272E-08	-610631.25	3.93146438000258E-05
1	308	97.1189377547983	0.102081298828125	0.10211181640625	-2.6123046875E-07	-2.66747175459159E-08	-390887.84375	3.92922374885529E-05
1	309	97.219645754544	0.092010498046875	0.092010498046875	-3.680419921875E-07	-3.38637242691675E-08	-250000	3.92605506931432E-05
1	310	97.3203537542897	0.081939697265625	0.082000732421875	-5.08728027343749E-07	-4.17160705978858E-08	-161187.765625	3.92164038203191E-05
1	311	97.4210617540355	0.071868896484375	0.0718994140625	-6.878662109375E-07	-4.94571743558936E-08	-104525.2890625	3.9156151615316E-05
1	312	97.5217697537812	0.061798095703125	0.061798095703125	-9.03930664062499E-07	-5.58611930046027E-08	-68365.96875	3.90759960282594E-05
1	313	97.6224777535269	0.051727294921875	0.051788330078125	-1.14898681640625E-06	-5.95041100837079E-08	-45073.0390625	3.89726228604559E-05
1	314	97.7231857532727	0.041656494140625	0.0417266845703125	-1.40411376953125E-06	-5.85890127524635E-08	-29717.455078125	3.88440639653709E-05
1	315	97.8238937530184	0.031585693359375	0.031683349609375	-1.64642333984375E-06	-5.21642000705924E-08	-19243.744140625	3.8690457586199E-05
1	316	97.9246017527641	0.021514892578125	0.0216278076171875	-1.84722900390625E-06	-3.99515123206129E-08	-11708.244140625	3.85145394830033E-05
1	317	98.0253097525099	0.011444091796875	0.01151123046875	-1.99066162109375E-06	-2.29149641484128E-08	-5782.61572265625	3.83212864107918E-05
1	318	98.1260177522556	0.001373291015625	0.001483154296875	-2.0684814453125E-06	-3.06787684145604E-09	-717.025695800781	3.8116893847473E-05
1	319	98.2267257520014	-0.008697509765625	-0.008575439453125	-2.08587646484375E-06	1.78873058587214E-08	4111.19287109375	3.79077027901076E-05
1	320	98.3274337517471	-0.018768310546875	-0.01865234375	-2.05810546875E-06	3.83884888321973E-08	9062.87109375	3.76990392396692E-05
1	321	98.4281417514928	-0.028839111328125	-0.0287078857421875	-2.00042724609375E-06	5.7428035660223E-08	14350.8779296875	3.74946757801808E-05
1	322	98.5288497512386	-0.038909912109375	-0.038751220703125	-1.927490234375E-06	7.46925934436149E-08	20104.498046875	3.72968861483969E-05
1	323	98.6295577509843	-0.048980712890625	-0.048828125	-1.8487548828125E-06	9.02712358197277E-08	26411.357421875	3.71067399100866E-05
1	324	98.73026575073	-0.059051513671875	-0.058990478515625	-1.7718505859375E-06	1.04522307253774E-07	33293.14453125	3.6924426240148E-05
1	325	98.8309737504758	-0.069122314453125	-0.06903076171875	-1.69921875E-06	1.17298363022655E-07	40625	3.67496431863401E-05
1	326	98.9316817502215	-0.079193115234375	-0.079193115234375	-1.6339111328125E-06	1.29394507553116E-07	48468.4375	3.65818086720537E-05
1	327	99.0323897499673	-0.089263916015625	-0.089141845703125	-1.57470703125E-06	1.40372279133771E-07	56608.52734375	3.6420242395252E-05
1	328	99.133097749713	-0.099334716796875	-0.0992431640625	-1.522216796875E-06	1.51069599496623E-07	65196.47265625	3.6264300433686E-05
1	329	99.2338057494587	-0.109405517578125	-0.10931396484375	-1.4776611328125E-06	1.61528987518977E-07	73977.703125	3.61132442776579E-05
1	330	99.3345137492045	-0.119476318359375	-0.119384765625	-1.43829345703125E-06	1.71710325957974E-07	83004.453125	3.59664118150249E-05
1	331	99.4352217489502	-0.129547119140625	-0.12945556640625	-1.4044189453125E-06	1.81809838295521E-07	92177.3203125	3.58232719008811E-05
1	332	99.5359297486959	-0.139617919921875	-0.139556884765625	-1.37542724609375E-06	1.91950334738067E-07	101464.390625	3.56832933903206E-05
1	333	99.6366377484417	-0.149688720703125	-0.14959716796875	-1.34979248046875E-06	2.01925132614633E-07	110829.7578125	3.55460688297171E-05
1	334	99.7373457481874	-0.159759521484375	-0.159637451171875	-1.3287353515625E-06	2.12115907061161E-07	120142.40625	3.5411194403423E-05
1	335	99.8380537479331	-0.169830322265625	-0.169708251953125	-1.31103515625E-06	2.2249348319292E-07	129446	3.52782699337695E-05
1	336	99.9387617476789	-0.179901123046875	-0.179779052734375	-1.29669189453125E-06	2.33118029768775E-07	138644.390625	3.51469607267063E-05
1	337	100.039469747425	-0.189971923828125	-0.189788818359375	-1.28448486328125E-06	2.43780846176378E-07	147754.8125	3.50169902958442E-05
1	338	100.14017774717	-0.200042724609375	-0.19989013671875	-1.27532958984375E-06	2.54925794251903E-07	156736.078125	3.48880930687301E-05
1	339	100.240885746916	-0.189971923828125	-0.189727783203125	-1.13189697265625E-06	2.14752304827925E-07	167619.3125	3.47668792528566E-05
2	340	100.341593746662	-0.179901123046875	-0.179840087890625	-1.03240966796875E-06	1.85668639574033E-07	174194.515625	3.46578963217326E-05
2	341	100.442301746408	-0.169830322265625	-0.16973876953125	-9.5245361328125E-07	1.6166829652775E-07	178212.109375	3.45579501299653E-05
2	342	100.543009746153	-0.159759521484375	-0.159637451171875	-8.85009765625E-07	1.41280693810586E-07	180379.3125	3.44654290529434E-05
2	343	100.643717745899	-0.149688720703125	-0.149627685546875	-8.251953125E-07	1.23472062796282E-07	181323.96875	3.43793108186219E-05
2	344	100.744425745645	-0.139617919921875	-0.13946533203125	-7.720947265625E-07	1.07680449445979E-07	180632.40625	3.42988823831547E-05
2	345	100.845133745391	-0.129547119140625	-0.129486083984375	-7.2357177734375E-07	9.36924706707032E-08	178954.03125	3.42235689458903E-05
2	346	100.945841745136	-0.119476318359375	-0.119384765625	-6.787109375E-07	8.10277427376604E-08	175899.28125	3.41529594152234E-05
2	347	101.046549744882	-0.109405517578125	-0.1092529296875	-6.34765625E-07	6.93500012971526E-08	172115.390625	3.40868209605105E-05
2	348	101.147257744628	-0.099334716796875	-0.099334716796875	-5.9326171875E-07	5.89314801402452E-08	167438.28125	3.40249862347264E-05
2	349	101.247965744373	-0.089263916015625	-0.0892333984375	-5.5084228515625E-07	4.91535310231939E-08	161994.453125	3.39673752023373E-05
2	350	101.348673744119	-0.079193115234375	-0.079132080078125	-5.078125E-07	4.01842612518521E-08	155829.328125	3.3914067898877E-05
2	351	101.449381743865	-0.069122314453125	-0.069091796875	-4.58984375E-07	3.17120552040251E-08	150531.921875	3.38653844664805E-05
2	352	101.550089743611	-0.059051513671875	-0.058990478515625	-4.04968261718749E-07	2.3889271005828E-08	145666.921875	3.38218815159053E-05
2	353	101.650797743356	-0.048980712890625	-0.0488189697265625	-3.39355468749999E-07	1.65669842289162E-08	143857.90625	3.37844030582346E-05
2	354	101.751505743102	-0.038909912109375	-0.0387603759765625	-2.581787109375E-07	1.00071035902261E-08	150130.015625	3.37543133355211E-05
2	355	101.852213742848	-0.028839111328125	-0.0287445068359375	-1.556396484375E-07	4.4737848980958E-09	184686.296875	3.37334749929141E-05
2	356	101.952921742594	-0.018768310546875	-0.0186767578125	-2.50244140624994E-08	4.67374916546248E-10	746341.5	3.37243800458964E-05
2	357	102.053629742339	-0.008697509765625	-0.0085601806640625	1.4007568359375E-07	-1.19907317408519E-09	-61111.109375	3.37301717081573E-05
2	358	102.154337742085	0.001373291015625	0.00144042968749999	3.43017578125E-07	4.94092711189609E-10	4199.28857421875	3.37544988724403E-05
2	359	102.255045741831	0.011444091796875	0.011553955078125	5.810546875E-07	6.71347955005785E-09	19884.455078125	3.3801028621383E-05
2	360	102.355753741577	0.021514892578125	0.0216064453125	8.4381103515625E-07	1.82317556607359E-08	25605.787109375	3.38727768394165E-05
2	361	102.456461741322	0.031585693359375	0.031683349609375	1.11175537109375E-06	3.52241293910538E-08	28498.490234375	3.3971246011788E-05
2	362	102.557169741068	0.041656494140625	0.041766357421875	1.36016845703125E-06	5.68092808350684E-08	30706.75390625	3.40957194566727E-05
2	363	102.657877740814	0.051727294921875	0.051788330078125	1.5631103515625E-06	8.09508762245059E-08	33131.58984375	3.42429157171864E-05
2	364	102.75858574056	0.061798095703125	0.061859130859375	1.7059326171875E-06	1.05527512062054E-07	36261.1796875	3.44075269822497E-05
2	365	102.859293740305	0.071868896484375	0.071929931640625	1.78375244140625E-06	1.28305188695776E-07	40325.06640625	3.4583244996611E-05
2	366	102.960001740051	0.081939697265625	0.08203125	1.80450439453125E-06	1.48025748103464E-07	45459.16015625	3.4763928852044E-05
2	367	103.060709739797	0.092010498046875	0.092071533203125	1.7816162109375E-06	1.64036137562107E-07	51678.65625	3.49445035681129E-05
2	368	103.161417739542	0.102081298828125	0.10205078125	1.73126220703125E-06	1.76676650198715E-07	58945.88671875	3.51213930116501E-05
2	369	103.262125739288	0.112152099609375	0.112213134765625	1.6668701171875E-06	1.8704471926867E-07	67319.6640625	3.52925017068628E-05
2	370	103.362833739034	0.122222900390625	0.122314453125	1.597900390625E-06	1.9544630447399E-07	76546.984375	3.54568946931977E-05
2	371	103.46354173878	0.132293701171875	0.13232421875	1.5289306640625E-06	2.02314552666394E-07	86546.90625	3.56143427779898E-05
2	372	103.564249738525	0.142364501953125	0.142364501953125	1.46514892578125E-06	2.0858519178546E-07	97167.2578125	3.57651078957133E-05
2	373	103.664957738271	0.152435302734375	0.15240478515625	1.4056396484375E-06	2.14226204775514E-07	108423.796875	3.59096629836131E-05
2	374	103.765665738017	0.162506103515625	0.16253662109375	1.3531494140625E-06	2.19936325152048E-07	120117.2734375	3.60485792043619E-05
2	375	103.866373737763	0.172576904296875	0.172637939453125	1.30645751953125E-06	2.25544141585488E-07	132142.015625	3.61825004802085E-05
2	376	103.967081737508	0.182647705078125	0.18267822265625	1.2646484375E-06	2.31023719265977E-07	144449.8125	3.63119652320165E-05
2	377	104.067789737254	0.192718505859375	0.1927490234375	1.22894287109375E-06	2.36877539805391E-07	156841.3125	3.64375300705433E-05
2	378	104.168497737	0.202789306640625	0.20281982421875	1.1968994140625E-06	2.42754907731069E-07	169454.375	3.65596788469702E-05
2	379	104.269205736746	0.212860107421875	0.21282958984375	1.1688232421875E-06	2.48760159138328E-07	182088.765625	3.66788044630084E-05
2	380	104.369913736491	0.222930908203125	0.222991943359375	1.14349365234375E-06	2.5498985678496E-07	195009.34375	3.67952379747294E-05
2	381	104.470621736237	0.233001708984375	0.233001708984375	1.1212158203125E-06	2.61245190813497E-07	207811.65625	3.69092740584165E-05
2	382	104.571329735983	0.243072509765625	0.2430419921875	1.10137939453125E-06	2.67681429022559E-07	220670.5625	3.70211928384379E-05
2	383	104.672037735729	0.253143310546875	0.253173828125	1.08428955078125E-06	2.74513752174244E-07	233492.8125	3.713124897331E-05
2	384	104.772745735474	0.263214111328125	0.263214111328125	1.068115234375E-06	2.81143002212048E-07	246428.578125	3.72396316379309E-05
2	385	104.87345373522	0.273284912109375	0.273284912109375	1.05377197265625E-06	2.87979958102369E-07	259339.71875	3.73464754375163E-05
2	386	104.974161734966	0.283355712890625	0.283294677734375	1.0418701171875E-06	2.9515624078158E-07	271909.8125	3.74520022887737E-05
2	387	105.074869734711	0.293426513671875	0.293365478515625	1.03057861328125E-06	3.02336189861308E-07	284660.9375	3.75563577108551E-05
2	388	105.175577734457	0.303497314453125	0.303436279296875	1.02081298828125E-06	3.09751698068794E-07	297249.625	3.76596508431248E-05
2	389	105.276285734203	0.313568115234375	0.3135986328125	1.01165771484375E-06	3.17254460924232E-07	309984.9375	3.77619944629259E-05
2	390	105.376993733949	0.323638916015625	0.32366943359375	1.00341796875E-06	3.2477572631251E-07	322566.90625	3.78634613298345E-05
2	391	105.477701733694	0.333709716796875	0.333740234375	9.9639892578125E-07	3.32538377278979E-07	334946.4375	3.79641605832148E-05
2	392	105.57840973344	0.343780517578125	0.34375	9.906005859375E-07	3.40518965913361E-07	347011.6875	3.80642159143463E-05
2	393	105.679117733186	0.353851318359375	0.353912353515625	9.8541259765625E-07	3.4874969401244E-07	359151.4375	3.81637146347202E-05
2	394	105.779825732932	0.363922119140625	0.3638916015625	9.80529785156251E-07	3.56806538093224E-07	371117.34375	3.826270767604E-05
2	395	105.880533732677	0.373992919921875	0.373992919921875	9.765625E-07	3.65227435850102E-07	382968.78125	3.83612568839453E-05
2	396	105.981241732423	0.384063720703125	0.384063720703125	9.7381591796875E-07	3.74007356640504E-07	394390.5	3.84594641218428E-05
2	397	106.081949732169	0.394134521484375	0.394134521484375	9.716796875E-07	3.82972501711265E-07	405621.84375	3.85574276151601E-05
2	398	106.182657731915	0.404205322265625	0.404144287109375	9.69848632812501E-07	3.91958792533842E-07	416708.625	3.86551910196431E-05
2	399	106.28336573166	0.414276123046875	0.414306640625	9.6954345703125E-07	4.01688282636314E-07	427321.40625	3.87528489227407E-05
2	400	106.384073731406	0.424346923828125	0.424346923828125	9.686279296875E-07	4.11034250191733E-07	438090.75	3.88504413422197E-05
2	401	106.484781731152	0.434417724609375	0.434417724609375	9.6923828125E-07	4.21054295429713E-07	448205.28125	3.89480228477623E-05
2	402	106.585489730898	0.444488525390625	0.444427490234375	9.6954345703125E-07	4.30891731184602E-07	458388.4375	3.90456480090506E-05
2	403	106.686197730643	0.454559326171875	0.45458984375	9.7015380859375E-07	4.41022052655171E-07	468575.03125	3.91433204640634E-05
2	404	106.786905730389	0.464630126953125	0.464599609375	9.71069335937499E-07	4.51158427949849E-07	478441.25	3.92410656786524E-05
2	405	106.887613730135	0.474700927734375	0.474700927734375	9.72595214843749E-07	4.6169185452527E-07	488076.5625	3.93389382224996E-05
2	406	106.98832172988	0.484771728515625	0.484710693359375	9.747314453125E-07	4.72462716061273E-07	497276.15625	3.94369926652871E-05
2	407	107.089029729626	0.494842529296875	0.494781494140625	9.771728515625E-07	4.83487042401975E-07	506339.8125	3.95352799387183E-05
2	408	107.189737729372	0.504913330078125	0.504913330078125	9.80529785156251E-07	4.95082531415392E-07	514939.3125	3.96338582504541E-05
2	409	107.290445729118	0.514984130859375	0.5150146484375	9.8419189453125E-07	5.06873220729176E-07	523286.84375	3.97327894461341E-05
2	410	107.391153728863	0.525054931640625	0.52508544921875	9.88159179687501E-07	5.1886797791667E-07	531377.375	3.98321062675677E-05
2	411	107.491861728609	0.535125732421875	0.535064697265625	9.930419921875E-07	5.31341754594905E-07	538813.75	3.99318669224158E-05
2	412	107.592569728355	0.545196533203125	0.545135498046875	9.9945068359375E-07	5.44836041171948E-07	545435.125	4.00321987399366E-05
2	413	107.693277728101	0.555267333984375	0.555267333984375	1.00738525390625E-06	5.59368118047132E-07	551196.625	4.01332508772612E-05
2	414	107.793985727846	0.565338134765625	0.565338134765625	1.01654052734375E-06	5.74689124732686E-07	556139.3125	4.02351615775842E-05
2	415	107.894693727592	0.575408935546875	0.575439453125	1.029052734375E-06	5.92157505252544E-07	559193.375	4.03381673095282E-05
2	416	107.995401727338	0.585479736328125	0.585418701171875	1.044921875E-06	6.11716814091778E-07	560251.1875	4.04425991291646E-05
2	417	108.096109727084	0.595550537109375	0.5955810546875	1.06597900390625E-06	6.34876869298751E-07	558717.4375	4.05488899559714E-05
2	418	108.196817726829	0.605621337890625	0.60565185546875	1.09344482421875E-06	6.62246861793392E-07	553893.4375	4.06576255045366E-05
2	419	108.297525726575	0.615692138671875	0.615692138671875	1.131591796875E-06	6.96712106673658E-07	544093.875	4.07696679758374E-05
2	420	108.398233726321	0.625762939453125	0.625732421875	1.18316650390625E-06	7.40345569738565E-07	528862.5625	4.08862251788378E-05
2	421	108.498941726067	0.635833740234375	0.635833740234375	1.25244140625E-06	7.96344522768777E-07	507675.4375	4.10088650824036E-05
2	422	108.599649725812	0.645904541015625	0.645843505859375	1.34368896484375E-06	8.6781278696435E-07	480649.5625	4.11395922128577E-05
2	423	108.700357725558	0.655975341796875	0.65594482421875	1.4593505859375E-06	9.57253405431402E-07	449477.21875	4.12807348766364E-05
2	424	108.801065725304	0.666046142578125	0.66595458984375	1.59912109375E-06	1.06494201190799E-06	416450.375	4.1434741433477E-05
2	425	108.901773725049	0.676116943359375	0.67608642578125	1.75750732421875E-06	1.18822686090425E-06	384684.84375	4.16037619288545E-05
2	426	109.002481724795	0.686187744140625	0.68609619140625	1.92352294921875E-06	1.31972171857342E-06	356687.3125	4.17891169490758E-05
2	427	109.103189724541	0.696258544921875	0.69622802734375	2.0831298828125E-06	1.45033334320033E-06	334222.09375	4.19908683397807E-05
2	428	109.203897724287	0.706329345703125	0.706268310546875	2.2210693359375E-06	1.56867088207946E-06	317985.71875	4.22076009272132E-05
2	429	109.304605724032	0.716400146484375	0.71630859375	2.32452392578125E-06	1.66507641097269E-06	308152.8125	4.2436491639819E-05
2	430	109.405313723778	0.726470947265625	0.72637939453125	2.3895263671875E-06	1.73570265360468E-06	303984.6875	4.26738624810241E-05
2	431	109.506021723524	0.736541748046875	0.736419677734375	2.418212890625E-06	1.78081938884134E-06	304530.5625	4.2915951780742E-05
2	432	109.60672972327	0.746612548828125	0.746612548828125	2.420654296875E-06	1.80729080057063E-06	308434.1875	4.3159605411347E-05
2	433	109.707437723015	0.756683349609375	0.75714111328125	2.40509033203125E-06	1.82099279300019E-06	314807.78125	4.34026005677879E-05
2	434	109.808145722761	0.766754150390625	0.76690673828125	2.38311767578125E-06	1.82762892109167E-06	321808.1875	4.36437076132279E-05
2	435	109.908853722507	0.776824951171875	0.7769775390625	2.36175537109375E-06	1.83503084372205E-06	328983.0625	4.38826318713836E-05
2	436	110.009561722253	0.786895751953125	0.78704833984375	2.34893798828125E-06	1.84872760655708E-06	335065.625	4.41198317275848E-05
2	437	110.110269721998	0.796966552734375	0.797119140625	2.349853515625E-06	1.87311320587469E-06	339220.78125	4.43564349552616E-05
2	438	110.210977721744	0.807037353515625	0.8074951171875	2.369384765625E-06	1.91326648746326E-06	340803.71875	4.45940677309409E-05
2	439	110.31168572149	0.817108154296875	0.8172607421875	2.410888671875E-06	1.97032454707369E-06	338987.34375	4.48347745987121E-05
2	440	110.412393721236	0.827178955078125	0.82672119140625	2.4761962890625E-06	2.04712387130712E-06	333867.40625	4.50808583991602E-05
2	441	110.513101720981	0.837249755859375	0.83770751953125	2.5640869140625E-06	2.1479547740455E-06	326707.9375	4.53346583526582E-05
2	442	110.613809720727	0.847320556640625	0.84716796875	2.66876220703125E-06	2.26088968702243E-06	317438.53125	4.5598153519677E-05
2	443	110.714517720473	0.857391357421875	0.8575439453125	2.7783203125E-06	2.38253187490045E-06	308655.53125	4.58724352938589E-05
2	444	110.815225720218	0.867462158203125	0.8673095703125	2.8814697265625E-06	2.49912636718364E-06	300995.5625	4.61574272776488E-05
2	445	110.915933719964	0.877532958984375	0.87799072265625	2.9620361328125E-06	2.60064007306937E-06	296414.59375	4.64516706415452E-05
2	446	111.01664171971	0.887603759765625	0.88775634765625	3.013916015625E-06	2.67562290900969E-06	294552.46875	4.67525860585738E-05
2	447	111.117349719456	0.897674560546875	0.8978271484375	3.03466796875E-06	2.72460738415248E-06	295856.78125	4.70571540063247E-05
2	448	111.218057719201	0.907745361328125	0.9075927734375	3.0291748046875E-06	2.74925696430728E-06	299617.1875	4.73624932055827E-05
2	449	111.318765718947	0.917816162109375	0.91796875	3.00262451171875E-06	2.75631532531406E-06	305722.125	4.76662171422504E-05
2	450	111.419473718693	0.927886962890625	0.9283447265625	2.96295166015625E-06	2.75064053312235E-06	313317.53125	4.79666086903308E-05
2	451	111.520181718439	0.937957763671875	0.9381103515625	2.91778564453125E-06	2.73720502264041E-06	321514.5	4.82627292512916E-05
2	452	111.620889718184	0.948028564453125	0.948486328125	2.869873046875E-06	2.72203533313586E-06	330497.65625	4.85541604575701E-05
2	453	111.72159771793	0.958099365234375	0.95794677734375	2.823486328125E-06	2.70474947683397E-06	339278	4.88408441015054E-05
2	454	111.822305717676	0.968170166015625	0.9686279296875	2.77984619140625E-06	2.69263659902208E-06	348446.59375	4.9122994823847E-05
2	455	111.923013717422	0.978240966796875	0.9783935546875	2.7398681640625E-06	2.68066924036248E-06	357095.125	4.940093276673E-05
2	456	112.023721717167	0.988311767578125	0.9881591796875	2.70294189453125E-06	2.6709367375588E-06	365586.5625	4.96749999001622E-05
2	457	112.124429716913	0.998382568359375	0.99822998046875	2.66937255859375E-06	2.66464758169604E-06	373956.8125	4.99455163662788E-05
2	458	112.225137716659	1.00845336914063	1.00830078125	2.63885498046875E-06	2.66075949184597E-06	382097.84375	5.02128095831722E-05
2	459	112.325845716405	1.01852416992188	1.01837158203125	2.6123046875E-06	2.66029678641644E-06	389836.46875	5.04772251588292E-05
2	460	112.42655371615	1.02859497070313	1.0284423828125	2.587890625E-06	2.66149640992808E-06	397405.6875	5.07390759594273E-05
2	461	112.527261715896	1.03866577148438	1.03912353515625	2.56561279296875E-06	2.66598863163381E-06	405019.625	5.09985766257159E-05
2	462	112.627969715642	1.04873657226563	1.048583984375	2.5457763671875E-06	2.66946040028415E-06	411891.625	5.12559527123813E-05
2	463	112.728677715387	1.05880737304688	1.0589599609375	2.5274658203125E-06	2.67648510998697E-06	418980.9375	5.15114115842152E-05
2	464	112.829385715133	1.06887817382813	1.06842041015625	2.510986328125E-06	2.68278881776496E-06	425498.3125	5.17651169502642E-05
2	465	112.930093714879	1.07894897460938	1.0784912109375	2.4957275390625E-06	2.69162023869285E-06	432135	5.20172252436168E-05
2	466	113.030801714625	1.08901977539063	1.08917236328125	2.4822998046875E-06	2.70365239884995E-06	438775.5	5.22678892593831E-05
2	467	113.13150971437	1.09909057617188	1.0992431640625	2.46978759765625E-06	2.71489693659532E-06	445076.03125	5.25172472407576E-05
2	468	113.232217714116	1.10916137695313	1.1090087890625	2.45819091796875E-06	2.7261553441349E-06	451148.34375	5.27653901372105E-05
2	469	113.332925713862	1.11923217773438	1.11907958984375	2.44720458984375E-06	2.73861655841756E-06	457288.96875	5.30123979842756E-05
2	470	113.433633713608	1.12930297851563	1.12945556640625	2.43804931640625E-06	2.75366824098455E-06	463262	5.32583908352535E-05
2	471	113.534341713353	1.13937377929688	1.1395263671875	2.42919921875E-06	2.76813648270036E-06	469095.46875	5.35034741915297E-05
2	472	113.635049713099	1.14944458007813	1.14990234375	2.42156982421875E-06	2.78456855085096E-06	474858.25	5.37477317266166E-05
2	473	113.735757712845	1.15951538085938	1.15966796875	2.41424560546875E-06	2.79972323369293E-06	480343.84375	5.39912325621117E-05
2	474	113.836465712591	1.16958618164063	1.16973876953125	2.408447265625E-06	2.81725419881695E-06	485681.71875	5.42340749234427E-05
2	475	113.937173712336	1.17965698242188	1.1798095703125	2.403564453125E-06	2.83574831883016E-06	490858.3125	5.44763788639102E-05
2	476	114.037881712082	1.18972778320313	1.18988037109375	2.3992919921875E-06	2.85487044493493E-06	495929.78125	5.47182207810692E-05
2	477	114.138589711828	1.19979858398438	1.19964599609375	2.39593505859375E-06	2.87427405964991E-06	500700.53125	5.49596807104535E-05
2	478	114.239297711573	1.20986938476563	1.21063232421875	2.392578125E-06	2.89653235086007E-06	505994.90625	5.52008023078088E-05
2	479	114.340005711319	1.21994018554688	1.2200927734375	2.3907470703125E-06	2.91693322651554E-06	510339.53125	5.54416619706899E-05
2	480	114.440713711065	1.23001098632813	1.23016357421875	2.39013671875E-06	2.94025903713191E-06	514683.375	5.56823979422916E-05
2	481	114.541421710811	1.24008178710938	1.240234375	2.39013671875E-06	2.96432949653536E-06	518896.84375	5.59231048100628E-05
2	482	114.642129710556	1.25015258789063	1.25030517578125	2.391357421875E-06	2.98992654279573E-06	522843.28125	5.61638698854949E-05
2	483	114.742837710302	1.26022338867188	1.26007080078125	2.3931884765625E-06	3.01558679893787E-06	526523.875	5.64047913940158E-05
2	484	114.843545710048	1.27029418945313	1.2701416015625	2.39532470703125E-06	3.04240143123025E-06	530258.625	5.6645912991371E-05
2	485	114.944253709794	1.28036499023438	1.28021240234375	2.39898681640625E-06	3.07121240439301E-06	533647.125	5.68873256270308E-05
2	486	115.044961709539	1.29043579101563	1.290283203125	2.40386962890625E-06	3.10167251882376E-06	536752.5625	5.71291675441898E-05
2	487	115.145669709285	1.30050659179688	1.3006591796875	2.40997314453125E-06	3.13455370815063E-06	539698.625	5.73715660721064E-05
2	488	115.246377709031	1.31057739257813	1.31011962890625	2.41668701171875E-06	3.16614909934287E-06	542113.875	5.76146048842929E-05
2	489	115.347085708777	1.32064819335938	1.32049560546875	2.42431640625E-06	3.20129902320332E-06	544687.8125	5.78583712922409E-05
2	490	115.447793708522	1.33071899414063	1.33087158203125	2.43408203125E-06	3.23945050695329E-06	546765.3125	5.81030108151026E-05
2	491	115.548501708268	1.34078979492188	1.34063720703125	2.4444580078125E-06	3.27713132719509E-06	548439.4375	5.83486653340515E-05
2	492	115.649209708014	1.35086059570313	1.35101318359375	2.45635986328125E-06	3.31857449964446E-06	550006.1875	5.85954403504729E-05
2	493	115.74991770776	1.36093139648438	1.36077880859375	2.46856689453125E-06	3.3591734336369E-06	551242.4375	5.88434304518159E-05
2	494	115.850625707505	1.37100219726563	1.370849609375	2.481689453125E-06	3.40202291226888E-06	552385.6875	5.90926938457415E-05
2	495	115.951333707251	1.38107299804688	1.3812255859375	2.49542236328125E-06	3.44674094776565E-06	553503.75	5.9343314205762E-05
2	496	116.052041706997	1.39114379882813	1.39129638671875	2.50946044921875E-06	3.49140304933826E-06	554420.5625	5.95953279116657E-05
2	497	116.152749706742	1.40121459960938	1.4013671875	2.52288818359375E-06	3.53549262399611E-06	555461.5	5.98487276874948E-05
2	498	116.253457706488	1.41128540039063	1.4117431640625	2.53662109375E-06	3.58105739906023E-06	556544.8125	6.01034953433555E-05
2	499	116.354165706234	1.42135620117188	1.42120361328125	2.5494384765625E-06	3.62327114089567E-06	557457.5	6.03595981374383E-05
2	500	116.45487370598	1.43142700195313	1.431884765625	2.56317138671875E-06	3.67016605196113E-06	558637.9375	6.06170360697433E-05
2	501	116.555581705725	1.44149780273438	1.44134521484375	2.57781982421875E-06	3.71552800970676E-06	559133.4375	6.08759073656984E-05
2	502	116.656289705471	1.45156860351563	1.451416015625	2.59521484375E-06	3.76673619939538E-06	559266.25	6.11363866482861E-05
2	503	116.756997705217	1.46163940429688	1.4617919921875	2.61474609375E-06	3.82221514882986E-06	559056.9375	6.13987358519807E-05
2	504	116.857705704963	1.47171020507813	1.47216796875	2.637939453125E-06	3.8834896258777E-06	558075	6.16632241872139E-05
2	505	116.958413704708	1.48178100585938	1.48193359375	2.66632080078125E-06	3.95131019104156E-06	555797.1875	6.1930317315273E-05
2	506	117.059121704454	1.49185180664063	1.49200439453125	2.69927978515625E-06	4.02733712689951E-06	552741.6875	6.22004954493605E-05
2	507	117.1598297042	1.50192260742188	1.50146484375	2.73712158203125E-06	4.10969187214505E-06	548556.125	6.24742388026789E-05
2	508	117.260537703946	1.49185180664063	1.49200439453125	2.5469970703125E-06	3.80013057110773E-06	585789.625	6.27403205726296E-05
2	509	117.361245703691	1.48178100585938	1.48162841796875	2.41302490234375E-06	3.5752059375227E-06	614012.9375	6.2990075093694E-05
2	510	117.461953703437	1.47171020507813	1.47125244140625	2.3095703125E-06	3.39796065418341E-06	637024.375	6.32278752163984E-05
2	511	117.562661703183	1.46163940429688	1.4617919921875	2.2247314453125E-06	3.25209452967101E-06	657064.5	6.34561947663315E-05
2	512	117.663369702929	1.45156860351563	1.4520263671875	2.1533203125E-06	3.12667793878063E-06	674319.75	6.36766490060836E-05
2	513	117.764077702674	1.44149780273438	1.44195556640625	2.09228515625E-06	3.01698219118407E-06	689177.375	6.38904311927035E-05
2	514	117.86478570242	1.43142700195313	1.43157958984375	2.0391845703125E-06	2.91925471174181E-06	702035.375	6.40984653728083E-05
2	515	117.965493702166	1.42135620117188	1.4208984375	1.99188232421875E-06	2.83026247416274E-06	713344.5625	6.43014500383288E-05
2	516	118.066201701911	1.41128540039063	1.4111328125	1.94976806640625E-06	2.75138154393062E-06	723744	6.44999236101285E-05
2	517	118.166909701657	1.40121459960938	1.4013671875	1.9110107421875E-06	2.67802761300118E-06	733312.0625	6.46943299216218E-05
2	518	118.267617701403	1.39114379882813	1.39129638671875	1.8768310546875E-06	2.61122818301374E-06	741300.8125	6.488506187452E-05
2	519	118.368325701149	1.38107299804688	1.3818359375	1.8450927734375E-06	2.54961537393683E-06	748924.9375	6.50724759907462E-05
2	520	118.469033700894	1.37100219726563	1.37115478515625	1.8157958984375E-06	2.48973719862988E-06	755126.0625	6.52568196528591E-05
2	521	118.56974170064	1.36093139648438	1.361083984375	1.78802490234375E-06	2.43365207097668E-06	761222.0625	6.54382820357569E-05
2	522	118.670449700386	1.35086059570313	1.3507080078125	1.76239013671875E-06	2.38047437051137E-06	766406.9375	6.5617059590295E-05
2	523	118.771157700132	1.34078979492188	1.3409423828125	1.73919677734375E-06	2.33216246670054E-06	771012.5	6.57933851471171E-05
2	524	118.871865699877	1.33071899414063	1.33087158203125	1.71600341796875E-06	2.28378007705032E-06	775564.6875	6.59673678455874E-05
2	525	118.972573699623	1.32064819335938	1.3201904296875	1.6943359375E-06	2.23684605771268E-06	779178.6875	6.61390877212398E-05
2	526	119.073281699369	1.31057739257813	1.31011962890625	1.673583984375E-06	2.19259527511895E-06	782822.75	6.63086757413112E-05
2	527	119.173989699115	1.30050659179688	1.30035400390625	1.654052734375E-06	2.15085401578108E-06	786162.375	6.64762337692082E-05
2	528	119.27469769886	1.29043579101563	1.290283203125	1.634521484375E-06	2.10899565900036E-06	789395.0625	6.66418272885494E-05
2	529	119.375405698606	1.28036499023438	1.280517578125	1.61651611328125E-06	2.06997719942592E-06	792146.5	6.68055363348685E-05
2	530	119.476113698352	1.27029418945313	1.270751953125	1.59912109375E-06	2.03208628590801E-06	794656.5	6.69674554956146E-05
2	531	119.576821698098	1.26022338867188	1.26007080078125	1.58172607421875E-06	1.99308669834863E-06	796642.9375	6.71276211505756E-05
2	532	119.677529697843	1.25015258789063	1.25030517578125	1.56524658203125E-06	1.95703591998608E-06	798791.1875	6.72860842314549E-05
2	533	119.778237697589	1.24008178710938	1.23992919921875	1.54937744140625E-06	1.92111838259734E-06	800275.75	6.74429174978286E-05
2	534	119.878945697335	1.23001098632813	1.2298583984375	1.53350830078125E-06	1.88599801731471E-06	801990.0625	6.75981500535272E-05
2	535	119.97965369708	1.21994018554688	1.219482421875	1.5185546875E-06	1.85185069767613E-06	803054.6875	6.77518401062116E-05
2	536	120.080361696826	1.20986938476563	1.21002197265625	1.50360107421875E-06	1.8193903770225E-06	804749.3125	6.79040167597122E-05
2	537	120.181069696572	1.19979858398438	1.199951171875	1.48895263671875E-06	1.78667050931836E-06	805902.8125	6.8054701841902E-05
2	538	120.281777696318	1.18972778320313	1.1895751953125	1.47491455078125E-06	1.75452169060009E-06	806538.4375	6.82039462844841E-05
2	539	120.382485696063	1.17965698242188	1.17919921875	1.461181640625E-06	1.72302418377512E-06	807017.5625	6.83517864672467E-05
2	540	120.483193695809	1.16958618164063	1.16943359375	1.4471435546875E-06	1.69233828728466E-06	808097.875	6.8498236942105E-05
2	541	120.583901695555	1.15951538085938	1.15966796875	1.4337158203125E-06	1.66263419032475E-06	808854.875	6.8643297709059E-05
2	542	120.684609695301	1.14944458007813	1.1492919921875	1.419677734375E-06	1.63162417265994E-06	809544.3125	6.87869760440663E-05
2	543	120.785317695046	1.13937377929688	1.1395263671875	1.40655517578125E-06	1.60280671934743E-06	810154.0625	6.89292864990421E-05
2	544	120.886025694792	1.12930297851563	1.1297607421875	1.3934326171875E-06	1.57424551616714E-06	810775.3125	6.90702800056897E-05
2	545	120.986733694538	1.11923217773438	1.11907958984375	1.3800048828125E-06	1.54433530497045E-06	810924.375	6.92099347361363E-05
2	546	121.087441694284	1.10916137695313	1.10931396484375	1.36688232421875E-06	1.51630160871719E-06	811565.0625	6.9348250690382E-05
2	547	121.188149694029	1.09909057617188	1.09954833984375	1.353759765625E-06	1.48852427628299E-06	812218.1875	6.94852424203418E-05
2	548	121.288857693775	1.08901977539063	1.0894775390625	1.34033203125E-06	1.46026161473856E-06	812841.5625	6.96209026500583E-05
2	549	121.389565693521	1.07894897460938	1.07879638671875	1.326904296875E-06	1.43145950914914E-06	813017.5	6.97552095516585E-05
2	550	121.490273693267	1.06887817382813	1.0687255859375	1.31439208984375E-06	1.40472445764317E-06	813094.9375	6.98882067808881E-05
2	551	121.590981693012	1.05880737304688	1.05865478515625	1.30157470703125E-06	1.37791823817679E-06	813364.625	7.00199307175353E-05
2	552	121.691689692758	1.04873657226563	1.048583984375	1.28814697265625E-06	1.35073025830934E-06	814025.125	7.01503377058543E-05
2	553	121.792397692504	1.03866577148438	1.038818359375	1.275634765625E-06	1.32515276618506E-06	814354.0625	7.02794350218028E-05
2	554	121.893105692249	1.02859497070313	1.0284423828125	1.26220703125E-06	1.29810712223843E-06	814796.9375	7.04072226653807E-05
2	555	121.993813691995	1.01852416992188	1.01837158203125	1.24908447265625E-06	1.27203213651228E-06	815294.4375	7.05336788087152E-05
2	556	122.094521691741	1.00845336914063	1.00860595703125	1.2359619140625E-06	1.24659857192455E-06	816049.375	7.06588107277639E-05
2	557	122.195229691487	0.998382568359375	0.99884033203125	1.22161865234375E-06	1.22020196613448E-06	817636.8125	7.0782560214866E-05
2	558	122.295937691232	0.988311767578125	0.98846435546875	1.20574951171875E-06	1.19184039704123E-06	819792.4375	7.09047890268266E-05
2	559	122.396645690978	0.978240966796875	0.9783935546875	1.18865966796875E-06	1.16297690055944E-06	823106.5625	7.10253516444936E-05
2	560	122.497353690724	0.968170166015625	0.968017578125	1.16851806640625E-06	1.13114595023944E-06	828414.75	7.11440443410538E-05
2	561	122.59806169047	0.958099365234375	0.958251953125	1.14471435546875E-06	1.09692473415635E-06	837110.125	7.12605251464993E-05
2	562	122.698769690215	0.948028564453125	0.94818115234375	1.11572265625E-06	1.05790718407661E-06	849835.9375	7.13743502274156E-05
2	563	122.799477689961	0.937957763671875	0.93841552734375	1.077880859375E-06	1.01150010323181E-06	870611.5625	7.14848065399565E-05
2	564	122.900185689707	0.927886962890625	0.92803955078125	1.02874755859375E-06	9.54718416323885E-07	902106.25	7.15908827260137E-05
2	565	123.000893689453	0.917816162109375	0.91766357421875	9.6588134765625E-07	8.86354087015206E-07	950079	7.16913200449198E-05
2	566	123.101601689198	0.907745361328125	0.908203125	8.8470458984375E-07	8.03491445822146E-07	1026560.9375	7.17845032340847E-05
2	567	123.202309688944	0.897674560546875	0.89813232421875	7.8460693359375E-07	7.04680815033498E-07	1144690.75	7.18685623724014E-05
2	568	123.30301768869	0.887603759765625	0.887451171875	6.622314453125E-07	5.87698025356076E-07	1340092.25	7.19414165359922E-05
2	569	123.403725688436	0.877532958984375	0.87799072265625	5.22766113281251E-07	4.58983748785613E-07	1679509.75	7.20010866643861E-05
2	570	123.504433688181	0.867462158203125	0.86761474609375	3.74450683593749E-07	3.24878925539451E-07	2317033.5	7.20462630852126E-05
2	571	123.605141687927	0.857391357421875	0.8575439453125	2.276611328125E-07	1.95229432620181E-07	3766756	7.20765820005909E-05
2	572	123.705849687673	0.847320556640625	0.84716796875	9.88769531250003E-08	8.37653857388432E-08	8567901	7.20930256647989E-05
2	573	123.806557687418	0.837249755859375	0.83770751953125	-2.44140625000056E-09	-2.04518424418154E-09	-343125024	7.20978787285276E-05
2	574	123.907265687164	0.827178955078125	0.8270263671875	-7.08007812499994E-08	-5.8554110893283E-08	-11681035	7.20941898180172E-05
2	575	124.00797368691	0.817108154296875	0.8172607421875	-1.0833740234375E-07	-8.85399060734926E-08	-7543662	7.20851749065332E-05
2	576	124.108681686656	0.807037353515625	0.80718994140625	-1.190185546875E-07	-9.60705790475913E-08	-6782051.5	7.20737225492485E-05
2	577	124.209389686401	0.796966552734375	0.797119140625	-1.129150390625E-07	-9.0006736286341E-08	-7059459.5	7.20620446372777E-05
2	578	124.310097686147	0.786895751953125	0.7867431640625	-9.85717773437506E-08	-7.7550673438509E-08	-7981424.5	7.20513999112882E-05
2	579	124.410805685893	0.776824951171875	0.7769775390625	-8.45336914062495E-08	-6.56807799259695E-08	-9191336	7.20421739970334E-05
2	580	124.511513685639	0.766754150390625	0.7672119140625	-7.75146484375003E-08	-5.9470163904507E-08	-9897638	7.20340176485479E-05
2	581	124.612221685384	0.756683349609375	0.75714111328125	-9.1552734375E-08	-6.93183395128472E-08	-8270000	7.20255047781393E-05
2	582	124.71292968513	0.746612548828125	0.74652099609375	-1.24511718750001E-07	-9.29506072111508E-08	-5995588.5	7.20146272215061E-05
2	583	124.813637684876	0.736541748046875	0.736419677734375	-1.8310546875E-07	-1.34842466081864E-07	-4021833.25	7.19991367077455E-05
2	584	124.914345684622	0.726470947265625	0.72637939453125	-2.72521972656251E-07	-1.97954335590111E-07	-2665397.75	7.19761883374304E-05
2	585	125.015053684367	0.716400146484375	0.71636962890625	-3.9215087890625E-07	-2.80924979279007E-07	-1826770.5	7.19427262083627E-05
2	586	125.115761684113	0.706329345703125	0.706207275390625	-5.322265625E-07	-3.75862242663061E-07	-1326892.25	7.18961746315472E-05
2	587	125.216469683859	0.696258544921875	0.69622802734375	-6.7962646484375E-07	-4.73174992521308E-07	-1024427.5	7.18351584509946E-05
2	588	125.317177683605	0.686187744140625	0.6861572265625	-8.1817626953125E-07	-5.61397541787301E-07	-838642.3125	7.1759735874366E-05
2	589	125.41788568335	0.676116943359375	0.676055908203125	-9.3231201171875E-07	-6.30295005521475E-07	-725139.125	7.16715876478702E-05
2	590	125.518593683096	0.666046142578125	0.666046142578125	-1.0101318359375E-06	-6.7279438553669E-07	-659365.625	7.15737842256203E-05
2	591	125.619301682842	0.655975341796875	0.6558837890625	-1.04766845703125E-06	-6.87148769884516E-07	-626041.375	7.14701600372791E-05
2	592	125.720009682587	0.645904541015625	0.6458740234375	-1.04888916015625E-06	-6.77450202601904E-07	-615769.625	7.13645931682549E-05
2	593	125.820717682333	0.635833740234375	0.635772705078125	-1.0223388671875E-06	-6.49975163469207E-07	-621880.5625	7.12602995918132E-05
2	594	125.921425682079	0.625762939453125	0.625701904296875	-9.7686767578125E-07	-6.11227960689575E-07	-640518.5625	7.11596294422634E-05
2	595	126.022133681825	0.615692138671875	0.615631103515625	-9.21020507812501E-07	-5.67008839880145E-07	-668422.8125	7.10640597390011E-05
2	596	126.12284168157	0.605621337890625	0.605621337890625	-8.612060546875E-07	-5.21564743394265E-07	-703224.6875	7.09743180777878E-05
2	597	126.223549681316	0.595550537109375	0.59552001953125	-8.0078125E-07	-4.76881268696161E-07	-743673.8125	7.08906300133094E-05
2	598	126.324257681062	0.585479736328125	0.58544921875	-7.43713378906249E-07	-4.35406406040784E-07	-787197.375	7.0812864578329E-05
2	599	126.424965680808	0.575408935546875	0.575347900390625	-6.903076171875E-07	-3.97167042365254E-07	-833465.9375	7.07406506990083E-05
2	600	126.525673680553	0.565338134765625	0.5653076171875	-6.40869140625E-07	-3.62288204769357E-07	-882095.25	7.06736245774664E-05
2	601	126.626381680299	0.555267333984375	0.555206298828125	-5.9539794921875E-07	-3.30568667550324E-07	-932496.1875	7.06113714841194E-05
2	602	126.727089680045	0.545196533203125	0.545166015625	-5.54809570312501E-07	-3.0246332016759E-07	-982618.25	7.05534548615105E-05
2	603	126.827797679791	0.535125732421875	0.5350341796875	-5.17883300781249E-07	-2.77085263178378E-07	-1033117.3125	7.04994381521828E-05
2	604	126.928505679536	0.525054931640625	0.52508544921875	-4.833984375E-07	-2.53825476193015E-07	-1086237.375	7.04490230418742E-05
2	605	127.029213679282	0.514984130859375	0.51495361328125	-4.5196533203125E-07	-2.32741172112583E-07	-1139365.375	7.04019257682376E-05
2	606	127.129921679028	0.504913330078125	0.504852294921875	-4.2236328125E-07	-2.13231061252372E-07	-1195303.5	7.03578989487141E-05
2	607	127.230629678774	0.494842529296875	0.494781494140625	-3.94592285156251E-07	-1.95236950162325E-07	-1253905.75	7.03167606843635E-05
2	608	127.331337678519	0.484771728515625	0.4847412109375	-3.67126464843751E-07	-1.77961325675824E-07	-1320365.75	7.02784018358216E-05
2	609	127.432045678265	0.474700927734375	0.47467041015625	-3.41186523437501E-07	-1.61951135169147E-07	-1391234.375	7.02427350915968E-05
2	610	127.532753678011	0.464630126953125	0.46466064453125	-3.16467285156249E-07	-1.47049888710171E-07	-1468274	7.02096222084947E-05
2	611	127.633461677756	0.454559326171875	0.454559326171875	-2.9266357421875E-07	-1.33032955318413E-07	-1553180.375	7.01789467711933E-05
2	612	127.734169677502	0.444488525390625	0.444549560546875	-2.69775390625E-07	-1.19928515118772E-07	-1647850.75	7.01506287441589E-05
2	613	127.834877677248	0.434417724609375	0.43438720703125	-2.49633789062501E-07	-1.0843772457747E-07	-1740097.875	7.01244716765359E-05
2	614	127.935585676994	0.424346923828125	0.424346923828125	-2.31018066406249E-07	-9.80318048959816E-08	-1836856	7.01002718415111E-05
2	615	128.036293676739	0.414276123046875	0.414337158203125	-2.13623046875E-07	-8.85119604276952E-08	-1939571.5	7.00778837199323E-05
2	616	128.137001676485	0.404205322265625	0.40423583984375	-1.97448730468749E-07	-7.98158552584027E-08	-2047295.25	7.00571836205199E-05
2	617	128.237709676231	0.394134521484375	0.39410400390625	-1.8280029296875E-07	-7.20423258826486E-08	-2155926.5	7.00380333000794E-05
2	618	128.338417675977	0.384063720703125	0.384063720703125	-1.69677734375E-07	-6.51670646334424E-08	-2263489.25	7.00202872394584E-05
2	619	128.439125675722	0.373992919921875	0.37408447265625	-1.57775878906249E-07	-5.90215023521523E-08	-2370986.5	7.00037999195047E-05
2	620	128.539833675468	0.363922119140625	0.363861083984375	-1.4617919921875E-07	-5.31889199351099E-08	-2489144.25	6.99884913046844E-05
2	621	128.640541675214	0.353851318359375	0.35394287109375	-1.35498046875E-07	-4.79585651191883E-08	-2612162.25	6.99743104632944E-05
2	622	128.74124967496	0.343780517578125	0.34375	-1.26037597656251E-07	-4.3325421472673E-08	-2727361	6.99611409800127E-05
2	623	128.841957674705	0.333709716796875	0.333770751953125	-1.171875E-07	-3.9113757566156E-08	-2848177.25	6.9948895543348E-05
2	624	128.942665674451	0.323638916015625	0.32366943359375	-1.09252929687501E-07	-3.53618325732441E-08	-2962569.75	6.99374941177666E-05
2	625	129.043373674197	0.313568115234375	0.3135986328125	-1.019287109375E-07	-3.19647028845793E-08	-3076646.75	6.99268566677347E-05
2	626	129.144081673943	0.303497314453125	0.30352783203125	-9.58251953125003E-08	-2.90856139173457E-08	-3167516	6.99168958817609E-05
2	627	129.244789673688	0.293426513671875	0.29345703125	-9.002685546875E-08	-2.64190127552411E-08	-3259661.25	6.9907539000269E-05
2	628	129.345497673434	0.283355712890625	0.283416748046875	-8.48388671875006E-08	-2.40447555199808E-08	-3340647.5	6.98987350915559E-05
2	629	129.44620567318	0.273284912109375	0.273284912109375	-7.99560546874995E-08	-2.1850782516708E-08	-3417939	6.98904404998757E-05
2	630	129.546913672925	0.263214111328125	0.26324462890625	-7.62939453125E-08	-2.00839700426059E-08	-3450400	6.98825679137371E-05
2	631	129.647621672671	0.253143310546875	0.25311279296875	-7.26318359375006E-08	-1.83840462852913E-08	-3484874	6.98750736773945E-05
2	632	129.748329672417	0.243072509765625	0.24310302734375	-6.95800781250006E-08	-1.69151270767998E-08	-3493859.75	6.98679068591446E-05
2	633	129.849037672163	0.233001708984375	0.2330322265625	-6.7138671875E-08	-1.56454742494816E-08	-3470909	6.98610238032416E-05
2	634	129.949745671908	0.222930908203125	0.222900390625	-6.59179687499997E-08	-1.46931400379913E-08	-3381481.5	6.98543226462789E-05
2	635	130.050453671654	0.212860107421875	0.212860107421875	-6.50024414062506E-08	-1.38364262269874E-08	-3274648	6.98477306286804E-05
2	636	130.1511616714	0.202789306640625	0.202850341796875	-6.561279296875E-08	-1.33095765519897E-08	-3091628.25	6.98411531629972E-05
2	637	130.251869671146	0.192718505859375	0.192718505859375	-6.7138671875E-08	-1.29388642022832E-08	-2870454.5	6.98344738339074E-05
2	638	130.352577670891	0.182647705078125	0.18267822265625	-7.08007812499994E-08	-1.29337607290836E-08	-2580172.5	6.98275252943859E-05
2	639	130.453285670637	0.172576904296875	0.17254638671875	-7.59887695312503E-08	-1.31115864832054E-08	-2270682.75	6.98201329214498E-05
2	640	130.553993670383	0.162506103515625	0.16253662109375	-8.48388671875006E-08	-1.37894229368385E-08	-1915827.375	6.98120347806253E-05
2	641	130.654701670129	0.152435302734375	0.152435302734375	-9.73510742187503E-08	-1.48397401034117E-08	-1565830.75	6.98028597980738E-05
2	642	130.755409669874	0.142364501953125	0.142425537109375	-1.1566162109375E-07	-1.64731677188001E-08	-1231398.375	6.97921350365505E-05
2	643	130.85611766962	0.132293701171875	0.13232421875	-1.416015625E-07	-1.87373156990134E-08	-934482.75	6.97791838319972E-05
2	644	130.956825669366	0.122222900390625	0.12225341796875	-1.79138183593749E-07	-2.19002558310422E-08	-682453.125	6.97630312060937E-05
2	645	131.057533669112	0.112152099609375	0.1121826171875	-2.3223876953125E-07	-2.60531525242413E-08	-483048.625	6.97423165547661E-05
2	646	131.158241668857	0.102081298828125	0.102081298828125	-3.0548095703125E-07	-3.11838910249662E-08	-334165.84375	6.97152427164838E-05
2	647	131.258949668603	0.092010498046875	0.092071533203125	-4.058837890625E-07	-3.73703414879856E-08	-226842.109375	6.96794231771491E-05
2	648	131.359657668349	0.081939697265625	0.08197021484375	-5.3924560546875E-07	-4.42020784419128E-08	-152009.0625	6.96318311383948E-05
2	649	131.460365668094	0.071868896484375	0.071929931640625	-7.110595703125E-07	-5.11464648411675E-08	-101158.796875	6.95688722771592E-05
2	650	131.56107366784	0.061798095703125	0.0618896484375	-9.2010498046875E-07	-5.69449731813165E-08	-67263.6796875	6.94867339916527E-05
2	651	131.661781667586	0.051727294921875	0.0517578125	-1.15966796875E-06	-6.0021875469829E-08	-44631.58203125	6.93820111337118E-05
2	652	131.762489667332	0.041656494140625	0.0417236328125	-1.4141845703125E-06	-5.9004914731986E-08	-29503.66796875	6.92524045007303E-05
2	653	131.863197667077	0.031585693359375	0.0316619873046875	-1.658935546875E-06	-5.2525194860209E-08	-19085.724609375	6.90976667101495E-05
2	654	131.963905666823	0.021514892578125	0.0216094970703125	-1.86767578125E-06	-4.03595308284821E-08	-11570.26171875	6.89200824126601E-05
2	655	132.064613666569	0.011444091796875	0.0115325927734375	-2.0208740234375E-06	-2.33059171961258E-08	-5706.73486328125	6.87242791173048E-05
2	656	132.165321666315	0.001373291015625	0.001495361328125	-2.11029052734375E-06	-3.15564685493541E-09	-708.6044921875	6.85162594891153E-05
2	657	132.26602966606	-0.008697509765625	-0.008624267578125	-2.13714599609375E-06	1.84313186935015E-08	4035.41357421875	6.83023827150464E-05
2	658	132.366737665806	-0.018768310546875	-0.0186798095703125	-2.11639404296875E-06	3.9533833984251E-08	8826.244140625	6.80882003507577E-05
2	659	132.467445665552	-0.028839111328125	-0.0287078857421875	-2.0635986328125E-06	5.92415574374172E-08	13911.564453125	6.78777214488946E-05
2	660	132.568153665298	-0.038909912109375	-0.03875732421875	-1.99310302734375E-06	7.7247342744613E-08	19445.720703125	6.76734489388764E-05
2	661	132.668861665043	-0.048980712890625	-0.0488555908203125	-1.9158935546875E-06	9.36021109509966E-08	25500.16015625	6.74766197334975E-05
2	662	132.769569664789	-0.059051513671875	-0.05902099609375	-1.8389892578125E-06	1.08538976917316E-07	32094.259765625	6.72875466989353E-05
2	663	132.870277664535	-0.069122314453125	-0.069000244140625	-1.76605224609375E-06	1.21858036550293E-07	39070.33203125	6.71060188324191E-05
2	664	132.970985664281	-0.079193115234375	-0.07916259765625	-1.70013427734375E-06	1.34587040179213E-07	46562.55859375	6.69314758852124E-05
2	665	133.071693664026	-0.089263916015625	-0.08917236328125	-1.6412353515625E-06	1.46352832075536E-07	54332.46875	6.6763226641342E-05
2	666	133.172401663772	-0.099334716796875	-0.099273681640625	-1.58905029296875E-06	1.57750875473539E-07	62473.59375	6.6600572608877E-05
2	667	133.273109663518	-0.109405517578125	-0.10931396484375	-1.54449462890625E-06	1.68834830560627E-07	70776.53125	6.64427861920558E-05
2	668	133.373817663263	-0.119476318359375	-0.119384765625	-1.50634765625E-06	1.7983495581575E-07	79254.4609375	6.62891616229899E-05
2	669	133.474525663009	-0.129547119140625	-0.12945556640625	-1.4727783203125E-06	1.90659349641464E-07	87898.8828125	6.61391532048583E-05
2	670	133.575233662755	-0.139617919921875	-0.13958740234375	-1.44439697265625E-06	2.01619613449111E-07	96640.609375	6.59922588965856E-05
2	671	133.675941662501	-0.149688720703125	-0.149627685546875	-1.42059326171875E-06	2.12560067325285E-07	105327.609375	6.58479984849691E-05
2	672	133.776649662246	-0.159759521484375	-0.15966796875	-1.4007568359375E-06	2.23655987952043E-07	113986.9296875	6.57059281365946E-05
2	673	133.877357661992	-0.169830322265625	-0.169708251953125	-1.38427734375E-06	2.34923277275811E-07	122597.0078125	6.55656913295388E-05
2	674	133.978065661738	-0.179901123046875	-0.179779052734375	-1.37176513671875E-06	2.46614632715136E-07	131056.734375	6.54269169899635E-05
2	675	134.078773661484	-0.189971923828125	-0.189910888671875	-1.3623046875E-06	2.58716482903765E-07	139404.125	6.52892413199879E-05
2	676	134.179481661229	-0.200042724609375	-0.19989013671875	-1.35589599609375E-06	2.71030216936197E-07	147422.921875	6.51523732813075E-05
2	677	134.280189660975	-0.189971923828125	-0.1898193359375	-1.20391845703125E-06	2.28526985779354E-07	157667.9375	6.50234724162146E-05
