Potential - Start -0.2 V, Upper Vertex 1.5 V, Lower Vertex -0.2 V, Stop -0.19 V; Scan - # end cross 5, Rate 0.1 Vps, Step 0.01 V 
Scan	Index	Time (s)	Potential applied (V)	WE(1).Potential (V)	WE(1).Current (A)	WE(1).Power (W)	WE(1).Resistance (Ω)	WE(1).Charge (C)
1	1	66.7945768313599	-0.189971923828125	-0.1898193359375	-2.48107910156251E-07	4.70956784681675E-08	765067.625	0
1	2	66.8952848311056	-0.179901123046875	-0.1796875	-2.1636962890625E-07	3.88789160865599E-08	830465.4375	-2.33883010736236E-08
1	3	66.9959928308514	-0.169830322265625	-0.169708251953125	-1.904296875E-07	3.23174909055979E-08	891185.875	-4.38722729256824E-08
1	4	67.0967008305971	-0.159759521484375	-0.159637451171875	-1.68457031249999E-07	2.6892049476146E-08	947645	-6.19436590909572E-08
1	5	67.1974088303429	-0.149688720703125	-0.14959716796875	-1.483154296875E-07	2.21875673389604E-08	1008642	-7.78944126977876E-08
1	6	67.2981168300886	-0.139617919921875	-0.139495849609375	-1.29089355468751E-07	1.8007430213629E-08	1080614.625	-9.18628586532577E-08
1	7	67.3988248298343	-0.129547119140625	-0.129425048828125	-1.10473632812499E-07	1.42980551842697E-08	1171547	-1.03925813732531E-07
1	8	67.4995328295801	-0.119476318359375	-0.119384765625	-9.21630859374994E-08	1.10028679500829E-08	1295364.25	-1.14129377948302E-07
1	9	67.6002408293258	-0.109405517578125	-0.109344482421875	-7.32421875E-08	8.00862842709194E-09	1492916.75	-1.22458189366625E-07
1	10	67.7009488290715	-0.099334716796875	-0.0992431640625	-5.24902343749994E-08	5.20929654967972E-09	1890697.75	-1.28789324094214E-07
1	11	67.8016568288173	-0.089263916015625	-0.089111328125	-2.899169921875E-08	2.58348875625813E-09	3073684.25	-1.32892267856732E-07
1	12	67.902364828563	-0.079193115234375	-0.0791015625	-6.10351562499445E-10	4.82797621326192E-11	129600000	-1.3438284440781E-07
1	13	68.0030728283087	-0.069122314453125	-0.069061279296875	3.54003906249997E-08	-2.44479614330828E-09	-1950862.125	-1.32631029714503E-07
1	14	68.1037808280545	-0.059051513671875	-0.05902099609375	8.087158203125E-08	-4.77312100954919E-09	-729811.3125	-1.26776271258677E-07
1	15	68.2044888278002	-0.048980712890625	-0.048822021484375	1.40991210937499E-07	-6.88347601141004E-09	-346277.09375	-1.15604592565433E-07
1	16	68.305196827546	-0.038909912109375	-0.0387786865234375	2.2308349609375E-07	-8.65088445323181E-09	-173830.375	-9.72719789160692E-08
1	17	68.4059048272917	-0.028839111328125	-0.028692626953125	3.314208984375E-07	-9.50933642940299E-09	-86574.5859375	-6.93504631499309E-08
1	18	68.5066128270374	-0.018768310546875	-0.0186859130859375	4.73632812499999E-07	-8.85026096852926E-09	-39452.3203125	-2.88127885994527E-08
1	19	68.6073208267832	-0.008697509765625	-0.0086029052734375	6.5582275390625E-07	-5.64198110453162E-09	-13117.728515625	2.80598158042267E-08
1	20	68.7080288265289	0.001373291015625	0.00145874023437501	8.770751953125E-07	1.27942489935862E-09	1663.18713378906	1.05247359272198E-07
1	21	68.8087368262746	0.011444091796875	0.0115203857421875	1.13372802734375E-06	1.30609842940999E-08	10161.5078125	2.06499350952072E-07
1	22	68.9094448260204	0.021514892578125	0.021630859375	1.40838623046875E-06	3.04646015081289E-08	15358.61328125	3.34504960619597E-07
1	23	69.0101528257661	0.031585693359375	0.0316925048828125	1.67877197265625E-06	5.32044879264504E-08	18878.38671875	4.89955709781498E-07
1	24	69.1108608255118	0.041656494140625	0.041729736328125	1.9195556640625E-06	8.01025521468546E-08	21739.26953125	6.71145926389727E-07
1	25	69.2115688252576	0.051727294921875	0.051788330078125	2.105712890625E-06	1.09051349284073E-07	24594.203125	8.73834267167695E-07
1	26	69.3122768250033	0.061798095703125	0.061859130859375	2.22412109375E-06	1.37582190973262E-07	27812.84375	1.09185873498063E-06
1	27	69.4129848247491	0.071868896484375	0.07196044921875	2.275390625E-06	1.63738135938729E-07	31625.53515625	1.31842716655228E-06
1	28	69.5136928244948	0.081939697265625	0.08197021484375	2.2698974609375E-06	1.86063971341355E-07	36111.859375	1.54730059875874E-06
1	29	69.6144008242405	0.092010498046875	0.092071533203125	2.22320556640625E-06	2.04693932914779E-07	41413.8671875	1.7735462733981E-06
1	30	69.7151088239863	0.102081298828125	0.102020263671875	2.15301513671875E-06	2.19651155930478E-07	47384.8359375	1.99390638044861E-06
1	31	69.815816823732	0.112152099609375	0.1121826171875	2.07122802734375E-06	2.32355773732706E-07	54162.37109375	2.2066139990784E-06
1	32	69.9165248234777	0.122222900390625	0.12225341796875	1.9873046875E-06	2.42954769191783E-07	61517.203125	2.41097745856678E-06
1	33	70.0172328232235	0.132293701171875	0.13238525390625	1.9061279296875E-06	2.523432272028E-07	69452.453125	2.60702722698625E-06
1	34	70.1179408229692	0.142364501953125	0.14239501953125	1.829833984375E-06	2.60559232856394E-07	77818.546875	2.79514779322199E-06
1	35	70.218648822715	0.152435302734375	0.152435302734375	1.76055908203125E-06	2.68371337597273E-07	86583.46875	2.97593851428246E-06
1	36	70.3193568224607	0.162506103515625	0.162567138671875	1.69830322265625E-06	2.76088286454979E-07	95723.2734375	3.15010606755095E-06
1	37	70.4200648222064	0.172576904296875	0.172607421875	1.6424560546875E-06	2.83500099840239E-07	105091.046875	3.31832666233822E-06
1	38	70.5207728219522	0.182647705078125	0.182708740234375	1.59271240234375E-06	2.91002464791745E-07	114715.46875	3.48123035109893E-06
1	39	70.6214808216979	0.192718505859375	0.192657470703125	1.5484619140625E-06	2.9832276027264E-07	124418.6015625	3.63940102943161E-06
1	40	70.7221888214436	0.202789306640625	0.202880859375	1.5087890625E-06	3.06104425362719E-07	134466.015625	3.7933457406325E-06
1	41	70.8228968211894	0.212860107421875	0.212860107421875	1.4739990234375E-06	3.13755577963093E-07	144409.9375	3.94354128729901E-06
1	42	70.9236048209351	0.222930908203125	0.22296142578125	1.441650390625E-06	3.21432423788792E-07	154657.0625	4.09035556003801E-06
1	43	71.0243128206808	0.233001708984375	0.2330322265625	1.4129638671875E-06	3.29266100607128E-07	164924.421875	4.23409710492706E-06
1	44	71.1250208204266	0.243072509765625	0.24310302734375	1.3873291015625E-06	3.37263912797425E-07	175230.96875	4.37510288975318E-06
1	45	71.2257288201723	0.253143310546875	0.253082275390625	1.36383056640625E-06	3.45161339510014E-07	185567.25	4.51363484899048E-06
1	46	71.3264368199181	0.263214111328125	0.26318359375	1.34246826171875E-06	3.53315613210725E-07	196044.5625	4.64990762338857E-06
1	47	71.4271448196638	0.273284912109375	0.273284912109375	1.3232421875E-06	3.61622113587146E-07	206526.765625	4.78413676319178E-06
1	48	71.5278528194095	0.283355712890625	0.283294677734375	1.3055419921875E-06	3.69853097481609E-07	216993.921875	4.91650689582457E-06
1	49	71.6285608191553	0.293426513671875	0.293426513671875	1.28997802734375E-06	3.78513732357533E-07	227466.296875	5.04720173921669E-06
1	50	71.729268818901	0.303497314453125	0.30352783203125	1.2750244140625E-06	3.87005371749183E-07	238056.5	5.17635953656281E-06
1	51	71.8299768186467	0.313568115234375	0.313568115234375	1.26190185546875E-06	3.95692183019491E-07	248488.515625	5.30410397914238E-06
1	52	71.9306848183925	0.323638916015625	0.323638916015625	1.24969482421875E-06	4.0444987803312E-07	258974.359375	5.43057285540272E-06
1	53	72.0313928181382	0.333709716796875	0.333740234375	1.23870849609375E-06	4.13406866073274E-07	269425.96875	5.55587394046597E-06
1	54	72.132100817884	0.343780517578125	0.343780517578125	1.2286376953125E-06	4.22381674525241E-07	279806.28125	5.68011500945431E-06
1	55	72.2328088176297	0.353851318359375	0.353851318359375	1.21978759765625E-06	4.31623448093887E-07	290092.5625	5.80340292799519E-06
1	56	72.3335168173754	0.363922119140625	0.363983154296875	1.21185302734375E-06	4.41094101688577E-07	300352.5625	5.92584547121078E-06
1	57	72.4342248171212	0.373992919921875	0.37396240234375	1.20452880859375E-06	4.50448482069987E-07	310463.65625	6.04752040089807E-06
1	58	72.5349328168669	0.384063720703125	0.38409423828125	1.1981201171875E-06	4.60191046158798E-07	320580.75	6.1685032051173E-06
1	59	72.6356408166126	0.394134521484375	0.394134521484375	1.192626953125E-06	4.70055425694227E-07	330475.96875	6.28888665232807E-06
1	60	72.7363488163584	0.404205322265625	0.404205322265625	1.187744140625E-06	4.80092523957865E-07	340313.46875	6.40874804958003E-06
1	61	72.8370568161041	0.414276123046875	0.41424560546875	1.18438720703125E-06	4.906272010885E-07	349755.21875	6.52819426250062E-06
1	62	72.9377648158498	0.424346923828125	0.42431640625	1.18072509765625E-06	5.01001068187179E-07	359369.34375	6.64728713672957E-06
1	63	73.0384728155956	0.434417724609375	0.43438720703125	1.17828369140625E-06	5.1183138793931E-07	368660.96875	6.76607260174933E-06
1	64	73.1391808153413	0.444488525390625	0.44451904296875	1.175537109375E-06	5.22548646131327E-07	378141.21875	6.88459704178968E-06
1	65	73.2398888150871	0.454559326171875	0.454498291015625	1.17462158203125E-06	5.33863442342408E-07	386931.6875	7.00293685440556E-06
1	66	73.3405968148328	0.464630126953125	0.464630126953125	1.1737060546875E-06	5.45339162272285E-07	395865.84375	7.12118480805657E-06
1	67	73.4413048145785	0.474700927734375	0.474700927734375	1.173095703125E-06	5.56869622414524E-07	404656.59375	7.23935545465793E-06
1	68	73.5420128143243	0.484771728515625	0.4847412109375	1.1737060546875E-06	5.6894367617133E-07	413000.53125	7.35752610125928E-06
1	69	73.64272081407	0.494842529296875	0.494781494140625	1.1749267578125E-06	5.81332017191016E-07	421116.875	7.47578951632022E-06
1	70	73.7434288138157	0.504913330078125	0.5048828125	1.177978515625E-06	5.94741095483187E-07	428601.0625	7.59426757213078E-06
1	71	73.8441368135615	0.514984130859375	0.514923095703125	1.181640625E-06	6.08454058692587E-07	435769.625	7.71308350522304E-06
1	72	73.9448448133072	0.525054931640625	0.524993896484375	1.185302734375E-06	6.2227667285697E-07	442919.6875	7.83226914791157E-06
1	73	74.045552813053	0.535125732421875	0.535125732421875	1.19140625E-06	6.37552147964016E-07	449154.71875	7.95194591773907E-06
1	74	74.1462608127987	0.545196533203125	0.545166015625	1.19873046875E-06	6.53507072456705E-07	454786.1875	8.07229844212998E-06
1	75	74.2469688125444	0.555267333984375	0.55523681640625	1.20819091796875E-06	6.70832037030777E-07	459560.53125	8.19349679659354E-06
1	76	74.3476768122902	0.565338134765625	0.56524658203125	1.220703125E-06	6.89998273628589E-07	463050	8.31580109661445E-06
1	77	74.4483848120359	0.575408935546875	0.575439453125	1.2371826171875E-06	7.11923689777905E-07	465120.875	8.43956604512641E-06
1	78	74.5490928117816	0.585479736328125	0.58544921875	1.25946044921875E-06	7.37350092094857E-07	464841.3125	8.56528185977368E-06
1	79	74.6498008115274	0.595550537109375	0.595489501953125	1.29058837890625E-06	7.68531776884629E-07	461409.34375	8.69368705025408E-06
1	80	74.7505088112731	0.605621337890625	0.6055908203125	1.3330078125E-06	8.07257265478256E-07	454304.0625	8.82579570316011E-06
1	81	74.8512168110188	0.615692138671875	0.615631103515625	1.39312744140625E-06	8.57652537433751E-07	441905.8125	8.9630666479934E-06
1	82	74.9519248107646	0.625762939453125	0.625762939453125	1.47735595703125E-06	9.24474591101898E-07	423569.53125	9.10760718397796E-06
1	83	75.0526328105103	0.635833740234375	0.63580322265625	1.5924072265625E-06	1.01245768746594E-06	399271.75	9.26218217500718E-06
1	84	75.1533408102561	0.645904541015625	0.6458740234375	1.74407958984375E-06	1.1264556860624E-06	370323.71875	9.43018767429749E-06
1	85	75.2540488100018	0.655975341796875	0.6558837890625	1.93511962890625E-06	1.26921361243149E-06	338937.09375	9.61544992605923E-06
1	86	75.3547568097475	0.666046142578125	0.666015625	2.1624755859375E-06	1.44024249948416E-06	307987.59375	9.82178062258754E-06
1	87	75.4554648094933	0.676116943359375	0.67608642578125	2.41424560546875E-06	1.63223865001783E-06	280040.46875	1.00522365755751E-05
1	88	75.556172809239	0.686187744140625	0.686126708984375	2.6727294921875E-06	1.83383099283674E-06	256713.875	1.03083857538877E-05
1	89	75.6568808089847	0.696258544921875	0.696258544921875	2.9156494140625E-06	2.0300456071709E-06	238800.515625	1.05897834146162E-05
1	90	75.7575888087305	0.706329345703125	0.706329345703125	3.121337890625E-06	2.20469246414723E-06	226290.578125	1.08937701952527E-05
1	91	75.8582968084762	0.716400146484375	0.716278076171875	3.27178955078125E-06	2.34351091421559E-06	218925.484375	1.12156894829241E-05
1	92	75.9590048082219	0.726470947265625	0.72637939453125	3.3636474609375E-06	2.44328430198948E-06	215949.921875	1.15498105515144E-05
1	93	76.0597128079677	0.736541748046875	0.736419677734375	3.4039306640625E-06	2.50672155743814E-06	216343.921875	1.18905845738482E-05
1	94	76.1604208077134	0.746612548828125	0.74652099609375	3.40850830078125E-06	2.5445231131016E-06	219016.921875	1.22336186905159E-05
1	95	76.2611288074592	0.756683349609375	0.75714111328125	3.397216796875E-06	2.57217243415653E-06	222871.015625	1.25763135656598E-05
1	96	76.3618368072049	0.766754150390625	0.76690673828125	3.388671875E-06	2.59879516306682E-06	226314.84375	1.29180107251159E-05
1	97	76.4625448069506	0.776824951171875	0.77728271484375	3.40087890625E-06	2.64344430433994E-06	228553.484375	1.32598916025017E-05
1	98	76.5632528066964	0.786895751953125	0.78704833984375	3.450927734375E-06	2.71604676527204E-06	228068.640625	1.36049075081246E-05
1	99	76.6639608064421	0.796966552734375	0.797119140625	3.553466796875E-06	2.83253643829084E-06	224321.546875	1.3957606824988E-05
1	100	76.7646688061878	0.807037353515625	0.8074951171875	3.7213134765625E-06	3.004942300322E-06	216991.96875	1.4323921277537E-05
1	101	76.8653768059336	0.817108154296875	0.8172607421875	3.96209716796875E-06	3.23806648339087E-06	206269.734375	1.47108112287242E-05
1	102	76.9660848056793	0.827178955078125	0.82733154296875	4.27581787109375E-06	3.53751897819166E-06	193490.828125	1.51256235767505E-05
1	103	77.0667928054251	0.837249755859375	0.83770751953125	4.6484375E-06	3.8940311242186E-06	180212.71875	1.55749949044548E-05
1	104	77.1675008051708	0.847320556640625	0.8477783203125	5.0628662109375E-06	4.29218789577135E-06	167450.28125	1.60639974637888E-05
1	105	77.2682088049165	0.857391357421875	0.858154296875	5.48095703125E-06	4.70350687464816E-06	156570.15625	1.65949222719064E-05
1	106	77.3689168046623	0.867462158203125	0.86761474609375	5.8746337890625E-06	5.09691881234176E-06	147688.3125	1.7166721590911E-05
1	107	77.469624804408	0.877532958984375	0.877685546875	6.201171875E-06	5.44267868463066E-06	141535.4375	1.77747861016542E-05
1	108	77.5703328041537	0.887603759765625	0.8880615234375	6.43310546875E-06	5.7129932429234E-06	138045.546875	1.84109721885761E-05
1	109	77.6710408038995	0.897674560546875	0.897216796875	6.55517578125E-06	5.88141392654506E-06	136871.515625	1.90649843716528E-05
1	110	77.7717488036452	0.907745361328125	0.90789794921875	6.573486328125E-06	5.96805466557271E-06	138115.140625	1.97260651475517E-05
1	111	77.8724568033909	0.917816162109375	0.91766357421875	6.5093994140625E-06	5.97343841945985E-06	140975.15625	2.03848412638763E-05
1	112	77.9731648031367	0.927886962890625	0.92803955078125	6.3934326171875E-06	5.93335835219477E-06	145155.125	2.10345497180242E-05
1	113	78.0738728028824	0.937957763671875	0.9381103515625	6.256103515625E-06	5.86891519560595E-06	149951.21875	2.16715052374639E-05
1	114	78.1745808026282	0.948028564453125	0.94818115234375	6.121826171875E-06	5.80460027777008E-06	154885.34375	2.22947837755783E-05
1	115	78.2752888023739	0.958099365234375	0.958251953125	6.0089111328125E-06	5.75805051994394E-06	159471.8125	2.29056149692042E-05
1	116	78.3759968021196	0.968170166015625	0.96832275390625	5.9326171875E-06	5.74468822378549E-06	163220.171875	2.35069182963343E-05
1	117	78.4767048018654	0.978240966796875	0.9783935546875	5.8990478515625E-06	5.77159016756923E-06	165856.1875	2.41026900766883E-05
1	118	78.5774128016111	0.988311767578125	0.98846435546875	5.9173583984375E-06	5.84909730605432E-06	167044.875	2.46976924245246E-05
1	119	78.6781208013568	0.998382568359375	0.99853515625	5.9814453125E-06	5.97268308411003E-06	166938.78125	2.52968457061797E-05
1	120	78.7788288011026	1.00845336914063	1.0089111328125	6.0882568359375E-06	6.14250984654063E-06	165714.296875	2.59046028077137E-05
1	121	78.8795368008483	1.01852416992188	1.01837158203125	6.2164306640625E-06	6.33063609711826E-06	163819.34375	2.65241924353177E-05
1	122	78.9802448005941	1.02859497070313	1.0284423828125	6.3446044921875E-06	6.52505968901096E-06	162097.171875	2.71566914307186E-05
1	123	79.0809528003398	1.03866577148438	1.03912353515625	6.4453125E-06	6.69747578285751E-06	161221.59375	2.78007155429805E-05
1	124	79.1816608000855	1.04873657226563	1.04888916015625	6.5032958984375E-06	6.82123663864331E-06	161285.78125	2.84527286567027E-05
1	125	79.2823687998313	1.05880737304688	1.058349609375	6.512451171875E-06	6.89245007379213E-06	162511.71875	2.91081232717261E-05
1	126	79.383076799577	1.06887817382813	1.06842041015625	6.4666748046875E-06	6.90912702339119E-06	165219.453125	2.97616752504837E-05
1	127	79.4837847993227	1.07894897460938	1.0784912109375	6.3873291015625E-06	6.88867839926388E-06	168848.546875	3.04089262499474E-05
1	128	79.5844927990685	1.08901977539063	1.08856201171875	6.280517578125E-06	6.83673260937212E-06	173323.625	3.10468021780252E-05
1	129	79.6852007988142	1.09909057617188	1.0986328125	6.1614990234375E-06	6.76922445563832E-06	178306.09375	3.16733057843521E-05
1	130	79.7859087985599	1.10916137695313	1.1090087890625	6.04248046875E-06	6.7011637838732E-06	183535.359375	3.22878258884884E-05
1	131	79.8866167983057	1.11923217773438	1.11907958984375	5.9234619140625E-06	6.62882484903093E-06	188923.25	3.28903588524554E-05
1	132	79.9873247980514	1.12930297851563	1.1297607421875	5.8135986328125E-06	6.56797510600882E-06	194330.71875	3.34813666995615E-05
1	133	80.0880327977972	1.13937377929688	1.13983154296875	5.712890625E-06	6.51173286314588E-06	199519.234375	3.40617734764237E-05
1	134	80.1887407975429	1.14944458007813	1.1492919921875	5.621337890625E-06	6.46055832476122E-06	204451.703125	3.46324959537014E-05
1	135	80.2894487972886	1.15951538085938	1.15936279296875	5.535888671875E-06	6.41810356682981E-06	209426.6875	3.51943090208806E-05
1	136	80.3901567970344	1.16958618164063	1.16943359375	5.462646484375E-06	6.38820210951963E-06	214078.21875	3.57481258106418E-05
1	137	80.4908647967801	1.17965698242188	1.17950439453125	5.3955078125E-06	6.3640250118624E-06	218608.59375	3.62948776455596E-05
1	138	80.5915727965258	1.18972778320313	1.18988037109375	5.3314208984375E-06	6.34375282970723E-06	223182.609375	3.68350229109637E-05
1	139	80.6922807962716	1.19979858398438	1.19964599609375	5.2764892578125E-06	6.32991896054591E-06	227356.859375	3.73691727872938E-05
1	140	80.7929887960173	1.20986938476563	1.209716796875	5.2276611328125E-06	6.32398905509035E-06	231406.890625	3.78980985260569E-05
1	141	80.893696795763	1.21994018554688	1.2200927734375	5.181884765625E-06	6.32238015896291E-06	235453.484375	3.84222621505614E-05
1	142	80.9944047955088	1.23001098632813	1.23016357421875	5.13916015625E-06	6.32200726613519E-06	239370.5625	3.89419692510273E-05
1	143	81.0951127952545	1.24008178710938	1.240234375	5.1025390625E-06	6.32834417046979E-06	243062.203125	3.94576782127842E-05
1	144	81.1958207950003	1.25015258789063	1.2506103515625	5.06591796875E-06	6.33548916084692E-06	246867.484375	3.99697019020095E-05
1	145	81.296528794746	1.26022338867188	1.2603759765625	5.035400390625E-06	6.34649722996983E-06	250303.046875	4.04783422709443E-05
1	146	81.3972367944917	1.27029418945313	1.2701416015625	5.0079345703125E-06	6.36078584648203E-06	253625.84375	4.09840649808757E-05
1	147	81.4979447942375	1.28036499023438	1.28021240234375	4.98046875E-06	6.37605762676685E-06	257046.578125	4.14870191889349E-05
1	148	81.5986527939832	1.29043579101563	1.29058837890625	4.95697021484375E-06	6.39740846963832E-06	260358.296875	4.19874086219352E-05
1	149	81.6993607937289	1.30050659179688	1.30035400390625	4.93621826171875E-06	6.41883070784388E-06	263431.25	4.24855716119055E-05
1	150	81.8000687934747	1.31057739257813	1.31072998046875	4.9188232421875E-06	6.44724877929548E-06	266472.28125	4.29818137490656E-05
1	151	81.9007767932204	1.32064819335938	1.32049560546875	4.903564453125E-06	6.47513525109389E-06	269293	4.34764078818262E-05
1	152	82.0014847929662	1.33071899414063	1.33056640625	4.891357421875E-06	6.50827541903709E-06	272023.96875	4.39696232206188E-05
1	153	82.1021927927119	1.34078979492188	1.34063720703125	4.881591796875E-06	6.54444374958985E-06	274631.15625	4.44617289758753E-05
1	154	82.2029007924576	1.35086059570313	1.35101318359375	4.87457275390625E-06	6.5856120272656E-06	277155.1875	4.49529907200485E-05
1	155	82.3036087922034	1.36093139648438	1.361083984375	4.86968994140625E-06	6.62805678075529E-06	279501.15625	4.54436521977186E-05
1	156	82.4043167919491	1.37100219726563	1.37115478515625	4.8663330078125E-06	6.67249560137861E-06	281763.46875	4.59339025837835E-05
1	157	82.5050247916948	1.38107299804688	1.3812255859375	4.86572265625E-06	6.7206606217951E-06	283868.5625	4.64239492430352E-05
1	158	82.6057327914406	1.39114379882813	1.3909912109375	4.866943359375E-06	6.76987519909744E-06	285803.875	4.69140286440961E-05
1	159	82.7064407911863	1.40121459960938	1.40167236328125	4.87060546875E-06	6.82699283061083E-06	287781.96875	4.74043517897371E-05
1	160	82.807148790932	1.41128540039063	1.41082763671875	4.8760986328125E-06	6.87933470544522E-06	289335.34375	4.78951369586866E-05
1	161	82.9078567906778	1.42135620117188	1.4208984375	4.8846435546875E-06	6.94058235239936E-06	290890.90625	4.83866315335035E-05
1	162	83.0085647904235	1.43142700195313	1.43157958984375	4.8974609375E-06	7.01110457157483E-06	292310.59375	4.88791993120685E-05
1	163	83.1092727901693	1.44149780273438	1.44134521484375	4.915771484375E-06	7.08532388671301E-06	293208.34375	4.93733350594994E-05
1	164	83.209980789915	1.45156860351563	1.45172119140625	4.9432373046875E-06	7.17620241630357E-06	293678.21875	4.98697736475151E-05
1	165	83.3106887896607	1.46163940429688	1.4617919921875	4.9835205078125E-06	7.28487020751345E-06	293325.1875	5.03696282976307E-05
1	166	83.4113967894065	1.47171020507813	1.4715576171875	5.029296875E-06	7.40090035833418E-06	292597.09375	5.08738121425267E-05
1	167	83.5121047891522	1.48178100585938	1.4813232421875	5.09033203125E-06	7.54042685002787E-06	291007.21875	5.13833765580785E-05
1	168	83.6128127888979	1.49185180664063	1.4923095703125	5.157470703125E-06	7.6965425250819E-06	289349.125	5.1899394748034E-05
1	169	83.7135207886437	1.50192260742188	1.50177001953125	5.23681640625E-06	7.86449345469009E-06	286771.5625	5.24227871210314E-05
1	170	83.8142287883894	1.49185180664063	1.49169921875	4.9957275390625E-06	7.45212264519068E-06	298595	5.29380376974586E-05
1	171	83.9149367881352	1.48178100585938	1.4825439453125	4.8193359375E-06	7.1448775997851E-06	307624.09375	5.34322643943597E-05
1	172	84.0156447878809	1.47171020507813	1.4715576171875	4.6844482421875E-06	6.89343505655415E-06	314136.8125	5.39108186785597E-05
1	173	84.1163527876266	1.46163940429688	1.461181640625	4.57427978515625E-06	6.68385337121435E-06	319434.28125	5.43770329386462E-05
1	174	84.2170607873724	1.45156860351563	1.45111083984375	4.481201171875E-06	6.50271931590396E-06	323821.875	5.48330135643482E-05
1	175	84.3177687871181	1.44149780273438	1.441650390625	4.40277099609375E-06	6.34725665804581E-06	327441.59375	5.52803539903834E-05
1	176	84.4184767868638	1.43142700195313	1.4312744140625	4.33349609375E-06	6.20242144577787E-06	330281.71875	5.57202620257158E-05
1	177	84.5191847866096	1.42135620117188	1.4215087890625	4.27276611328125E-06	6.07377432970679E-06	332690.53125	5.61536216991954E-05
1	178	84.6198927863553	1.41128540039063	1.4111328125	4.21875E-06	5.95321625951328E-06	334490.75	5.65812042623293E-05
1	179	84.720600786101	1.40121459960938	1.40106201171875	4.169921875E-06	5.842318842042E-06	335992.40625	5.70036063436419E-05
1	180	84.8213087858468	1.39114379882813	1.3909912109375	4.1259765625E-06	5.73919669477618E-06	337130.1875	5.74213372601662E-05
1	181	84.9220167855925	1.38107299804688	1.38153076171875	4.08355712890625E-06	5.64155971005675E-06	338315.53125	5.7834720792016E-05
1	182	85.0227247853383	1.37100219726563	1.3714599609375	4.04510498046875E-06	5.54769940208644E-06	339041.875	5.82440297876019E-05
1	183	85.123432785084	1.36093139648438	1.3604736328125	4.00909423828125E-06	5.45426655662595E-06	339346.90625	5.86495916650165E-05
1	184	85.2241407848297	1.35086059570313	1.35101318359375	3.9752197265625E-06	5.37057394467411E-06	339858.78125	5.90516356169246E-05
1	185	85.3248487845755	1.34078979492188	1.34033203125	3.94287109375E-06	5.28475629835157E-06	339938.09375	5.94503435422666E-05
1	186	85.4255567843212	1.33071899414063	1.33087158203125	3.9117431640625E-06	5.206027708482E-06	340224.6875	5.98458536842372E-05
1	187	85.5262647840669	1.32064819335938	1.32080078125	3.8818359375E-06	5.1271317715873E-06	340251.59375	6.02382897341158E-05
1	188	85.6269727838127	1.31057739257813	1.31072998046875	3.8525390625E-06	5.04963827552274E-06	340224.96875	6.06277462793514E-05
1	189	85.7276807835584	1.30050659179688	1.30096435546875	3.8250732421875E-06	4.97628388984594E-06	340114.875	6.10143470112234E-05
1	190	85.8283887833041	1.29043579101563	1.29119873046875	3.797607421875E-06	4.90346565129585E-06	340003.21875	6.13981756032445E-05
1	191	85.9290967830499	1.28036499023438	1.280517578125	3.77166748046875E-06	4.82968653159332E-06	339509.65625	6.17793193669058E-05
1	192	86.0298047827956	1.27029418945313	1.270751953125	3.74664306640625E-06	4.76105378766079E-06	339170.8125	6.2157901993487E-05
1	193	86.1305127825414	1.26022338867188	1.260986328125	3.721923828125E-06	4.69329506813665E-06	338799.59375	6.25339744146913E-05
1	194	86.2312207822871	1.25015258789063	1.24969482421875	3.69873046875E-06	4.62228399555897E-06	337871.3125	6.29076312179677E-05
1	195	86.3319287820328	1.24008178710938	1.240234375	3.67523193359375E-06	4.55814915767405E-06	337457.4375	6.32789378869347E-05
1	196	86.4326367817786	1.23001098632813	1.23016357421875	3.653564453125E-06	4.49448180006584E-06	336702.3125	6.36479744571261E-05
1	197	86.5333447815243	1.21994018554688	1.21978759765625	3.631591796875E-06	4.42977034254E-06	335882.375	6.4014813688118E-05
1	198	86.63405278127	1.20986938476563	1.21002197265625	3.6102294921875E-06	4.36845675721997E-06	335164.84375	6.4379462855868E-05
1	199	86.7347607810158	1.19979858398438	1.19964599609375	3.5888671875E-06	4.30537011197885E-06	334268.71875	6.47419656161219E-05
1	200	86.8354687807615	1.18972778320313	1.1895751953125	3.56719970703125E-06	4.2434521674295E-06	333475.9375	6.51023074169643E-05
1	201	86.9361767805073	1.17965698242188	1.17950439453125	3.54583740234375E-06	4.18233048549155E-06	332644.8125	6.54604737064801E-05
1	202	87.036884780253	1.16958618164063	1.16943359375	3.52325439453125E-06	4.12021199736046E-06	331918.59375	6.58164353808388E-05
1	203	87.1375927799987	1.15951538085938	1.15936279296875	3.49884033203125E-06	4.05642504119896E-06	331356.3125	6.61700250930153E-05
1	204	87.2383007797445	1.14944458007813	1.1492919921875	3.47198486328125E-06	3.99032433051616E-06	331018.71875	6.65210318402387E-05
1	205	87.3390087794902	1.13937377929688	1.1395263671875	3.4417724609375E-06	3.92199035559315E-06	331087.09375	6.68691645842046E-05
1	206	87.4397167792359	1.12930297851563	1.12945556640625	3.4063720703125E-06	3.84734585168189E-06	331571.40625	6.72140013193712E-05
1	207	87.5404247789817	1.11923217773438	1.11907958984375	3.3636474609375E-06	3.76418915948307E-06	332698.25	6.75548944855109E-05
1	208	87.6411327787274	1.10916137695313	1.10870361328125	3.3099365234375E-06	3.66973836207762E-06	334962.21875	6.78909345879219E-05
1	209	87.7418407784731	1.09909057617188	1.09893798828125	3.2415771484375E-06	3.5622922496259E-06	339013.375	6.82208337821066E-05
1	210	87.8425487782189	1.08901977539063	1.08917236328125	3.15338134765625E-06	3.43457554663473E-06	345398.25	6.85428458382376E-05
1	211	87.9432567779646	1.07894897460938	1.0791015625	3.04046630859375E-06	3.280971895947E-06	354913.1875	6.88547297613695E-05
1	212	88.0439647777104	1.06887817382813	1.0687255859375	2.89459228515625E-06	3.09352481053793E-06	369214.5625	6.91535824444145E-05
1	213	88.1446727774561	1.05880737304688	1.058349609375	2.71514892578125E-06	2.87357670458732E-06	389794.3125	6.94360569468699E-05
1	214	88.2453807772018	1.04873657226563	1.04827880859375	2.50213623046875E-06	2.62293633568333E-06	418953.5625	6.96987699484453E-05
1	215	88.3460887769476	1.03866577148438	1.0382080078125	2.26470947265625E-06	2.3512393454439E-06	458428.8125	6.99387965141796E-05
1	216	88.4467967766933	1.02859497070313	1.02874755859375	2.0166015625E-06	2.07457378564868E-06	510139.25	7.01543758623302E-05
1	217	88.547504776439	1.01852416992188	1.01898193359375	1.78009033203125E-06	1.8138798623113E-06	572432.6875	7.03455589246005E-05
1	218	88.6482127761848	1.00845336914063	1.0089111328125	1.575927734375E-06	1.58997102062131E-06	640201.375	7.05145430401899E-05
1	219	88.7489207759305	0.998382568359375	0.99822998046875	1.42120361328125E-06	1.41868804348633E-06	702383.5	7.06654609530233E-05
1	220	88.8496287756763	0.988311767578125	0.98846435546875	1.32232666015625E-06	1.30707269363484E-06	747519.0625	7.08036095602438E-05
1	221	88.950336775422	0.978240966796875	0.9783935546875	1.27349853515625E-06	1.24598273032461E-06	768272.25	7.09343221387826E-05
1	222	89.0510447751677	0.968170166015625	0.968017578125	1.2591552734375E-06	1.21888444937213E-06	768783.3125	7.10618478478864E-05
1	223	89.1517527749135	0.958099365234375	0.95794677734375	1.2591552734375E-06	1.20620370580582E-06	760785.25	7.1188660513144E-05
1	224	89.2524607746592	0.948028564453125	0.948486328125	1.25274658203125E-06	1.18821299111005E-06	757125.5	7.13151384843513E-05
1	225	89.3531687744049	0.937957763671875	0.9381103515625	1.2255859375E-06	1.1497348850753E-06	765438.25	7.14399357093498E-05
1	226	89.4538767741507	0.927886962890625	0.927734375	1.16180419921875E-06	1.07784569536307E-06	798529	7.15601490810513E-05
1	227	89.5545847738964	0.917816162109375	0.91827392578125	1.051025390625E-06	9.65129174801405E-07	873693.375	7.1671573095955E-05
1	228	89.6552927736421	0.907745361328125	0.90789794921875	8.8165283203125E-07	8.00450777660444E-07	1029768.125	7.17688963050023E-05
1	229	89.7560007733879	0.897674560546875	0.89813232421875	6.4544677734375E-07	5.79696632030391E-07	1391489.375	7.1845788625069E-05
1	230	89.8567087731336	0.887603759765625	0.887451171875	3.4515380859375E-07	3.06307157416086E-07	2571176	7.18956725904718E-05
1	231	89.9574167728794	0.877532958984375	0.87799072265625	-1.34277343750003E-08	-1.17894263240714E-08	-65386364	7.19123709131964E-05
1	232	90.0581247726251	0.867462158203125	0.86761474609375	-4.0557861328125E-07	-3.51885972804666E-07	-2139202.5	7.18912779120728E-05
1	233	90.1588327723708	0.857391357421875	0.85723876953125	-8.0413818359375E-07	-6.89338378379034E-07	-1066034.25	7.18303635949269E-05
1	234	90.2595407721166	0.847320556640625	0.8477783203125	-1.170654296875E-06	-9.92455284176685E-07	-724191.875	7.17309230822138E-05
1	235	90.3602487718623	0.837249755859375	0.83740234375	-1.475830078125E-06	-1.23586346489901E-06	-567411.125	7.15976639185101E-05
1	236	90.460956771608	0.827178955078125	0.82733154296875	-1.6937255859375E-06	-1.40127247050259E-06	-488468.5	7.14380585122854E-05
1	237	90.5616647713538	0.817108154296875	0.8172607421875	-1.81640625E-06	-1.48447747960745E-06	-449932.8125	7.12613109499216E-05
1	238	90.6623727710995	0.807037353515625	0.80718994140625	-1.84844970703125E-06	-1.49204993249441E-06	-436684.84375	7.10767708369531E-05
1	239	90.7630807708452	0.796966552734375	0.7965087890625	-1.81304931640625E-06	-1.4441096709561E-06	-439320	7.08923980710097E-05
1	240	90.863788770591	0.786895751953125	0.78704833984375	-1.7352294921875E-06	-1.3657095223607E-06	-453570.1875	7.07137296558358E-05
1	241	90.9644967703367	0.776824951171875	0.7769775390625	-1.640625E-06	-1.27472878830304E-06	-473586.3125	7.05437414580956E-05
1	242	91.0652047700825	0.766754150390625	0.76690673828125	-1.54876708984375E-06	-1.18775983537489E-06	-495172.4375	7.03831465216354E-05
1	243	91.1659127698282	0.756683349609375	0.7568359375	-1.47705078125E-06	-1.11788506274024E-06	-512396.6875	7.02307806932367E-05
1	244	91.2666207695739	0.746612548828125	0.74652099609375	-1.43646240234375E-06	-1.07234939150658E-06	-519694.0625	7.0084075559862E-05
1	245	91.3673287693197	0.736541748046875	0.736480712890625	-1.4349365234375E-06	-1.05680305750866E-06	-513249.6875	6.99394877301529E-05
1	246	91.4680367690654	0.726470947265625	0.726409912109375	-1.47613525390625E-06	-1.0722792467277E-06	-492102.53125	6.97929062880576E-05
1	247	91.5687447688111	0.716400146484375	0.716339111328125	-1.5618896484375E-06	-1.11884264697437E-06	-458636.21875	6.96399292792194E-05
1	248	91.6694527685569	0.706329345703125	0.706268310546875	-1.683349609375E-06	-1.18889647637843E-06	-419561.3125	6.94765185471624E-05
1	249	91.7701607683026	0.696258544921875	0.6961669921875	-1.82861328125E-06	-1.27302018881892E-06	-380707.625	6.92996763973497E-05
1	250	91.8708687680484	0.686187744140625	0.6861572265625	-1.97601318359375E-06	-1.35585571570118E-06	-347243.25	6.91081004333682E-05
1	251	91.9715767677941	0.676116943359375	0.676055908203125	-2.1044921875E-06	-1.42275428061112E-06	-321244.21875	6.89026273903437E-05
1	252	92.0722847675398	0.666046142578125	0.665985107421875	-2.1923828125E-06	-1.46009426771343E-06	-303772.28125	6.86862622387707E-05
1	253	92.1729927672856	0.655975341796875	0.65594482421875	-2.2314453125E-06	-1.46370496167947E-06	-293955.15625	6.84635015204549E-05
1	254	92.2737007670313	0.645904541015625	0.645843505859375	-2.21954345703125E-06	-1.43347767789237E-06	-290980.34375	6.82393801980652E-05
1	255	92.374408766777	0.635833740234375	0.63580322265625	-2.16552734375E-06	-1.37684924084169E-06	-293602.03125	6.80185767123476E-05
1	256	92.4751167665228	0.625762939453125	0.625701904296875	-2.0831298828125E-06	-1.30341834392311E-06	-300366.25	6.78046344546601E-05
1	257	92.5758247662685	0.615692138671875	0.61566162109375	-1.98394775390625E-06	-1.22144047054462E-06	-310321.5	6.75998453516513E-05
1	258	92.6765327660142	0.605621337890625	0.6055908203125	-1.878662109375E-06	-1.13770045118144E-06	-322352.1875	6.7405344452709E-05
1	259	92.77724076576	0.595550537109375	0.5955810546875	-1.773681640625E-06	-1.05637116121216E-06	-335788.03125	6.72214373480529E-05
1	260	92.8779487655057	0.585479736328125	0.58551025390625	-1.6741943359375E-06	-9.80257937044371E-07	-349726.59375	6.70478184474632E-05
1	261	92.9786567652515	0.575408935546875	0.57537841796875	-1.580810546875E-06	-9.09564221274195E-07	-363976.84375	6.68839202262461E-05
1	262	93.0793647649972	0.565338134765625	0.565338134765625	-1.4947509765625E-06	-8.45039664909564E-07	-378215.625	6.67290514684282E-05
1	263	93.1800727647429	0.555267333984375	0.555206298828125	-1.41693115234375E-06	-7.8668909964108E-07	-391837.1875	6.65824336465448E-05
1	264	93.2807807644887	0.545196533203125	0.545196533203125	-1.34674072265625E-06	-7.3423831281616E-07	-404826.65625	6.64432736812159E-05
1	265	93.3814887642344	0.535125732421875	0.53515625	-1.28265380859375E-06	-6.86420207784977E-07	-417225.8125	6.63108730805106E-05
1	266	93.4821967639801	0.525054931640625	0.525054931640625	-1.22406005859375E-06	-6.42698751107673E-07	-428945.40625	6.61846497678198E-05
1	267	93.5829047637259	0.514984130859375	0.514984130859375	-1.17095947265625E-06	-6.0302551219138E-07	-439796.75	6.60640507703647E-05
1	268	93.6836127634716	0.504913330078125	0.5048828125	-1.12335205078125E-06	-5.67161123399273E-07	-449443.09375	6.59485231153667E-05
1	269	93.7843207632174	0.494842529296875	0.49481201171875	-1.07940673828125E-06	-5.34103435256839E-07	-458411.09375	6.58376084174961E-05
1	270	93.8850287629631	0.484771728515625	0.484771728515625	-1.03912353515625E-06	-5.03737680901395E-07	-466519.84375	6.57309283269569E-05
1	271	93.9857367627088	0.474700927734375	0.474700927734375	-1.00189208984375E-06	-4.75599108540337E-07	-473804.4375	6.56281554256566E-05
1	272	94.0864447624546	0.464630126953125	0.464630126953125	-9.6710205078125E-07	-4.49344724984257E-07	-480435.5	6.55290132272057E-05
1	273	94.1871527622003	0.454559326171875	0.45452880859375	-9.3536376953125E-07	-4.25149778493505E-07	-485938.03125	6.54332106932998E-05
1	274	94.287860761946	0.444488525390625	0.4444580078125	-9.0606689453125E-07	-4.02708678848285E-07	-490535.53125	6.53404931654222E-05
1	275	94.3885687616918	0.434417724609375	0.4344482421875	-8.7890625E-07	-3.81839271312856E-07	-494305.5625	6.52506132610142E-05
1	276	94.4892767614375	0.424346923828125	0.42431640625	-8.526611328125E-07	-3.61798100811939E-07	-497637.8125	6.51634181849658E-05
1	277	94.5899847611832	0.414276123046875	0.414306640625	-8.28857421875E-07	-3.4340112620157E-07	-499852.71875	6.50787478662096E-05
1	278	94.690692760929	0.404205322265625	0.40423583984375	-8.06274414062499E-07	-3.25925014976747E-07	-501362.625	6.49964131298475E-05
1	279	94.7914007606747	0.394134521484375	0.3941650390625	-7.8460693359375E-07	-3.09264606812576E-07	-502372.625	6.49163048365153E-05
1	280	94.8921087604205	0.384063720703125	0.384063720703125	-7.6446533203125E-07	-2.9360339226514E-07	-502395.21875	6.48383065708913E-05
1	281	94.9928167601662	0.373992919921875	0.373931884765625	-7.45239257812499E-07	-2.78668693454165E-07	-501760.875	6.47622800897807E-05
1	282	95.0935247599119	0.363922119140625	0.36395263671875	-7.275390625E-07	-2.64789747461691E-07	-500251.6875	6.46881235297769E-05
1	283	95.1942327596577	0.353851318359375	0.353912353515625	-7.098388671875E-07	-2.51220740210556E-07	-498581.28125	6.4615742303431E-05
1	284	95.2949407594034	0.343780517578125	0.343780517578125	-6.9427490234375E-07	-2.386781829955E-07	-495164.84375	6.4545041823294E-05
1	285	95.3956487591491	0.333709716796875	0.333740234375	-6.78405761718751E-07	-2.26411287940209E-07	-491947.84375	6.44759202259593E-05
1	286	95.4963567588949	0.323638916015625	0.32366943359375	-6.6436767578125E-07	-2.1503549874069E-07	-487184.21875	6.44083120278083E-05
1	287	95.5970647586406	0.313568115234375	0.313629150390625	-6.512451171875E-07	-2.04249445800997E-07	-481583.90625	6.43420644337311E-05
1	288	95.6977727583863	0.303497314453125	0.303466796875	-6.38427734375E-07	-1.93741612974918E-07	-475334.625	6.42771192360669E-05
1	289	95.7984807581321	0.293426513671875	0.29345703125	-6.26525878906251E-07	-1.83858432478701E-07	-468387.71875	6.42134255031124E-05
1	290	95.8991887578778	0.283355712890625	0.283355712890625	-6.15234375E-07	-1.74330168078995E-07	-460565.5	6.41508959233761E-05
1	291	95.9998967576236	0.273284912109375	0.273284912109375	-6.04858398437499E-07	-1.6529867252757E-07	-451816.375	6.40894650132395E-05
1	292	96.1006047573693	0.263214111328125	0.26318359375	-5.950927734375E-07	-1.56618654045815E-07	-442256.40625	6.40290381852537E-05
1	293	96.201312757115	0.253143310546875	0.253143310546875	-5.86853027343751E-07	-1.48557901979984E-07	-431357.28125	6.39695208519697E-05
1	294	96.3020207568608	0.243072509765625	0.243133544921875	-5.78918457031249E-07	-1.40754494282191E-07	-419978.9375	6.39108257018961E-05
1	295	96.4027287566065	0.233001708984375	0.233001708984375	-5.7220458984375E-07	-1.33324633111442E-07	-407200.03125	6.38528581475839E-05
1	296	96.5034367563522	0.222930908203125	0.222930908203125	-5.67016601562501E-07	-1.26405524270012E-07	-393164.71875	6.37954944977537E-05
1	297	96.604144756098	0.212860107421875	0.212890625	-5.62744140625E-07	-1.19802948006509E-07	-378308.0625	6.37386037851684E-05
1	298	96.7048527558437	0.202789306640625	0.20281982421875	-5.5999755859375E-07	-1.13578600746678E-07	-362179.84375	6.36820695945062E-05
1	299	96.8055607555895	0.192718505859375	0.1927490234375	-5.584716796875E-07	-1.07644865465772E-07	-345136.625	6.36257536825724E-05
1	300	96.9062687553352	0.182647705078125	0.182586669921875	-5.59387207031251E-07	-1.02136645807605E-07	-326404.78125	6.35694668744691E-05
1	301	97.0069767550809	0.172576904296875	0.17266845703125	-5.6182861328125E-07	-9.7010072863668E-08	-307333	6.3513005443383E-05
1	302	97.1076847548267	0.162506103515625	0.162506103515625	-5.6732177734375E-07	-9.21932468145314E-08	-286444.34375	6.34561511105858E-05
1	303	97.2083927545724	0.152435302734375	0.1524658203125	-5.7647705078125E-07	-8.78930421777113E-08	-264478.5625	6.33985546301119E-05
1	304	97.3091007543181	0.142364501953125	0.1424560546875	-5.908203125E-07	-8.41659328898459E-08	-241115.703125	6.33397794445045E-05
1	305	97.4098087540639	0.132293701171875	0.132293701171875	-6.1248779296875E-07	-8.10282756447123E-08	-215994.03125	6.32791852694936E-05
1	306	97.5105167538096	0.122222900390625	0.1221923828125	-6.43310546875001E-07	-7.86076483905163E-08	-189943.078125	6.32159499218687E-05
1	307	97.6112247535553	0.112152099609375	0.112152099609375	-6.89086914062501E-07	-7.72825430317425E-08	-162754.65625	6.31488583167084E-05
1	308	97.7119327533011	0.102081298828125	0.102142333984375	-7.53173828125001E-07	-7.69309309589516E-08	-135615.890625	6.30762369837612E-05
1	309	97.8126407530468	0.092010498046875	0.092041015625	-8.41674804687501E-07	-7.74685986471013E-08	-109354.609375	6.29959322395734E-05
1	310	97.9133487527926	0.081939697265625	0.082000732421875	-9.63439941406249E-07	-7.90027741004451E-08	-85112.453125	6.29050337010995E-05
1	311	98.0140567525383	0.071868896484375	0.0718994140625	-1.12274169921875E-06	-8.07244688871833E-08	-64039.14453125	6.27999834250659E-05
1	312	98.114764752284	0.061798095703125	0.0618896484375	-1.3214111328125E-06	-8.17816712128661E-08	-46836.02734375	6.2676910602022E-05
1	313	98.2154727520298	0.051727294921875	0.0517578125	-1.556396484375E-06	-8.05556794603035E-08	-33254.90234375	6.25320026301779E-05
1	314	98.3161807517755	0.041656494140625	0.041729736328125	-1.815185546875E-06	-7.57472164991668E-08	-22989.240234375	6.23622327111661E-05
1	315	98.4168887515212	0.031585693359375	0.0317047119140625	-2.0782470703125E-06	-6.58902266081896E-08	-15255.5078125	6.2166182033252E-05
1	316	98.517596751267	0.021514892578125	0.0216064453125	-2.31781005859375E-06	-5.00796346614152E-08	-9321.9228515625	6.19448255747557E-05
1	317	98.6183047510127	0.011444091796875	0.011566162109375	-2.51068115234375E-06	-2.90389436941041E-08	-4606.78271484375	6.17016921751201E-05
1	318	98.7190127507585	0.001373291015625	0.00150146484374999	-2.64068603515625E-06	-3.96489729936889E-09	-568.588928222656	6.14422970102169E-05
1	319	98.8197207505042	-0.008697509765625	-0.00855712890625	-2.70416259765625E-06	2.31398669114924E-08	3164.42822265625	6.11731593380682E-05
1	320	98.9204287502499	-0.018768310546875	-0.01866455078125	-2.708740234375E-06	5.05574142550813E-08	6890.4912109375	6.09006019658409E-05
1	321	99.0211367499957	-0.028839111328125	-0.028704833984375	-2.67059326171875E-06	7.66589351997027E-08	10748.486328125	6.06297289778013E-05
1	322	99.1218447497414	-0.038909912109375	-0.03876953125	-2.60528564453125E-06	1.01005703356805E-07	14881.1064453125	6.03640692133922E-05
1	323	99.2225527494871	-0.048980712890625	-0.04881591796875	-2.52655029296875E-06	1.23335865964691E-07	19321.17578125	6.01056599407457E-05
1	324	99.3232607492329	-0.059051513671875	-0.0589599609375	-2.4444580078125E-06	1.44125152701235E-07	24119.849609375	5.98553488089237E-05
1	325	99.4239687489786	-0.069122314453125	-0.069000244140625	-2.36480712890625E-06	1.6317225970397E-07	29177.9609375	5.96131831116509E-05
1	326	99.5246767487243	-0.079193115234375	-0.079132080078125	-2.29034423828125E-06	1.81239698804347E-07	34550.30078125	5.93787772231735E-05
1	327	99.6253847484701	-0.089263916015625	-0.089202880859375	-2.22320556640625E-06	1.98316328692272E-07	40123.54296875	5.91515054111369E-05
1	328	99.7260927482158	-0.099334716796875	-0.099212646484375	-2.164306640625E-06	2.14726583180891E-07	45840.38671875	5.8930574596161E-05
1	329	99.8268007479616	-0.109405517578125	-0.109283447265625	-2.11181640625E-06	2.30786582733344E-07	51748.5546875	5.87152535445057E-05
1	330	99.9275087477073	-0.119476318359375	-0.119354248046875	-2.06634521484375E-06	2.46627081423867E-07	57761.04296875	5.85048692300916E-05
1	331	100.028216747453	-0.129547119140625	-0.12945556640625	-2.02728271484375E-06	2.62443023757442E-07	63856.6953125	5.82987377129029E-05
1	332	100.128924747199	-0.139617919921875	-0.139556884765625	-1.993408203125E-06	2.78193851954711E-07	70009.1875	5.80962805543095E-05
1	333	100.229632746945	-0.149688720703125	-0.149566650390625	-1.96533203125E-06	2.93948119178822E-07	76102.4921875	5.78969411435537E-05
1	334	100.33034074669	-0.159759521484375	-0.15966796875	-1.9427490234375E-06	3.10194764097105E-07	82186.625	5.77001519559417E-05
1	335	100.431048746436	-0.169830322265625	-0.169677734375	-1.92413330078125E-06	3.26482592072352E-07	88183.9765625	5.75054400542285E-05
1	336	100.531756746182	-0.179901123046875	-0.179718017578125	-1.9110107421875E-06	3.4344304822298E-07	94043.4375	5.73123252252117E-05
1	337	100.632464745927	-0.189971923828125	-0.189849853515625	-1.9024658203125E-06	3.61182856067899E-07	99791.46875	5.7120301789837E-05
1	338	100.733172745673	-0.200042724609375	-0.199859619140625	-1.8988037109375E-06	3.79494196067753E-07	105255.546875	5.69288931728806E-05
1	339	100.833880745419	-0.189971923828125	-0.189849853515625	-1.69281005859375E-06	3.21379729939508E-07	112150.71875	5.67480419704225E-05
2	340	100.934588745165	-0.179901123046875	-0.17974853515625	-1.5435791015625E-06	2.77456081221317E-07	116449.1953125	5.658507507178E-05
2	341	101.03529674491	-0.169830322265625	-0.169677734375	-1.422119140625E-06	2.41301961523277E-07	119313.3046875	5.64357396797277E-05
2	342	101.136004744656	-0.159759521484375	-0.15960693359375	-1.318359375E-06	2.10419287327568E-07	121064.8203125	5.62977475055959E-05
2	343	101.236712744402	-0.149688720703125	-0.14959716796875	-1.22833251953125E-06	1.83755062721502E-07	121788.8203125	5.61695123906247E-05
2	344	101.337420744148	-0.139617919921875	-0.1395263671875	-1.1468505859375E-06	1.60015886763176E-07	121660.4609375	5.60499101993628E-05
2	345	101.438128743893	-0.129547119140625	-0.129486083984375	-1.07330322265625E-06	1.38977824803987E-07	120642.59375	5.59381187485997E-05
2	346	101.538836743639	-0.119476318359375	-0.119354248046875	-1.00616455078125E-06	1.20090007271756E-07	118622.9921875	5.58334068045951E-05
2	347	101.639544743385	-0.109405517578125	-0.109344482421875	-9.42382812500001E-07	1.03044357047111E-07	116029.796875	5.57352905161679E-05
2	348	101.740252743131	-0.099334716796875	-0.0992431640625	-8.81042480468749E-07	8.74374421755419E-08	112642.8828125	5.56434752070345E-05
2	349	101.840960742876	-0.089263916015625	-0.089202880859375	-8.209228515625E-07	7.32286835614104E-08	108661.7109375	5.5557771702297E-05
2	350	101.941668742622	-0.079193115234375	-0.07916259765625	-7.586669921875E-07	6.00580492005065E-08	104344.328125	5.54782345716376E-05
2	351	102.042376742368	-0.069122314453125	-0.06903076171875	-6.92138671875001E-07	4.77788582031735E-08	99735.453125	5.54051803192124E-05
2	352	102.143084742114	-0.059051513671875	-0.0589599609375	-6.1767578125E-07	3.64181396150798E-08	95454.546875	5.53392274014186E-05
2	353	102.243792741859	-0.048980712890625	-0.048828125	-5.30090332031249E-07	2.58833168231831E-08	92112.8359375	5.52814308321103E-05
2	354	102.344500741605	-0.038909912109375	-0.0387542724609375	-4.23583984375001E-07	1.64156883641908E-08	91491.359375	5.52334095118567E-05
2	355	102.445208741351	-0.028839111328125	-0.0287139892578125	-2.92358398437501E-07	8.39477554137602E-09	98215.0390625	5.51973607798573E-05
2	356	102.545916741096	-0.018768310546875	-0.018670654296875	-1.28173828125E-07	2.3930890602486E-09	145666.671875	5.51761841052212E-05
2	357	102.646624740842	-0.008697509765625	-0.00858459472656251	7.29370117187503E-08	-6.26134644132748E-10	-117698.734375	5.51734010514338E-05
2	358	102.747332740588	0.001373291015625	0.00151672363281249	3.1280517578125E-07	4.74438988096182E-10	4848.78076171875	5.51928278582636E-05
2	359	102.848040740334	0.011444091796875	0.0115142822265625	5.841064453125E-07	6.72556588199313E-09	19712.642578125	5.52379897271749E-05
2	360	102.948748740079	0.021514892578125	0.021630859375	8.73413085937499E-07	1.88926740918305E-08	24765.8984375	5.53113823116291E-05
2	361	103.049456739825	0.031585693359375	0.031683349609375	1.15631103515625E-06	3.66358037240389E-08	27400.369140625	5.54135876882356E-05
2	362	103.150164739571	0.041656494140625	0.0417572021484375	1.40899658203125E-06	5.88357558228836E-08	29636.12890625	5.55427577637602E-05
2	363	103.250872739317	0.051727294921875	0.051788330078125	1.60736083984375E-06	8.32425328667341E-08	32219.48046875	5.56946433789562E-05
2	364	103.351580739062	0.061798095703125	0.061859130859375	1.739501953125E-06	1.0760408031274E-07	35561.40234375	5.58631727471948E-05
2	365	103.452288738808	0.071868896484375	0.071929931640625	1.80389404296875E-06	1.29753971123137E-07	39874.8125	5.60415974177886E-05
2	366	103.552996738554	0.081939697265625	0.082000732421875	1.8121337890625E-06	1.48596299709425E-07	45250.92578125	5.62236782570835E-05
2	367	103.6537047383	0.092010498046875	0.092071533203125	1.7791748046875E-06	1.63811350262222E-07	51749.5703125	5.64045149076264E-05
2	368	103.754412738045	0.102081298828125	0.10211181640625	1.7218017578125E-06	1.75816296632547E-07	59305.2109375	5.65808040846605E-05
2	369	103.855120737791	0.112152099609375	0.1121826171875	1.65191650390625E-06	1.85316309853079E-07	67910.5859375	5.67506831430364E-05
2	370	103.955828737537	0.122222900390625	0.122222900390625	1.5802001953125E-06	1.93136656889692E-07	77346.46875	5.69134354009293E-05
2	371	104.056536737282	0.132293701171875	0.13238525390625	1.510009765625E-06	1.99903027464643E-07	87671.7890625	5.70690390304662E-05
2	372	104.157244737028	0.142364501953125	0.142364501953125	1.44500732421875E-06	2.05717753942736E-07	98521.6484375	5.72178360016551E-05
2	373	104.257952736774	0.152435302734375	0.152496337890625	1.38580322265625E-06	2.11329918897718E-07	110041.84375	5.73603792872746E-05
2	374	104.35866073652	0.162506103515625	0.162506103515625	1.3336181640625E-06	2.16721076640169E-07	121853.5546875	5.74973128095735E-05
2	375	104.459368736265	0.172576904296875	0.172637939453125	1.28753662109375E-06	2.22277677153215E-07	134083.90625	5.76292986806948E-05
2	376	104.560076736011	0.182647705078125	0.182708740234375	1.24725341796875E-06	2.27884100922893E-07	146488.875	5.77569335291628E-05
2	377	104.660784735757	0.192718505859375	0.192779541015625	1.2115478515625E-06	2.3356162159871E-07	159118.390625	5.78807448619045E-05
2	378	104.761492735503	0.202789306640625	0.20281982421875	1.1810302734375E-06	2.39536348090041E-07	171731.265625	5.80012201680802E-05
2	379	104.862200735248	0.212860107421875	0.212982177734375	1.153564453125E-06	2.45688653421894E-07	184629.640625	5.81187778152525E-05
2	380	104.962908734994	0.222930908203125	0.222930908203125	1.1297607421875E-06	2.51858580213593E-07	197325.78125	5.82337524974719E-05
2	381	105.06361673474	0.233001708984375	0.233001708984375	1.10870361328125E-06	2.58329833968673E-07	210156.890625	5.8346467994852E-05
2	382	105.164324734486	0.243072509765625	0.243072509765625	1.090087890625E-06	2.64970395846831E-07	222984.328125	5.8457186241867E-05
2	383	105.265032734231	0.253143310546875	0.253173828125	1.07391357421875E-06	2.7188679041501E-07	235748.8125	5.8566150983097E-05
2	384	105.365740733977	0.263214111328125	0.26324462890625	1.0595703125E-06	2.78926194141604E-07	248444.703125	5.86735804972704E-05
2	385	105.466448733723	0.273284912109375	0.273284912109375	1.04644775390625E-06	2.85978387637442E-07	261154.84375	5.87796275794972E-05
2	386	105.567156733469	0.283355712890625	0.2833251953125	1.03546142578125E-06	2.93372323767471E-07	273622.15625	5.88844595768023E-05
2	387	105.667864733214	0.293426513671875	0.29345703125	1.02508544921875E-06	3.00818527421143E-07	286275.6875	5.89882147323806E-05
2	388	105.76857273296	0.303497314453125	0.303558349609375	1.01593017578125E-06	3.08394078274432E-07	298798.4375	5.90909876336809E-05
2	389	105.869280732706	0.313568115234375	0.31353759765625	1.00799560546875E-06	3.16044520332071E-07	311050.5625	5.91929019719828E-05
2	390	105.969988732451	0.323638916015625	0.32366943359375	1.0009765625E-06	3.23985517525216E-07	323353.65625	5.92940632486716E-05
2	391	106.070696732197	0.333709716796875	0.33380126953125	9.9517822265625E-07	3.32191746110766E-07	335418.59375	5.93945769651327E-05
2	392	106.171404731943	0.343780517578125	0.34375	9.89990234375E-07	3.40309128432636E-07	347225.65625	5.94945377088152E-05
2	393	106.272112731689	0.353851318359375	0.353851318359375	9.8480224609375E-07	3.48473577105324E-07	359312.0625	5.95939745835494E-05
2	394	106.372820731434	0.363922119140625	0.363922119140625	9.814453125E-07	3.57169653852907E-07	370802.25	5.96929858147632E-05
2	395	106.47352873118	0.373992919921875	0.37396240234375	9.77783203125E-07	3.6565415939549E-07	382459.4375	5.97916405240539E-05
2	396	106.574236730926	0.384063720703125	0.38409423828125	9.7564697265625E-07	3.74740352526715E-07	393681.59375	5.98900041950401E-05
2	397	106.674944730672	0.394134521484375	0.3941650390625	9.735107421875E-07	3.83723886443477E-07	404890.28125	5.99881495872978E-05
2	398	106.775652730417	0.404205322265625	0.404205322265625	9.716796875E-07	3.92758096268153E-07	415986.1875	6.00860985286999E-05
2	399	106.876360730163	0.414276123046875	0.41424560546875	9.70458984375E-07	4.0200833950621E-07	426855.375	6.01838910370134E-05
2	400	106.977068729909	0.424346923828125	0.424346923828125	9.7015380859375E-07	4.11681781997686E-07	437401.71875	6.02816107857507E-05
2	401	107.077776729655	0.434417724609375	0.434417724609375	9.6954345703125E-07	4.21186854282496E-07	448064.25	6.03792832407635E-05
2	402	107.1784847294	0.444488525390625	0.444549560546875	9.6954345703125E-07	4.31010107604379E-07	458514.34375	6.0476922953967E-05
2	403	107.279192729146	0.454559326171875	0.45458984375	9.69848632812501E-07	4.40883354713151E-07	468722.46875	6.05745772190858E-05
2	404	107.379900728892	0.464630126953125	0.464599609375	9.70458984375E-07	4.50874836133153E-07	478742.15625	6.06722824159078E-05
2	405	107.480608728638	0.474700927734375	0.4747314453125	9.71069335937499E-07	4.60997142681663E-07	488874.9375	6.07700458203908E-05
2	406	107.581316728383	0.484771728515625	0.4847412109375	9.72595214843749E-07	4.71456985451368E-07	498399.75	6.08679147262592E-05
2	407	107.682024728129	0.494842529296875	0.494842529296875	9.747314453125E-07	4.82338521123893E-07	507670.65625	6.09659728070255E-05
2	408	107.782732727875	0.504913330078125	0.504974365234375	9.7686767578125E-07	4.93293157433072E-07	516932.21875	6.10642455285415E-05
2	409	107.88344072762	0.514984130859375	0.5150146484375	9.80224609374999E-07	5.04830040881643E-07	525404.75	6.1162791098468E-05
2	410	107.984148727366	0.525054931640625	0.525054931640625	9.83581542968751E-07	5.16434340624983E-07	533819.4375	6.12616786384024E-05
2	411	108.084856727112	0.535125732421875	0.53509521484375	9.8846435546875E-07	5.28922498688189E-07	541339.9375	6.13609736319631E-05
2	412	108.185564726858	0.545196533203125	0.545135498046875	9.94873046875E-07	5.42340615083958E-07	547944.75	6.14608434261754E-05
2	413	108.286272726603	0.555267333984375	0.555206298828125	1.00311279296875E-06	5.56934537598863E-07	553483.4375	6.15614480921067E-05
2	414	108.386980726349	0.565338134765625	0.565277099609375	1.014404296875E-06	5.73419470129011E-07	557250.3125	6.16630422882736E-05
2	415	108.487688726095	0.575408935546875	0.5753173828125	1.02996826171875E-06	5.92558592416026E-07	558577.8125	6.1765982536599E-05
2	416	108.588396725841	0.585479736328125	0.585479736328125	1.0504150390625E-06	6.14996679360047E-07	557379.4375	6.18707417743281E-05
2	417	108.689104725586	0.595550537109375	0.595489501953125	1.07879638671875E-06	6.42411919216102E-07	551994.375	6.1977953009773E-05
2	418	108.789812725332	0.605621337890625	0.6055908203125	1.11907958984375E-06	6.77704292684211E-07	541150.8125	6.20886276010424E-05
2	419	108.890520725078	0.615692138671875	0.615631103515625	1.175537109375E-06	7.23697212379193E-07	523701.96875	6.22041698079556E-05
2	420	108.991228724824	0.625762939453125	0.625732421875	1.25640869140625E-06	7.86175576195092E-07	498032.59375	6.23266241746023E-05
2	421	109.091936724569	0.635833740234375	0.63580322265625	1.36566162109375E-06	8.68292033828766E-07	465564.28125	6.24586609774269E-05
2	422	109.192644724315	0.645904541015625	0.645843505859375	1.51123046875E-06	9.76018327492056E-07	427362.71875	6.26035252935253E-05
2	423	109.293352724061	0.655975341796875	0.655914306640625	1.69586181640625E-06	1.11233998723037E-06	386773.4375	6.27650151727721E-05
2	424	109.394060723807	0.666046142578125	0.66595458984375	1.91558837890625E-06	1.27569489905E-06	347650.15625	6.29468631814234E-05
2	425	109.494768723552	0.676116943359375	0.676055908203125	2.16033935546875E-06	1.46051013416582E-06	312939.6875	6.31521033938043E-05
2	426	109.595476723298	0.686187744140625	0.68603515625	2.4139404296875E-06	1.65604797075503E-06	284197.21875	6.33824383839965E-05
2	427	109.696184723044	0.696258544921875	0.696136474609375	2.6519775390625E-06	1.84613816145429E-06	262497.125	6.36375261819921E-05
2	428	109.796892722789	0.706329345703125	0.70623779296875	2.85400390625E-06	2.01560533241718E-06	247455.09375	6.3914769270923E-05
2	429	109.897600722535	0.716400146484375	0.716278076171875	3.0047607421875E-06	2.15224417843274E-06	238381.078125	6.42097875243053E-05
2	430	109.998308722281	0.726470947265625	0.72637939453125	3.096923828125E-06	2.24954169425473E-06	234548.6875	6.45170293864794E-05
2	431	110.099016722027	0.736541748046875	0.736419677734375	3.13873291015625E-06	2.31142462325806E-06	234623.25	6.48310160613619E-05
2	432	110.199724721772	0.746612548828125	0.746490478515625	3.14697265625E-06	2.34918502428627E-06	237209.078125	6.51475274935365E-05
2	433	110.300432721518	0.756683349609375	0.75653076171875	3.1390380859375E-06	2.37477888731519E-06	241007.203125	6.54640534776263E-05
2	434	110.401140721264	0.766754150390625	0.76690673828125	3.1341552734375E-06	2.40360463976685E-06	244693.296875	6.57799391774461E-05
2	435	110.50184872101	0.776824951171875	0.77728271484375	3.1488037109375E-06	2.44751072386862E-06	246850.171875	6.60963050904684E-05
2	436	110.602556720755	0.786895751953125	0.78704833984375	3.19976806640625E-06	2.51837195719418E-06	245970.453125	6.64159815642051E-05
2	437	110.703264720501	0.796966552734375	0.797119140625	3.29986572265625E-06	2.63038623415923E-06	241561.078125	6.67432686896063E-05
2	438	110.803972720247	0.807037353515625	0.80718994140625	3.46221923828125E-06	2.79466848951415E-06	233142.359375	6.70837616780773E-05
2	439	110.904680719993	0.817108154296875	0.81756591796875	3.6932373046875E-06	3.01946488434623E-06	221368.375	6.74440670991316E-05
2	440	111.005388719738	0.827178955078125	0.8270263671875	3.994140625E-06	3.3032595183613E-06	207059.90625	6.78311625961214E-05
2	441	111.106096719484	0.837249755859375	0.83770751953125	4.35150146484375E-06	3.64528546015208E-06	192509.984375	6.82514000800438E-05
2	442	111.20680471923	0.847320556640625	0.84747314453125	4.74639892578125E-06	4.02244540964602E-06	178550.765625	6.87095161993057E-05
2	443	111.307512718976	0.857391357421875	0.85784912109375	5.1513671875E-06	4.41909560322529E-06	166528.4375	6.9207904743962E-05
2	444	111.408220718721	0.867462158203125	0.86761474609375	5.5267333984375E-06	4.79507525597E-06	156985.09375	6.97455907356925E-05
2	445	111.508928718467	0.877532958984375	0.877685546875	5.8380126953125E-06	5.12393899043673E-06	150339.78125	7.03178520780057E-05
2	446	111.609636718213	0.887603759765625	0.88775634765625	6.0577392578125E-06	5.37779624210089E-06	146549.125	7.09168452885933E-05
2	447	111.710344717958	0.897674560546875	0.89752197265625	6.1737060546875E-06	5.5410368986486E-06	145378.15625	7.15327478246763E-05
2	448	111.811052717704	0.907745361328125	0.908203125	6.1920166015625E-06	5.62360855838051E-06	146673.25	7.21554170013405E-05
2	449	111.91176071745	0.917816162109375	0.91827392578125	6.1309814453125E-06	5.62991999686346E-06	149776.015625	7.27759252185933E-05
2	450	112.012468717196	0.927886962890625	0.9283447265625	6.0211181640625E-06	5.58967349206796E-06	154181.453125	7.33878332539462E-05
2	451	112.113176716941	0.937957763671875	0.93780517578125	5.8929443359375E-06	5.52643359696958E-06	159140.34375	7.39877577871084E-05
2	452	112.213884716687	0.948028564453125	0.9478759765625	5.767822265625E-06	5.46718001714908E-06	164338.625	7.45749202906154E-05
2	453	112.314592716433	0.958099365234375	0.95855712890625	5.6640625E-06	5.42932730240864E-06	169234.921875	7.51505649532191E-05
2	454	112.415300716179	0.968170166015625	0.968017578125	5.5908203125E-06	5.41201234227628E-06	173144.109375	7.57172892917879E-05
2	455	112.516008715924	0.978240966796875	0.97808837890625	5.5633544921875E-06	5.44145223102532E-06	175809.109375	7.62789495638572E-05
2	456	112.61671671567	0.988311767578125	0.98846435546875	5.584716796875E-06	5.52029359823791E-06	176994.53125	7.6840296969749E-05
2	457	112.717424715416	0.998382568359375	0.99853515625	5.65185546875E-06	5.64357605981058E-06	176673.875	7.74061045376584E-05
2	458	112.818132715162	1.00845336914063	1.00860595703125	5.7586669921875E-06	5.80822552365134E-06	175145.75	7.79806723585352E-05
2	459	112.918840714907	1.01852416992188	1.01837158203125	5.889892578125E-06	5.99809891355108E-06	172901.5625	7.85672236816026E-05
2	460	113.019548714653	1.02859497070313	1.0284423828125	6.01806640625E-06	6.18923468209687E-06	170892.5	7.91668353485875E-05
2	461	113.120256714399	1.03866577148438	1.038818359375	6.121826171875E-06	6.35946526017506E-06	169690.921875	7.97781249275431E-05
2	462	113.220964714145	1.04873657226563	1.04888916015625	6.1859130859375E-06	6.48833702143747E-06	169560.9375	8.03978691692464E-05
2	463	113.32167271389	1.05880737304688	1.05865478515625	6.1981201171875E-06	6.56166957924142E-06	170802.5625	8.102145511657E-05
2	464	113.422380713636	1.06887817382813	1.06842041015625	6.158447265625E-06	6.57981036056299E-06	173488.609375	8.16436586319469E-05
2	465	113.523088713382	1.07894897460938	1.07879638671875	6.085205078125E-06	6.56469683235628E-06	177281.859375	8.22601723484695E-05
2	466	113.623796713127	1.08901977539063	1.0888671875	5.9844970703125E-06	6.51632217341103E-06	181947.984375	8.28679330879822E-05
2	467	113.724504712873	1.09909057617188	1.09954833984375	5.87158203125E-06	6.45608815830201E-06	187266.125	8.34649326861836E-05
2	468	113.825212712619	1.10916137695313	1.1090087890625	5.7586669921875E-06	6.38641176919919E-06	192580.828125	8.4050559962634E-05
2	469	113.925920712365	1.11923217773438	1.119384765625	5.645751953125E-06	6.31976899967412E-06	198270.265625	8.4624822193291E-05
2	470	114.02662871211	1.12930297851563	1.129150390625	5.5389404296875E-06	6.25429674983025E-06	203856.75	8.51880176924169E-05
2	471	114.127336711856	1.13937377929688	1.13983154296875	5.4443359375E-06	6.20562559561222E-06	209361	8.57410705066286E-05
2	472	114.228044711602	1.14944458007813	1.1492919921875	5.3558349609375E-06	6.15541785009555E-06	214586.90625	8.62848974065855E-05
2	473	114.328752711348	1.15951538085938	1.15997314453125	5.2764892578125E-06	6.1205855672597E-06	219838.0625	8.68202769197524E-05
2	474	114.429460711093	1.16958618164063	1.16973876953125	5.2032470703125E-06	6.08643949817633E-06	224809.390625	8.73479730216786E-05
2	475	114.530168710839	1.17965698242188	1.17950439453125	5.13916015625E-06	6.06166167926858E-06	229513.078125	8.78687569638714E-05
2	476	114.630876710585	1.18972778320313	1.18988037109375	5.084228515625E-06	6.04962315264856E-06	234033.625	8.83835455169901E-05
2	477	114.731584710331	1.19979858398438	1.19964599609375	5.0323486328125E-06	6.03703665547073E-06	238386.921875	8.88929571374319E-05
2	478	114.832292710076	1.20986938476563	1.209716796875	4.9896240234375E-06	6.03603166382527E-06	242446.484375	8.93976030056365E-05
2	479	114.933000709822	1.21994018554688	1.219482421875	4.94842529296875E-06	6.03451735514682E-06	246438.484375	8.98980215424672E-05
2	480	115.033708709568	1.23001098632813	1.22955322265625	4.915771484375E-06	6.044202564226E-06	250124.15625	9.0394722064957E-05
2	481	115.134416709314	1.24008178710938	1.24053955078125	4.88739013671875E-06	6.06300045546959E-06	253824.546875	9.08883521333337E-05
2	482	115.235124709059	1.25015258789063	1.25030517578125	4.86358642578125E-06	6.08096706855576E-06	257074.75	9.13793555810116E-05
2	483	115.335832708805	1.26022338867188	1.26007080078125	4.84344482421875E-06	6.10308370596613E-06	260160.03125	9.18681398616172E-05
2	484	115.436540708551	1.27029418945313	1.27044677734375	4.82574462890625E-06	6.13085148870596E-06	263264.40625	9.23550251172855E-05
2	485	115.537248708296	1.28036499023438	1.28021240234375	4.810791015625E-06	6.1588339121954E-06	266112.65625	9.28402587305754E-05
2	486	115.637956708042	1.29043579101563	1.29058837890625	4.7979736328125E-06	6.19220872977166E-06	268986.15625	9.3324102635961E-05
2	487	115.738664707788	1.30050659179688	1.30035400390625	4.78668212890625E-06	6.22438119535218E-06	271660.84375	9.38067241804674E-05
2	488	115.839372707534	1.31057739257813	1.31072998046875	4.77752685546875E-06	6.26204746367875E-06	274353.25	9.42883270909078E-05
2	489	115.940080707279	1.32064819335938	1.32049560546875	4.76898193359375E-06	6.29741953162011E-06	276892.5625	9.47690277826041E-05
2	490	116.040788707025	1.33071899414063	1.33087158203125	4.7607421875E-06	6.33593663224019E-06	279551.28125	9.52488917391747E-05
2	491	116.141496706771	1.34078979492188	1.3409423828125	4.75494384765625E-06	6.37610582998605E-06	282010.15625	9.57280426518992E-05
2	492	116.242204706517	1.35086059570313	1.35101318359375	4.7491455078125E-06	6.41615815766272E-06	284475	9.62066114880145E-05
2	493	116.342912706262	1.36093139648438	1.36138916015625	4.74517822265625E-06	6.46003400106565E-06	286899.5	9.6684685559012E-05
2	494	116.443620706008	1.37100219726563	1.37115478515625	4.74273681640625E-06	6.50302581561846E-06	289106.25	9.71624394878745E-05
2	495	116.544328705754	1.38107299804688	1.38092041015625	4.74212646484375E-06	6.54849918646505E-06	291202.78125	9.76400406216271E-05
2	496	116.6450367055	1.39114379882813	1.39129638671875	4.7442626953125E-06	6.60067553326371E-06	293258.71875	9.81177217909135E-05
2	497	116.745744705245	1.40121459960938	1.40106201171875	4.74853515625E-06	6.65299194224644E-06	295051.40625	9.85957231023349E-05
2	498	116.846452704991	1.41128540039063	1.41082763671875	4.75555419921875E-06	6.70926692691864E-06	296669.46875	9.90742919384502E-05
2	499	116.947160704737	1.42135620117188	1.422119140625	4.76531982421875E-06	6.77685238770209E-06	298431	9.95537047856487E-05
2	500	117.047868704483	1.43142700195313	1.4312744140625	4.77783203125E-06	6.8383883444767E-06	299565.6875	0.00010003423813032
2	501	117.148576704228	1.44149780273438	1.441650390625	4.79339599609375E-06	6.91040122546838E-06	300757.625	0.000100516190286726
2	502	117.249284703974	1.45156860351563	1.45172119140625	4.813232421875E-06	6.98747135174926E-06	301610.4375	0.00010099991777679
2	503	117.34999270372	1.46163940429688	1.4617919921875	4.83734130859375E-06	7.07118670106865E-06	302189.125	0.000101485864433926
2	504	117.450700703465	1.47171020507813	1.4715576171875	4.86602783203125E-06	7.16064005246153E-06	302414.5625	0.000101974466815591
2	505	117.551408703211	1.48178100585938	1.48162841796875	4.90142822265625E-06	7.262095095939E-06	302285.0625	0.000102466299722437
2	506	117.652116702957	1.49185180664063	1.49169921875	4.94415283203125E-06	7.37518894311506E-06	301709.78125	0.000102962061646394
2	507	117.752824702703	1.50192260742188	1.50177001953125	4.9957275390625E-06	7.50243361835601E-06	300610.875	0.000103462574770674
2	508	117.853532702448	1.49185180664063	1.49200439453125	4.78759765625E-06	7.14311636329512E-06	311639.5	0.000103955208032858
2	509	117.954240702194	1.48178100585938	1.48162841796875	4.63409423828125E-06	6.86600560584338E-06	319723.40625	0.000104429629573133
2	510	118.05494870194	1.47171020507813	1.4715576171875	4.5111083984375E-06	6.63835589875816E-06	326207.5625	0.000104890124930535
2	511	118.155656701686	1.46163940429688	1.46209716796875	4.40887451171875E-06	6.44620240564109E-06	331625.96875	0.000105339277070016
2	512	118.256364701431	1.45156860351563	1.45172119140625	4.32159423828125E-06	6.27374993200647E-06	335922.625	0.000105778897705022
2	513	118.357072701177	1.44149780273438	1.441650390625	4.2462158203125E-06	6.12155827184324E-06	339514.15625	0.000106210318335798
2	514	118.457780700923	1.43142700195313	1.4312744140625	4.1796875E-06	5.98227961745579E-06	342435.75	0.000106634593976196
2	515	118.558488700669	1.42135620117188	1.42120361328125	4.12109375E-06	5.85691350352135E-06	344860.78125	0.000107052575913258
2	516	118.659196700414	1.41128540039063	1.4117431640625	4.06951904296875E-06	5.74511568629532E-06	346906.625	0.00010746500629466
2	517	118.75990470016	1.40121459960938	1.4013671875	4.02099609375E-06	5.63489220439806E-06	348512.4375	0.000107872394437436
2	518	118.860612699906	1.39114379882813	1.39068603515625	3.97857666015625E-06	5.53295058125514E-06	349543.625	0.000108275206002872
2	519	118.961320699652	1.38107299804688	1.38092041015625	3.939208984375E-06	5.43973419553367E-06	350557.8125	0.000108673899376299
2	520	119.062028699397	1.37100219726563	1.37115478515625	3.902587890625E-06	5.35105164090055E-06	351345.03125	0.000109068758320063
2	521	119.162736699143	1.36093139648438	1.36077880859375	3.868408203125E-06	5.26404755873955E-06	351767.15625	0.000109460059320554
2	522	119.263444698889	1.35086059570313	1.3507080078125	3.83575439453125E-06	5.18098431712133E-06	352136.21875	0.000109847998828627
2	523	119.364152698634	1.34078979492188	1.34063720703125	3.80615234375E-06	5.10266954734107E-06	352229	0.000110232795123011
2	524	119.46486069838	1.33071899414063	1.33026123046875	3.77685546875E-06	5.02420425618766E-06	352213.96875	0.000110614630102646
2	525	119.565568698126	1.32064819335938	1.32080078125	3.74969482421875E-06	4.95259973831708E-06	352242.21875	0.000110993627458811
2	526	119.666276697872	1.31057739257813	1.3104248046875	3.72344970703125E-06	4.87930083181709E-06	351938.375	0.000111369925434701
2	527	119.766984697617	1.30050659179688	1.3006591796875	3.69842529296875E-06	4.81039069200051E-06	351679.1875	0.000111743647721596
2	528	119.867692697363	1.29043579101563	1.2908935546875	3.67462158203125E-06	4.74354510515695E-06	351299.75	0.000112114910734817
2	529	119.968400697109	1.28036499023438	1.28082275390625	3.65142822265625E-06	4.67683230453986E-06	350773.09375	0.000112483809061814
2	530	120.069108696855	1.27029418945313	1.27044677734375	3.629150390625E-06	4.61064246337628E-06	350067.28125	0.000112850415462162
2	531	120.1698166966	1.26022338867188	1.26007080078125	3.60748291015625E-06	4.54568362329155E-06	349293.65625	0.000113214809971396
2	532	120.270524696346	1.25015258789063	1.25030517578125	3.58673095703125E-06	4.4845082811662E-06	348591.875	0.000113577065349091
2	533	120.371232696092	1.24008178710938	1.23992919921875	3.56719970703125E-06	4.42307509729289E-06	347591.75	0.000113937290734611
2	534	120.471940695838	1.23001098632813	1.2298583984375	3.54766845703125E-06	4.36312939200434E-06	346666.6875	0.000114295558887534
2	535	120.572648695583	1.21994018554688	1.21978759765625	3.5284423828125E-06	4.30394993600203E-06	345701.4375	0.0001146518625319
2	536	120.673356695329	1.20986938476563	1.21002197265625	3.509521484375E-06	4.24659810960293E-06	344782.625	0.000115006252599414
2	537	120.774064695075	1.19979858398438	1.20025634765625	3.49090576171875E-06	4.18998160967021E-06	343823.75	0.000115358758193906
2	538	120.874772694821	1.18972778320313	1.1895751953125	3.47198486328125E-06	4.13018688050215E-06	342621.0625	0.000115709364763461
2	539	120.975480694566	1.17965698242188	1.17950439453125	3.45306396484375E-06	4.07290417570039E-06	341581.96875	0.000116058065032121
2	540	121.076188694312	1.16958618164063	1.1700439453125	3.43292236328125E-06	4.01667011828977E-06	340830.3125	0.000116404808068182
2	541	121.176896694058	1.15951538085938	1.15966796875	3.41094970703125E-06	3.95556889998261E-06	339983.90625	0.000116749419248663
2	542	121.277604693803	1.14944458007813	1.1492919921875	3.38623046875E-06	3.89176739190589E-06	339401.59375	0.000117091687570792
2	543	121.378312693549	1.13937377929688	1.13983154296875	3.35845947265625E-06	3.82807820642483E-06	339391.1875	0.000117431307444349
2	544	121.479020693295	1.12930297851563	1.12884521484375	3.32489013671875E-06	3.75328613699821E-06	339513.5625	0.000117767842311878
2	545	121.579728693041	1.11923217773438	1.11907958984375	3.2843017578125E-06	3.67539519174898E-06	340735.90625	0.000118100644613151
2	546	121.680436692786	1.10916137695313	1.1090087890625	3.2330322265625E-06	3.58546117240621E-06	343024.34375	0.000118428812129423
2	547	121.781144692532	1.09909057617188	1.09893798828125	3.16741943359375E-06	3.48079743162089E-06	346950.5625	0.000118751100671943
2	548	121.881852692278	1.08901977539063	1.08917236328125	3.0816650390625E-06	3.35646427629399E-06	353436.34375	0.000119065771286841
2	549	121.982560692024	1.07894897460938	1.0791015625	2.97088623046875E-06	3.20588787872111E-06	363225.5	0.000119370539323427
2	550	122.083268691769	1.06887817382813	1.06903076171875	2.82958984375E-06	3.02491844195174E-06	377804.15625	0.000119662618089933
2	551	122.183976691515	1.05880737304688	1.0589599609375	2.65472412109375E-06	2.81124653156439E-06	398896.4375	0.000119938777061179
2	552	122.284684691261	1.04873657226563	1.0491943359375	2.4468994140625E-06	2.56727298619808E-06	428785.25	0.000120195662020706
2	553	122.385392691007	1.03866577148438	1.038818359375	2.21588134765625E-06	2.30189812100434E-06	468805.96875	0.000120430449896958
2	554	122.486100690752	1.02859497070313	1.0284423828125	1.97357177734375E-06	2.02970477403142E-06	521107.1875	0.000120641409012023
2	555	122.586808690498	1.01852416992188	1.01837158203125	1.74224853515625E-06	1.77425636138651E-06	584515.6875	0.000120828510262072
2	556	122.687516690244	1.00845336914063	1.00860595703125	1.5423583984375E-06	1.55563191128749E-06	653937.5	0.000120993907330558
2	557	122.78822468999	0.998382568359375	0.99822998046875	1.3916015625E-06	1.38913833325205E-06	717324.625	0.000121141645649914
2	558	122.888932689735	0.988311767578125	0.9881591796875	1.29547119140625E-06	1.28013175526576E-06	762779.75	0.000121276949357707
2	559	122.989640689481	0.978240966796875	0.9783935546875	1.25030517578125E-06	1.22329049645487E-06	782523.8125	0.000121405137178954
2	560	123.090348689227	0.968170166015625	0.96832275390625	1.23809814453125E-06	1.1988785217909E-06	782105.0625	0.000121530436445028
2	561	123.191056688972	0.958099365234375	0.95855712890625	1.23992919921875E-06	1.18854291031312E-06	773074.125	0.000121655219118111
2	562	123.291764688718	0.948028564453125	0.94818115234375	1.236572265625E-06	1.17249442155298E-06	766781.875	0.00012177992175566
2	563	123.392472688464	0.937957763671875	0.93780517578125	1.2115478515625E-06	1.1361958058842E-06	774055.4375	0.00012190319102956
2	564	123.49318068821	0.927886962890625	0.9283447265625	1.1517333984375E-06	1.06920560938306E-06	806041.375	0.00012202218931634
2	565	123.593888687955	0.917816162109375	0.91766357421875	1.04644775390625E-06	9.60287025009166E-07	876932	0.000122132885735482
2	566	123.694596687701	0.907745361328125	0.9075927734375	8.8470458984375E-07	8.02951433342969E-07	1025871.0625	0.000122230121633038
2	567	123.795304687447	0.897674560546875	0.89874267578125	6.56738281249999E-07	5.90238698805479E-07	1368494.375	0.000122307741548866
2	568	123.896012687193	0.887603759765625	0.8880615234375	3.65295410156249E-07	3.24404794582733E-07	2431077.75	0.000122359197121114
2	569	123.996720686938	0.877532958984375	0.877685546875	1.77001953125006E-08	1.5535205122319E-08	49586208	0.000122378492960706
2	570	124.097428686684	0.867462158203125	0.86761474609375	-3.63769531249999E-07	-3.15611799805993E-07	-2385067.25	0.000122361059766263
2	571	124.19813668643	0.857391357421875	0.85723876953125	-7.5225830078125E-07	-6.4486499695704E-07	-1139553.75	0.000122304860269651
2	572	124.298844686176	0.847320556640625	0.8477783203125	-1.10992431640625E-06	-9.40969698604022E-07	-763816.375	0.000122211102279834
2	573	124.399552685921	0.837249755859375	0.8380126953125	-1.4093017578125E-06	-1.18101274892979E-06	-594629.75	0.000122084238682874
2	574	124.500260685667	0.827178955078125	0.82794189453125	-1.62322998046875E-06	-1.34394008455274E-06	-510058.28125	0.000121931545436382
2	575	124.600968685413	0.817108154296875	0.8172607421875	-1.7437744140625E-06	-1.42511839840154E-06	-468673.4375	0.000121762001072057
2	576	124.701676685159	0.807037353515625	0.80718994140625	-1.77734375E-06	-1.43465399560228E-06	-454155.21875	0.000121584700536914
2	577	124.802384684904	0.796966552734375	0.797119140625	-1.7437744140625E-06	-1.38999598675582E-06	-457122.84375	0.000121407400001772
2	578	124.90309268465	0.786895751953125	0.78704833984375	-1.668701171875E-06	-1.31334843445075E-06	-471653.28125	0.000121235563710798
2	579	125.003800684396	0.776824951171875	0.7769775390625	-1.57684326171875E-06	-1.22517178624548E-06	-492742.40625	0.000121072138426825
2	580	125.104508684141	0.766754150390625	0.76751708984375	-1.488037109375E-06	-1.1420938790252E-06	-515791.625	0.000120917808089871
2	581	125.205216683887	0.756683349609375	0.75653076171875	-1.4178466796875E-06	-1.07264463622414E-06	-533577.3125	0.00012077148858225
2	582	125.305924683633	0.746612548828125	0.74652099609375	-1.37725830078125E-06	-1.02815226910025E-06	-542034.125	0.000120630742458161
2	583	125.406632683379	0.736541748046875	0.7364501953125	-1.37481689453125E-06	-1.01248417649913E-06	-535671.5	0.000120492164569441
2	584	125.507340683124	0.726470947265625	0.7264404296875	-1.41357421875E-06	-1.02687738490204E-06	-513903.28125	0.00012035176041536
2	585	125.60804868287	0.716400146484375	0.71630859375	-1.49505615234375E-06	-1.07092159851163E-06	-479118.1875	0.000120205295388587
2	586	125.708756682616	0.706329345703125	0.706207275390625	-1.612548828125E-06	-1.13879366381298E-06	-437944.75	0.000120048818644136
2	587	125.809464682362	0.696258544921875	0.6961669921875	-1.75384521484375E-06	-1.22096912491543E-06	-396937.5625	0.000119879303383641
2	588	125.910172682107	0.686187744140625	0.68609619140625	-1.8975830078125E-06	-1.30192438518861E-06	-361563.21875	0.000119695439934731
2	589	126.010880681853	0.676116943359375	0.676025390625	-2.0233154296875E-06	-1.36781250148488E-06	-334117.65625	0.00011949800682487
2	590	126.111588681599	0.666046142578125	0.665985107421875	-2.1099853515625E-06	-1.40521876801358E-06	-315634.96875	0.000119289878057316
2	591	126.212296681345	0.655975341796875	0.655975341796875	-2.149658203125E-06	-1.41012276344554E-06	-305153.3125	0.000119075390102807
2	592	126.31300468109	0.645904541015625	0.6458740234375	-2.13836669921875E-06	-1.38111545311403E-06	-302040.8125	0.000118859468784649
2	593	126.413712680836	0.635833740234375	0.63580322265625	-2.08740234375E-06	-1.32717707401753E-06	-304590.65625	0.000118646683404222
2	594	126.514420680582	0.625762939453125	0.625762939453125	-2.00714111328125E-06	-1.25599456168857E-06	-311768.28125	0.000118440511869267
2	595	126.615128680328	0.615692138671875	0.61566162109375	-1.91009521484375E-06	-1.17597221560573E-06	-322319.875	0.000118243260658346
2	596	126.715836680073	0.605621337890625	0.6055908203125	-1.8072509765625E-06	-1.09445454654633E-06	-335089.5	0.000118056079372764
2	597	126.816544679819	0.595550537109375	0.59552001953125	-1.705322265625E-06	-1.01555349374394E-06	-349212.59375	0.00011787920811912
2	598	126.917252679565	0.585479736328125	0.58544921875	-1.60797119140625E-06	-9.4138545136957E-07	-364091.875	0.000117712370411027
2	599	127.01796067931	0.575408935546875	0.57537841796875	-1.51611328125E-06	-8.72338830504304E-07	-379508.875	0.000117555056931451
2	600	127.118668679056	0.565338134765625	0.5653076171875	-1.4324951171875E-06	-8.0980038319467E-07	-394631.46875	0.000117406583740376
2	601	127.219376678802	0.555267333984375	0.555206298828125	-1.35589599609375E-06	-7.52801952330628E-07	-409475.59375	0.000117266179586295
2	602	127.320084678548	0.545196533203125	0.54522705078125	-1.28662109375E-06	-7.01500653121911E-07	-423766.59375	0.000117133116873447
2	603	127.420792678293	0.535125732421875	0.53515625	-1.22344970703125E-06	-6.54736709293502E-07	-437415.84375	0.000117006726213731
2	604	127.521500678039	0.525054931640625	0.525054931640625	-1.16668701171875E-06	-6.12574751812645E-07	-450039.25	0.000116886367322877
2	605	127.622208677785	0.514984130859375	0.514984130859375	-1.1151123046875E-06	-5.74265129671403E-07	-461822.6875	0.000116771472676191
2	606	127.722916677531	0.504913330078125	0.504913330078125	-1.0675048828125E-06	-5.38997426247079E-07	-472984.5625	0.000116661569336429
2	607	127.823624677276	0.494842529296875	0.494873046875	-1.02447509765625E-06	-5.06985088577494E-07	-483050.34375	0.000116556228022091
2	608	127.924332677022	0.484771728515625	0.48468017578125	-9.85107421875001E-07	-4.77462037906662E-07	-492007.46875	0.000116455041279551
2	609	128.025040676768	0.474700927734375	0.474700927734375	-9.490966796875E-07	-4.50537072538282E-07	-500160.78125	0.000116357645310927
2	610	128.125748676514	0.464630126953125	0.464569091796875	-9.1522216796875E-07	-4.25183912966531E-07	-507602.5625	0.000116263770905789
2	611	128.226456676259	0.454559326171875	0.454559326171875	-8.8470458984375E-07	-4.02150703848747E-07	-513797.875	0.000116173134301789
2	612	128.327164676005	0.444488525390625	0.444488525390625	-8.55712890625E-07	-3.80354549633921E-07	-519436.53125	0.000116085495392326
2	613	128.427872675751	0.434417724609375	0.43438720703125	-8.2977294921875E-07	-3.60442754754331E-07	-523501.28125	0.000116000628622714
2	614	128.528580675497	0.424346923828125	0.424346923828125	-8.05053710937501E-07	-3.41622040878065E-07	-527103.875	0.000115918308438268
2	615	128.629288675242	0.414276123046875	0.41424560546875	-7.82165527343751E-07	-3.24008624374983E-07	-529613.75	0.000115838382043876
2	616	128.729996674988	0.404205322265625	0.404266357421875	-7.60498046875E-07	-3.07443769997917E-07	-531581.0625	0.000115760703920387
2	617	128.830704674734	0.394134521484375	0.394134521484375	-7.403564453125E-07	-2.91800034801781E-07	-532357.8125	0.000115685128548648
2	618	128.931412674479	0.384063720703125	0.384033203125	-7.2174072265625E-07	-2.77172404139492E-07	-532093	0.000115611510409508
2	619	129.032120674225	0.373992919921875	0.3740234375	-7.04040527343749E-07	-2.63327649463463E-07	-531252.6875	0.000115539711259771
2	620	129.132828673971	0.363922119140625	0.363922119140625	-6.8695068359375E-07	-2.4999653192026E-07	-529764.5625	0.000115469672891777
2	621	129.233536673717	0.353851318359375	0.353790283203125	-6.7138671875E-07	-2.37530102253913E-07	-526954.5625	0.000115401271614246
2	622	129.334244673462	0.343780517578125	0.343780517578125	-6.573486328125E-07	-2.25983640689265E-07	-522980.53125	0.000115334369183984
2	623	129.434952673208	0.333709716796875	0.333740234375	-6.43005371093749E-07	-2.14596767023068E-07	-519031.8125	0.000115268892841414
2	624	129.535660672954	0.323638916015625	0.323638916015625	-6.304931640625E-07	-2.04052128083276E-07	-513310.75	0.000115204762551002
2	625	129.6363686727	0.313568115234375	0.313568115234375	-6.182861328125E-07	-1.93874811316164E-07	-507157	0.0001151418837253
2	626	129.737076672445	0.303497314453125	0.303466796875	-6.0760498046875E-07	-1.84387943136244E-07	-499447.5	0.000115080154500902
2	627	129.837784672191	0.293426513671875	0.293426513671875	-5.97534179687501E-07	-1.75332360186076E-07	-491062.34375	0.000115019473014399
2	628	129.938492671937	0.283355712890625	0.283355712890625	-5.88378906250001E-07	-1.66720525385244E-07	-481587.15625	0.00011495975923026
2	629	130.039200671683	0.273284912109375	0.273345947265625	-5.8013916015625E-07	-1.58578686182409E-07	-471173.0625	0.000114900918561034
2	630	130.139908671428	0.263214111328125	0.26318359375	-5.72509765625E-07	-1.50675177224002E-07	-459701.5	0.000114842878247146
2	631	130.240616671174	0.253143310546875	0.253204345703125	-5.6610107421875E-07	-1.43339249802921E-07	-447277.65625	0.000114785543701146
2	632	130.34132467092	0.243072509765625	0.24310302734375	-5.60607910156249E-07	-1.36285464691355E-07	-433641.84375	0.00011472880578367
2	633	130.442032670666	0.233001708984375	0.233001708984375	-5.56640625E-07	-1.29698207729234E-07	-418585.53125	0.000114672548079398
2	634	130.542740670411	0.222930908203125	0.22296142578125	-5.5267333984375E-07	-1.23224836556801E-07	-403423.53125	0.000114616690552793
2	635	130.643448670157	0.212860107421875	0.212890625	-5.50231933593751E-07	-1.171392156607E-07	-386910.71875	0.000114561153168324
2	636	130.744156669903	0.202789306640625	0.202789306640625	-5.4931640625E-07	-1.11395486612764E-07	-369166.6875	0.000114505790406838
2	637	130.844864669648	0.192718505859375	0.192779541015625	-5.4931640625E-07	-1.05896958757512E-07	-350944.46875	0.000114450471301097
2	638	130.945572669394	0.182647705078125	0.182708740234375	-5.5084228515625E-07	-1.00643703149217E-07	-331689.75	0.000114395072159823
2	639	131.04628066914	0.172576904296875	0.172698974609375	-5.5419921875E-07	-9.57096375486799E-08	-311618.9375	0.00011433942563599
2	640	131.146988668886	0.162506103515625	0.162567138671875	-5.5999755859375E-07	-9.10372008888771E-08	-290299.75	0.000114283320726827
2	641	131.247696668631	0.152435302734375	0.152496337890625	-5.7037353515625E-07	-8.69798739699945E-08	-267362.25	0.000114226408186369
2	642	131.348404668377	0.142364501953125	0.1424560546875	-5.8441162109375E-07	-8.32529707395224E-08	-243759.796875	0.000114168258733116
2	643	131.449112668123	0.132293701171875	0.132293701171875	-6.0546875E-07	-8.00997028704842E-08	-218497.984375	0.000114108341222163
2	644	131.549820667869	0.122222900390625	0.122314453125	-6.3629150390625E-07	-7.78276429969083E-08	-192230.21875	0.000114045811642427
2	645	131.650528667614	0.112152099609375	0.112213134765625	-6.81152343749999E-07	-7.64342331649459E-08	-164740.15625	0.000113979476736858
2	646	131.75123666736	0.102081298828125	0.102142333984375	-7.44018554687501E-07	-7.59957927698451E-08	-137284.65625	0.00011390771396691
2	647	131.851944667106	0.092010498046875	0.092071533203125	-8.32519531250001E-07	-7.66513466032848E-08	-110593.84375	0.000113828325993381
2	648	131.952652666852	0.081939697265625	0.08197021484375	-9.527587890625E-07	-7.80978410830357E-08	-86034.6015625	0.000113738431537058
2	649	132.053360666597	0.071868896484375	0.0718994140625	-1.10992431640625E-06	-7.98029020643298E-08	-64778.66796875	0.000113634567242116
2	650	132.154068666343	0.061798095703125	0.0618896484375	-1.3067626953125E-06	-8.08750826308824E-08	-47361.046875	0.000113512876851019
2	651	132.254776666089	0.051727294921875	0.0517578125	-1.54083251953125E-06	-7.97501229499176E-08	-33590.80859375	0.000113369489554316
2	652	132.355484665835	0.041656494140625	0.041754150390625	-1.798095703125E-06	-7.50779562963544E-08	-23221.31640625	0.000113201364001725
2	653	132.45619266558	0.031585693359375	0.031658935546875	-2.06024169921875E-06	-6.52250591315351E-08	-15366.6123046875	0.000113007081381511
2	654	132.556900665326	0.021514892578125	0.021636962890625	-2.3004150390625E-06	-4.9773994703628E-08	-9405.677734375	0.000112787500256673
2	655	132.657608665072	0.011444091796875	0.0115478515625	-2.4951171875E-06	-2.88132415704467E-08	-4628.18017578125	0.000112546025775373
2	656	132.758316664817	0.001373291015625	0.00147094726562499	-2.62786865234375E-06	-3.86545595532084E-09	-559.749206542969	0.00011228806397412
2	657	132.859024664563	-0.008697509765625	-0.0086029052734375	-2.6934814453125E-06	2.31717631749007E-08	3193.97241210938	0.000112020112283062
2	658	132.959732664309	-0.018768310546875	-0.0186431884765625	-2.7008056640625E-06	5.03516304206642E-08	6902.8251953125	0.000111748486233409
2	659	133.060440664055	-0.028839111328125	-0.0286956787109375	-2.66571044921875E-06	7.64943663966733E-08	10764.740234375	0.000111478264443576
2	660	133.1611486638	-0.038909912109375	-0.0387786865234375	-2.6025390625E-06	1.00923045920354E-07	14900.3271484375	0.000111212990304921
2	661	133.261856663546	-0.048980712890625	-0.04881591796875	-2.5262451171875E-06	1.2332097298895E-07	19323.5078125	0.000110954730189405
2	662	133.362564663292	-0.059051513671875	-0.058929443359375	-2.44598388671875E-06	1.44140472002618E-07	24092.326171875	0.000110704357211944
2	663	133.463272663038	-0.069122314453125	-0.069091796875	-2.3675537109375E-06	1.63578533829423E-07	29182.779296875	0.0001104619805119
2	664	133.563980662783	-0.079193115234375	-0.0791015625	-2.296142578125E-06	1.81628465156791E-07	34449.76171875	0.000110227141703945
2	665	133.664688662529	-0.089263916015625	-0.089202880859375	-2.230224609375E-06	1.98942444740169E-07	39997.265625	0.00010999922233168
2	666	133.765396662275	-0.099334716796875	-0.09930419921875	-2.17254638671875E-06	2.15742971931832E-07	45708.66796875	0.000109777523903176
2	667	133.866104662021	-0.109405517578125	-0.10931396484375	-2.12127685546875E-06	2.31885181278813E-07	51532.15625	0.000109561311546713
2	668	133.966812661766	-0.119476318359375	-0.119384765625	-2.07733154296875E-06	2.48001754243887E-07	57470.25	0.000109349901322275
2	669	134.067520661512	-0.129547119140625	-0.12939453125	-2.03857421875E-06	2.6378035045127E-07	63473.0546875	0.000109142645669635
2	670	134.168228661258	-0.139617919921875	-0.1395263671875	-2.00653076171875E-06	2.79963927596327E-07	69536.125	0.000108938955236226
2	671	134.268936661004	-0.149688720703125	-0.1495361328125	-1.978759765625E-06	2.95896057878053E-07	75570.640625	0.000108738284325227
2	672	134.369644660749	-0.159759521484375	-0.15960693359375	-1.9573974609375E-06	3.12414215386525E-07	81540.3828125	0.000108540079963859
2	673	134.470352660495	-0.169830322265625	-0.169677734375	-1.9403076171875E-06	3.29226992334952E-07	87448.8828125	0.000108343818283174
2	674	134.571060660241	-0.179901123046875	-0.179718017578125	-1.92718505859375E-06	3.46349850133265E-07	93254.1640625	0.000108149070001673
2	675	134.671768659986	-0.189971923828125	-0.1898193359375	-1.920166015625E-06	3.64484606052429E-07	98855.6953125	0.000107955340354238
2	676	134.772476659732	-0.200042724609375	-0.19989013671875	-1.91802978515625E-06	3.83395217795623E-07	104216.390625	0.00010776207636809
2	677	134.873184659478	-0.189971923828125	-0.189849853515625	-1.70318603515625E-06	3.2334961019842E-07	111467.484375	0.000107579733594321
