Potential - Start -0.2 V, Upper Vertex 1.5 V, Lower Vertex -0.2 V, Stop -0.19 V; Scan - # end cross 5, Rate 0.1 Vps, Step 0.01 V 
Scan	Index	Time (s)	Potential applied (V)	WE(1).Potential (V)	WE(1).Current (A)	WE(1).Power (W)	WE(1).Resistance (Ω)	WE(1).Charge (C)
1	1	65.9855708334024	-0.189971923828125	-0.189849853515625	-2.03857421875001E-07	3.87023000314457E-08	931287.5	0
1	2	66.0862788331482	-0.179901123046875	-0.17974853515625	-1.6815185546875E-07	3.02250491301947E-08	1068965.5	-1.87321553823949E-08
1	3	66.1869868328939	-0.169830322265625	-0.169708251953125	-1.41296386718751E-07	2.39791617673291E-08	1201080	-3.43141124403701E-08
1	4	66.2876948326397	-0.159759521484375	-0.15960693359375	-1.1749267578125E-07	1.87526456585374E-08	1358441.625	-4.73451748916887E-08
1	5	66.3884028323854	-0.149688720703125	-0.149566650390625	-9.64355468749997E-08	1.44235414722971E-08	1550949.5	-5.81173154046155E-08
1	6	66.4891108321311	-0.139617919921875	-0.1395263671875	-7.65991210937497E-08	1.06875974736909E-08	1821513.875	-6.68303030693096E-08
1	7	66.5898188318769	-0.129547119140625	-0.129486083984375	-5.70678710937494E-08	7.38949479384132E-09	2268984	-7.35609688717886E-08
1	8	66.6905268316226	-0.119476318359375	-0.119354248046875	-3.814697265625E-08	4.55300330770569E-09	3128800	-7.83554199301761E-08
1	9	66.7912348313683	-0.109405517578125	-0.10931396484375	-1.89208984374994E-08	2.06831840543487E-09	5777419.5	-8.12290181784192E-08
1	10	66.8919428311141	-0.099334716796875	-0.099273681640625	1.83105468749972E-09	-1.81775539065399E-10	-54216668	-8.20895564856983E-08
1	11	66.9926508308598	-0.089263916015625	-0.089141845703125	2.53295898437506E-08	-2.25792629038324E-09	-3519277.25	-8.07219109333346E-08
1	12	67.0933588306056	-0.079193115234375	-0.079193115234375	5.37109374999997E-08	-4.2535361899354E-09	-1474431.875	-7.67419052749574E-08
1	13	67.1940668303513	-0.069122314453125	-0.069061279296875	8.88061523437497E-08	-6.13306649910328E-09	-777663.25	-6.95656012794643E-08
1	14	67.294774830097	-0.059051513671875	-0.058990478515625	1.3397216796875E-07	-7.90308174458687E-09	-440318.90625	-5.83478190208098E-08
1	15	67.3954828298428	-0.048980712890625	-0.04884033203125	1.9378662109375E-07	-9.4646033232948E-09	-252031.5	-4.18438546034849E-08
1	16	67.4961908295885	-0.038909912109375	-0.038775634765625	2.7191162109375E-07	-1.05435447039781E-08	-142603.828125	-1.83940844777908E-08
1	17	67.5968988293342	-0.028839111328125	-0.0287017822265625	3.7506103515625E-07	-1.07649205105531E-08	-76525.6328125	1.41835752032193E-08
1	18	67.69760682908	-0.018768310546875	-0.0186492919921875	5.07507324218751E-07	-9.46465128492946E-09	-36746.84375	5.86244226497001E-08
1	19	67.7983148288257	-0.008697509765625	-0.00861206054687499	6.72302246093751E-07	-5.78990766442189E-09	-12809.8056640625	1.18032552620662E-07
1	20	67.8990228285714	0.001373291015625	0.0014678955078125	8.6700439453125E-07	1.27267174576673E-09	1693.06579589844	1.95542796177506E-07
1	21	67.9997308283172	0.011444091796875	0.0115325927734375	1.08306884765625E-06	1.24905916720763E-08	10648.0703125	2.93736775347497E-07
1	22	68.1004388280629	0.021514892578125	0.0216217041015625	1.30401611328125E-06	2.81950498504102E-08	16580.857421875	4.13936049881158E-07
1	23	68.2011468278087	0.031585693359375	0.0316864013671875	1.510009765625E-06	4.78467754305711E-08	20984.23828125	5.55633505427977E-07
1	24	68.3018548275544	0.041656494140625	0.041741943359375	1.680908203125E-06	7.01643756428894E-08	24832.970703125	7.16308989012759E-07
1	25	68.4025628273001	0.051727294921875	0.051788330078125	1.80145263671875E-06	9.32942256781644E-08	28748.09375	8.91659794888255E-07
1	26	68.5032708270459	0.061798095703125	0.061798095703125	1.8670654296875E-06	1.15381084242472E-07	33099.05078125	1.07638436475099E-06
1	27	68.6039788267916	0.071868896484375	0.071868896484375	1.8817138671875E-06	1.35236703613373E-07	38193.3203125	1.26515033116448E-06
1	28	68.7046868265373	0.081939697265625	0.08203125	1.8585205078125E-06	1.52456763657938E-07	44137.93359375	1.45348610658402E-06
1	29	68.8053948262831	0.092010498046875	0.092071533203125	1.80999755859375E-06	1.66649243737993E-07	50868.3203125	1.63821073329018E-06
1	30	68.9061028260288	0.102081298828125	0.102142333984375	1.74835205078125E-06	1.78580762622005E-07	58422.0625	1.81738778337603E-06
1	31	69.0068108257746	0.112152099609375	0.11212158203125	1.6815185546875E-06	1.88534514222738E-07	66678.765625	1.99009559764818E-06
1	32	69.1075188255203	0.122222900390625	0.1221923828125	1.61590576171875E-06	1.97451370809176E-07	75618.5078125	2.15613408727222E-06
1	33	69.208226825266	0.132293701171875	0.13238525390625	1.5533447265625E-06	2.05639921091461E-07	85225.9375	2.31571834774513E-06
1	34	69.3089348250118	0.142364501953125	0.14239501953125	1.49627685546875E-06	2.13062364196048E-07	95166.2265625	2.4692790248082E-06
1	35	69.4096428247575	0.152435302734375	0.1524658203125	1.4447021484375E-06	2.20267693862297E-07	105534.4375	2.61736909124011E-06
1	36	69.5103508245032	0.162506103515625	0.162506103515625	1.39801025390625E-06	2.27185196877144E-07	116241	2.76051105174702E-06
1	37	69.611058824249	0.172576904296875	0.172607421875	1.357421875E-06	2.34301083423816E-07	127158.2734375	2.89925810648128E-06
1	38	69.7117668239947	0.182647705078125	0.182647705078125	1.32080078125E-06	2.41241224330224E-07	138285.59375	3.03411729873915E-06
1	39	69.8124748237404	0.192718505859375	0.1927490234375	1.2872314453125E-06	2.48112598910666E-07	149739.21875	3.16544219458592E-06
1	40	69.9131828234862	0.202789306640625	0.20281982421875	1.25701904296875E-06	2.54948361089191E-07	161349.84375	3.29355543726706E-06
1	41	70.0138908232319	0.212860107421875	0.212890625	1.2298583984375E-06	2.61825334746391E-07	173101.734375	3.41877967002802E-06
1	42	70.1145988229777	0.222930908203125	0.222930908203125	1.2060546875E-06	2.68866870101192E-07	184843.125	3.54143753611424E-06
1	43	70.2153068227234	0.233001708984375	0.2330322265625	1.18408203125E-06	2.75929266990715E-07	196804.140625	3.66179051525251E-06
1	44	70.3160148224691	0.243072509765625	0.243072509765625	1.1651611328125E-06	2.83218611230041E-07	208617.09375	3.78008417101228E-06
1	45	70.4167228222149	0.253143310546875	0.25311279296875	1.14776611328125E-06	2.90514265088859E-07	220526.46875	3.89654951504781E-06
1	46	70.5174308219606	0.263214111328125	0.26324462890625	1.1322021484375E-06	2.98046131774754E-07	232506.75	4.01135503125261E-06
1	47	70.6181388217063	0.273284912109375	0.27325439453125	1.11724853515625E-06	3.05293070823609E-07	244577.984375	4.12462395615876E-06
1	48	70.7188468214521	0.283355712890625	0.283355712890625	1.103515625E-06	3.12687461700989E-07	256775.4375	4.23644814873114E-06
1	49	70.8195548211978	0.293426513671875	0.29339599609375	1.092529296875E-06	3.20543705356613E-07	268547.5	4.34702769780415E-06
1	50	70.9202628209435	0.303497314453125	0.303466796875	1.08184814453125E-06	3.2830499208103E-07	280507.75	4.45651630798238E-06
1	51	71.0209708206893	0.313568115234375	0.31365966796875	1.07269287109375E-06	3.36460487915247E-07	292404	4.56500629297807E-06
1	52	71.121678820435	0.323638916015625	0.323699951171875	1.06475830078125E-06	3.44662197448997E-07	304012.625	4.67263544123853E-06
1	53	71.2223868201808	0.333709716796875	0.333770751953125	1.05712890625E-06	3.52838696926483E-07	315733.25	4.77948105981341E-06
1	54	71.3230948199265	0.343780517578125	0.343780517578125	1.0504150390625E-06	3.61112199698255E-07	327280.65625	4.88560408484773E-06
1	55	71.4238028196722	0.353851318359375	0.3538818359375	1.0443115234375E-06	3.69562854984906E-07	338866.15625	4.99108182339114E-06
1	56	71.524510819418	0.363922119140625	0.363922119140625	1.03851318359375E-06	3.77937908524473E-07	350426.125	5.09596065967344E-06
1	57	71.6252188191637	0.373992919921875	0.3740234375	1.0345458984375E-06	3.86944407182455E-07	361533.90625	5.20034745932207E-06
1	58	71.7259268189094	0.384063720703125	0.384063720703125	1.0308837890625E-06	3.95925042084855E-07	372557.75	5.30434999745921E-06
1	59	71.8266348186552	0.394134521484375	0.394134521484375	1.02752685546875E-06	4.04983808266479E-07	383575.875	5.40799919690471E-06
1	60	71.9273428184009	0.404205322265625	0.40423583984375	1.0247802734375E-06	4.14252895097889E-07	394461	5.51134098714101E-06
1	61	72.0280508181467	0.414276123046875	0.414276123046875	1.02294921875E-06	4.23783404812639E-07	404982.125	5.61445222047041E-06
1	62	72.1287588178924	0.424346923828125	0.42431640625	1.02081298828125E-06	4.3314770437064E-07	415665.1875	5.71736381971277E-06
1	63	72.2294668176381	0.434417724609375	0.43450927734375	1.01898193359375E-06	4.42757112750769E-07	426415.09375	5.8200757848681E-06
1	64	72.3301748173839	0.444488525390625	0.444488525390625	1.01776123046875E-06	4.52383176252624E-07	436731.65625	5.92263404541882E-06
1	65	72.4308828171296	0.454559326171875	0.45458984375	1.016845703125E-06	4.62247697896601E-07	447058.84375	6.02508453084738E-06
1	66	72.5315908168753	0.464630126953125	0.46466064453125	1.01654052734375E-06	4.72346386004574E-07	457099.96875	6.12747362538357E-06
1	67	72.6322988166211	0.474700927734375	0.4747314453125	1.01715087890625E-06	4.82873531382211E-07	466726.65625	6.2298781813297E-06
1	68	72.7330068163668	0.484771728515625	0.4847412109375	1.01837158203125E-06	4.93646666654968E-07	475996.40625	6.33237505098805E-06
1	69	72.8337148161125	0.494842529296875	0.49481201171875	1.019287109375E-06	5.04355512020993E-07	485449.125	6.43497924102121E-06
1	70	72.9344228158583	0.504913330078125	0.504913330078125	1.0211181640625E-06	5.15576175530441E-07	494471.03125	6.53772167424904E-06
1	71	73.035130815604	0.514984130859375	0.5150146484375	1.024169921875E-06	5.27462532318168E-07	502860.53125	6.6407101257937E-06
1	72	73.1358388153498	0.525054931640625	0.5250244140625	1.02752685546875E-06	5.39476673111494E-07	510959.3125	6.74402144795749E-06
1	73	73.2365468150955	0.535125732421875	0.53515625	1.031494140625E-06	5.52010533283465E-07	518816.59375	6.8477011154755E-06
1	74	73.3372548148412	0.545196533203125	0.545166015625	1.03759765625E-06	5.65662958251778E-07	525411.8125	6.9518882810371E-06
1	75	73.437962814587	0.555267333984375	0.555267333984375	1.04400634765625E-06	5.79702600589371E-07	531862	7.05670527167968E-06
1	76	73.5386708143327	0.565338134765625	0.56524658203125	1.05133056640625E-06	5.94260995967488E-07	537648.8125	7.16221393304295E-06
1	77	73.6393788140784	0.575408935546875	0.575439453125	1.06109619140625E-06	6.10596600836288E-07	542306.5625	7.2685829763941E-06
1	78	73.7400868138242	0.585479736328125	0.58544921875	1.07269287109375E-06	6.28007171599165E-07	545775.25	7.37602795197745E-06
1	79	73.8407948135699	0.595550537109375	0.59552001953125	1.08734130859375E-06	6.4753351125546E-07	547684.5625	7.48479442336247E-06
1	80	73.9415028133157	0.605621337890625	0.605560302734375	1.10565185546875E-06	6.69538849251694E-07	547695.3125	7.59522026783088E-06
1	81	74.0422108130614	0.615692138671875	0.61566162109375	1.1309814453125E-06	6.9630186771974E-07	544360.5	7.70784390624613E-06
1	82	74.1429188128071	0.625762939453125	0.625701904296875	1.16363525390625E-06	7.28088821233541E-07	537713.0625	7.82338702265406E-06
1	83	74.2436268125529	0.635833740234375	0.635833740234375	1.2060546875E-06	7.66850234867889E-07	527201.4375	7.94270999904256E-06
1	84	74.3443348122986	0.645904541015625	0.645843505859375	1.260986328125E-06	8.14399811588373E-07	512173.28125	8.06693515187362E-06
1	85	74.4450428120443	0.655975341796875	0.65594482421875	1.32720947265625E-06	8.7057617292885E-07	494228.5625	8.19726119516417E-06
1	86	74.5457508117901	0.666046142578125	0.665985107421875	1.4031982421875E-06	9.34509102989978E-07	474619.40625	8.33474859973649E-06
1	87	74.6464588115358	0.676116943359375	0.676116943359375	1.4837646484375E-06	1.0031984629677E-06	455676.65625	8.48011859488906E-06
1	88	74.7471668112815	0.686187744140625	0.6861572265625	1.56219482421875E-06	1.071911242434E-06	439226.40625	8.63349487190135E-06
1	89	74.8478748110273	0.696258544921875	0.69622802734375	1.6302490234375E-06	1.13502505882934E-06	427068.5	8.79424715094501E-06
1	90	74.948582810773	0.706329345703125	0.706268310546875	1.68304443359375E-06	1.18868092613411E-06	419637.375	8.96108485903824E-06
1	91	75.0492908105188	0.716400146484375	0.716278076171875	1.71630859375E-06	1.22935421131842E-06	417336.40625	9.13225539989071E-06
1	92	75.1499988102645	0.726470947265625	0.726409912109375	1.73370361328125E-06	1.25937947359489E-06	418993.15625	9.30597798287636E-06
1	93	75.2507068100102	0.736541748046875	0.736480712890625	1.73858642578125E-06	1.28043541280931E-06	423608.90625	9.48082106333459E-06
1	94	75.351414809756	0.746612548828125	0.746551513671875	1.73828125E-06	1.29771649426402E-06	429476.84375	9.65589606494177E-06
1	95	75.4521228095017	0.756683349609375	0.75653076171875	1.7364501953125E-06	1.31367789890646E-06	435676.625	9.83086192718474E-06
1	96	75.5528308092474	0.766754150390625	0.76690673828125	1.7388916015625E-06	1.33356763853953E-06	441031.9375	1.00058596217423E-05
1	97	75.6535388089932	0.776824951171875	0.77728271484375	1.7510986328125E-06	1.36109861159639E-06	443882.90625	1.01815949165029E-05
1	98	75.7542468087389	0.786895751953125	0.78704833984375	1.7767333984375E-06	1.39837504775642E-06	442974.9375	1.03592346931691E-05
1	99	75.8549548084846	0.796966552734375	0.797119140625	1.8194580078125E-06	1.45032470300066E-06	438108.03125	1.05403178167762E-05
1	100	75.9556628082304	0.807037353515625	0.8074951171875	1.88262939453125E-06	1.52021402755054E-06	428918.78125	1.07267323983251E-05
1	101	76.0563708079761	0.817108154296875	0.8172607421875	1.96685791015625E-06	1.60743570631894E-06	415515.9375	1.09205693661352E-05
1	102	76.1570788077219	0.827178955078125	0.82733154296875	2.07183837890625E-06	1.71409715221671E-06	399322.46875	1.1123934200441E-05
1	103	76.2577868074676	0.837249755859375	0.83709716796875	2.1917724609375E-06	1.83472650405747E-06	381927.0625	1.13386240627733E-05
1	104	76.3584948072133	0.847320556640625	0.8477783203125	2.3162841796875E-06	1.96369546756614E-06	366007.9375	1.15656230263994E-05
1	105	76.4592028069591	0.857391357421875	0.85693359375	2.43194580078125E-06	2.08401593226881E-06	352365.4375	1.18047146315803E-05
1	106	76.5599108067048	0.867462158203125	0.8673095703125	2.5286865234375E-06	2.19315393223951E-06	342988.15625	1.20545028039487E-05
1	107	76.6606188064505	0.877532958984375	0.87799072265625	2.5946044921875E-06	2.27803866437171E-06	338390.96875	1.23124809761066E-05
1	108	76.7613268061963	0.887603759765625	0.887451171875	2.6275634765625E-06	2.3318341391132E-06	337746.8125	1.2575437722262E-05
1	109	76.862034805942	0.897674560546875	0.8978271484375	2.6312255859375E-06	2.36238565776148E-06	341220.15625	1.28402389236726E-05
1	110	76.9627428056878	0.907745361328125	0.908203125	2.6129150390625E-06	2.37305766859208E-06	347582.34375	1.310430252488E-05
1	111	77.0634508054335	0.917816162109375	0.91827392578125	2.58026123046875E-06	2.36938672060205E-06	355884.09375	1.33657995320391E-05
1	112	77.1641588051792	0.927886962890625	0.927734375	2.54058837890625E-06	2.35699121731159E-06	365165.15625	1.36236549224122E-05
1	113	77.264866804925	0.937957763671875	0.93780517578125	2.49786376953125E-06	2.34250956054893E-06	375442.875	1.38773611979559E-05
1	114	77.3655748046707	0.948028564453125	0.94818115234375	2.4554443359375E-06	2.32820593737415E-06	386154.625	1.41267801154754E-05
1	115	77.4662828044164	0.958099365234375	0.958251953125	2.4151611328125E-06	2.31433295994066E-06	396765.21875	1.43720344567555E-05
1	116	77.5669908041622	0.968170166015625	0.96832275390625	2.3785400390625E-06	2.30319437832804E-06	407108.0625	1.46134161695954E-05
1	117	77.6676988039079	0.978240966796875	0.9783935546875	2.344970703125E-06	2.29430406761821E-06	417230.625	1.4851264495519E-05
1	118	77.7684068036536	0.988311767578125	0.98876953125	2.3150634765625E-06	2.28906424126762E-06	427102.5625	1.50859150380711E-05
1	119	77.8691148033994	0.998382568359375	0.99822998046875	2.2894287109375E-06	2.28537646762561E-06	436017.0625	1.531776979391E-05
1	120	77.9698228031451	1.00845336914063	1.00830078125	2.2674560546875E-06	2.28627777687507E-06	444683.71875	1.55472280312097E-05
1	121	78.0705308028909	1.01852416992188	1.01837158203125	2.24822998046875E-06	2.28953354053374E-06	452965.9375	1.57746108015999E-05
1	122	78.1712388026366	1.02859497070313	1.02813720703125	2.23052978515625E-06	2.29329043577309E-06	460938.59375	1.60001345648197E-05
1	123	78.2719468023823	1.03866577148438	1.038818359375	2.215576171875E-06	2.30158116210077E-06	468870.53125	1.62240121426294E-05
1	124	78.3726548021281	1.04873657226563	1.04827880859375	2.20184326171875E-06	2.3081456674845E-06	476091.46875	1.6446447261842E-05
1	125	78.4733628018738	1.05880737304688	1.05865478515625	2.19024658203125E-06	2.3187149054138E-06	483349.59375	1.66676072694827E-05
1	126	78.5740708016195	1.06887817382813	1.0687255859375	2.18017578125E-06	2.33000946536777E-06	490201.59375	1.68876758834813E-05
1	127	78.6747788013653	1.07894897460938	1.0791015625	2.171630859375E-06	2.34341018767736E-06	496908.40625	1.71068058989476E-05
1	128	78.775486801111	1.08901977539063	1.0888671875	2.16461181640625E-06	2.35697461903328E-06	503031.1875	1.73251537489705E-05
1	129	78.8761948008568	1.09909057617188	1.0992431640625	2.1588134765625E-06	2.37306085182354E-06	509188.59375	1.75428558577551E-05
1	130	78.9769028006025	1.10916137695313	1.10931396484375	2.15301513671875E-06	2.38836946664378E-06	515237.46875	1.77599722519517E-05
1	131	79.0776108003482	1.11923217773438	1.11907958984375	2.14813232421875E-06	2.40393114836479E-06	520954.6875	1.79765520442743E-05
1	132	79.178318800094	1.12930297851563	1.12945556640625	2.1441650390625E-06	2.4217390546255E-06	526757.8125	1.8192686184193E-05
1	133	79.2790267998397	1.13937377929688	1.13983154296875	2.14080810546875E-06	2.44016041506256E-06	532430.5625	1.84084528882522E-05
1	134	79.3797347995854	1.14944458007813	1.14990234375	2.13897705078125E-06	2.45961450673349E-06	537594.5625	1.86239576578373E-05
1	135	79.4804427993312	1.15951538085938	1.15997314453125	2.138671875E-06	2.48080186793231E-06	542380.1875	1.88393532880582E-05
1	136	79.5811507990769	1.16958618164063	1.16973876953125	2.13958740234375E-06	2.50275843427517E-06	546712.3125	1.90547816600883E-05
1	137	79.6818587988226	1.17965698242188	1.1798095703125	2.14080810546875E-06	2.5257456854888E-06	551104.8125	1.92703155335039E-05
1	138	79.7825667985684	1.18972778320313	1.1895751953125	2.14263916015625E-06	2.54883025263553E-06	555191.625	1.94860040210187E-05
1	139	79.8832747983141	1.19979858398438	1.199951171875	2.14569091796875E-06	2.57472424891603E-06	559237.6875	1.97019398910925E-05
1	140	79.9839827980599	1.20986938476563	1.209716796875	2.14874267578125E-06	2.59936996371835E-06	562988.25	1.9918181351386E-05
1	141	80.0846907978056	1.21994018554688	1.2200927734375	2.1539306640625E-06	2.62799517258827E-06	566449.4375	2.01348375412636E-05
1	142	80.1853987975513	1.23001098632813	1.23016357421875	2.15972900390625E-06	2.65681978817156E-06	569591.6875	2.03520485229092E-05
1	143	80.2861067972971	1.24008178710938	1.23992919921875	2.16705322265625E-06	2.68699250227655E-06	572172.9375	2.05699179787189E-05
1	144	80.3868147970428	1.25015258789063	1.25030517578125	2.17437744140625E-06	2.71863541456696E-06	575017.5625	2.07885277632158E-05
1	145	80.4875227967885	1.26022338867188	1.2603759765625	2.1832275390625E-06	2.75168736152409E-06	577299.4375	2.10079506359762E-05
1	146	80.5882307965343	1.27029418945313	1.270751953125	2.19146728515625E-06	2.78481138593634E-06	579863.5625	2.12282338907244E-05
1	147	80.68893879628	1.28036499023438	1.28082275390625	2.20123291015625E-06	2.81938901025569E-06	581866.125	2.14494230021955E-05
1	148	80.7896467960257	1.29043579101563	1.28997802734375	2.2119140625E-06	2.85332066596311E-06	583195.375	2.16716434806585E-05
1	149	80.8903547957715	1.30050659179688	1.30096435546875	2.222900390625E-06	2.89191416413814E-06	585255.375	2.18949535337742E-05
1	150	80.9910627955172	1.31057739257813	1.31072998046875	2.23541259765625E-06	2.9300222195161E-06	586348.1875	2.21194477489917E-05
1	151	81.091770795263	1.32064819335938	1.32080078125	2.2491455078125E-06	2.97067299470655E-06	587245.625	2.23452625505161E-05
1	152	81.1924787950087	1.33071899414063	1.33056640625	2.26348876953125E-06	3.01172212857637E-06	587838.75	2.25724925257964E-05
1	153	81.2931867947544	1.34078979492188	1.34033203125	2.27935791015625E-06	3.05509638565127E-06	588030.5625	2.28012431762181E-05
1	154	81.3938947945002	1.35086059570313	1.351318359375	2.29583740234375E-06	3.10240693579544E-06	588595	2.3031621822156E-05
1	155	81.4946027942459	1.36093139648438	1.361083984375	2.31353759765625E-06	3.14891894959146E-06	588312.875	2.32637230510591E-05
1	156	81.5953107939916	1.37100219726563	1.3714599609375	2.3345947265625E-06	3.20180311064178E-06	587451	2.34977742366027E-05
1	157	81.6960187937374	1.38107299804688	1.3812255859375	2.35870361328125E-06	3.25790165334183E-06	585586.75	2.37341009778902E-05
1	158	81.7967267934831	1.39114379882813	1.3909912109375	2.38739013671875E-06	3.32083868670452E-06	582640.9375	2.39730852626963E-05
1	159	81.8974347932289	1.40121459960938	1.40106201171875	2.420654296875E-06	3.39148664352251E-06	578794.75	2.42151909333188E-05
1	160	81.9981427929746	1.41128540039063	1.4111328125	2.4591064453125E-06	3.47012564816396E-06	573839.6875	2.4460905478918E-05
1	161	82.0988507927203	1.42135620117188	1.42120361328125	2.50396728515625E-06	3.55864722223487E-06	567580.75	2.47108164330712E-05
1	162	82.1995587924661	1.43142700195313	1.431884765625	2.5567626953125E-06	3.66098947779392E-06	560038.1875	2.49656441155821E-05
1	163	82.3002667922118	1.44149780273438	1.441650390625	2.61962890625E-06	3.77658875549969E-06	550326.25	2.52262962021632E-05
1	164	82.4009747919575	1.45156860351563	1.45172119140625	2.69317626953125E-06	3.90974082620232E-06	539036.875	2.54938167927321E-05
1	165	82.5016827917033	1.46163940429688	1.46148681640625	2.7813720703125E-06	4.06493836635491E-06	525455.375	2.57694828178501E-05
1	166	82.602390791449	1.47171020507813	1.4715576171875	2.88543701171875E-06	4.24608697358053E-06	509994.71875	2.60548295045737E-05
1	167	82.7030987911947	1.48178100585938	1.48193359375	3.00994873046875E-06	4.46054400526918E-06	492345.15625	2.63516849372536E-05
1	168	82.8038067909405	1.49185180664063	1.49169921875	3.15399169921875E-06	4.70480699732434E-06	472955.96875	2.66620645561488E-05
1	169	82.9045147906862	1.50192260742188	1.50177001953125	3.3172607421875E-06	4.98176268592943E-06	452713.90625	2.69879183179E-05
1	170	83.005222790432	1.49185180664063	1.49169921875	2.9571533203125E-06	4.41118345406721E-06	504437.5625	2.73038604063913E-05
1	171	83.1059307901777	1.48178100585938	1.48162841796875	2.6885986328125E-06	3.98350402974756E-06	551078.3125	2.75881466222927E-05
1	172	83.2066387899234	1.47171020507813	1.4715576171875	2.4749755859375E-06	3.64206903213926E-06	594574.625	2.78481529676355E-05
1	173	83.3073467896692	1.46163940429688	1.46148681640625	2.2998046875E-06	3.36113430421392E-06	635483	2.8088581530028E-05
1	174	83.4080547894149	1.45156860351563	1.45111083984375	2.15484619140625E-06	3.126920773866E-06	673417.375	2.83128920273157E-05
1	175	83.5087627891606	1.44149780273438	1.441650390625	2.0330810546875E-06	2.93099219561554E-06	709096.375	2.85237692878582E-05
1	176	83.6094707889064	1.43142700195313	1.43157958984375	1.92962646484375E-06	2.7624139420368E-06	741894.6875	2.87233087874483E-05
1	177	83.7101787886521	1.42135620117188	1.42120361328125	1.8408203125E-06	2.61618038166489E-06	772049.125	2.89131658064434E-05
1	178	83.8108867883979	1.41128540039063	1.4111328125	1.7657470703125E-06	2.49170352617512E-06	799170.4375	2.90947700705146E-05
1	179	83.9115947881436	1.40121459960938	1.40106201171875	1.700439453125E-06	2.38242091654683E-06	823941.1875	2.92693075607531E-05
1	180	84.0123027878893	1.39114379882813	1.3909912109375	1.6448974609375E-06	2.28803787649667E-06	845640.0625	2.94377568934578E-05
1	181	84.1130107876351	1.38107299804688	1.38092041015625	1.5966796875E-06	2.20488755076076E-06	864870.0625	2.9600983907585E-05
1	182	84.2137187873808	1.37100219726563	1.37054443359375	1.553955078125E-06	2.12976442526269E-06	881971.75	2.97596307063941E-05
1	183	84.3144267871265	1.36093139648438	1.36077880859375	1.5155029296875E-06	2.06226422960754E-06	897905.8125	2.99141902360134E-05
1	184	84.4151347868723	1.35086059570313	1.35040283203125	1.48193359375E-06	2.00120712179341E-06	911243.875	3.00651245197514E-05
1	185	84.515842786618	1.34078979492188	1.3409423828125	1.45172119140625E-06	1.94667427422246E-06	923691.4375	3.02128446492134E-05
1	186	84.6165507863637	1.33071899414063	1.33087158203125	1.424560546875E-06	1.8959071894642E-06	934233.0625	3.03576780424919E-05
1	187	84.7172587861095	1.32064819335938	1.3201904296875	1.400146484375E-06	1.84845987405424E-06	942894.5625	3.04999120999128E-05
1	188	84.8179667858552	1.31057739257813	1.31103515625	1.37908935546875E-06	1.808034539863E-06	950652.8125	3.0639857868664E-05
1	189	84.918674785601	1.30050659179688	1.30035400390625	1.35986328125E-06	1.7683037185634E-06	956238.75	3.07777736452408E-05
1	190	85.0193827853467	1.29043579101563	1.290283203125	1.3421630859375E-06	1.73177045326156E-06	961346.125	3.0913834052626E-05
1	191	85.1200907850924	1.28036499023438	1.2799072265625	1.3250732421875E-06	1.6959706954367E-06	965914.375	3.10481409542263E-05
1	192	85.2207987848382	1.27029418945313	1.270751953125	1.30889892578125E-06	1.66328572959173E-06	970855.75	3.11807707475964E-05
1	193	85.3215067845839	1.26022338867188	1.2603759765625	1.29364013671875E-06	1.63047297974117E-06	974286.375	3.13118180201855E-05
1	194	85.4222147843296	1.25015258789063	1.25030517578125	1.279296875E-06	1.59951150635607E-06	977337.8125	3.14413773594424E-05
1	195	85.5229227840754	1.24008178710938	1.23992919921875	1.2664794921875E-06	1.57034480707807E-06	979036.1875	3.15695651806891E-05
1	196	85.6236307838211	1.23001098632813	1.23016357421875	1.25396728515625E-06	1.54258486873005E-06	981017.25	3.16964797093533E-05
1	197	85.7243387835668	1.21994018554688	1.22039794921875	1.241455078125E-06	1.51506912970945E-06	983038.375	3.18221354973502E-05
1	198	85.8250467833126	1.20986938476563	1.20941162109375	1.22894287109375E-06	1.48629783325305E-06	984107.25	3.19465289067011E-05
1	199	85.9257547830583	1.19979858398438	1.1993408203125	1.21673583984375E-06	1.45928083838953E-06	985703.625	3.20696781273E-05
1	200	86.0264627828041	1.18972778320313	1.190185546875	1.20391845703125E-06	1.43288627896254E-06	988593.25	3.21915686072316E-05
1	201	86.1271707825498	1.17965698242188	1.18011474609375	1.19140625E-06	1.40599604492309E-06	990522.5625	3.23121821566019E-05
1	202	86.2278787822955	1.16958618164063	1.16973876953125	1.17950439453125E-06	1.37971198910236E-06	991720.625	3.24315697071142E-05
1	203	86.3285867820413	1.15951538085938	1.15936279296875	1.1688232421875E-06	1.35509014853596E-06	991906	3.25498149322812E-05
1	204	86.429294781787	1.14944458007813	1.1492919921875	1.1578369140625E-06	1.33069261210039E-06	992619.9375	3.26669724017847E-05
1	205	86.5300027815327	1.13937377929688	1.1395263671875	1.14715576171875E-06	1.3072142337478E-06	993349.25	3.27830384776462E-05
1	206	86.6307107812785	1.12930297851563	1.129150390625	1.136474609375E-06	1.28325075365865E-06	993555.375	3.28980277117807E-05
1	207	86.7314187810242	1.11923217773438	1.11968994140625	1.1260986328125E-06	1.26088127672119E-06	994309	3.30119582940824E-05
1	208	86.83212678077	1.10916137695313	1.109619140625	1.1163330078125E-06	1.23870449897368E-06	993985.8125	3.31248738802969E-05
1	209	86.9328347805157	1.09909057617188	1.0992431640625	1.10595703125E-06	1.21571576983115E-06	993929.375	3.32367744704243E-05
1	210	87.0335427802614	1.08901977539063	1.08917236328125	1.09649658203125E-06	1.19427375011583E-06	993320.3125	3.33476746163797E-05
1	211	87.1342507800072	1.07894897460938	1.0791015625	1.08795166015625E-06	1.17401032184716E-06	991865.375	3.34576725435909E-05
1	212	87.2349587797529	1.06887817382813	1.0693359375	1.0797119140625E-06	1.15457464744395E-06	990390.125	3.35668228217401E-05
1	213	87.3356667794986	1.05880737304688	1.05865478515625	1.07086181640625E-06	1.13367298126832E-06	988600.75	3.3675110898912E-05
1	214	87.4363747792444	1.04873657226563	1.04949951171875	1.06231689453125E-06	1.11490101062373E-06	987934.5	3.37825258611701E-05
1	215	87.5370827789901	1.03866577148438	1.038818359375	1.0528564453125E-06	1.0937266097244E-06	986666.6875	3.38890349667054E-05
1	216	87.6377907787358	1.02859497070313	1.029052734375	1.04278564453125E-06	1.07308130736783E-06	986830.625	3.39945581799839E-05
1	217	87.7384987784816	1.01852416992188	1.0186767578125	1.03363037109375E-06	1.05293520391569E-06	985532.9375	3.40991136908997E-05
1	218	87.8392067782273	1.00845336914063	1.00860595703125	1.02386474609375E-06	1.03267598206003E-06	985096.9375	3.4202716051368E-05
1	219	87.9399147779731	0.998382568359375	0.99853515625	1.0137939453125E-06	1.01230887139536E-06	984948.8125	3.43053216056433E-05
1	220	88.0406227777188	0.988311767578125	0.98846435546875	1.0015869140625E-06	9.90032845038513E-07	986898.3125	3.44068030244671E-05
1	221	88.1413307774645	0.978240966796875	0.97808837890625	9.88159179687501E-07	9.66507059274591E-07	989808.5	3.45069965987932E-05
1	222	88.2420387772103	0.968170166015625	0.96832275390625	9.722900390625E-07	9.41490498007624E-07	995919.75	3.46057131537236E-05
1	223	88.342746776956	0.958099365234375	0.95794677734375	9.527587890625E-07	9.12692144083849E-07	1005445.25	3.47026470990386E-05
1	224	88.4434547767017	0.948028564453125	0.94818115234375	9.28649902343751E-07	8.80528261859581E-07	1021031.9375	3.47973837051541E-05
1	225	88.5441627764475	0.937957763671875	0.93841552734375	8.990478515625E-07	8.43680481921183E-07	1043788.1875	3.48894136550371E-05
1	226	88.6448707761932	0.927886962890625	0.927734375	8.61511230468751E-07	7.99253541572398E-07	1076868.625	3.49780639226083E-05
1	227	88.745578775939	0.917816162109375	0.91766357421875	8.1329345703125E-07	7.46329760659137E-07	1128330.25	3.50623995473143E-05
1	228	88.8462867756847	0.907745361328125	0.90789794921875	7.4951171875E-07	6.80480127357441E-07	1211319.25	3.51410926668905E-05
1	229	88.9469947754304	0.897674560546875	0.89813232421875	6.6680908203125E-07	5.98882763824804E-07	1346910.75	3.52124079654459E-05
1	230	89.0477027751762	0.887603759765625	0.887451171875	5.645751953125E-07	5.01032900501741E-07	1571891.875	3.5274413676234E-05
1	231	89.1484107749219	0.877532958984375	0.87799072265625	4.4097900390625E-07	3.87175475680124E-07	1991003.5	3.53250470652711E-05
1	232	89.2491187746676	0.867462158203125	0.867919921875	3.0242919921875E-07	2.62484320501244E-07	2869828.5	3.5362481867196E-05
1	233	89.3498267744134	0.857391357421875	0.858154296875	1.5594482421875E-07	1.3382471308887E-07	5502935.5	3.53855612047482E-05
1	234	89.4505347741591	0.847320556640625	0.84747314453125	1.40380859374997E-08	1.18969003537472E-08	60369568	3.53941213688813E-05
1	235	89.5512427739048	0.837249755859375	0.83770751953125	-1.1016845703125E-07	-9.22889427101836E-08	-7603878	3.53892828570679E-05
1	236	89.6519507736506	0.827178955078125	0.82733154296875	-2.0477294921875E-07	-1.69415116602067E-07	-4040238.5	3.5373421269469E-05
1	237	89.7526587733963	0.817108154296875	0.81756591796875	-2.67639160156249E-07	-2.18812658658862E-07	-3054732	3.53496361640282E-05
1	238	89.8533667731421	0.807037353515625	0.806884765625	-2.978515625E-07	-2.40331871736998E-07	-2709016.5	3.53211617039051E-05
1	239	89.9540747728878	0.796966552734375	0.797119140625	-3.0242919921875E-07	-2.41072086737404E-07	-2635721.5	3.5290933737997E-05
1	240	90.0547827726335	0.786895751953125	0.7867431640625	-2.886962890625E-07	-2.27129817176319E-07	-2725158.75	3.52611677953973E-05
1	241	90.1554907723793	0.776824951171875	0.7769775390625	-2.64587402343749E-07	-2.05578459144817E-07	-2936563	3.52333081536926E-05
1	242	90.256198772125	0.766754150390625	0.76690673828125	-2.3834228515625E-07	-1.82786294544712E-07	-3217669.75	3.52079841832165E-05
1	243	90.3569067718707	0.756683349609375	0.75653076171875	-2.14538574218751E-07	-1.6230502808412E-07	-3526315.75	3.51851776940748E-05
1	244	90.4576147716165	0.746612548828125	0.746612548828125	-1.98974609374999E-07	-1.48556935641864E-07	-3752300.75	3.51643575413618E-05
1	245	90.5583227713622	0.736541748046875	0.736480712890625	-1.94396972656249E-07	-1.43169614830185E-07	-3788540.25	3.51445487467572E-05
1	246	90.659030771108	0.726470947265625	0.72637939453125	-2.0477294921875E-07	-1.48742842043248E-07	-3547243	3.5124448913848E-05
1	247	90.7597387708537	0.716400146484375	0.716339111328125	-2.30712890625E-07	-1.65268659202411E-07	-3104894.25	3.51025228155777E-05
1	248	90.8604467705994	0.706329345703125	0.706268310546875	-2.72216796874999E-07	-1.92258099218634E-07	-2594506.75	3.50771952071227E-05
1	249	90.9611547703452	0.696258544921875	0.696197509765625	-3.2684326171875E-07	-2.27547459985544E-07	-2130065.25	3.50470327248331E-05
1	250	91.0618627700909	0.686187744140625	0.68609619140625	-3.8726806640625E-07	-2.65703135937656E-07	-1771631.25	3.50110749423038E-05
1	251	91.1625707698366	0.676116943359375	0.67608642578125	-4.46166992187499E-07	-3.01647446576681E-07	-1515321.5	3.49691072187852E-05
1	252	91.2632787695824	0.666046142578125	0.666015625	-4.9560546875E-07	-3.30080951016498E-07	-1343842.5	3.49216861650348E-05
1	253	91.3639867693281	0.655975341796875	0.655975341796875	-5.2764892578125E-07	-3.46124693351157E-07	-1243204.125	3.48701578332111E-05
1	254	91.4646947690738	0.645904541015625	0.64581298828125	-5.3985595703125E-07	-3.48645983194729E-07	-1196269.125	3.48164066963363E-05
1	255	91.5654027688196	0.635833740234375	0.635772705078125	-5.340576171875E-07	-3.39539269589295E-07	-1190457.125	3.47623317793477E-05
1	256	91.6661107685653	0.625762939453125	0.625732421875	-5.13610839843751E-07	-3.21382941592674E-07	-1218300.75	3.47095774486661E-05
1	257	91.7668187683111	0.615692138671875	0.61566162109375	-4.82788085937499E-07	-2.97234095114618E-07	-1275221.25	3.46594024449587E-05
1	258	91.8675267680568	0.605621337890625	0.605560302734375	-4.45556640625E-07	-2.69811408770693E-07	-1359109.625	3.46126580552664E-05
1	259	91.9682347678025	0.595550537109375	0.59552001953125	-4.071044921875E-07	-2.42438886743912E-07	-1462818.625	3.45697226293851E-05
1	260	92.0689427675483	0.585479736328125	0.585540771484375	-3.692626953125E-07	-2.16218367654619E-07	-1585702.5	3.45306289091241E-05
1	261	92.169650767294	0.575408935546875	0.5753173828125	-3.326416015625E-07	-1.91374496694152E-07	-1729541.25	3.44952859450132E-05
1	262	92.2703587670397	0.565338134765625	0.565277099609375	-2.99072265625E-07	-1.6905870836581E-07	-1890102	3.4463475458324E-05
1	263	92.3710667667855	0.555267333984375	0.555206298828125	-2.67944335937501E-07	-1.48764385698996E-07	-2072095.75	3.44349246006459E-05
1	264	92.4717747665312	0.545196533203125	0.545196533203125	-2.38952636718751E-07	-1.30276134768792E-07	-2281609.25	3.44094005413353E-05
1	265	92.5724827662769	0.535125732421875	0.53515625	-2.13012695312501E-07	-1.13995071160389E-07	-2512321	3.43866413459182E-05
1	266	92.6731907660227	0.525054931640625	0.5250244140625	-1.8951416015625E-07	-9.94995588143865E-08	-2770370.5	3.43663741659839E-05
1	267	92.7738987657684	0.514984130859375	0.51495361328125	-1.6815185546875E-07	-8.65904041802423E-08	-3062432	3.434836253291E-05
1	268	92.8746067655142	0.504913330078125	0.5048828125	-1.495361328125E-07	-7.54982210082744E-08	-3376326.5	3.43323663400952E-05
1	269	92.9753147652599	0.494842529296875	0.494842529296875	-1.31835937499999E-07	-6.52380265364627E-08	-3753472.25	3.43182000506204E-05
1	270	93.0760227650056	0.484771728515625	0.484710693359375	-1.15966796875E-07	-5.62103430468142E-08	-4179737	3.4305721783312E-05
1	271	93.1767307647514	0.474700927734375	0.4747314453125	-1.0101318359375E-07	-4.79541313325171E-08	-4699698	3.42947932949755E-05
1	272	93.2774387644971	0.464630126953125	0.464630126953125	-8.72802734374997E-08	-4.05530435898527E-08	-5323427	3.42853127222043E-05
1	273	93.3781467642428	0.454559326171875	0.454620361328125	-7.44628906250003E-08	-3.38523449272543E-08	-6105328	3.4277170925634E-05
1	274	93.4788547639886	0.444488525390625	0.444549560546875	-6.256103515625E-08	-2.78114811180785E-08	-7105853.5	3.42702696798369E-05
1	275	93.5795627637343	0.434417724609375	0.4344482421875	-5.18798828125E-08	-2.25391225683325E-08	-8374118	3.42645071214065E-05
1	276	93.6802707634801	0.424346923828125	0.42431640625	-4.24194335937503E-08	-1.79992607485246E-08	-10002878	3.42597595590632E-05
1	277	93.7809787632258	0.414276123046875	0.414337158203125	-3.32641601562503E-08	-1.37825768575794E-08	-12455964	3.42559469572734E-05
1	278	93.8816867629715	0.404205322265625	0.404205322265625	-2.47192382812497E-08	-9.99164750936643E-09	-16351852	3.42530292982701E-05
1	279	93.9823947627173	0.394134521484375	0.39410400390625	-1.678466796875E-08	-6.61490462405823E-09	-23480000	3.4250937460456E-05
1	280	94.083102762463	0.384063720703125	0.384063720703125	-9.1552734375E-09	-3.5162082134832E-09	-41950004	3.42496314260643E-05
1	281	94.1838107622087	0.373992919921875	0.3740234375	-1.52587890625E-09	-5.70714475678358E-10	-245120000	3.42490930052008E-05
1	282	94.2845187619545	0.363922119140625	0.363922119140625	5.18798828124945E-09	1.88802373735086E-09	70147056	3.424927854212E-05
1	283	94.3852267617002	0.353851318359375	0.353851318359375	1.19018554687503E-08	4.21148715901154E-09	29730770	3.42501407430973E-05
1	284	94.4859347614459	0.343780517578125	0.34381103515625	1.70898437499997E-08	5.87567638987707E-09	20117858	3.42515995725989E-05
1	285	94.5866427611917	0.333709716796875	0.333740234375	2.22778320312506E-08	7.43500860878044E-09	14980823	3.42535822710488E-05
1	286	94.6873507609374	0.323638916015625	0.32366943359375	2.65502929687494E-08	8.5935178972818E-09	12190805	3.42560415447224E-05
1	287	94.7880587606832	0.313568115234375	0.313629150390625	3.08227539062497E-08	9.66691438009093E-09	10175247	3.42589300998952E-05
1	288	94.8887667604289	0.303497314453125	0.303466796875	3.41796874999994E-08	1.03723998279293E-08	8878572	3.42622006428428E-05
1	289	94.9894747601746	0.293426513671875	0.293365478515625	3.78417968750003E-08	1.11014770709517E-08	7752419.5	3.42658277077135E-05
1	290	95.0901827599204	0.283355712890625	0.2833251953125	3.99780273437497E-08	1.13267821788554E-08	7087023	3.42697458108887E-05
1	291	95.1908907596661	0.273284912109375	0.273345947265625	4.15039062499997E-08	1.13449241112562E-08	6586029.5	3.42738494509831E-05
1	292	95.2915987594118	0.263214111328125	0.263275146484375	4.18090820312494E-08	1.10072919667914E-08	6297080.5	3.42780440405477E-05
1	293	95.3923067591576	0.253143310546875	0.25311279296875	4.18090820312494E-08	1.0582413167981E-08	6054015	3.42822568200063E-05
1	294	95.4930147589033	0.243072509765625	0.24310302734375	4.18090820312494E-08	1.01639141547594E-08	5814598.5	3.42864659614861E-05
1	295	95.5937227586491	0.233001708984375	0.233001708984375	4.15039062499997E-08	9.67048130462445E-09	5613970.5	3.42906605510507E-05
1	296	95.6944307583948	0.222930908203125	0.22296142578125	4.119873046875E-08	9.18572684582841E-09	5411852	3.42948260367848E-05
1	297	95.7951387581405	0.212860107421875	0.212860107421875	3.99780273437497E-08	8.50972714516729E-09	5324427.5	3.42989114869852E-05
1	298	95.8958467578863	0.202789306640625	0.202789306640625	3.84521484374997E-08	7.79768427605632E-09	5273810	3.43028623319697E-05
1	299	95.996554757632	0.192718505859375	0.19268798828125	3.41796874999994E-08	6.58601484460064E-09	5637500.5	3.43065185006708E-05
1	300	96.0972627573777	0.182647705078125	0.18267822265625	3.0517578125E-08	5.57489654440246E-09	5986000.5	3.43097781296819E-05
1	301	96.1979707571235	0.172576904296875	0.172637939453125	2.53295898437506E-08	4.37284786158898E-09	6815663	3.43125902872998E-05
1	302	96.2986787568692	0.162506103515625	0.16253662109375	1.89208984374994E-08	3.07533887244915E-09	8590322	3.43148167303298E-05
1	303	96.3993867566149	0.152435302734375	0.152496337890625	1.068115234375E-08	1.6288365101147E-09	14277143	3.43163083016407E-05
1	304	96.5000947563607	0.142364501953125	0.14239501953125	-9.15527343750555E-10	-1.3036653701004E-10	-155533344	3.43167994287796E-05
1	305	96.6008027561064	0.132293701171875	0.132293701171875	-1.73950195312494E-08	-2.30125141165161E-09	-7605263.5	3.43158790201414E-05
1	306	96.7015107558522	0.122222900390625	0.122283935546875	-4.08935546875003E-08	-5.0006248031309E-09	-2990298.5	3.43129431712441E-05
1	307	96.8022187555979	0.112152099609375	0.11212158203125	-7.38525390624995E-08	-8.28046342604694E-09	-1518181.75	3.43071660608985E-05
1	308	96.9029267553436	0.102081298828125	0.102142333984375	-1.202392578125E-07	-1.22815180247926E-08	-849492.4375	3.42973908118438E-05
1	309	97.0036347550894	0.092010498046875	0.092041015625	-1.84020996093751E-07	-1.69374789749099E-08	-500165.84375	3.42820712830871E-05
1	310	97.1043427548351	0.081939697265625	0.082000732421875	-2.7008056640625E-07	-2.21468035022099E-08	-303615.8125	3.42592065862846E-05
1	311	97.2050507545808	0.071868896484375	0.071868896484375	-3.8482666015625E-07	-2.76570659707431E-08	-186756.546875	3.42262283083983E-05
1	312	97.3057587543266	0.061798095703125	0.061859130859375	-5.31005859375E-07	-3.28475628919023E-08	-116494.25	3.41801132890396E-05
1	313	97.4064667540723	0.051727294921875	0.051788330078125	-7.1136474609375E-07	-3.68403938466599E-08	-72801.375	3.41175546054728E-05
1	314	97.507174753818	0.041656494140625	0.041748046875	-9.197998046875E-07	-3.83998433051147E-08	-45388.1875	3.40354199579451E-05
1	315	97.6078827535638	0.031585693359375	0.031646728515625	-1.1456298828125E-06	-3.62554395394454E-08	-27623.8671875	3.3931417419808E-05
1	316	97.7085907533095	0.021514892578125	0.0215972900390625	-1.3671875E-06	-2.95275448536358E-08	-15796.8759765625	3.38048848789185E-05
1	317	97.8092987530553	0.011444091796875	0.011517333984375	-1.566162109375E-06	-1.80380101966193E-08	-7353.8583984375	3.36571793013718E-05
1	318	97.910006752801	0.001373291015625	0.00147094726562499	-1.7218017578125E-06	-2.53267962158077E-09	-854.307006835938	3.34916185238399E-05
1	319	98.0107147525467	-0.008697509765625	-0.0085601806640625	-1.82098388671875E-06	1.55879504859513E-08	4700.85498046875	3.33132229570765E-05
1	320	98.1114227522925	-0.018768310546875	-0.0186553955078125	-1.86492919921875E-06	3.47909896447618E-08	10003.2734375	3.31276241922751E-05
1	321	98.2121307520382	-0.028839111328125	-0.028717041015625	-1.8603515625E-06	5.34237898364154E-08	15436.3525390625	3.2940039091045E-05
1	322	98.3128387517839	-0.038909912109375	-0.0387451171875	-1.8212890625E-06	7.05660596622693E-08	21273.458984375	3.27546549669933E-05
1	323	98.4135467515297	-0.048980712890625	-0.04888916015625	-1.7620849609375E-06	8.61468549828714E-08	27745.064453125	3.25742184941191E-05
1	324	98.5142547512754	-0.059051513671875	-0.058990478515625	-1.69281005859375E-06	9.98596689782971E-08	34847.66796875	3.2400250347564E-05
1	325	98.6149627510212	-0.069122314453125	-0.069122314453125	-1.62200927734375E-06	1.12117028550074E-07	42615.2421875	3.22333362419158E-05
1	326	98.7156707507669	-0.079193115234375	-0.079132080078125	-1.55364990234375E-06	1.22943546898568E-07	50933.01953125	3.20734288834501E-05
1	327	98.8163787505126	-0.089263916015625	-0.089202880859375	-1.49078369140625E-06	1.3298219414537E-07	59836.234375	3.19201280944981E-05
1	328	98.9170867502584	-0.099334716796875	-0.09930419921875	-1.43463134765625E-06	1.42464912755713E-07	69219.3203125	3.17728226946201E-05
1	329	99.0177947500041	-0.109405517578125	-0.10931396484375	-1.3848876953125E-06	1.51387567370875E-07	78933.453125	3.16308505716734E-05
1	330	99.1185027497498	-0.119476318359375	-0.119354248046875	-1.3427734375E-06	1.60265713589069E-07	88886.3671875	3.14934986818116E-05
1	331	99.2192107494956	-0.129547119140625	-0.129486083984375	-1.30523681640625E-06	1.69009993555846E-07	99205.0546875	3.13601631205529E-05
1	332	99.3199187492413	-0.139617919921875	-0.1395263671875	-1.27410888671875E-06	1.77771781295633E-07	109508.984375	3.12302836391609E-05
1	333	99.420626748987	-0.149688720703125	-0.1495361328125	-1.24603271484375E-06	1.86326900575295E-07	120009.8046875	3.11033836624119E-05
1	334	99.5213347487328	-0.159759521484375	-0.15960693359375	-1.22283935546875E-06	1.95173626593714E-07	130521.59375	3.0979066650616E-05
1	335	99.6220427484785	-0.169830322265625	-0.16973876953125	-1.20330810546875E-06	2.0424803892638E-07	141060.109375	3.08568996842951E-05
1	336	99.7227507482243	-0.179901123046875	-0.1798095703125	-1.187744140625E-06	2.1356775903314E-07	151387.453125	3.07365007756744E-05
1	337	99.82345874797	-0.189971923828125	-0.1898193359375	-1.1761474609375E-06	2.23255526066168E-07	161390.765625	3.06174697470851E-05
1	338	99.9241667477157	-0.200042724609375	-0.199859619140625	-1.16729736328125E-06	2.33295608609296E-07	171215.6875	3.04994664475089E-05
1	339	100.024874747461	-0.189971923828125	-0.18975830078125	-1.01531982421875E-06	1.92665353893062E-07	186895.109375	3.03895631077467E-05
2	340	100.125582747207	-0.179901123046875	-0.179718017578125	-9.124755859375E-07	1.63988303825136E-07	196956.53125	3.0292490919237E-05
2	341	100.226290746953	-0.169830322265625	-0.169708251953125	-8.2977294921875E-07	1.40819309990547E-07	204523.71875	3.0204761060304E-05
2	342	100.326998746699	-0.159759521484375	-0.15960693359375	-7.598876953125E-07	1.21283335374756E-07	210040.171875	3.0124716431601E-05
2	343	100.427706746444	-0.149688720703125	-0.149627685546875	-6.988525390625E-07	1.04567689618307E-07	214104.796875	3.0051262001507E-05
2	344	100.52841474619	-0.139617919921875	-0.1395263671875	-6.4544677734375E-07	9.00568437600668E-08	216170.203125	2.99835719488328E-05
2	345	100.629122745936	-0.129547119140625	-0.129425048828125	-5.95703124999999E-07	7.70989032616853E-08	217264.34375	2.99210751109058E-05
2	346	100.729830745682	-0.119476318359375	-0.119384765625	-5.48706054687501E-07	6.55071445976319E-08	217575.078125	2.98634495266015E-05
2	347	100.830538745427	-0.109405517578125	-0.109375	-5.035400390625E-07	5.50746932503898E-08	217212.125	2.98104641842656E-05
2	348	100.931246745173	-0.099334716796875	-0.099273681640625	-4.57763671875E-07	4.54438833230597E-08	216866.671875	2.97620590572478E-05
2	349	101.031954744919	-0.089263916015625	-0.089263916015625	-4.09851074218751E-07	3.658491110059E-08	217795.984375	2.97183705697535E-05
2	350	101.132662744665	-0.079193115234375	-0.079132080078125	-3.582763671875E-07	2.83511543130999E-08	220868.828125	2.96796933980659E-05
2	351	101.23337074441	-0.069122314453125	-0.069061279296875	-2.99072265625E-07	2.06543138148163E-08	230918.359375	2.96465932478895E-05
2	352	101.334078744156	-0.059051513671875	-0.058990478515625	-2.301025390625E-07	1.35738584816636E-08	256366.0625	2.9619946872117E-05
2	353	101.434786743902	-0.048980712890625	-0.0488128662109375	-1.45874023437501E-07	7.12052949936037E-09	334623.4375	2.96010148304049E-05
2	354	101.535494743648	-0.038909912109375	-0.03878173828125	-4.08935546875003E-08	1.58592317056616E-09	948358.25	2.95916106551886E-05
2	355	101.636202743393	-0.028839111328125	-0.0286834716796875	9.18579101562497E-08	-2.63480370854552E-09	-312259.15625	2.9594177249237E-05
2	356	101.736910743139	-0.018768310546875	-0.0186676025390625	2.5604248046875E-07	-4.7796993030147E-09	-72908.2265625	2.96116941171931E-05
2	357	101.837618742885	-0.008697509765625	-0.008587646484375	4.5166015625E-07	-3.87869780738015E-09	-19013.513671875	2.9647329938598E-05
2	358	101.93832674263	0.001373291015625	0.001483154296875	6.744384765625E-07	1.00029629024334E-09	2199.09497070313	2.97040332952747E-05
2	359	102.039034742376	0.011444091796875	0.011517333984375	9.124755859375E-07	1.05092858859734E-08	12622.0732421875	2.97839414997725E-05
2	360	102.139742742122	0.021514892578125	0.021612548828125	1.1474609375E-06	2.47995561863945E-08	18835.107421875	2.98876675515203E-05
2	361	102.240450741868	0.031585693359375	0.0316925048828125	1.35772705078125E-06	4.30297681930369E-08	23342.32421875	3.00138144666562E-05
2	362	102.341158741613	0.041656494140625	0.0417572021484375	1.524658203125E-06	6.36654604591058E-08	27387.912109375	3.01589534501545E-05
2	363	102.441866741359	0.051727294921875	0.051788330078125	1.63604736328125E-06	8.47281569349434E-08	31654.54296875	3.03181077470072E-05
2	364	102.542574741105	0.061798095703125	0.06182861328125	1.6900634765625E-06	1.04494276342848E-07	36583.60546875	3.04855911963386E-05
2	365	102.643282740851	0.071868896484375	0.0718994140625	1.69525146484375E-06	1.21887580917246E-07	42412.2421875	3.06560541503131E-05
2	366	102.743990740596	0.081939697265625	0.082000732421875	1.6644287109375E-06	1.36484359813949E-07	49266.59765625	3.08252274408005E-05
2	367	102.844698740342	0.092010498046875	0.09210205078125	1.6119384765625E-06	1.4846283136194E-07	57137.44921875	3.09902061417233E-05
2	368	102.945406740088	0.102081298828125	0.102142333984375	1.549072265625E-06	1.58225844870685E-07	65937.75	3.11493749904912E-05
2	369	103.046114739834	0.112152099609375	0.1121826171875	1.4837646484375E-06	1.66452608141299E-07	75606.7421875	3.13020900648553E-05
2	370	103.146822739579	0.122222900390625	0.122283935546875	1.4215087890625E-06	1.73827686467121E-07	86024.046875	3.14483841066249E-05
2	371	103.247530739325	0.132293701171875	0.13232421875	1.363525390625E-06	1.80427434770536E-07	97045.65625	3.15886209136806E-05
2	372	103.348238739071	0.142364501953125	0.14239501953125	1.312255859375E-06	1.86858684969593E-07	108511.6328125	3.17233570967801E-05
2	373	103.448946738817	0.152435302734375	0.15252685546875	1.26678466796875E-06	1.93218667732253E-07	120404.7265625	3.18532220262568E-05
2	374	103.549654738562	0.162506103515625	0.162506103515625	1.2261962890625E-06	1.99264363232032E-07	132528.625	3.19787541229744E-05
2	375	103.650362738308	0.172576904296875	0.172576904296875	1.190185546875E-06	2.05398535513268E-07	145000	3.21004299621563E-05
2	376	103.751070738054	0.182647705078125	0.18267822265625	1.1590576171875E-06	2.11734572985733E-07	157609.28125	3.22187224810477E-05
2	377	103.851778737799	0.192718505859375	0.1927490234375	1.13067626953125E-06	2.17936729995927E-07	170472.34375	3.23340209433809E-05
2	378	103.952486737545	0.202789306640625	0.20281982421875	1.10626220703125E-06	2.24371902390885E-07	183337.9375	3.24466564052273E-05
2	379	104.053194737291	0.212860107421875	0.212860107421875	1.0845947265625E-06	2.30866945116759E-07	196257.734375	3.25569781125523E-05
2	380	104.153902737037	0.222930908203125	0.222930908203125	1.0650634765625E-06	2.37435557437493E-07	209312.328125	3.26652188959997E-05
2	381	104.254610736782	0.233001708984375	0.233001708984375	1.04736328125E-06	2.44037437369116E-07	222465.03125	3.27715897583403E-05
2	382	104.355318736528	0.243072509765625	0.243133544921875	1.03118896484375E-06	2.50716624350389E-07	235779.8125	3.28762544086203E-05
2	383	104.456026736274	0.253143310546875	0.25311279296875	1.015625E-06	2.57067682696288E-07	249218.75	3.29793183482252E-05
2	384	104.55673473602	0.263214111328125	0.26318359375	1.002197265625E-06	2.63761876340141E-07	262606.59375	3.30809234583285E-05
2	385	104.657442735765	0.273284912109375	0.273284912109375	9.89379882812499E-07	2.70382571443406E-07	276218.40625	3.31812079821248E-05
2	386	104.758150735511	0.283355712890625	0.28338623046875	9.7808837890625E-07	2.77176781082744E-07	289734.8125	3.32802774209995E-05
2	387	104.858858735257	0.293426513671875	0.29339599609375	9.68017578125E-07	2.84012457996141E-07	303089.5625	3.33782700181473E-05
2	388	104.959566735003	0.303497314453125	0.303466796875	9.59167480468751E-07	2.91075480163272E-07	316385.625	3.34753131028265E-05
2	389	105.060274734748	0.313568115234375	0.3135986328125	9.51538085937501E-07	2.98401033660411E-07	329570.25	3.35715230903588E-05
2	390	105.160982734494	0.323638916015625	0.323638916015625	9.442138671875E-07	3.05584364923561E-07	342760.1875	3.36669836542569E-05
2	391	105.26169073424	0.333709716796875	0.333709716796875	9.3719482421875E-07	3.12751012643275E-07	356072.96875	3.37617202603724E-05
2	392	105.362398733986	0.343780517578125	0.343719482421875	9.3109130859375E-07	3.20034217793363E-07	369157.65625	3.3855794754345E-05
2	393	105.463106733731	0.353851318359375	0.353912353515625	9.26513671875E-07	3.27904615460284E-07	381982.90625	3.39493344654329E-05
2	394	105.563814733477	0.363922119140625	0.3638916015625	9.2315673828125E-07	3.35928973527189E-07	394181.8125	3.40424703608733E-05
2	395	105.664522733223	0.373992919921875	0.373931884765625	9.20715332031249E-07	3.4428481399118E-07	406131.9375	3.41353188559879E-05
2	396	105.765230732968	0.384063720703125	0.384124755859375	9.1888427734375E-07	3.52966196714988E-07	418033.875	3.4227949072374E-05
2	397	105.865938732714	0.394134521484375	0.39410400390625	9.173583984375E-07	3.61534603143809E-07	429607.46875	3.43204119417351E-05
2	398	105.96664673246	0.404205322265625	0.404266357421875	9.161376953125E-07	3.70363636648108E-07	441272.5	3.44127365679014E-05
2	399	106.067354732206	0.414276123046875	0.414306640625	9.14611816406249E-07	3.78929740918466E-07	452986.3125	3.45049193128943E-05
2	400	106.168062731951	0.424346923828125	0.42431640625	9.14306640625E-07	3.87955282121766E-07	464085.46875	3.45970147463959E-05
2	401	106.268770731697	0.434417724609375	0.43438720703125	9.14306640625E-07	3.97163091747643E-07	475100.15625	3.46890919900034E-05
2	402	106.369478731443	0.444488525390625	0.44451904296875	9.14306640625E-07	4.06426693189132E-07	486181.59375	3.47811692336109E-05
2	403	106.470186731189	0.454559326171875	0.454559326171875	9.14916992187501E-07	4.15884045423809E-07	496831.21875	3.48732792190276E-05
2	404	106.570894730934	0.464630126953125	0.464630126953125	9.161376953125E-07	4.25665149350607E-07	507161.90625	3.49654801539145E-05
2	405	106.67160273068	0.474700927734375	0.47467041015625	9.16442871093751E-07	4.35008303156792E-07	517948.71875	3.50577574863564E-05
2	406	106.772310730426	0.484771728515625	0.484771728515625	9.17663574218749E-07	4.44857334969129E-07	528267.375	3.51501112163533E-05
2	407	106.873018730172	0.494842529296875	0.49481201171875	9.185791015625E-07	4.54523956250341E-07	538671.125	3.52425740857143E-05
2	408	106.973726729917	0.504913330078125	0.504913330078125	9.2010498046875E-07	4.64573275849034E-07	548756.25	3.53351606463548E-05
2	409	107.074434729663	0.514984130859375	0.515045166015625	9.228515625E-07	4.75310230285686E-07	558101.875	3.54279582097661E-05
2	410	107.175142729409	0.525054931640625	0.5250244140625	9.2620849609375E-07	4.8628209015078E-07	566853.375	3.55210686393548E-05
2	411	107.275850729155	0.535125732421875	0.535125732421875	9.31396484375E-07	4.98414237881661E-07	574541.3125	3.56146047124639E-05
2	412	107.3765587289	0.545196533203125	0.545166015625	9.368896484375E-07	5.10760401084553E-07	581889.25	3.57086792064365E-05
2	413	107.477266728646	0.555267333984375	0.555267333984375	9.4329833984375E-07	5.23782716754795E-07	588644.5	3.58033539669123E-05
2	414	107.577974728392	0.565338134765625	0.5653076171875	9.5184326171875E-07	5.3808423672308E-07	593908.3125	3.58987854269799E-05
2	415	107.678682728137	0.575408935546875	0.575408935546875	9.619140625E-07	5.53493919142056E-07	598191.6875	3.59951482096221E-05
2	416	107.779390727883	0.585479736328125	0.585540771484375	9.7625732421875E-07	5.71638452129264E-07	599781.1875	3.609274426708E-05
2	417	107.880098727629	0.595550537109375	0.595489501953125	9.94873046875E-07	5.92436435908894E-07	598558.25	3.61919992428739E-05
2	418	107.980806727375	0.605621337890625	0.60552978515625	1.01898193359375E-06	6.17023943050299E-07	594249.75	3.62934042641427E-05
2	419	108.08151472712	0.615692138671875	0.61566162109375	1.05010986328125E-06	6.46512319235626E-07	586283.0625	3.6397592339199E-05
2	420	108.182222726866	0.625762939453125	0.625762939453125	1.090087890625E-06	6.82136544583045E-07	574048.1875	3.65053565474227E-05
2	421	108.282930726612	0.635833740234375	0.635772705078125	1.1419677734375E-06	7.26031942122063E-07	556734.375	3.66177519026678E-05
2	422	108.383638726358	0.645904541015625	0.645782470703125	1.2054443359375E-06	7.78454761984904E-07	535721.5625	3.6735953472089E-05
2	423	108.484346726103	0.655975341796875	0.655975341796875	1.2799072265625E-06	8.39587585232948E-07	512517.875	3.6861099943053E-05
2	424	108.585054725849	0.666046142578125	0.66595458984375	1.3629150390625E-06	9.07639503111568E-07	488625.1875	3.69941772078164E-05
2	425	108.685762725595	0.676116943359375	0.67608642578125	1.44622802734375E-06	9.77775130195369E-07	467482.59375	3.71356290997937E-05
2	426	108.786470725341	0.686187744140625	0.686187744140625	1.52313232421875E-06	1.0451547041157E-06	450510.9375	3.72851463907864E-05
2	427	108.887178725086	0.696258544921875	0.69622802734375	1.5869140625E-06	1.10485393634008E-06	438730.78125	3.74417504644953E-05
2	428	108.987886724832	0.706329345703125	0.706298828125	1.63299560546875E-06	1.15338286832412E-06	432517.28125	3.76038879039697E-05
2	429	109.088594724578	0.716400146484375	0.716339111328125	1.6619873046875E-06	1.19054652714112E-06	431013.59375	3.7769801565446E-05
2	430	109.189302724324	0.726470947265625	0.726348876953125	1.67694091796875E-06	1.21804407626769E-06	433139.21875	3.79379307560157E-05
2	431	109.290010724069	0.736541748046875	0.736419677734375	1.68304443359375E-06	1.2394269788274E-06	437552.15625	3.81071185984183E-05
2	432	109.390718723815	0.746612548828125	0.746551513671875	1.685791015625E-06	1.25852977816976E-06	442849.40625	3.82767539122142E-05
2	433	109.491426723561	0.756683349609375	0.7568359375	1.6900634765625E-06	1.27910072933446E-06	447815.125	3.84467421099544E-05
2	434	109.592134723306	0.766754150390625	0.7666015625	1.6998291015625E-06	1.3030916079515E-06	450987.4375	3.86174360755831E-05
2	435	109.692842723052	0.776824951171875	0.77667236328125	1.71844482421875E-06	1.33466858187603E-06	451962.375	3.8789559766883E-05
2	436	109.793550722798	0.786895751953125	0.78643798828125	1.74957275390625E-06	1.37593042381923E-06	449502.90625	3.89641863876022E-05
2	437	109.894258722544	0.796966552734375	0.797119140625	1.796875E-06	1.43232341542898E-06	443614.15625	3.91427674912848E-05
2	438	109.994966722289	0.807037353515625	0.80780029296875	1.8621826171875E-06	1.50427160861E-06	433792.21875	3.93270129279699E-05
2	439	110.095674722035	0.817108154296875	0.816650390625	1.9464111328125E-06	1.5895373053354E-06	419567.28125	3.95187926187646E-05
2	440	110.196382721781	0.827178955078125	0.82763671875	2.04833984375E-06	1.69528129845276E-06	404052.4375	3.97199437429663E-05
2	441	110.297090721527	0.837249755859375	0.83770751953125	2.15911865234375E-06	1.80870983967907E-06	387985.875	3.99318050767761E-05
2	442	110.397798721272	0.847320556640625	0.84747314453125	2.26837158203125E-06	1.92238394447486E-06	373604.21875	4.01547476940323E-05
2	443	110.498506721018	0.857391357421875	0.85723876953125	2.3651123046875E-06	2.027466052823E-06	362451.625	4.03880621888675E-05
2	444	110.599214720764	0.867462158203125	0.8673095703125	2.43927001953125E-06	2.11560222851404E-06	355561.125	4.06299805035815E-05
2	445	110.69992272051	0.877532958984375	0.877685546875	2.4835205078125E-06	2.17975002669846E-06	353403.8125	4.08778651035391E-05
2	446	110.800630720255	0.887603759765625	0.88714599609375	2.50091552734375E-06	2.21867730942904E-06	354728.5	4.11288492614403E-05
2	447	110.901338720001	0.897674560546875	0.8978271484375	2.49481201171875E-06	2.23990991798928E-06	359877.6875	4.13804045820143E-05
2	448	111.002046719747	0.907745361328125	0.90789794921875	2.47161865234375E-06	2.24397763304296E-06	367329.28125	4.16304865211714E-05
2	449	111.102754719493	0.917816162109375	0.91766357421875	2.43927001953125E-06	2.23842926061479E-06	376204.1875	4.1877767216647E-05
2	450	111.203462719238	0.927886962890625	0.927734375	2.40142822265625E-06	2.22788753490022E-06	386326.09375	4.2121515434701E-05
2	451	111.304170718984	0.937957763671875	0.93780517578125	2.36175537109375E-06	2.21486652662861E-06	397079.71875	4.23613601014949E-05
2	452	111.40487871873	0.948028564453125	0.9490966796875	2.322998046875E-06	2.20474953493976E-06	408565.4375	4.25972575612832E-05
2	453	111.505586718475	0.958099365234375	0.95794677734375	2.28607177734375E-06	2.18993500311626E-06	419036.1875	4.28293424192816E-05
2	454	111.606294718221	0.968170166015625	0.96832275390625	2.25250244140625E-06	2.18114928429713E-06	429887.5625	4.30578766099643E-05
2	455	111.707002717967	0.978240966796875	0.9783935546875	2.222900390625E-06	2.17487126974447E-06	440142.78125	4.32832312071696E-05
2	456	111.807710717713	0.988311767578125	0.98907470703125	2.19635009765625E-06	2.17235424315732E-06	450326.53125	4.35057590948418E-05
2	457	111.908418717458	0.998382568359375	0.99822998046875	2.17254638671875E-06	2.16870103031397E-06	459474.65625	4.37257513112854E-05
2	458	112.009126717204	1.00845336914063	1.0089111328125	2.15118408203125E-06	2.17035335481341E-06	469002.71875	4.39434697909746E-05
2	459	112.10983471695	1.01852416992188	1.01837158203125	2.13165283203125E-06	2.17081469600089E-06	477738.03125	4.41591255366802E-05
2	460	112.210542716696	1.02859497070313	1.02874755859375	2.1136474609375E-06	2.17440970118332E-06	486716.71875	4.43728931713849E-05
2	461	112.311250716441	1.03866577148438	1.038818359375	2.09808349609375E-06	2.17952765524387E-06	495127.25	4.45849727839231E-05
2	462	112.411958716187	1.04873657226563	1.048583984375	2.08404541015625E-06	2.18529658013722E-06	503148.375	4.47955571871717E-05
2	463	112.512666715933	1.05880737304688	1.0589599609375	2.07275390625E-06	2.19496337194869E-06	510895.1875	4.50048682978377E-05
2	464	112.613374715679	1.06887817382813	1.0687255859375	2.06207275390625E-06	2.20379001802939E-06	518277.34375	4.52130734629463E-05
2	465	112.714082715424	1.07894897460938	1.07879638671875	2.05322265625E-06	2.21500931729679E-06	525416.125	4.54202963737771E-05
2	466	112.81479071517	1.08901977539063	1.0888671875	2.04498291015625E-06	2.22671474148228E-06	532457.8125	4.56266570836306E-05
2	467	112.915498714916	1.09909057617188	1.0992431640625	2.0367431640625E-06	2.23887604988704E-06	539706.3125	4.5832188334316E-05
2	468	113.016206714662	1.10916137695313	1.10931396484375	2.03033447265625E-06	2.25227836381237E-06	546370.0625	4.60369810753036E-05
2	469	113.116914714407	1.11923217773438	1.11907958984375	2.0245361328125E-06	2.26561701310857E-06	552758.5	4.62411626358517E-05
2	470	113.217622714153	1.12930297851563	1.129150390625	2.0196533203125E-06	2.28049225370341E-06	559081.3125	4.64448021375574E-05
2	471	113.318330713899	1.13937377929688	1.13922119140625	2.0159912109375E-06	2.29665988626948E-06	565092.375	4.66480123577639E-05
2	472	113.419038713644	1.14944458007813	1.14990234375	2.01324462890625E-06	2.31503463510307E-06	571168.75	4.68509024358355E-05
2	473	113.51974671339	1.15951538085938	1.15997314453125	2.01080322265625E-06	2.3324776066147E-06	576870.5625	4.7053526941454E-05
2	474	113.620454713136	1.16958618164063	1.16973876953125	2.00897216796875E-06	2.34997264669801E-06	582257.3125	4.72559404443018E-05
2	475	113.721162712882	1.17965698242188	1.17950439453125	2.008056640625E-06	2.36851155932527E-06	587386.0625	4.74582120659761E-05
2	476	113.821870712627	1.18972778320313	1.18988037109375	2.0074462890625E-06	2.38862094192882E-06	592733.375	4.76604109280743E-05
2	477	113.922578712373	1.19979858398438	1.199951171875	2.00775146484375E-06	2.40920371652464E-06	597659.25	4.78625916002784E-05
2	478	114.023286712119	1.20986938476563	1.209716796875	2.00927734375E-06	2.43065642280271E-06	602065.625	4.80648632219527E-05
2	479	114.123994711865	1.21994018554688	1.2200927734375	2.01202392578125E-06	2.45485580308014E-06	606400.6875	4.82673531223554E-05
2	480	114.22470271161	1.23001098632813	1.23046875	2.0159912109375E-06	2.4806140572764E-06	610354.25	4.84701813547872E-05
2	481	114.325410711356	1.24008178710938	1.2396240234375	2.02056884765625E-06	2.50474568019854E-06	613502.5	4.86734388687182E-05
2	482	114.426118711102	1.25015258789063	1.25	2.02667236328125E-06	2.53334042099596E-06	616774.625	4.88772311655339E-05
2	483	114.526826710848	1.26022338867188	1.26007080078125	2.03338623046875E-06	2.56221051131433E-06	619690.875	4.90816710225772E-05
2	484	114.627534710593	1.27029418945313	1.2701416015625	2.0416259765625E-06	2.59315402217908E-06	622122.5625	4.92868639412336E-05
2	485	114.728242710339	1.28036499023438	1.28021240234375	2.0513916015625E-06	2.62621688307263E-06	624070.25	4.94929663545918E-05
2	486	114.828950710085	1.29043579101563	1.290283203125	2.06390380859375E-06	2.66302049567457E-06	625166.3125	4.97001856274437E-05
2	487	114.929658709831	1.30050659179688	1.300048828125	2.07794189453125E-06	2.70142595582001E-06	625642.5625	4.99087436764967E-05
2	488	115.030366709576	1.31057739257813	1.3104248046875	2.093505859375E-06	2.7433818559075E-06	625947.5625	5.01187932968605E-05
2	489	115.131074709322	1.32064819335938	1.32080078125	2.11029052734375E-06	2.78727338809404E-06	625885.75	5.033047273173E-05
2	490	115.231782709068	1.33071899414063	1.33087158203125	2.12799072265625E-06	2.83208237306098E-06	625412.3125	5.05438874824904E-05
2	491	115.332490708813	1.34078979492188	1.34063720703125	2.14752197265625E-06	2.87904776996584E-06	624271.75	5.07591757923365E-05
2	492	115.433198708559	1.35086059570313	1.35101318359375	2.16796875E-06	2.92895424536255E-06	623170.0625	5.09764795424417E-05
2	493	115.533906708305	1.36093139648438	1.36138916015625	2.19085693359375E-06	2.98260874842526E-06	621395.8125	5.11959624418523E-05
2	494	115.634614708051	1.37100219726563	1.37115478515625	2.2161865234375E-06	3.03873457596637E-06	618700.125	5.14178755111061E-05
2	495	115.735322707796	1.38107299804688	1.380615234375	2.2442626953125E-06	3.09846313939488E-06	615175.4375	5.16424770466983E-05
2	496	115.836030707542	1.39114379882813	1.39068603515625	2.27691650390625E-06	3.16647583531449E-06	610776.0625	5.18701344844885E-05
2	497	115.936738707288	1.40121459960938	1.40106201171875	2.31475830078125E-06	3.24311963595392E-06	605273.625	5.21013462275732E-05
2	498	116.037446707034	1.41128540039063	1.41143798828125	2.35870361328125E-06	3.3291637464572E-06	598395.6875	5.23366725246888E-05
2	499	116.138154706779	1.42135620117188	1.42120361328125	2.40997314453125E-06	3.42506245942786E-06	589717.625	5.2576793677872E-05
2	500	116.238862706525	1.43142700195313	1.43157958984375	2.47039794921875E-06	3.53657128471241E-06	579493.5	5.28225391462911E-05
2	501	116.339570706271	1.44149780273438	1.44195556640625	2.540283203125E-06	3.66297535947524E-06	567635.8125	5.30748475284781E-05
2	502	116.440278706017	1.45156860351563	1.45172119140625	2.62237548828125E-06	3.80695792046026E-06	553590.125	5.33348102180753E-05
2	503	116.540986705762	1.46163940429688	1.4617919921875	2.7178955078125E-06	3.97299800170003E-06	537839.625	5.36037114216015E-05
2	504	116.641694705508	1.47171020507813	1.47186279296875	2.828369140625E-06	4.16297143601696E-06	520392.75	5.38829881406855E-05
2	505	116.742402705254	1.48178100585938	1.48193359375	2.95684814453125E-06	4.38185224993504E-06	501186.9375	5.41742992936634E-05
2	506	116.843110705	1.49185180664063	1.49139404296875	3.10577392578125E-06	4.63193282485008E-06	480200.46875	5.44795766472816E-05
2	507	116.943818704745	1.50192260742188	1.50177001953125	3.271484375E-06	4.91301716465387E-06	459048.53125	5.48006973986048E-05
2	508	117.044526704491	1.49185180664063	1.49169921875	2.91107177734375E-06	4.34244338975986E-06	512422.6875	5.51120137970429E-05
2	509	117.145234704237	1.48178100585938	1.48193359375	2.64373779296875E-06	3.91784351450042E-06	560544.875	5.53917197976261E-05
2	510	117.245942703982	1.47171020507813	1.47216796875	2.432861328125E-06	3.58158035851375E-06	605117.9375	5.56473460164852E-05
2	511	117.346650703728	1.46163940429688	1.4617919921875	2.2607421875E-06	3.30473471876758E-06	646598.3125	5.5883687309688E-05
2	512	117.447358703474	1.45156860351563	1.45111083984375	2.1185302734375E-06	3.07422192236118E-06	684961.125	5.61042033950798E-05
2	513	117.54806670322	1.44149780273438	1.441650390625	1.99920654296875E-06	2.88215687760385E-06	721111.3125	5.63115463592112E-05
2	514	117.648774702965	1.43142700195313	1.43096923828125	1.8988037109375E-06	2.71712974608818E-06	753616.1875	5.65078262297902E-05
2	515	117.749482702711	1.42135620117188	1.4215087890625	1.8133544921875E-06	2.57769920608553E-06	783911.1875	5.66947492188774E-05
2	516	117.850190702457	1.41128540039063	1.4111328125	1.74041748046875E-06	2.45596015702176E-06	810801.3125	5.68736941204406E-05
2	517	117.950898702203	1.40121459960938	1.40106201171875	1.678466796875E-06	2.35163611250755E-06	834727.25	5.70458505535498E-05
2	518	118.051606701948	1.39114379882813	1.39068603515625	1.624755859375E-06	2.25952521759609E-06	855935.4375	5.72121789446101E-05
2	519	118.152314701694	1.38107299804688	1.3812255859375	1.57806396484375E-06	2.17966226045974E-06	875265.9375	5.73734541831072E-05
2	520	118.25302270144	1.37100219726563	1.3714599609375	1.53717041015625E-06	2.10816779144807E-06	892197.75	5.75303201912902E-05
2	521	118.353730701186	1.36093139648438	1.3604736328125	1.500244140625E-06	2.04104253498372E-06	906834.8125	5.76832644583192E-05
2	522	118.454438700931	1.35086059570313	1.3507080078125	1.4666748046875E-06	1.98104930859699E-06	920932.1875	5.78326616960112E-05
2	523	118.555146700677	1.34078979492188	1.34033203125	1.436767578125E-06	1.92574566426629E-06	932880.25	5.79788611503318E-05
2	524	118.655854700423	1.33071899414063	1.33056640625	1.40960693359375E-06	1.8755755490929E-06	943927.3125	5.81221866013948E-05
2	525	118.756562700169	1.32064819335938	1.32049560546875	1.3848876953125E-06	1.82873816356732E-06	953503.75	5.82629036216531E-05
2	526	118.857270699914	1.31057739257813	1.3104248046875	1.3629150390625E-06	1.78599759692588E-06	961486.8125	5.84012632316444E-05
2	527	118.95797869966	1.30050659179688	1.3006591796875	1.3421630859375E-06	1.74569663613511E-06	969076.875	5.85374764341395E-05
2	528	119.058686699406	1.29043579101563	1.29058837890625	1.32415771484375E-06	1.70894247730757E-06	974648.5625	5.86717360420153E-05
2	529	119.159394699151	1.28036499023438	1.280517578125	1.30645751953125E-06	1.67294183484046E-06	980144.8125	5.88041984883603E-05
2	530	119.260102698897	1.27029418945313	1.2701416015625	1.2896728515625E-06	1.6380670331273E-06	984855.6875	5.89349219808355E-05
2	531	119.360810698643	1.26022338867188	1.2603759765625	1.2744140625E-06	1.60624074396765E-06	988984.75	5.9064037486678E-05
2	532	119.461518698389	1.25015258789063	1.25030517578125	1.2603759765625E-06	1.57585452598141E-06	992009.6875	5.9191672335146E-05
2	533	119.562226698134	1.24008178710938	1.240234375	1.24786376953125E-06	1.54764359194814E-06	993886	5.93179720453918E-05
2	534	119.66293469788	1.23001098632813	1.22955322265625	1.23565673828125E-06	1.51930566971714E-06	995060.5625	5.94430275668856E-05
2	535	119.763642697626	1.21994018554688	1.22039794921875	1.224365234375E-06	1.49421271089523E-06	996759.75	5.9566900745267E-05
2	536	119.864350697372	1.20986938476563	1.21002197265625	1.21246337890625E-06	1.46710726767196E-06	997986.5	5.96896024944726E-05
2	537	119.965058697117	1.19979858398438	1.199951171875	1.20147705078125E-06	1.44171383453795E-06	998730	5.98111546423752E-05
2	538	120.065766696863	1.18972778320313	1.18927001953125	1.190185546875E-06	1.41545206133742E-06	999230.75	5.99315862928052E-05
2	539	120.166474696609	1.17965698242188	1.1798095703125	1.17919921875E-06	1.39123051212664E-06	1000517.625	6.00508938077837E-05
2	540	120.267182696355	1.16958618164063	1.16943359375	1.16851806640625E-06	1.36650419335638E-06	1000783.5625	6.01691099291202E-05
2	541	120.3678906961	1.15951538085938	1.15936279296875	1.1572265625E-06	1.34164531573333E-06	1001846.0625	6.02862201048993E-05
2	542	120.468598695846	1.14944458007813	1.14959716796875	1.1474609375E-06	1.31911781409144E-06	1001861.6875	6.04022716288455E-05
2	543	120.569306695592	1.13937377929688	1.1395263671875	1.136474609375E-06	1.29504269352765E-06	1002685.3125	6.05172754148953E-05
2	544	120.670014695337	1.12930297851563	1.12945556640625	1.1248779296875E-06	1.27049963793979E-06	1004069.4375	6.06311441515572E-05
2	545	120.770722695083	1.11923217773438	1.11968994140625	1.11328125E-06	1.24652979138773E-06	1005756.625	6.07438450970221E-05
2	546	120.871430694829	1.10916137695313	1.1090087890625	1.10137939453125E-06	1.22143933367624E-06	1006927.1875	6.08553600613959E-05
2	547	120.972138694575	1.09909057617188	1.09893798828125	1.08917236328125E-06	1.19693288525013E-06	1008966.125	6.09656635788269E-05
2	548	121.07284669432	1.08901977539063	1.0888671875	1.07757568359375E-06	1.1733368410205E-06	1010478.625	6.10747665632516E-05
2	549	121.173554694066	1.07894897460938	1.07879638671875	1.06658935546875E-06	1.15063267003279E-06	1011444.9375	6.11827344982885E-05
2	550	121.274262693812	1.06887817382813	1.0687255859375	1.055908203125E-06	1.12847612854239E-06	1012138.6875	6.12896110396832E-05
2	551	121.374970693558	1.05880737304688	1.05987548828125	1.043701171875E-06	1.10619316728844E-06	1015497.125	6.13953379797749E-05
2	552	121.475678693303	1.04873657226563	1.04888916015625	1.031494140625E-06	1.08192296011111E-06	1016863.9375	6.14998280070722E-05
2	553	121.576386693049	1.03866577148438	1.0382080078125	1.01959228515625E-06	1.05854883258871E-06	1018258.0625	6.16031102254055E-05
2	554	121.677094692795	1.02859497070313	1.0284423828125	1.00830078125E-06	1.03697925624147E-06	1019975.8125	6.1705221014563E-05
2	555	121.777802692541	1.01852416992188	1.01837158203125	9.9609375E-07	1.01439354693866E-06	1022365.25	6.18061530985869E-05
2	556	121.878510692286	1.00845336914063	1.0089111328125	9.85107421875001E-07	9.93885805655736E-07	1024163.625	6.1905913753435E-05
2	557	121.979218692032	0.998382568359375	0.99884033203125	9.7381591796875E-07	9.72686621025787E-07	1025697.3125	6.20045539108105E-05
2	558	122.079926691778	0.988311767578125	0.98846435546875	9.619140625E-07	9.50817707234819E-07	1027601.5625	6.21020226390101E-05
2	559	122.180634691524	0.978240966796875	0.97900390625	9.48181152343749E-07	9.28273038880434E-07	1032507.25	6.2198203522712E-05
2	560	122.281342691269	0.968170166015625	0.968017578125	9.3231201171875E-07	9.02494377896801E-07	1038297.875	6.22929001110606E-05
2	561	122.382050691015	0.958099365234375	0.958251953125	9.14306640625E-07	8.76136084571044E-07	1048064.125	6.23858795734122E-05
2	562	122.482758690761	0.948028564453125	0.94818115234375	8.929443359375E-07	8.46672946863691E-07	1061859.25	6.24768872512504E-05
2	563	122.583466690506	0.937957763671875	0.93841552734375	8.6639404296875E-07	8.13037615898793E-07	1083127.875	6.25654720352031E-05
2	564	122.684174690252	0.927886962890625	0.92803955078125	8.3282470703125E-07	7.7289428190852E-07	1114327.625	6.26510372967459E-05
2	565	122.784882689998	0.917816162109375	0.91796875	7.9071044921875E-07	7.2584748522786E-07	1160941.75	6.27327899564989E-05
2	566	122.885590689744	0.907745361328125	0.90789794921875	7.34863281250001E-07	6.67180813707091E-07	1235465.125	6.28096095169894E-05
2	567	122.986298689489	0.897674560546875	0.89752197265625	6.6253662109375E-07	5.94641164752829E-07	1354675.375	6.28799680271186E-05
2	568	123.087006689235	0.887603759765625	0.887451171875	5.72509765625E-07	5.08074435856543E-07	1550106.625	6.29421629128046E-05
2	569	123.187714688981	0.877532958984375	0.87738037109375	4.61730957031251E-07	4.05113667056867E-07	1900198.375	6.29942369414493E-05
2	570	123.288422688727	0.867462158203125	0.8673095703125	3.3416748046875E-07	2.89826658672609E-07	2595433.75	6.30343129159883E-05
2	571	123.389130688472	0.857391357421875	0.85784912109375	1.95922851562499E-07	1.680722476749E-07	4378504.5	6.30610084044747E-05
2	572	123.489838688218	0.847320556640625	0.84716796875	5.79833984375E-08	4.91216773923497E-08	14610527	6.30737922620028E-05
2	573	123.590546687964	0.837249755859375	0.83740234375	-6.95800781250006E-08	-5.82665187209841E-08	-12035088	6.30732101853937E-05
2	574	123.69125468771	0.827178955078125	0.82763671875	-1.727294921875E-07	-1.42957262028176E-07	-4791519.5	6.30610084044747E-05
2	575	123.791962687455	0.817108154296875	0.8172607421875	-2.47802734374999E-07	-2.02519430558823E-07	-3298029.75	6.30398353678174E-05
2	576	123.892670687201	0.807037353515625	0.806884765625	-2.92053222656249E-07	-2.35653288882531E-07	-2762800.5	6.30126451142132E-05
2	577	123.993378686947	0.796966552734375	0.797119140625	-3.10363769531249E-07	-2.47396883423789E-07	-2568338.25	6.29823116469197E-05
2	578	124.094086686693	0.786895751953125	0.78704833984375	-3.08837890624999E-07	-2.43070331862327E-07	-2548419	6.29511341685429E-05
2	579	124.194794686438	0.776824951171875	0.77728271484375	-2.9571533203125E-07	-2.29854407507446E-07	-2628483	6.29206915618852E-05
2	580	124.295502686184	0.766754150390625	0.7666015625	-2.7801513671875E-07	-2.13126838843891E-07	-2757409.5	6.28918060101569E-05
2	581	124.39621068593	0.756683349609375	0.75653076171875	-2.6123046875E-07	-1.97628878595424E-07	-2896028	6.28646521363407E-05
2	582	124.496918685675	0.746612548828125	0.74658203125	-2.49328613281249E-07	-1.86144248459641E-07	-2994370	6.28389389021322E-05
2	583	124.597626685421	0.736541748046875	0.736419677734375	-2.4688720703125E-07	-1.81812595201336E-07	-2982818.5	6.28139532636851E-05
2	584	124.698334685167	0.726470947265625	0.72637939453125	-2.5604248046875E-07	-1.85983978440163E-07	-2836948.75	6.27886329311877E-05
2	585	124.799042684913	0.716400146484375	0.71636962890625	-2.79541015625E-07	-2.00254689275425E-07	-2562663.75	6.2761660956312E-05
2	586	124.899750684658	0.706329345703125	0.706329345703125	-3.1768798828125E-07	-2.24392337599966E-07	-2223343	6.27315894234926E-05
2	587	125.000458684404	0.696258544921875	0.696197509765625	-3.68652343750001E-07	-2.56654828945102E-07	-1888493.375	6.26970286248252E-05
2	588	125.10116668415	0.686187744140625	0.686126708984375	-4.28161621093751E-07	-2.93773098292149E-07	-1602494.75	6.26569089945406E-05
2	589	125.201874683896	0.676116943359375	0.676025390625	-4.8858642578125E-07	-3.30296813899622E-07	-1383635.25	6.26107430434786E-05
2	590	125.302582683641	0.666046142578125	0.666015625	-5.419921875E-07	-3.60975263902219E-07	-1228828.875	6.25588509137742E-05
2	591	125.403290683387	0.655975341796875	0.6558837890625	-5.810546875E-07	-3.81104342750405E-07	-1128781.5	6.25023021711968E-05
2	592	125.503998683133	0.645904541015625	0.645843505859375	-6.01806640625E-07	-3.88672901863174E-07	-1073174.5	6.24427411821671E-05
2	593	125.604706682879	0.635833740234375	0.635772705078125	-6.0394287109375E-07	-3.83970387929367E-07	-1052703.375	6.23820233158767E-05
2	594	125.705414682624	0.625762939453125	0.625732421875	-5.902099609375E-07	-3.69313482906364E-07	-1060186.125	6.23218948021531E-05
2	595	125.80612268237	0.615692138671875	0.615631103515625	-5.645751953125E-07	-3.47570050962531E-07	-1090432.375	6.22637453489006E-05
2	596	125.906830682116	0.605621337890625	0.6055908203125	-5.316162109375E-07	-3.21941882930332E-07	-1139150.375	6.22085499344394E-05
2	597	126.007538681862	0.595550537109375	0.595489501953125	-4.9468994140625E-07	-2.94582662263565E-07	-1203763.125	6.21568688075058E-05
2	598	126.108246681607	0.585479736328125	0.58538818359375	-4.57763671875E-07	-2.67969426204218E-07	-1278800	6.21089129708707E-05
2	599	126.208954681353	0.575408935546875	0.57537841796875	-4.20532226562501E-07	-2.41965153691126E-07	-1368214.875	6.20646824245341E-05
2	600	126.309662681099	0.565338134765625	0.5653076171875	-3.85437011718751E-07	-2.17890473663829E-07	-1466666.75	6.20240971329622E-05
2	601	126.410370680844	0.555267333984375	0.55523681640625	-3.51867675781251E-07	-1.95369878497331E-07	-1577970.5	6.19869751972146E-05
2	602	126.51107868059	0.545196533203125	0.545135498046875	-3.216552734375E-07	-1.75345704178653E-07	-1694781.75	6.19530619587749E-05
2	603	126.611786680336	0.535125732421875	0.53509521484375	-2.92358398437501E-07	-1.56439568854694E-07	-1830271.5	6.19221391389146E-05
2	604	126.712494680082	0.525054931640625	0.525054931640625	-2.66113281249999E-07	-1.39724079417647E-07	-1973050.625	6.18940175627358E-05
2	605	126.813202679827	0.514984130859375	0.515045166015625	-2.42004394531251E-07	-1.24643179333361E-07	-2128247.25	6.18684352957644E-05
2	606	126.913910679573	0.504913330078125	0.50494384765625	-2.20642089843751E-07	-1.11411857517396E-07	-2288520.25	6.18451376794837E-05
2	607	127.014618679319	0.494842529296875	0.494842529296875	-2.00805664062501E-07	-9.93671775972871E-08	-2464285.75	6.18239137111232E-05
2	608	127.115326679065	0.484771728515625	0.484771728515625	-1.8280029296875E-07	-8.86164102098519E-08	-2651920	6.18046033196151E-05
2	609	127.21603467881	0.474700927734375	0.474700927734375	-1.66015625E-07	-7.88077727520431E-08	-2859375	6.17870391579345E-05
2	610	127.316742678556	0.464630126953125	0.464630126953125	-1.50146484374999E-07	-6.97625779366717E-08	-3094512.25	6.17711193626747E-05
2	611	127.417450678302	0.454559326171875	0.45458984375	-1.35498046875E-07	-6.1596033162914E-08	-3354955	6.17567347944714E-05
2	612	127.518158678048	0.444488525390625	0.44451904296875	-1.220703125E-07	-5.42625748778391E-08	-3641500.25	6.17437617620453E-05
2	613	127.618866677793	0.434417724609375	0.434417724609375	-1.10473632812499E-07	-4.79917012796705E-08	-3932320.5	6.17320547462441E-05
2	614	127.719574677539	0.424346923828125	0.424346923828125	-1.0101318359375E-07	-4.28646309558189E-08	-4200906.5	6.17214027442969E-05
2	615	127.820282677285	0.414276123046875	0.414276123046875	-9.24682617187506E-08	-3.8307394589765E-08	-4480198	6.17116602370515E-05
2	616	127.920990677031	0.404205322265625	0.40423583984375	-8.48388671875006E-08	-3.42949100229362E-08	-4764748	6.17027326370589E-05
2	617	128.021698676776	0.394134521484375	0.3941650390625	-7.75146484375003E-08	-3.05535650113598E-08	-5085039.5	6.16945617366582E-05
2	618	128.122406676522	0.384063720703125	0.384033203125	-7.04956054687497E-08	-2.70726516760078E-08	-5447619.5	6.16871038801037E-05
2	619	128.223114676268	0.373992919921875	0.374053955078125	-6.34765625000006E-08	-2.37436594829887E-08	-5892788.5	6.16803590673953E-05
2	620	128.323822676013	0.363922119140625	0.363922119140625	-5.67626953124997E-08	-2.06572003946803E-08	-6411290.5	6.16743054706603E-05
2	621	128.424530675759	0.353851318359375	0.35382080078125	-5.035400390625E-08	-1.78162942177096E-08	-7026666.5	6.16689139860682E-05
2	622	128.525238675505	0.343780517578125	0.34381103515625	-4.51660156250006E-08	-1.55285739822375E-08	-7612162.5	6.16641045780852E-05
2	623	128.625946675251	0.333709716796875	0.333648681640625	-4.05883789062506E-08	-1.35422588698475E-08	-8220301	6.16597826592624E-05
2	624	128.726654674996	0.323638916015625	0.323638916015625	-3.509521484375E-08	-1.1358177509635E-08	-9221739	6.16559700574726E-05
2	625	128.827362674742	0.313568115234375	0.3135986328125	-3.0517578125E-08	-9.57026990988652E-09	-10276001	6.16526667727157E-05
2	626	128.928070674488	0.303497314453125	0.303466796875	-2.62451171874997E-08	-7.96452148676963E-09	-11562791	6.16498073213734E-05
2	627	129.028778674234	0.293426513671875	0.29345703125	-2.16674804687497E-08	-6.35847463570371E-09	-13543662	6.16473989794031E-05
2	628	129.129486673979	0.283355712890625	0.2833251953125	-1.80053710937503E-08	-5.10137532216959E-09	-15735593	6.16453980910592E-05
2	629	129.230194673725	0.273284912109375	0.27325439453125	-1.43432617187494E-08	-3.91935950361244E-09	-19051064	6.16437682765536E-05
2	630	129.330902673471	0.263214111328125	0.263214111328125	-1.19018554687503E-08	-3.13273629259925E-09	-22115384	6.16424513282254E-05
2	631	129.431610673217	0.253143310546875	0.253173828125	-9.76562499999944E-09	-2.47240050654796E-09	-25925000	6.16413599345833E-05
2	632	129.532318672962	0.243072509765625	0.24298095703125	-8.54492187500056E-09	-2.07625339143647E-09	-28435714	6.16404358879663E-05
2	633	129.633026672708	0.233001708984375	0.233001708984375	-7.32421875000028E-09	-1.70655545250753E-09	-31812500	6.16396355326287E-05
2	634	129.733734672454	0.222930908203125	0.222930908203125	-6.103515625E-09	-1.36066224953879E-09	-36525000	6.16389588685706E-05
2	635	129.8344426722	0.212860107421875	0.21282958984375	-6.71386718749945E-09	-1.42890954624164E-09	-31700002	6.16383185843006E-05
2	636	129.935150671945	0.202789306640625	0.20281982421875	-7.32421875000028E-09	-1.48549672562837E-09	-27691668	6.1637612816412E-05
2	637	130.035858671691	0.192718505859375	0.192718505859375	-1.00708007812506E-08	-1.94082949711571E-09	-19136364	6.16367324255407E-05
2	638	130.136566671437	0.182647705078125	0.182647705078125	-1.40380859374997E-08	-2.5640241041458E-09	-13010870	6.16355173406191E-05
2	639	130.237274671182	0.172576904296875	0.172515869140625	-1.983642578125E-08	-3.4220981603994E-09	-8696923	6.16338147665374E-05
2	640	130.337982670928	0.162506103515625	0.1624755859375	-2.65502929687494E-08	-4.3137742267163E-09	-6119540.5	6.16314791841432E-05
2	641	130.438690670674	0.152435302734375	0.152435302734375	-3.60107421875006E-08	-5.48930856325569E-09	-4233051	6.16283286944963E-05
2	642	130.53939867042	0.142364501953125	0.14239501953125	-4.85229492187503E-08	-6.90942636438763E-09	-2934591.25	6.1624072259292E-05
2	643	130.640106670165	0.132293701171875	0.13238525390625	-6.50024414062506E-08	-8.60536442104376E-09	-2036619.75	6.16183533566073E-05
2	644	130.740814669911	0.122222900390625	0.12225341796875	-8.88061523437497E-08	-1.08568558587763E-08	-1376632.25	6.16106117377058E-05
2	645	130.841522669657	0.112152099609375	0.11224365234375	-1.22985839843751E-07	-1.38043798614262E-08	-912655.125	6.15999451838434E-05
2	646	130.942230669403	0.102081298828125	0.10211181640625	-1.68762207031251E-07	-1.72326153347058E-08	-605063.3125	6.15852550254203E-05
2	647	131.042938669148	0.092010498046875	0.092132568359375	-2.3193359375E-07	-2.13686366379306E-08	-397236.875	6.15650787949562E-05
2	648	131.143646668894	0.081939697265625	0.08203125	-3.17993164062499E-07	-2.60853774136649E-08	-257965.453125	6.15373865002766E-05
2	649	131.24435466864	0.071868896484375	0.071929931640625	-4.31213378906251E-07	-3.10171479611654E-08	-166808.203125	6.14996606600471E-05
2	650	131.345062668386	0.061798095703125	0.06182861328125	-5.755615234375E-07	-3.5586168678492E-08	-107423.125	6.14489690633491E-05
2	651	131.445770668131	0.051727294921875	0.051788330078125	-7.53173828125001E-07	-3.90056129617733E-08	-68760.1328125	6.1382059357129E-05
2	652	131.546478667877	0.041656494140625	0.0417724609375	-9.58862304687499E-07	-4.00540400846694E-08	-43564.609375	6.12958538113162E-05
2	653	131.647186667623	0.031585693359375	0.03167724609375	-1.18255615234375E-06	-3.74601221153625E-08	-26787.095703125	6.1188024119474E-05
2	654	131.747894667369	0.021514892578125	0.0215850830078125	-1.4044189453125E-06	-3.03144958024859E-08	-15369.4052734375	6.10577553743497E-05
2	655	131.848602667114	0.011444091796875	0.0115234375	-1.60491943359375E-06	-1.84941875147615E-08	-7180.07275390625	6.09062262810767E-05
2	656	131.94931066686	0.001373291015625	0.0014495849609375	-1.7633056640625E-06	-2.55606136256858E-09	-822.083801269531	6.07366237090901E-05
2	657	132.050018666606	-0.008697509765625	-0.00859680175781249	-1.8670654296875E-06	1.60507926949549E-08	4604.4462890625	6.05538189120125E-05
2	658	132.150726666351	-0.018768310546875	-0.0186798095703125	-1.91375732421875E-06	3.57486236168825E-08	9760.802734375	6.03634398430586E-05
2	659	132.251434666097	-0.028839111328125	-0.028741455078125	-1.9122314453125E-06	5.49603136335008E-08	15030.322265625	6.01707833993714E-05
2	660	132.352142665843	-0.038909912109375	-0.0387786865234375	-1.87530517578125E-06	7.27218676388475E-08	20678.6015625	5.99800659983885E-05
2	661	132.452850665589	-0.048980712890625	-0.04886474609375	-1.817626953125E-06	8.8817870391722E-08	26883.814453125	5.97941143496428E-05
2	662	132.553558665334	-0.059051513671875	-0.0589599609375	-1.75140380859375E-06	1.03262692618955E-07	33664.40234375	5.96143981965724E-05
2	663	132.65426666508	-0.069122314453125	-0.069061279296875	-1.68212890625E-06	1.16169971420277E-07	41055.87890625	5.94415068917442E-05
2	664	132.754974664826	-0.079193115234375	-0.07916259765625	-1.6168212890625E-06	1.27991768295033E-07	48961.875	5.92753895034548E-05
2	665	132.855682664572	-0.089263916015625	-0.08917236328125	-1.556396484375E-06	1.38787555670206E-07	57294.1171875	5.91156058362685E-05
2	666	132.956390664317	-0.099334716796875	-0.0992431640625	-1.50238037109375E-06	1.49100969792926E-07	66057.28125	5.89615847275127E-05
2	667	133.057098664063	-0.109405517578125	-0.109344482421875	-1.45538330078125E-06	1.59138139110837E-07	75131.0546875	5.88126495131291E-05
2	668	133.157806663809	-0.119476318359375	-0.119293212890625	-1.41510009765625E-06	1.68811837397698E-07	84300.1953125	5.86681089771446E-05
2	669	133.258514663555	-0.129547119140625	-0.12945556640625	-1.38092041015625E-06	1.78767834313476E-07	93745.859375	5.85273191973101E-05
2	670	133.3592226633	-0.139617919921875	-0.139556884765625	-1.35162353515625E-06	1.88628362707277E-07	103251.3046875	5.83897235628683E-05
2	671	133.459930663046	-0.149688720703125	-0.149627685546875	-1.326904296875E-06	1.98541613372072E-07	112764.4921875	5.82548491365742E-05
2	672	133.560638662792	-0.159759521484375	-0.159637451171875	-1.30645751953125E-06	2.08559555403554E-07	122191.078125	5.81222484470345E-05
2	673	133.661346662538	-0.169830322265625	-0.169677734375	-1.28814697265625E-06	2.18569851995198E-07	131722.34375	5.79916013521142E-05
2	674	133.762054662283	-0.179901123046875	-0.17974853515625	-1.2738037109375E-06	2.28964353254923E-07	141111.640625	5.7862594985636E-05
2	675	133.862762662029	-0.189971923828125	-0.189849853515625	-1.2628173828125E-06	2.39745702401706E-07	150338.328125	5.7734865549719E-05
2	676	133.963470661775	-0.200042724609375	-0.199920654296875	-1.2548828125E-06	2.50877008056705E-07	159314.203125	5.76080892642494E-05
2	677	134.06417866152	-0.189971923828125	-0.189788818359375	-1.0943603515625E-06	2.07697354426273E-07	173424.4375	5.7489796745358E-05
