Potential - Start -0.2 V, Upper Vertex 1.5 V, Lower Vertex -0.2 V, Stop -0.19 V; Scan - # end cross 5, Rate 0.1 Vps, Step 0.01 V 
Scan	Index	Time (s)	Potential applied (V)	WE(1).Potential (V)	WE(1).Current (A)	WE(1).Power (W)	WE(1).Resistance (Ω)	WE(1).Charge (C)
1	1	66.0125768333343	-0.189971923828125	-0.189788818359375	-2.52380371093749E-07	4.78989718999401E-08	751995.125	0
1	2	66.11328483308	-0.179901123046875	-0.179718017578125	-2.18811035156249E-07	3.93242842733343E-08	821338.9375	-2.37263719782277E-08
1	3	66.2139928328257	-0.169830322265625	-0.16961669921875	-1.9256591796875E-07	3.26623919022495E-08	880824.125	-4.4440845670124E-08
1	4	66.3147008325715	-0.159759521484375	-0.15960693359375	-1.70288085937501E-07	2.71791567030277E-08	937276.0625	-6.27119973728441E-08
1	5	66.4154088323172	-0.149688720703125	-0.149566650390625	-1.4923095703125E-07	2.23199734250557E-08	1002249.5	-7.88010581231902E-08
1	6	66.5161168320629	-0.139617919921875	-0.1395263671875	-1.30615234375001E-07	1.82242683166578E-08	1068224.25	-9.28924279719467E-08
1	7	66.6168248318087	-0.129547119140625	-0.129425048828125	-1.116943359375E-07	1.4456044361566E-08	1158743.25	-1.05093690194735E-07
1	8	66.7175328315544	-0.119476318359375	-0.119354248046875	-9.27734375000003E-08	1.10729034830115E-08	1286513.25	-1.15389454435899E-07
1	9	66.8182408313002	-0.109405517578125	-0.109283447265625	-7.32421875E-08	8.00415822510558E-09	1492083.375	-1.23749003932971E-07
1	10	66.9189488310459	-0.099334716796875	-0.09930419921875	-5.12695312500006E-08	5.09127984216207E-09	1936904.75	-1.30018676713917E-07
1	11	67.0196568307916	-0.089263916015625	-0.089141845703125	-2.65502929687494E-08	2.36674213560661E-09	3357471.25	-1.33937206214796E-07
1	12	67.1203648305374	-0.079193115234375	-0.079132080078125	5.18798828124945E-09	-4.10536299400022E-10	-15252941	-1.35012882651608E-07
1	13	67.2210728302831	-0.069122314453125	-0.069061279296875	4.51660156250006E-08	-3.11922287998811E-09	-1529054.125	-1.32477367742467E-07
1	14	67.3217808300288	-0.059051513671875	-0.058990478515625	9.70458984375006E-08	-5.72478420224343E-09	-607861.625	-1.25316418575494E-07
1	15	67.4224888297746	-0.048980712890625	-0.0488494873046875	1.66931152343749E-07	-8.15450018620822E-09	-292632.53125	-1.12024125087373E-07
1	16	67.5231968295203	-0.038909912109375	-0.0387420654296875	2.58789062500001E-07	-1.00260217905657E-08	-149705.203125	-9.05874060208589E-08
1	17	67.6239048292661	-0.028839111328125	-0.02869873046875	3.814697265625E-07	-1.09476960830079E-08	-75232.0078125	-5.83478190208098E-08
1	18	67.7246128290118	-0.018768310546875	-0.018646240234375	5.4046630859375E-07	-1.00776649247791E-08	-34500.28125	-1.19246532648276E-08
1	19	67.8253208287575	-0.008697509765625	-0.00856933593750001	7.373046875E-07	-6.31821128749266E-09	-11622.5166015625	5.24162260262528E-08
1	20	67.9260288285033	0.001373291015625	0.0014923095703125	9.70458984375E-07	1.44822520642407E-09	1537.73596191406	1.38408950078883E-07
1	21	68.026736828249	0.011444091796875	0.0115814208984375	1.22894287109375E-06	1.42329046326495E-08	9423.888671875	2.49157636744712E-07
1	22	68.1274448279947	0.021514892578125	0.021612548828125	1.492919921875E-06	3.2265802474285E-08	14476.697265625	3.86214310310606E-07
1	23	68.2281528277405	0.031585693359375	0.0316986083984375	1.73736572265625E-06	5.50720713476949E-08	18245.212890625	5.48872094441322E-07
1	24	68.3288608274862	0.041656494140625	0.0417236328125	1.94000244140625E-06	8.09439484328323E-08	21507	7.34042316707928E-07
1	25	68.4295688272319	0.051727294921875	0.0517578125	2.0806884765625E-06	1.0769187497317E-07	24875.33203125	9.36500157422415E-07
1	26	68.5302768269777	0.061798095703125	0.06182861328125	2.15545654296875E-06	1.33268883928395E-07	28684.6953125	1.14980696253042E-06
1	27	68.6309848267234	0.071868896484375	0.071929931640625	2.16949462890625E-06	1.56051598310114E-07	33155.15625	1.36758558255679E-06
1	28	68.7316928264692	0.081939697265625	0.08197021484375	2.1392822265625E-06	1.75357413922939E-07	38316.6953125	1.58454975007771E-06
1	29	68.8324008262149	0.092010498046875	0.092010498046875	2.0794677734375E-06	1.91332858889837E-07	44247.13671875	1.79698065494449E-06
1	30	68.9331088259606	0.102081298828125	0.102142333984375	2.003173828125E-06	2.04608838316744E-07	50990.25390625	2.00255794879922E-06
1	31	69.0338168257064	0.112152099609375	0.1121826171875	1.9219970703125E-06	2.15614647913753E-07	58367.73828125	2.20020592678338E-06
1	32	69.1345248254521	0.122222900390625	0.12225341796875	1.842041015625E-06	2.25195805114708E-07	66368.453125	2.38974030253303E-06
1	33	69.2352328251978	0.132293701171875	0.132293701171875	1.7669677734375E-06	2.33758711942755E-07	74870.46875	2.57146848525736E-06
1	34	69.3359408249436	0.142364501953125	0.1424560546875	1.69708251953125E-06	2.41759664731944E-07	83941.7421875	2.74589729087893E-06
1	35	69.4366488246893	0.152435302734375	0.152435302734375	1.634521484375E-06	2.4915877361309E-07	93259.8984375	2.9136567718524E-06
1	36	69.5373568244351	0.162506103515625	0.16253662109375	1.57867431640625E-06	2.56592386449483E-07	102957.6640625	3.0754540603084E-06
1	37	69.6380648241808	0.172576904296875	0.17266845703125	1.52923583984375E-06	2.64050783016501E-07	112911.6015625	3.23194967677409E-06
1	38	69.7387728239265	0.182647705078125	0.182647705078125	1.48406982421875E-06	2.71061935563921E-07	123072.1796875	3.38368181473925E-06
1	39	69.8394808236723	0.192718505859375	0.192779541015625	1.44378662109375E-06	2.78332521475022E-07	133523.578125	3.53111113327031E-06
1	40	69.940188823418	0.202789306640625	0.20281982421875	1.4080810546875E-06	2.85586764903201E-07	144039.875	3.67471398021735E-06
1	41	70.0408968231637	0.212860107421875	0.212890625	1.37603759765625E-06	2.92945486535245E-07	154712.8125	3.81490553991171E-06
1	42	70.1416048229095	0.222930908203125	0.22296142578125	1.3470458984375E-06	3.00339280556727E-07	165518.796875	3.9520236896351E-06
1	43	70.2423128226552	0.233001708984375	0.23297119140625	1.32080078125E-06	3.07708518221261E-07	176386.328125	4.08636014981312E-06
1	44	70.3430208224009	0.243072509765625	0.243072509765625	1.29730224609375E-06	3.1533849664811E-07	187367.6875	4.21819231632981E-06
1	45	70.4437288221467	0.253143310546875	0.253204345703125	1.2762451171875E-06	3.23150800340954E-07	198397.90625	4.34778075941722E-06
1	46	70.5444368218924	0.263214111328125	0.26324462890625	1.2567138671875E-06	3.30823183958273E-07	209470.625	4.4753251131624E-06
1	47	70.6451448216382	0.273284912109375	0.273284912109375	1.23870849609375E-06	3.38520351306215E-07	220620.84375	4.60097999166464E-06
1	48	70.7458528213839	0.283355712890625	0.283355712890625	1.2225341796875E-06	3.46412036833499E-07	231777.34375	4.72491319669643E-06
1	49	70.8465608211296	0.293426513671875	0.29339599609375	1.2078857421875E-06	3.54388816958817E-07	242900.46875	4.847294803767E-06
1	50	70.9472688208754	0.303497314453125	0.303466796875	1.19384765625E-06	3.62293121725088E-07	254192.234375	4.9682316785038E-06
1	51	71.0479768206211	0.313568115234375	0.313629150390625	1.181640625E-06	3.70596950460822E-07	265418.375	5.08784660269157E-06
1	52	71.1486848203668	0.323638916015625	0.3236083984375	1.1700439453125E-06	3.78636030973212E-07	276578	5.20626372235711E-06
1	53	71.2493928201126	0.333709716796875	0.333740234375	1.15936279296875E-06	3.86926018336453E-07	287865.21875	5.32355852556066E-06
1	54	71.3501008198583	0.343780517578125	0.34381103515625	1.1505126953125E-06	3.95558942045682E-07	298832.90625	5.43987016499159E-06
1	55	71.450808819604	0.353851318359375	0.353851318359375	1.14227294921875E-06	4.04194793190982E-07	309778.25	5.55532096768729E-06
1	56	71.5515168193498	0.363922119140625	0.363922119140625	1.1346435546875E-06	4.12921878023553E-07	320736.96875	5.66997277928749E-06
1	57	71.6522248190955	0.373992919921875	0.3740234375	1.1279296875E-06	4.21872130118572E-07	331601.75	5.78390245209448E-06
1	58	71.7529328188413	0.384063720703125	0.384033203125	1.12213134765625E-06	4.30935671147381E-07	342235.53125	5.89720184507314E-06
1	59	71.853640818587	0.394134521484375	0.394134521484375	1.11663818359375E-06	4.40105651478007E-07	352965.3125	6.00993280386319E-06
1	60	71.9543488183327	0.404205322265625	0.404205322265625	1.11236572265625E-06	4.49624138809668E-07	363374.5	6.12217218076694E-06
1	61	72.0550568180785	0.414276123046875	0.414215087890625	1.1083984375E-06	4.59115369721985E-07	373705.9375	6.23399637333932E-06
1	62	72.1557648178242	0.424346923828125	0.424346923828125	1.104736328125E-06	4.68791427010729E-07	384116.03125	6.34543675914756E-06
1	63	72.2564728175699	0.434417724609375	0.434417724609375	1.10198974609375E-06	4.78723848118534E-07	394212.15625	6.45655427433667E-06
1	64	72.3571808173157	0.444488525390625	0.444488525390625	1.09954833984375E-06	4.8873658897719E-07	404246.46875	6.56741030979902E-06
1	65	72.4578888170614	0.454559326171875	0.454559326171875	1.0980224609375E-06	4.99116310948011E-07	413980.03125	6.67806671117432E-06
1	66	72.5585968168072	0.464630126953125	0.46466064453125	1.09771728515625E-06	5.1006600187975E-07	423297.21875	6.78863125358475E-06
1	67	72.6593048165529	0.474700927734375	0.47467041015625	1.0968017578125E-06	5.20619323651772E-07	432776.875	6.89913395035546E-06
1	68	72.7600128162986	0.484771728515625	0.4847412109375	1.097412109375E-06	5.31960893113137E-07	441713	7.00962164046359E-06
1	69	72.8607208160444	0.494842529296875	0.494873046875	1.09832763671875E-06	5.43532735264307E-07	450569.59375	7.12018572812667E-06
1	70	72.9614288157901	0.504913330078125	0.504852294921875	1.099853515625E-06	5.55263568458031E-07	459017.75	7.23087305232184E-06
1	71	73.0621368155358	0.514984130859375	0.515045166015625	1.10260009765625E-06	5.6788883284753E-07	467118.75	7.34177547201398E-06
1	72	73.1628448152816	0.525054931640625	0.5250244140625	1.1065673828125E-06	5.80974869990314E-07	474462.25	7.45301576898783E-06
1	73	73.2635528150273	0.535125732421875	0.535125732421875	1.11083984375E-06	5.94438972711941E-07	481730.8125	7.56467079554568E-06
1	74	73.364260814773	0.545196533203125	0.545135498046875	1.11724853515625E-06	6.09051824085327E-07	487926.8125	7.67686378821963E-06
1	75	73.4649688145188	0.555267333984375	0.555267333984375	1.12548828125E-06	6.24946835614537E-07	493356.875	7.78979483584408E-06
1	76	73.5656768142645	0.565338134765625	0.565277099609375	1.1358642578125E-06	6.42078020973713E-07	497662.59375	7.90366266301135E-06
1	77	73.6663848140103	0.575408935546875	0.57537841796875	1.151123046875E-06	6.62331331113819E-07	499840.9375	8.01882197265513E-06
1	78	73.767092813756	0.585479736328125	0.585418701171875	1.1712646484375E-06	6.85680220158247E-07	499817.59375	8.13576389191439E-06
1	79	73.8678008135017	0.595550537109375	0.59552001953125	1.19964599609375E-06	7.14413204150333E-07	496413.125	8.25514871394262E-06
1	80	73.9685088132475	0.605621337890625	0.605560302734375	1.23809814453125E-06	7.49743037431472E-07	489105.28125	8.3778986663674E-06
1	81	74.0692168129932	0.615692138671875	0.615631103515625	1.29302978515625E-06	7.96029326011194E-07	476115.1875	8.50535070640035E-06
1	82	74.1699248127389	0.625762939453125	0.625701904296875	1.36932373046875E-06	8.56788460623648E-07	456942.28125	8.63941113493638E-06
1	83	74.2706328124847	0.635833740234375	0.635833740234375	1.47186279296875E-06	9.35860043682624E-07	431992.53125	8.78247647051467E-06
1	84	74.3713408122304	0.645904541015625	0.645904541015625	1.60552978515625E-06	1.03701893294783E-06	402299.9375	8.93743526830804E-06
1	85	74.4720488119762	0.655975341796875	0.655975341796875	1.7694091796875E-06	1.16068872557662E-06	370731.3125	9.10737708181841E-06
1	86	74.5727568117219	0.666046142578125	0.66595458984375	1.95770263671875E-06	1.30374098716857E-06	340171.46875	9.29505222302396E-06
1	87	74.6734648114676	0.676116943359375	0.676055908203125	2.15728759765625E-06	1.45844694543484E-06	313382.375	9.50225785345538E-06
1	88	74.7741728112134	0.686187744140625	0.686126708984375	2.3516845703125E-06	1.61355353611725E-06	291759.65625	9.72930320131127E-06
1	89	74.8748808109591	0.696258544921875	0.69622802734375	2.52166748046875E-06	1.75565560311952E-06	276098.28125	9.97469578578603E-06
1	90	74.9755888107048	0.706329345703125	0.70623779296875	2.65472412109375E-06	1.87486648428603E-06	266030.59375	1.02353478723671E-05
1	91	75.0762968104506	0.716400146484375	0.71636962890625	2.7423095703125E-06	1.96450719158747E-06	261228.578125	1.05071094367304E-05
1	92	75.1770048101963	0.726470947265625	0.726409912109375	2.7880859375E-06	2.02529326998047E-06	260540.734375	1.07855876194662E-05
1	93	75.277712809942	0.736541748046875	0.73651123046875	2.80364990234375E-06	2.06491949938936E-06	262697.3125	1.10671535367146E-05
1	94	75.3784208096878	0.746612548828125	0.74652099609375	2.8045654296875E-06	2.09366703529668E-06	266180.625	1.13495498226257E-05
1	95	75.4791288094335	0.756683349609375	0.7568359375	2.80609130859375E-06	2.12375061892089E-06	269711.8125	1.16320688903215E-05
1	96	75.5798368091793	0.766754150390625	0.7666015625	2.8240966796875E-06	2.16495686800044E-06	271450.1875	1.191557112179E-05
1	97	75.680544808925	0.776824951171875	0.7769775390625	2.87200927734375E-06	2.23148663280881E-06	270534.5	1.22023930089199E-05
1	98	75.7812528086707	0.786895751953125	0.7867431640625	2.96478271484375E-06	2.33252239922876E-06	265362.84375	1.24962989502819E-05
1	99	75.8819608084165	0.796966552734375	0.7977294921875	3.11492919921875E-06	2.48487071985437E-06	256098.765625	1.28024366858881E-05
1	100	75.9826688081622	0.807037353515625	0.80718994140625	3.33160400390625E-06	2.68923713520053E-06	242282.6875	1.31270453493926E-05
1	101	76.0833768079079	0.817108154296875	0.8172607421875	3.616943359375E-06	2.95598579214129E-06	225953.421875	1.34769325086381E-05
1	102	76.1840848076537	0.827178955078125	0.8270263671875	3.966064453125E-06	3.28003989125136E-06	208525.703125	1.38587674882729E-05
1	103	76.2847928073994	0.837249755859375	0.83709716796875	4.3585205078125E-06	3.64850529877003E-06	192059.9375	1.42779435918783E-05
1	104	76.3855008071451	0.847320556640625	0.8477783203125	4.7705078125E-06	4.04433285439154E-06	177712.390625	1.47376267705113E-05
1	105	76.4862088068909	0.857391357421875	0.858154296875	5.169677734375E-06	4.43638100477983E-06	165997.640625	1.52381544467062E-05
1	106	76.5869168066366	0.867462158203125	0.8673095703125	5.517578125E-06	4.78544825455174E-06	157190.265625	1.57763006427558E-05
1	107	76.6876248063824	0.877532958984375	0.87738037109375	5.7830810546875E-06	5.0739613470796E-06	151715.046875	1.63453332788777E-05
1	108	76.7883328061281	0.887603759765625	0.88775634765625	5.9478759765625E-06	5.28026430401951E-06	149256.03125	1.69360337167745E-05
1	109	76.8890408058738	0.897674560546875	0.89813232421875	6.005859375E-06	5.39405618837918E-06	149542.6875	1.75379536813125E-05
1	110	76.9897488056196	0.907745361328125	0.90789794921875	5.9783935546875E-06	5.4277711569739E-06	151863.203125	1.81414070539176E-05
1	111	77.0904568053653	0.917816162109375	0.91827392578125	5.8837890625E-06	5.40293012818438E-06	156068.46875	1.87387158803176E-05
1	112	77.191164805111	0.927886962890625	0.927734375	5.76171875E-06	5.34534410689957E-06	161016.953125	1.93251144082751E-05
1	113	77.2918728048568	0.937957763671875	0.93780517578125	5.633544921875E-06	5.28316741110757E-06	166468.046875	1.98989109776448E-05
1	114	77.3925808046025	0.948028564453125	0.94818115234375	5.5206298828125E-06	5.23455719303456E-06	171752.359375	2.04605694307247E-05
1	115	77.4932888043483	0.958099365234375	0.958251953125	5.438232421875E-06	5.21119636687217E-06	176206.515625	2.10123907891102E-05
1	116	77.593996804094	0.968170166015625	0.96832275390625	5.3955078125E-06	5.22459276908194E-06	179468.328125	2.15579129871912E-05
1	117	77.6947048038397	0.978240966796875	0.9783935546875	5.3985595703125E-06	5.28191594639793E-06	181232.328125	2.21014379349072E-05
1	118	77.7954128035855	0.988311767578125	0.98846435546875	5.450439453125E-06	5.38756512469263E-06	181354.984375	2.26477277465165E-05
1	119	77.8961208033312	0.998382568359375	0.99884033203125	5.5450439453125E-06	5.53861309526837E-06	180132.09375	2.32013953791466E-05
1	120	77.9968288030769	1.00845336914063	1.00860595703125	5.6671142578125E-06	5.71588498132769E-06	177975.234375	2.37659714912297E-05
1	121	78.0975368028227	1.01852416992188	1.01837158203125	5.8013916015625E-06	5.90797253607889E-06	175539.1875	2.43434569711098E-05
1	122	78.1982448025684	1.02859497070313	1.02874755859375	5.9173583984375E-06	6.08746768193669E-06	173852.515625	2.49335425905883E-05
1	123	78.2989528023141	1.03866577148438	1.03851318359375	5.99365234375E-06	6.22448715148494E-06	173268.84375	2.55333106906619E-05
1	124	78.3996608020599	1.04873657226563	1.0491943359375	6.0211181640625E-06	6.31732291367371E-06	174252.40625	2.6138301109313E-05
1	125	78.5003688018056	1.05880737304688	1.05926513671875	5.999755859375E-06	6.35533206150285E-06	176551.375	2.67436007561628E-05
1	126	78.6010768015514	1.06887817382813	1.0693359375	5.9326171875E-06	6.34396064924658E-06	180246.921875	2.73444438789738E-05
1	127	78.7017848012971	1.07894897460938	1.07879638671875	5.8380126953125E-06	6.29802661933354E-06	184788.296875	2.79371415672358E-05
1	128	78.8024928010428	1.08901977539063	1.0888671875	5.72509765625E-06	6.23387086307048E-06	190191.890625	2.85193909803638E-05
1	129	78.9032008007886	1.09909057617188	1.09893798828125	5.609130859375E-06	6.16408669884549E-06	195919.484375	2.90901134576416E-05
1	130	79.0039088005343	1.10916137695313	1.1090087890625	5.4931640625E-06	6.09196695222636E-06	201888.890625	2.96491598419379E-05
1	131	79.10461680028	1.11923217773438	1.11907958984375	5.3863525390625E-06	6.02775708102854E-06	207762.046875	3.01969866995933E-05
1	132	79.2053248000258	1.12930297851563	1.129150390625	5.28564453125E-06	5.96828749621636E-06	213625.875	3.07343652821146E-05
1	133	79.3060327997715	1.13937377929688	1.14013671875	5.194091796875E-06	5.92197466176003E-06	219506.46875	3.12620613840409E-05
1	134	79.4067407995173	1.14944458007813	1.14959716796875	5.108642578125E-06	5.87288104725303E-06	225029.859375	3.17808444378898E-05
1	135	79.507448799263	1.15951538085938	1.15936279296875	5.0323486328125E-06	5.83431756240316E-06	230382.0625	3.22914856951684E-05
1	136	79.6081567990087	1.16958618164063	1.16943359375	4.96307373046875E-06	5.80398500460433E-06	235626.890625	3.27947927871719E-05
1	137	79.7088647987545	1.17965698242188	1.17950439453125	4.90142822265625E-06	5.78125582251232E-06	240645.0625	3.32915114995558E-05
1	138	79.8095727985002	1.18972778320313	1.18988037109375	4.84588623046875E-06	5.76602451474173E-06	245544.4375	3.37823257723358E-05
1	139	79.9102807982459	1.19979858398438	1.19964599609375	4.79583740234375E-06	5.75330705032684E-06	250143.171875	3.42678249580786E-05
1	140	80.0109887979917	1.20986938476563	1.21002197265625	4.75006103515625E-06	5.74767773287022E-06	254738.21875	3.47485001839232E-05
1	141	80.1116967977374	1.21994018554688	1.21978759765625	4.70916748046875E-06	5.74418436372071E-06	259024.03125	3.52248098351993E-05
1	142	80.2124047974831	1.23001098632813	1.23046875	4.6722412109375E-06	5.74904697714373E-06	263357.28125	3.56972013833001E-05
1	143	80.3131127972289	1.24008178710938	1.23992919921875	4.63897705078125E-06	5.7520028349245E-06	267285.0625	3.61660604539793E-05
1	144	80.4138207969746	1.25015258789063	1.25030517578125	4.60906982421875E-06	5.76274351260508E-06	271270.625	3.66317362932023E-05
1	145	80.5145287967204	1.26022338867188	1.26007080078125	4.58160400390625E-06	5.77314494876191E-06	275028.34375	3.70945235772524E-05
1	146	80.6152367964661	1.27029418945313	1.2701416015625	4.5574951171875E-06	5.78866365685826E-06	278692.9375	3.75547133444343E-05
1	147	80.7159447962118	1.28036499023438	1.2799072265625	4.5367431640625E-06	5.80660980631365E-06	282120.28125	3.80126439267769E-05
1	148	80.8166527959576	1.29043579101563	1.29058837890625	4.51812744140625E-06	5.83104247198207E-06	285646.75	3.84685918106697E-05
1	149	80.9173607957033	1.30050659179688	1.3006591796875	4.50164794921875E-06	5.85510952078039E-06	288929.59375	3.89227752748411E-05
1	150	81.018068795449	1.31057739257813	1.31011962890625	4.48883056640625E-06	5.88090506425942E-06	291862.125	3.93754817196168E-05
1	151	81.1187767951948	1.32064819335938	1.3201904296875	4.4781494140625E-06	5.91200978306006E-06	294807.15625	3.98270021833014E-05
1	152	81.2194847949405	1.33071899414063	1.33087158203125	4.46990966796875E-06	5.94887569604907E-06	297740.15625	4.02775731345173E-05
1	153	81.3201927946862	1.34078979492188	1.3409423828125	4.4647216796875E-06	5.98693486608681E-06	300341.75	4.07274674216751E-05
1	154	81.420900794432	1.35086059570313	1.35101318359375	4.46136474609375E-06	6.02736281507532E-06	302825.09375	4.11769324273337E-05
1	155	81.5216087941777	1.36093139648438	1.36077880859375	4.45953369140625E-06	6.06843877903884E-06	305139.28125	4.16261354985181E-05
1	156	81.6223167939235	1.37100219726563	1.37115478515625	4.4598388671875E-06	6.11512905379641E-06	307444.9375	4.20752621721476E-05
1	157	81.7230247936692	1.38107299804688	1.3812255859375	4.46197509765625E-06	6.16299394096131E-06	309554.75	4.25245125370566E-05
1	158	81.8237327934149	1.39114379882813	1.3909912109375	4.46624755859375E-06	6.21251092525199E-06	311445.1875	4.29740830441006E-05
1	159	81.9244407931607	1.40121459960938	1.40106201171875	4.47296142578125E-06	6.26689643468126E-06	313229.1875	4.34242065239232E-05
1	160	82.0251487929064	1.41128540039063	1.4111328125	4.48333740234375E-06	6.32658429822186E-06	314750.53125	4.38751922047231E-05
1	161	82.1258567926521	1.42135620117188	1.4215087890625	4.49920654296875E-06	6.39566178506357E-06	315946.53125	4.432749847183E-05
1	162	82.2265647923979	1.43142700195313	1.43157958984375	4.522705078125E-06	6.47461183689302E-06	316531.75	4.47817910753656E-05
1	163	82.3272727921436	1.44149780273438	1.44134521484375	4.55841064453125E-06	6.57024338579504E-06	316194.6875	4.52390595455654E-05
1	164	82.4279807918894	1.45156860351563	1.45172119140625	4.6051025390625E-06	6.68532447889447E-06	315241.90625	4.57004789495841E-05
1	165	82.5286887916351	1.46163940429688	1.4617919921875	4.66400146484375E-06	6.81779965816531E-06	313420.15625	4.61672170786187E-05
1	166	82.6293967913808	1.47171020507813	1.4715576171875	4.73602294921875E-06	6.96933011568035E-06	310715.90625	4.6640543587273E-05
1	167	82.7301047911266	1.48178100585938	1.48162841796875	4.81781005859375E-06	7.13820418241085E-06	307531.53125	4.71216189907864E-05
1	168	82.8308127908723	1.49185180664063	1.49139404296875	4.910888671875E-06	7.32406988390721E-06	303691.28125	4.76114983030129E-05
1	169	82.931520790618	1.50192260742188	1.50177001953125	5.0140380859375E-06	7.52993173591676E-06	299513.09375	4.81112583656795E-05
1	170	83.0322287903638	1.49185180664063	1.49169921875	4.7509765625E-06	7.08702827978414E-06	313977.375	4.86029639432672E-05
1	171	83.1329367901095	1.48178100585938	1.48162841796875	4.56207275390625E-06	6.75929641147377E-06	324770.875	4.90719139634166E-05
1	172	83.2336447898552	1.47171020507813	1.47216796875	4.4140625E-06	6.49824141873978E-06	333517.6875	4.95238964504097E-05
1	173	83.334352789601	1.46163940429688	1.4617919921875	4.29412841796875E-06	6.27712233836064E-06	340416.46875	4.9962389311986E-05
1	174	83.4350607893467	1.45156860351563	1.451416015625	4.19403076171875E-06	6.08728350925958E-06	346067.09375	5.03898045280948E-05
1	175	83.5357687890925	1.44149780273438	1.44134521484375	4.10797119140625E-06	5.92100468566059E-06	350865.46875	5.08078410348389E-05
1	176	83.6364767888382	1.43142700195313	1.43157958984375	4.034423828125E-06	5.77559876546729E-06	354841.15625	5.1217844884377E-05
1	177	83.7371847885839	1.42135620117188	1.42120361328125	3.9691162109375E-06	5.64092260901816E-06	358065.5	5.1620852900669E-05
1	178	83.8378927883297	1.41128540039063	1.41082763671875	3.91143798828125E-06	5.51836455997545E-06	360692.84375	5.20176727150101E-05
1	179	83.9386007880754	1.40121459960938	1.4013671875	3.85955810546875E-06	5.40865812581615E-06	363090.0625	5.24089737155009E-05
1	180	84.0393087878211	1.39114379882813	1.3916015625	3.812255859375E-06	5.3051408031024E-06	365033.625	5.27952797710896E-05
1	181	84.1400167875669	1.38107299804688	1.38153076171875	3.76922607421875E-06	5.20730145581183E-06	366529.03125	5.31770383531693E-05
1	182	84.2407247873126	1.37100219726563	1.370849609375	3.72894287109375E-06	5.1118199735356E-06	367624.1875	5.35545987077057E-05
1	183	84.3414327870584	1.36093139648438	1.361083984375	3.69171142578125E-06	5.02472903463058E-06	368686.46875	5.39282591489609E-05
1	184	84.4421407868041	1.35086059570313	1.35040283203125	3.6566162109375E-06	4.93790503242053E-06	369303.96875	5.42982779734302E-05
1	185	84.5428487865498	1.34078979492188	1.3409423828125	3.6236572265625E-06	4.85911550640594E-06	370052.21875	5.46648698218632E-05
1	186	84.6435567862956	1.33071899414063	1.33056640625	3.59222412109375E-06	4.77969251733157E-06	370401.84375	5.50282165932003E-05
1	187	84.7442647860413	1.32064819335938	1.32110595703125	3.5614013671875E-06	4.70498844151734E-06	370951.1875	5.53884310647845E-05
1	188	84.844972785787	1.31057739257813	1.31072998046875	3.53302001953125E-06	4.63083506474504E-06	370994.21875	5.57456623937469E-05
1	189	84.9456807855328	1.30050659179688	1.3006591796875	3.50555419921875E-06	4.5595311348734E-06	371028.125	5.61000815650914E-05
1	190	85.0463887852785	1.29043579101563	1.29058837890625	3.47900390625E-06	4.48996206614538E-06	370964.90625	5.6451783166267E-05
1	191	85.1470967850242	1.28036499023438	1.28021240234375	3.4527587890625E-06	4.42026430391707E-06	370779.59375	5.68008254049346E-05
1	192	85.24780478477	1.27029418945313	1.2701416015625	3.42803955078125E-06	4.35409538113163E-06	370515.46875	5.71473028685432E-05
1	193	85.3485127845157	1.26022338867188	1.26068115234375	3.40423583984375E-06	4.29165584137081E-06	370327.21875	5.74913319724146E-05
1	194	85.4492207842615	1.25015258789063	1.25	3.3807373046875E-06	4.22592165705282E-06	369741.84375	5.7832985476125E-05
1	195	85.5499287840072	1.24008178710938	1.240234375	3.3587646484375E-06	4.16565535488189E-06	369253.125	5.81723434152082E-05
1	196	85.6506367837529	1.23001098632813	1.23016357421875	3.3367919921875E-06	4.10479970014421E-06	368666.5625	5.85094931011554E-05
1	197	85.7513447834987	1.21994018554688	1.2200927734375	3.3160400390625E-06	4.04587626690045E-06	367936.6875	5.88444891036488E-05
1	198	85.8520527832444	1.20986938476563	1.20941162109375	3.2952880859375E-06	3.98535985368653E-06	367012.40625	5.9177396906307E-05
1	199	85.9527607829901	1.19979858398438	1.1993408203125	3.275146484375E-06	3.9280166674871E-06	366194.5625	5.95082456129603E-05
1	200	86.0534687827359	1.18972778320313	1.18988037109375	3.25469970703125E-06	3.87270301871467E-06	365588.40625	5.98370497755241E-05
1	201	86.1541767824816	1.17965698242188	1.17950439453125	3.23455810546875E-06	3.81517565983813E-06	364657.03125	6.01638093939982E-05
1	202	86.2548847822274	1.16958618164063	1.16943359375	3.214111328125E-06	3.75868967239512E-06	363843.53125	6.04885244683828E-05
1	203	86.3555927819731	1.15951538085938	1.15997314453125	3.19244384765625E-06	3.70314887732093E-06	363349.59375	6.08111186011229E-05
1	204	86.4563007817188	1.14944458007813	1.1492919921875	3.1689453125E-06	3.64204356628761E-06	362673.34375	6.11314389971085E-05
1	205	86.5570087814646	1.13937377929688	1.13922119140625	3.14300537109375E-06	3.58057809535239E-06	362462.40625	6.14492746535689E-05
1	206	86.6577167812103	1.12930297851563	1.129150390625	3.11248779296875E-06	3.51446669810684E-06	362780.65625	6.17642654106021E-05
1	207	86.758424780956	1.11923217773438	1.119384765625	3.0767822265625E-06	3.44410295838316E-06	363816.71875	6.20759165030904E-05
1	208	86.8591327807018	1.10916137695313	1.10931396484375	3.03314208984375E-06	3.36470679940248E-06	365730.96875	6.23835730948485E-05
1	209	86.9598407804475	1.09909057617188	1.0992431640625	2.97698974609375E-06	3.27243560604984E-06	369246.5625	6.26862092758529E-05
1	210	87.0605487801932	1.08901977539063	1.08917236328125	2.9046630859375E-06	3.16367868435918E-06	374973.75	6.29823771305382E-05
1	211	87.161256779939	1.07894897460938	1.0791015625	2.81097412109375E-06	3.03332649309596E-06	383888.8125	6.32701776339673E-05
1	212	87.2619647796847	1.06887817382813	1.0687255859375	2.68951416015625E-06	2.87435250356793E-06	397367.53125	6.35471515124664E-05
1	213	87.3626727794305	1.05880737304688	1.05865478515625	2.5360107421875E-06	2.68475992015738E-06	417448.875	6.38102792436257E-05
1	214	87.4633807791762	1.04873657226563	1.04888916015625	2.3486328125E-06	2.46345530285907E-06	446595.65625	6.40562429907732E-05
1	215	87.5640887789219	1.03866577148438	1.0382080078125	2.13134765625E-06	2.21278219214582E-06	487113.40625	6.42818267806433E-05
1	216	87.6647967786677	1.02859497070313	1.02935791015625	1.89300537109375E-06	1.94858012037002E-06	543769.125	6.44844694761559E-05
1	217	87.7655047784134	1.01852416992188	1.01837158203125	1.651611328125E-06	1.68195401784033E-06	616592.75	6.46629487164319E-05
1	218	87.8662127781591	1.00845336914063	1.00860595703125	1.4288330078125E-06	1.44112948419206E-06	705894.9375	6.48180648568086E-05
1	219	87.9669207779049	0.998382568359375	0.9979248046875	1.24481201171875E-06	1.24222879094305E-06	801667.0625	6.49526919005439E-05
1	220	88.0676287776506	0.988311767578125	0.98846435546875	1.1126708984375E-06	1.09983545826253E-06	888370.875	6.50713991490193E-05
1	221	88.1683367773963	0.978240966796875	0.97869873046875	1.03546142578125E-06	1.013404812511E-06	945181.25	6.51795708108693E-05
1	222	88.2690447771421	0.968170166015625	0.96832275390625	1.00494384765625E-06	9.73109877122624E-07	963559.125	6.52823146083392E-05
1	223	88.3697527768878	0.958099365234375	0.95794677734375	1.0040283203125E-06	9.61805653787451E-07	954103.375	6.53834722470492E-05
1	224	88.4704607766336	0.948028564453125	0.94818115234375	1.0107421875E-06	9.58366626946372E-07	938103.875	6.54849209240638E-05
1	225	88.5711687763793	0.937957763671875	0.9381103515625	1.007080078125E-06	9.44752230225276E-07	931515.1875	6.55865296721458E-05
1	226	88.671876776125	0.927886962890625	0.9283447265625	9.7686767578125E-07	9.0686995690703E-07	950328	6.56864285701886E-05
1	227	88.7725847758708	0.917816162109375	0.91796875	9.1064453125E-07	8.35943239962944E-07	1008042.875	6.57814744045027E-05
1	228	88.8732927756165	0.907745361328125	0.908203125	7.95898437500001E-07	7.22837455668923E-07	1141104.375	6.58674034639262E-05
1	229	88.9740007753622	0.897674560546875	0.89813232421875	6.23168945312499E-07	5.59688146495319E-07	1441234.125	6.59388606436551E-05
1	230	89.074708775108	0.887603759765625	0.8880615234375	3.8909912109375E-07	3.45543952562366E-07	2282353	6.59898287267424E-05
1	231	89.1754167748537	0.877532958984375	0.87799072265625	9.64355468749997E-08	8.46695087375338E-08	9104431	6.60142832202837E-05
1	232	89.2761247745995	0.867462158203125	0.86761474609375	-2.43225097656249E-07	-2.1102567870912E-07	-3567126.75	6.60068908473477E-05
1	233	89.3768327743452	0.857391357421875	0.8575439453125	-6.04858398437499E-07	-5.18692615969485E-07	-1417759.875	6.59641809761524E-05
1	234	89.4775407740909	0.847320556640625	0.8477783203125	-9.59167480468751E-07	-8.13161364021653E-07	-883868.9375	6.58854260109365E-05
1	235	89.5782487738367	0.837249755859375	0.83770751953125	-1.27410888671875E-06	-1.06733057236852E-06	-657485.0625	6.57729760860093E-05
1	236	89.6789567735824	0.827178955078125	0.82763671875	-1.52191162109375E-06	-1.25958990793151E-06	-543813.9375	6.56321863061748E-05
1	237	89.7796647733281	0.817108154296875	0.81695556640625	-1.68792724609375E-06	-1.37896154228656E-06	-483999.28125	6.54705581837334E-05
1	238	89.8803727730739	0.807037353515625	0.80780029296875	-1.76727294921875E-06	-1.42760359267413E-06	-457088.59375	6.5296575485263E-05
1	239	89.9810807728196	0.796966552734375	0.79681396484375	-1.77398681640625E-06	-1.41353746130335E-06	-449165.65625	6.51182563160546E-05
1	240	90.0817887725653	0.786895751953125	0.787353515625	-1.72882080078125E-06	-1.36119308535854E-06	-455428.09375	6.49418725515716E-05
1	241	90.1824967723111	0.776824951171875	0.7769775390625	-1.654052734375E-06	-1.28516171571391E-06	-469741.71875	6.47715351078659E-05
1	242	90.2832047720568	0.766754150390625	0.76690673828125	-1.56982421875E-06	-1.20390882329957E-06	-488530.3125	6.46092012175359E-05
1	243	90.3839127718026	0.756683349609375	0.7568359375	-1.49383544921875E-06	-1.13058831630042E-06	-506639.4375	6.44549290882424E-05
1	244	90.4846207715483	0.746612548828125	0.746551513671875	-1.43524169921875E-06	-1.07148184724792E-06	-520157.375	6.43074381514452E-05
1	245	90.585328771294	0.736541748046875	0.73651123046875	-1.40380859375E-06	-1.03392085293308E-06	-524652.1875	6.41644801362418E-05
1	246	90.6860367710398	0.726470947265625	0.7264404296875	-1.40411376953125E-06	-1.02000501556176E-06	-517365.8125	6.4023093727883E-05
1	247	90.7867447707855	0.716400146484375	0.716339111328125	-1.43951416015625E-06	-1.03118020433612E-06	-497625.625	6.38799028820358E-05
1	248	90.8874527705312	0.706329345703125	0.70623779296875	-1.50726318359375E-06	-1.06448624137556E-06	-468556.40625	6.37315242784098E-05
1	249	90.988160770277	0.696258544921875	0.696197509765625	-1.600341796875E-06	-1.11415397441306E-06	-435030.53125	6.35750402580015E-05
1	250	91.0888687700227	0.686187744140625	0.68609619140625	-1.70440673828125E-06	-1.1693869055307E-06	-402542.53125	6.34086391073652E-05
1	251	91.1895767697685	0.676116943359375	0.67608642578125	-1.80419921875E-06	-1.21979462619493E-06	-374729.375	6.32319643045776E-05
1	252	91.2902847695142	0.666046142578125	0.666015625	-1.88262939453125E-06	-1.25386054605769E-06	-353768.84375	6.30463182460517E-05
1	253	91.3909927692599	0.655975341796875	0.65594482421875	-1.9281005859375E-06	-1.26472764350183E-06	-340202.59375	6.28544294158928E-05
1	254	91.4917007690057	0.645904541015625	0.645904541015625	-1.9366455078125E-06	-1.25088808999863E-06	-333517.1875	6.26598266535439E-05
1	255	91.5924087687514	0.635833740234375	0.63580322265625	-1.90887451171875E-06	-1.2136686109443E-06	-333077.53125	6.24661915935576E-05
1	256	91.6931167684971	0.625762939453125	0.62567138671875	-1.85577392578125E-06	-1.16110459202901E-06	-337148.5	6.22766237938777E-05
1	257	91.7938247682429	0.615692138671875	0.615631103515625	-1.7852783203125E-06	-1.0990728469551E-06	-344837.625	6.20932842139155E-05
1	258	91.8945327679886	0.605621337890625	0.6055908203125	-1.7071533203125E-06	-1.03383638361265E-06	-354737.21875	6.19174243183807E-05
1	259	91.9952407677343	0.595550537109375	0.595550537109375	-1.62628173828125E-06	-9.6853295872279E-07	-366203.8125	6.17495752521791E-05
1	260	92.0959487674801	0.585479736328125	0.585479736328125	-1.54754638671875E-06	-9.06057039173902E-07	-378327.75	6.15897588431835E-05
1	261	92.1966567672258	0.575408935546875	0.57537841796875	-1.47247314453125E-06	-8.47229216560663E-07	-390756.5	6.14376840530895E-05
1	262	92.2973647669716	0.565338134765625	0.5653076171875	-1.4019775390625E-06	-7.92548576100671E-07	-403221.59375	6.12929434282705E-05
1	263	92.3980727667173	0.555267333984375	0.5552978515625	-1.3372802734375E-06	-7.42588838420488E-07	-415244.21875	6.11550130997784E-05
1	264	92.498780766463	0.545196533203125	0.545135498046875	-1.27838134765625E-06	-6.96891049756232E-07	-426426.375	6.10233037150465E-05
1	265	92.5994887662088	0.535125732421875	0.53509521484375	-1.22406005859375E-06	-6.54988696169312E-07	-437147.84375	6.08972986810841E-05
1	266	92.7001967659545	0.525054931640625	0.52508544921875	-1.17523193359375E-06	-6.17097157373792E-07	-446793.0625	6.07764850428794E-05
1	267	92.8009047657002	0.514984130859375	0.514984130859375	-1.1297607421875E-06	-5.81808819788421E-07	-455834.71875	6.06604189670179E-05
1	268	92.901612765446	0.504913330078125	0.504913330078125	-1.08856201171875E-06	-5.49629419310804E-07	-463835.1875	6.05487148277462E-05
1	269	93.0023207651917	0.494842529296875	0.49481201171875	-1.05072021484375E-06	-5.19909008289687E-07	-470926.5	6.04409942752682E-05
1	270	93.1030287649374	0.484771728515625	0.4847412109375	-1.01593017578125E-06	-4.92463186674286E-07	-477140.3125	6.03369298914913E-05
1	271	93.2037367646832	0.474700927734375	0.47467041015625	-9.8388671875E-07	-4.67021919803301E-07	-482444.1875	6.0236230638111E-05
1	272	93.3044447644289	0.464630126953125	0.46453857421875	-9.539794921875E-07	-4.4316024627733E-07	-486948.1875	6.01386527705472E-05
1	273	93.4051527641747	0.454559326171875	0.454559326171875	-9.259033203125E-07	-4.20877967144406E-07	-490936.0625	6.00439925619867E-05
1	274	93.5058607639204	0.444488525390625	0.444488525390625	-9.002685546875E-07	-4.00159052560412E-07	-493728.8125	5.99520390096586E-05
1	275	93.6065687636661	0.434417724609375	0.434356689453125	-8.76464843749999E-07	-3.80698367052901E-07	-495578	5.98625738348346E-05
1	276	93.7072767634119	0.424346923828125	0.424346923828125	-8.53881835937501E-07	-3.62342120752146E-07	-496962.125	5.97754442424048E-05
1	277	93.8079847631576	0.414276123046875	0.414337158203125	-8.3282470703125E-07	-3.4507021950958E-07	-497508.25	5.96905119891744E-05
1	278	93.9086927629033	0.404205322265625	0.40423583984375	-8.12683105468751E-07	-3.28515625369619E-07	-497408.9375	5.96076533838641E-05
1	279	94.0094007626491	0.394134521484375	0.39410400390625	-7.940673828125E-07	-3.12945132918685E-07	-496310.53125	5.95267447351944E-05
1	280	94.1101087623948	0.384063720703125	0.384033203125	-7.769775390625E-07	-2.98385174346549E-07	-494265.53125	5.94476368860342E-05
1	281	94.2108167621406	0.373992919921875	0.373992919921875	-7.6019287109375E-07	-2.84306736375584E-07	-491971.125	5.93702352489345E-05
1	282	94.3115247618863	0.363922119140625	0.364013671875	-7.45544433593751E-07	-2.71388358896729E-07	-488252.15625	5.92944161326159E-05
1	283	94.412232761632	0.353851318359375	0.3538818359375	-7.305908203125E-07	-2.58542797837436E-07	-484377.625	5.92200849496294E-05
1	284	94.5129407613778	0.343780517578125	0.34381103515625	-7.16552734375001E-07	-2.46358723643425E-07	-479812.59375	5.91472162341233E-05
1	285	94.6136487611235	0.333709716796875	0.333709716796875	-7.04040527343749E-07	-2.34945161992073E-07	-473992.1875	5.90756826568395E-05
1	286	94.7143567608692	0.323638916015625	0.3236083984375	-6.92138671875001E-07	-2.23981885483227E-07	-467548.5	5.90053787163924E-05
1	287	94.815064760615	0.313568115234375	0.313629150390625	-6.81152343749999E-07	-2.13629220979783E-07	-460439.09375	5.89362280152272E-05
1	288	94.9157727603607	0.303497314453125	0.30352783203125	-6.70471191406249E-07	-2.03506672846743E-07	-452708.25	5.88681687077042E-05
1	289	95.0164807601064	0.293426513671875	0.29345703125	-6.60095214843751E-07	-1.9370958170839E-07	-444567.71875	5.88011716899928E-05
1	290	95.1171887598522	0.283355712890625	0.28338623046875	-6.5155029296875E-07	-1.84640384759405E-07	-434941.4375	5.873512418475E-05
1	291	95.2178967595979	0.273284912109375	0.273284912109375	-6.43310546875001E-07	-1.75807073787837E-07	-424810.25	5.86699243285693E-05
1	292	95.3186047593437	0.263214111328125	0.263214111328125	-6.34765625E-07	-1.67079264201675E-07	-414663.46875	5.86055648454931E-05
1	293	95.4193127590894	0.253143310546875	0.253143310546875	-6.28662109375E-07	-1.59141606559388E-07	-402669.90625	5.85419475100935E-05
1	294	95.5200207588351	0.243072509765625	0.2430419921875	-6.2255859375E-07	-1.51307872897632E-07	-390392.1875	5.84789449931122E-05
1	295	95.6207287585809	0.233001708984375	0.233001708984375	-6.1676025390625E-07	-1.43706188282522E-07	-377783.28125	5.84165391046554E-05
1	296	95.7214367583266	0.222930908203125	0.22296142578125	-6.1187744140625E-07	-1.36425072128077E-07	-364389.03125	5.8354671637062E-05
1	297	95.8221447580723	0.212860107421875	0.212860107421875	-6.0882568359375E-07	-1.29594695863489E-07	-349624.09375	5.82932043471374E-05
1	298	95.9228527578181	0.202789306640625	0.202850341796875	-6.06689453125001E-07	-1.23067152912881E-07	-334356.15625	5.82319989916869E-05
1	299	96.0235607575638	0.192718505859375	0.1927490234375	-6.060791015625E-07	-1.16821148310464E-07	-318026.1875	5.8170931879431E-05
1	300	96.1242687573096	0.182647705078125	0.182708740234375	-6.06689453125001E-07	-1.10847459211527E-07	-301156.96875	5.81098647671752E-05
1	301	96.2249767570553	0.172576904296875	0.172576904296875	-6.1004638671875E-07	-1.05279909234923E-07	-282891.46875	5.80485975660849E-05
1	302	96.325684756801	0.162506103515625	0.1624755859375	-6.1614990234375E-07	-1.00109311063079E-07	-263694.90625	5.7986853789771E-05
1	303	96.4263927565468	0.152435302734375	0.15240478515625	-6.26220703124999E-07	-9.54390273477657E-08	-243372.328125	5.79242951062042E-05
1	304	96.5271007562925	0.142364501953125	0.1424560546875	-6.4117431640625E-07	-9.13391673407205E-08	-222179.90625	5.78604740439914E-05
1	305	96.6278087560382	0.132293701171875	0.13238525390625	-6.61621093750001E-07	-8.75888730433871E-08	-200092.25	5.77948740101419E-05
1	306	96.728516755784	0.122222900390625	0.122283935546875	-6.9091796875E-07	-8.44881640205131E-08	-176987.640625	5.77267674088944E-05
1	307	96.8292247555297	0.112152099609375	0.112213134765625	-7.3211669921875E-07	-8.21531074279847E-08	-153272.203125	5.76551137783099E-05
1	308	96.9299327552754	0.102081298828125	0.10211181640625	-7.891845703125E-07	-8.05850675078545E-08	-129389.0234375	5.7578508858569E-05
1	309	97.0306407550212	0.092010498046875	0.092071533203125	-8.6639404296875E-07	-7.97702242039122E-08	-106269.8125	5.74951445742045E-05
1	310	97.1313487547669	0.081939697265625	0.082000732421875	-9.71069335937499E-07	-7.96283927684271E-08	-84443.75	5.74026198592037E-05
1	311	97.2320567545127	0.071868896484375	0.07196044921875	-1.1083984375E-06	-7.97608521452275E-08	-64922.90625	5.7297911553178E-05
1	312	97.3327647542584	0.061798095703125	0.06182861328125	-1.28204345703125E-06	-7.92669681004554E-08	-48226.61328125	5.71775417483877E-05
1	313	97.4334727540041	0.051727294921875	0.051788330078125	-1.494140625E-06	-7.73790489461135E-08	-34660.94921875	5.70377524127252E-05
1	314	97.5341807537499	0.041656494140625	0.041766357421875	-1.73492431640625E-06	-7.24614679370461E-08	-24073.87890625	5.68751565879211E-05
1	315	97.6348887534956	0.031585693359375	0.031695556640625	-1.9915771484375E-06	-6.31241476867217E-08	-15914.8017578125	5.66875096410513E-05
1	316	97.7355967532413	0.021514892578125	0.0216094970703125	-2.2393798828125E-06	-4.83918718430232E-08	-9649.767578125	5.64744659641292E-05
1	317	97.8363047529871	0.011444091796875	0.0115203857421875	-2.454833984375E-06	-2.82806347229325E-08	-4692.93896484375	5.62380919291172E-05
1	318	97.9370127527328	0.001373291015625	0.00148620605468749	-2.61688232421875E-06	-3.88922627436727E-09	-567.930053710938	5.5982713092817E-05
1	319	98.0377207524785	-0.008697509765625	-0.00859680175781249	-2.7142333984375E-06	2.33337260624467E-08	3167.30419921875	5.57142666366417E-05
1	320	98.1384287522243	-0.018768310546875	-0.0186279296875	-2.7496337890625E-06	5.12199846980366E-08	6774.6953125	5.54391408513766E-05
1	321	98.23913675197	-0.028839111328125	-0.0287109375	-2.7337646484375E-06	7.84889451210802E-08	10502.34375	5.51630291738547E-05
1	322	98.3398447517158	-0.038909912109375	-0.038775634765625	-2.6824951171875E-06	1.04015448698647E-07	14455.0625	5.48903008166235E-05
1	323	98.4405527514615	-0.048980712890625	-0.0488037109375	-2.61016845703125E-06	1.27385902715105E-07	18697.533203125	5.46237934031524E-05
1	324	98.5412607512072	-0.059051513671875	-0.0589599609375	-2.53082275390625E-06	1.49217214584496E-07	23296.755859375	5.43649221071973E-05
1	325	98.641968750953	-0.069122314453125	-0.06903076171875	-2.449951171875E-06	1.69121989301857E-07	28176.3828125	5.41141198482364E-05
1	326	98.7426767506987	-0.079193115234375	-0.07904052734375	-2.37274169921875E-06	1.87542752883019E-07	33311.8984375	5.38712811248843E-05
1	327	98.8433847504444	-0.089263916015625	-0.08917236328125	-2.3016357421875E-06	2.05242301376529E-07	38743.0390625	5.36359075340442E-05
1	328	98.9440927501902	-0.099334716796875	-0.099212646484375	-2.23724365234375E-06	2.21962849877855E-07	44345.9296875	5.34073551534675E-05
1	329	99.0448007499359	-0.109405517578125	-0.109283447265625	-2.17926025390625E-06	2.38157070953093E-07	50147.0390625	5.318496550899E-05
1	330	99.1455087496817	-0.119476318359375	-0.119384765625	-2.12799072265625E-06	2.54049666637002E-07	56102.109375	5.29680801264476E-05
1	331	99.2462167494274	-0.129547119140625	-0.129486083984375	-2.08251953125E-06	2.69657306262161E-07	62177.60546875	5.27560623595491E-05
1	332	99.3469247491731	-0.139617919921875	-0.1395263671875	-2.0428466796875E-06	2.8503094995358E-07	68299.9765625	5.25483337696642E-05
1	333	99.4476327489189	-0.149688720703125	-0.14959716796875	-2.00897216796875E-06	3.00536555641884E-07	74464.53125	5.23443086422049E-05
1	334	99.5483407486646	-0.159759521484375	-0.15960693359375	-1.97967529296875E-06	3.15969913344816E-07	80622.78125	5.21434631082229E-05
1	335	99.6490487484103	-0.169830322265625	-0.169647216796875	-1.9561767578125E-06	3.31859922653166E-07	86723.875	5.19452805747278E-05
1	336	99.7497567481561	-0.179901123046875	-0.179718017578125	-1.93695068359375E-06	3.48104919112302E-07	92783.9921875	5.17492444487289E-05
1	337	99.8504647479018	-0.189971923828125	-0.189788818359375	-1.92352294921875E-06	3.65063129947885E-07	98667.3046875	5.15548526891507E-05
1	338	99.9511727476475	-0.200042724609375	-0.19989013671875	-1.915283203125E-06	3.82846195634556E-07	104365.84375	5.13615559611935E-05
1	339	100.051880747393	-0.189971923828125	-0.1898193359375	-1.71234130859375E-06	3.25035472314994E-07	110853.6796875	5.11788894073106E-05
2	340	100.152588747139	-0.179901123046875	-0.17974853515625	-1.5667724609375E-06	2.81625034403987E-07	114725.359375	5.10137724631932E-05
2	341	100.253296746885	-0.169830322265625	-0.169677734375	-1.448974609375E-06	2.45858728931125E-07	117101.9453125	5.08619195898063E-05
2	342	100.35400474663	-0.159759521484375	-0.15960693359375	-1.34918212890625E-06	2.15338815223731E-07	118299.03125	5.07210206706077E-05
2	343	100.454712746376	-0.149688720703125	-0.14959716796875	-1.26190185546875E-06	1.88776937193325E-07	118548.9765625	5.05895404785406E-05
2	344	100.555420746122	-0.139617919921875	-0.1395263671875	-1.18438720703125E-06	1.65253240425045E-07	117804.6875	5.04663621541113E-05
2	345	100.656128745868	-0.129547119140625	-0.129425048828125	-1.11358642578125E-06	1.44125976930809E-07	116223.6171875	5.03506489621941E-05
2	346	100.756836745613	-0.119476318359375	-0.11932373046875	-1.048583984375E-06	1.25120948268886E-07	113795.1171875	5.02417751704343E-05
2	347	100.857544745359	-0.109405517578125	-0.10931396484375	-9.86328124999999E-07	1.07819438710521E-07	110829.2109375	5.01393078593537E-05
2	348	100.958252745105	-0.099334716796875	-0.09918212890625	-9.259033203125E-07	9.18330584909199E-08	107119.3203125	5.00430214742664E-05
2	349	101.058960744851	-0.089263916015625	-0.089141845703125	-8.65478515625E-07	7.71503536611817E-08	102997.1796875	4.99528177897446E-05
2	350	101.159668744596	-0.079193115234375	-0.079132080078125	-8.0291748046875E-07	6.35365253742748E-08	98555.6875	4.98688059451524E-05
2	351	101.260376744342	-0.069122314453125	-0.069091796875	-7.3272705078125E-07	5.06254274057483E-08	94294.046875	4.97914807056077E-05
2	352	101.361084744088	-0.059051513671875	-0.058990478515625	-6.5338134765625E-07	3.85432770144689E-08	90284.9140625	4.97216860821936E-05
2	353	101.461792743834	-0.048980712890625	-0.0488250732421875	-5.5816650390625E-07	2.7252520240495E-08	87474.03125	4.96606771775987E-05
2	354	101.562500743579	-0.038909912109375	-0.0387451171875	-4.425048828125E-07	1.71449023866899E-08	87558.625	4.96102911711205E-05
2	355	101.663208743325	-0.028839111328125	-0.0287139892578125	-2.98156738281249E-07	8.56126902704091E-09	96305.0234375	4.95729946123902E-05
2	356	101.763916743071	-0.018768310546875	-0.01864013671875	-1.1932373046875E-07	2.22421059348221E-09	156214.828125	4.95519743708428E-05
2	357	101.864624742817	-0.008697509765625	-0.00861511230468751	9.67407226562494E-08	-8.33432156621683E-10	-89053.625	4.95508356834762E-05
2	358	101.965332742562	0.001373291015625	0.00145568847656249	3.4820556640625E-07	5.06878816697309E-10	4180.54345703125	4.95732419949491E-05
2	359	102.066040742308	0.011444091796875	0.011541748046875	6.243896484375E-07	7.2065482470407E-09	18484.849609375	4.96222164656501E-05
2	360	102.166748742054	0.021514892578125	0.0216461181640625	9.05761718750001E-07	1.96062241997197E-08	23898.248046875	4.96992652188055E-05
2	361	102.267456741799	0.031585693359375	0.031707763671875	1.16943359375E-06	3.70801203075644E-08	27113.78125	4.98037588840816E-05
2	362	102.368164741545	0.041656494140625	0.04173583984375	1.38916015625E-06	5.79777648113122E-08	30043.935546875	4.9932594265556E-05
2	363	102.468872741291	0.051727294921875	0.051788330078125	1.54937744140625E-06	8.02396726840016E-08	33425.25	5.00805617775768E-05
2	364	102.569580741037	0.061798095703125	0.0618896484375	1.6424560546875E-06	1.01651025374849E-07	37681.16015625	5.02412840432953E-05
2	365	102.670288740782	0.071868896484375	0.071990966796875	1.67510986328125E-06	1.20592773100725E-07	42976.86328125	5.04083363921382E-05
2	366	102.770996740528	0.081939697265625	0.08203125	1.6607666015625E-06	1.36234760361731E-07	49393.60546875	5.05763091496192E-05
2	367	102.871704740274	0.092010498046875	0.092071533203125	1.614990234375E-06	1.48694624613199E-07	57010.58203125	5.07412587467115E-05
2	368	102.97241274002	0.102081298828125	0.102142333984375	1.55303955078125E-06	1.58631081603744E-07	65769.3046875	5.09007804794237E-05
2	369	103.073120739765	0.112152099609375	0.112213134765625	1.484375E-06	1.66566366033294E-07	75596.21875	5.10537283844315E-05
2	370	103.173828739511	0.122222900390625	0.122283935546875	1.41632080078125E-06	1.7319327128007E-07	86339.15625	5.11997895955574E-05
2	371	103.274536739257	0.132293701171875	0.132354736328125	1.35162353515625E-06	1.78893770907962E-07	97922.78125	5.13391642016359E-05
2	372	103.375244739003	0.142364501953125	0.142364501953125	1.292724609375E-06	1.84038100314865E-07	110127.4765625	5.14723178639542E-05
2	373	103.475952738748	0.152435302734375	0.1524658203125	1.2408447265625E-06	1.89186394550234E-07	122872.609375	5.15998945047613E-05
2	374	103.576660738494	0.162506103515625	0.162567138671875	1.195068359375E-06	1.94278840126572E-07	136031.671875	5.17225525982212E-05
2	375	103.67736873824	0.172576904296875	0.17266845703125	1.153564453125E-06	1.99184185589729E-07	149682.546875	5.18408160132822E-05
2	376	103.778076737986	0.182647705078125	0.182647705078125	1.1181640625E-06	2.04230090616875E-07	163346.078125	5.19552049809135E-05
2	377	103.878784737731	0.192718505859375	0.1927490234375	1.0870361328125E-06	2.09525154559742E-07	177316.109375	5.20662470080424E-05
2	378	103.979492737477	0.202789306640625	0.20281982421875	1.06048583984375E-06	2.15087553101512E-07	191251.796875	5.21743822901044E-05
2	379	104.080200737223	0.212860107421875	0.212921142578125	1.0369873046875E-06	2.20796522398814E-07	205326.65625	5.22800000908319E-05
2	380	104.180908736968	0.222930908203125	0.22296142578125	1.0162353515625E-06	2.26581263973458E-07	219399.421875	5.23833878105506E-05
2	381	104.281616736714	0.233001708984375	0.23297119140625	9.9853515625E-07	2.32629915331017E-07	233312.96875	5.2484840125544E-05
2	382	104.38232473646	0.243072509765625	0.243072509765625	9.82666015625E-07	2.38859087176024E-07	247360.265625	5.25846007803921E-05
2	383	104.483032736206	0.253143310546875	0.253143310546875	9.686279296875E-07	2.45201675852513E-07	261342.171875	5.2682855312014E-05
2	384	104.583740735951	0.263214111328125	0.2633056640625	9.56115722656251E-07	2.51750691404595E-07	275391	5.27797747054137E-05
2	385	104.684448735697	0.273284912109375	0.27325439453125	9.4482421875E-07	2.58177351497579E-07	289211.90625	5.28754935658071E-05
2	386	104.785156735443	0.283355712890625	0.28338623046875	9.3536376953125E-07	2.6506921813052E-07	302969	5.29701683262829E-05
2	387	104.885864735189	0.293426513671875	0.293426513671875	9.2681884765625E-07	2.71953211949949E-07	316595.34375	5.30639372300357E-05
2	388	104.986572734934	0.303497314453125	0.30352783203125	9.19189453124999E-07	2.78999578995354E-07	330212.5	5.31568912265357E-05
2	389	105.08728073468	0.313568115234375	0.313568115234375	9.1278076171875E-07	2.86218948986061E-07	343530.59375	5.32491394551471E-05
2	390	105.187988734426	0.323638916015625	0.323699951171875	9.0667724609375E-07	2.93491353886566E-07	357017.84375	5.33407546754461E-05
2	391	105.288696734172	0.333709716796875	0.333740234375	9.014892578125E-07	3.00863234770077E-07	370209.90625	5.34318023710512E-05
2	392	105.389404733917	0.343780517578125	0.343780517578125	8.9752197265625E-07	3.08550568206556E-07	383033	5.35223916813266E-05
2	393	105.490112733663	0.353851318359375	0.3538818359375	8.93554687500001E-07	3.16212776851899E-07	396038.25	5.36125808139332E-05
2	394	105.590820733409	0.363922119140625	0.363922119140625	8.89892578125E-07	3.2385156600867E-07	408950.625	5.37023843207862E-05
2	395	105.691528733155	0.373992919921875	0.373992919921875	8.8775634765625E-07	3.32014565174177E-07	421278.8125	5.37918931513559E-05
2	396	105.7922367329	0.384063720703125	0.384063720703125	8.85620117187499E-07	3.40134533871606E-07	433666.46875	5.38811909791548E-05
2	397	105.892944732646	0.394134521484375	0.394134521484375	8.84399414062501E-07	3.48572342545594E-07	445652.1875	5.39703178219497E-05
2	398	105.993652732392	0.404205322265625	0.40423583984375	8.8348388671875E-07	3.57135860440394E-07	457547.5	5.40593391633593E-05
2	399	106.094360732137	0.414276123046875	0.414276123046875	8.82873535156251E-07	3.65753408004821E-07	469236.09375	5.4148280469235E-05
2	400	106.195068731883	0.424346923828125	0.42437744140625	8.82568359375E-07	3.74542082681728E-07	480843.71875	5.42371781193651E-05
2	401	106.295776731629	0.434417724609375	0.434417724609375	8.82873535156251E-07	3.83535905257304E-07	492049.78125	5.43260757694952E-05
2	402	106.396484731375	0.444488525390625	0.444549560546875	8.831787109375E-07	3.92616698263737E-07	503351.78125	5.44150025234558E-05
2	403	106.49719273112	0.454559326171875	0.454559326171875	8.837890625E-07	4.01734553179267E-07	514330.125	5.45039765711408E-05
2	404	106.597900730866	0.464630126953125	0.464569091796875	8.8531494140625E-07	4.11289960311478E-07	524750.0625	5.45930597581901E-05
2	405	106.698608730612	0.474700927734375	0.474700927734375	8.8653564453125E-07	4.20839285197872E-07	535456.125	5.46822775504552E-05
2	406	106.799316730358	0.484771728515625	0.48468017578125	8.880615234375E-07	4.30425814101909E-07	545773.1875	5.47716372238938E-05
2	407	106.900024730103	0.494842529296875	0.494842529296875	8.90502929687501E-07	4.40658709521813E-07	555688.8125	5.4861193348188E-05
2	408	107.000732729849	0.504913330078125	0.504852294921875	8.9263916015625E-07	4.5065092990626E-07	565572.625	5.49509823031258E-05
2	409	107.101440729595	0.514984130859375	0.51495361328125	8.9599609375E-07	4.61396439277451E-07	574727.5	5.5041047744453E-05
2	410	107.202148729341	0.525054931640625	0.525054931640625	8.99658203125001E-07	4.72369976023401E-07	583616	5.51314660697244E-05
2	411	107.302856729086	0.535125732421875	0.53515625	9.04235839843751E-07	4.8390745632787E-07	591832.625	5.52222991245799E-05
2	412	107.403564728832	0.545196533203125	0.545166015625	9.1064453125E-07	4.96452457809937E-07	598659.5	5.5313685152214E-05
2	413	107.504272728578	0.555267333984375	0.55523681640625	9.1888427734375E-07	5.10198390202277E-07	604251.0625	5.5405809689546E-05
2	414	107.604980728324	0.565338134765625	0.56536865234375	9.295654296875E-07	5.25547136476234E-07	608207.5	5.54988873773254E-05
2	415	107.705688728069	0.575408935546875	0.575408935546875	9.43908691406251E-07	5.43133467090229E-07	609602.3125	5.55932238057721E-05
2	416	107.806396727815	0.585479736328125	0.58544921875	9.63439941406249E-07	5.64045137707581E-07	607665.5	5.56892664462794E-05
2	417	107.907104727561	0.595550537109375	0.595550537109375	9.9090576171875E-07	5.90134447975288E-07	601016.3125	5.578767741099E-05
2	418	108.007812727306	0.605621337890625	0.605560302734375	1.02813720703125E-06	6.22599031885329E-07	588987.875	5.5889344366733E-05
2	419	108.108520727052	0.615692138671875	0.61566162109375	1.08154296875E-06	6.65864433813113E-07	569243.8125	5.59955733479001E-05
2	420	108.209228726798	0.625762939453125	0.625701904296875	1.156005859375E-06	7.23315054074192E-07	541261.875	5.61082415515557E-05
2	421	108.309936726544	0.635833740234375	0.63580322265625	1.2567138671875E-06	7.99022700448404E-07	505925.21875	5.62297318538185E-05
2	422	108.410644726289	0.645904541015625	0.6458740234375	1.38671875E-06	8.95645598575356E-07	465757.03125	5.63628418603912E-05
2	423	108.511352726035	0.655975341796875	0.65594482421875	1.5472412109375E-06	1.0149047966479E-06	423944.78125	5.65105765417684E-05
2	424	108.612060725781	0.666046142578125	0.665985107421875	1.73126220703125E-06	1.15299485514697E-06	384681.84375	5.66756643820554E-05
2	425	108.712768725527	0.676116943359375	0.67608642578125	1.9281005859375E-06	1.30356261252018E-06	350648.9375	5.68599280086346E-05
2	426	108.813476725272	0.686187744140625	0.68609619140625	2.120361328125E-06	1.45477190471865E-06	323575.125	5.706378215109E-05
2	427	108.914184725018	0.696258544921875	0.6961669921875	2.29034423828125E-06	1.59446199177182E-06	303957.375	5.72858807572629E-05
2	428	109.014892724764	0.706329345703125	0.706268310546875	2.4237060546875E-06	1.71178680830053E-06	291400.15625	5.75232515984681E-05
2	429	109.11560072451	0.716400146484375	0.71636962890625	2.51312255859375E-06	1.80032463958923E-06	285051.59375	5.77718383283354E-05
2	430	109.216308724255	0.726470947265625	0.72637939453125	2.56317138671875E-06	1.86183490313852E-06	283390.875	5.80274499952793E-05
2	431	109.317016724001	0.736541748046875	0.7364501953125	2.58270263671875E-06	1.90203184047277E-06	285147.125	5.82865650358144E-05
2	432	109.417724723747	0.746612548828125	0.746490478515625	2.5885009765625E-06	1.93229129763495E-06	288387.1875	5.85469570069108E-05
2	433	109.518432723493	0.756683349609375	0.7568359375	2.59429931640625E-06	1.96345899894368E-06	291730.375	5.88079310546163E-05
2	434	109.619140723238	0.766754150390625	0.76690673828125	2.61627197265625E-06	2.00643671632861E-06	293129.59375	5.90703057241626E-05
2	435	109.719848722984	0.776824951171875	0.7769775390625	2.6678466796875E-06	2.07285688702541E-06	291237.71875	5.93363802181557E-05
2	436	109.82055672273	0.786895751953125	0.787353515625	2.762451171875E-06	2.17502542909642E-06	285019.90625	5.96098179812543E-05
2	437	109.921264722475	0.796966552734375	0.797119140625	2.9119873046875E-06	2.32120078180742E-06	273737.1875	5.98955484747421E-05
2	438	110.021972722221	0.807037353515625	0.80718994140625	3.12530517578125E-06	2.52271479439514E-06	258275.5625	6.01995525357779E-05
2	439	110.122680721967	0.817108154296875	0.8172607421875	3.404541015625E-06	2.78239758699783E-06	240050.203125	6.05283566983417E-05
2	440	110.223388721713	0.827178955078125	0.82733154296875	3.74420166015625E-06	3.09769620798761E-06	220963.40625	6.0888323787367E-05
2	441	110.324096721458	0.837249755859375	0.83740234375	4.12567138671875E-06	3.4548468192952E-06	202973.59375	6.12846051808447E-05
2	442	110.424804721204	0.847320556640625	0.84747314453125	4.525146484375E-06	3.83493988920236E-06	187280.828125	6.17202094872482E-05
2	443	110.52551272095	0.857391357421875	0.85723876953125	4.9102783203125E-06	4.20928108724183E-06	174580.484375	6.21953149675392E-05
2	444	110.626220720696	0.867462158203125	0.8673095703125	5.2459716796875E-06	4.54988094134023E-06	165328.6875	6.27067274763249E-05
2	445	110.726928720441	0.877532958984375	0.87799072265625	5.499267578125E-06	4.82830591863603E-06	159655.9375	6.32477895123884E-05
2	446	110.827636720187	0.887603759765625	0.88775634765625	5.6549072265625E-06	5.02017974213231E-06	156988.671875	6.38094497844577E-05
2	447	110.928344719933	0.897674560546875	0.89813232421875	5.706787109375E-06	5.12544966113637E-06	157379.6875	6.43815583316609E-05
2	448	111.029052719679	0.907745361328125	0.90789794921875	5.67626953125E-06	5.1534730118874E-06	159946.25	6.49547364446335E-05
2	449	111.129760719424	0.917816162109375	0.91796875	5.5877685546875E-06	5.12939686814207E-06	164281.8125	6.55219264444895E-05
2	450	111.23046871917	0.927886962890625	0.92864990234375	5.4718017578125E-06	5.08138782606693E-06	169715.5625	6.60788209643215E-05
2	451	111.331176718916	0.937957763671875	0.9381103515625	5.3558349609375E-06	5.02436387250782E-06	175156.703125	6.66240375721827E-05
2	452	111.431884718662	0.948028564453125	0.94818115234375	5.2490234375E-06	4.97702467328054E-06	180639.546875	6.71580346534029E-05
2	453	111.532592718407	0.958099365234375	0.9576416015625	5.17578125E-06	4.95654330734396E-06	185023.59375	6.76829658914357E-05
2	454	111.633300718153	0.968170166015625	0.96832275390625	5.13916015625E-06	4.97636528962175E-06	188420.4375	6.82023601257242E-05
2	455	111.734008717899	0.978240966796875	0.97869873046875	5.1513671875E-06	5.04163654113654E-06	189988.15625	6.87205319991335E-05
2	456	111.834716717644	0.988311767578125	0.98785400390625	5.21240234375E-06	5.14909243065631E-06	189519.90625	6.92423855070956E-05
2	457	111.93542471739	0.998382568359375	0.99822998046875	5.316162109375E-06	5.30675242771395E-06	187772.671875	6.97725408826955E-05
2	458	112.036132717136	1.00845336914063	1.00860595703125	5.4443359375E-06	5.49118931303383E-06	185257.859375	7.03143741702661E-05
2	459	112.136840716882	1.01852416992188	1.0186767578125	5.5816650390625E-06	5.68591212868341E-06	182504.109375	7.08695806679316E-05
2	460	112.237548716627	1.02859497070313	1.02874755859375	5.7037353515625E-06	5.86770329391584E-06	180363.84375	7.14378475095145E-05
2	461	112.338256716373	1.03866577148438	1.0382080078125	5.7861328125E-06	6.00720932197873E-06	179430.390625	7.20164025551639E-05
2	462	112.438964716119	1.04873657226563	1.04949951171875	5.816650390625E-06	6.10457163929823E-06	180430.234375	7.26006546756253E-05
2	463	112.539672715865	1.05880737304688	1.05865478515625	5.79833984375E-06	6.13844031249755E-06	182578.953125	7.31855107005686E-05
2	464	112.64038071561	1.06887817382813	1.0693359375	5.7373046875E-06	6.1351056501735E-06	186382.984375	7.37663795007393E-05
2	465	112.741088715356	1.07894897460938	1.07879638671875	5.645751953125E-06	6.09061680734158E-06	191081.078125	7.43395648896694E-05
2	466	112.841796715102	1.08901977539063	1.08917236328125	5.5389404296875E-06	6.03286071054754E-06	196639.109375	7.49027531128377E-05
2	467	112.942504714848	1.09909057617188	1.09893798828125	5.426025390625E-06	5.96286554355174E-06	202530.9375	7.545488915639E-05
2	468	113.043212714593	1.10916137695313	1.10931396484375	5.316162109375E-06	5.89729279454332E-06	208668.203125	7.59957983973436E-05
2	469	113.143920714339	1.11923217773438	1.11968994140625	5.2093505859375E-06	5.83285736865946E-06	214938.484375	7.65258009778336E-05
2	470	113.244628714085	1.12930297851563	1.12945556640625	5.108642578125E-06	5.7699849094206E-06	221087.21875	7.70453552831896E-05
2	471	113.345336713831	1.13937377929688	1.13922119140625	5.0201416015625E-06	5.71905184187926E-06	226930.09375	7.7555378084071E-05
2	472	113.446044713576	1.14944458007813	1.14990234375	4.93743896484375E-06	5.67757251701551E-06	232894.5	7.80567788751796E-05
2	473	113.546752713322	1.15951538085938	1.15997314453125	4.86419677734375E-06	5.64233778277412E-06	238471.671875	7.85503289080225E-05
2	474	113.647460713068	1.16958618164063	1.1700439453125	4.798583984375E-06	5.61455408387701E-06	243831.078125	7.90368940215558E-05
2	475	113.748168712813	1.17965698242188	1.17950439453125	4.74029541015625E-06	5.59119916943018E-06	248825.078125	7.95172163634561E-05
2	476	113.848876712559	1.18972778320313	1.1895751953125	4.68780517578125E-06	5.57649627808132E-06	253759.53125	7.99919580458663E-05
2	477	113.949584712305	1.19979858398438	1.199951171875	4.64141845703125E-06	5.56947543373099E-06	258531.140625	8.04617156973109E-05
2	478	114.050292712051	1.20986938476563	1.21002197265625	4.600830078125E-06	5.56710529053817E-06	263000.8125	8.09271004982293E-05
2	479	114.151000711796	1.21994018554688	1.21978759765625	4.56512451171875E-06	5.56848226551665E-06	267197	8.13886435935274E-05
2	480	114.251708711542	1.23001098632813	1.2298583984375	4.53460693359375E-06	5.57692419533851E-06	271216.09375	8.18468543002382E-05
2	481	114.352416711288	1.24008178710938	1.23992919921875	4.5074462890625E-06	5.58891406399198E-06	275084.625	8.23021546239033E-05
2	482	114.453124711034	1.25015258789063	1.25030517578125	4.4854736328125E-06	5.60821081307949E-06	278745.40625	8.27549883979373E-05
2	483	114.553832710779	1.26022338867188	1.26068115234375	4.46746826171875E-06	5.63205276193912E-06	282191.4375	8.32057994557545E-05
2	484	114.654540710525	1.27029418945313	1.270751953125	4.4537353515625E-06	5.65959271625616E-06	285322.75	8.36550243548118E-05
2	485	114.755248710271	1.28036499023438	1.2811279296875	4.443359375E-06	5.69251142223948E-06	288324.1875	8.41030268929899E-05
2	486	114.855956710017	1.29043579101563	1.29058837890625	4.43603515625E-06	5.72509497942519E-06	290932.875	8.45501417643391E-05
2	487	114.956664709762	1.30050659179688	1.30035400390625	4.43115234375E-06	5.76206684854697E-06	293457.3125	8.4996638179291E-05
2	488	115.057372709508	1.31057739257813	1.31011962890625	4.42840576171875E-06	5.80174128117505E-06	295844.53125	8.54427489684895E-05
2	489	115.158080709254	1.32064819335938	1.32049560546875	4.427490234375E-06	5.84648159929202E-06	298249.25	8.58886778587475E-05
2	490	115.258788709	1.33071899414063	1.33026123046875	4.427490234375E-06	5.88971852266695E-06	300454.90625	8.63345630932599E-05
2	491	115.359496708745	1.34078979492188	1.3409423828125	4.4281005859375E-06	5.93782760915929E-06	302825.65625	8.67804774316028E-05
2	492	115.460204708491	1.35086059570313	1.35101318359375	4.42962646484375E-06	5.98448332311818E-06	304994.84375	8.72265009093098E-05
2	493	115.560912708237	1.36093139648438	1.36077880859375	4.4329833984375E-06	6.03230955675826E-06	306966.84375	8.76727717695758E-05
2	494	115.661620707982	1.37100219726563	1.370849609375	4.437255859375E-06	6.08281061431626E-06	308940.84375	8.81194209796377E-05
2	495	115.762328707728	1.38107299804688	1.38153076171875	4.443359375E-06	6.13863721810048E-06	310920.34375	8.85665940586478E-05
2	496	115.863036707474	1.39114379882813	1.390380859375	4.45220947265625E-06	6.19026650383603E-06	312290.09375	8.90145238372497E-05
2	497	115.96374470722	1.40121459960938	1.40106201171875	4.46380615234375E-06	6.25406892140745E-06	313871.625	8.94634795258753E-05
2	498	116.064452706965	1.41128540039063	1.41082763671875	4.47845458984375E-06	6.31832745057181E-06	315025.5625	8.99137594387867E-05
2	499	116.165160706711	1.42135620117188	1.4208984375	4.49615478515625E-06	6.38857954982086E-06	316025.25	9.03656691662036E-05
2	500	116.265868706457	1.43142700195313	1.43096923828125	4.51629638671875E-06	6.46268154014251E-06	316845.71875	9.08194779185578E-05
2	501	116.366576706203	1.44149780273438	1.44134521484375	4.5416259765625E-06	6.54605082672788E-06	317363.25	9.12755785975605E-05
2	502	116.467284705948	1.45156860351563	1.451416015625	4.57122802734375E-06	6.63475293549709E-06	317511.21875	9.17344514164142E-05
2	503	116.567992705694	1.46163940429688	1.4617919921875	4.60662841796875E-06	6.73393242323073E-06	317323.625	9.21965911402367E-05
2	504	116.66870070544	1.47171020507813	1.47186279296875	4.6484375E-06	6.84186215949012E-06	316636.03125	9.26626235013828E-05
2	505	116.769408705186	1.48178100585938	1.48162841796875	4.6978759765625E-06	6.96050619808375E-06	315382.625	9.31332469917834E-05
2	506	116.870116704931	1.49185180664063	1.49139404296875	4.75616455078125E-06	7.09331516191014E-06	313570.75	9.36092910706066E-05
2	507	116.970824704677	1.50192260742188	1.50177001953125	4.82513427734375E-06	7.2462416937924E-06	311239.03125	9.40917525440454E-05
2	508	117.071532704423	1.49185180664063	1.49169921875	4.59991455078125E-06	6.86168868924142E-06	324288.46875	9.45663414313458E-05
2	509	117.172240704169	1.48178100585938	1.48162841796875	4.4329833984375E-06	6.56803376841708E-06	334228.3125	9.50211833696812E-05
2	510	117.272948703914	1.47171020507813	1.47186279296875	4.300537109375E-06	6.32980027148733E-06	342250.9375	9.54609495238401E-05
2	511	117.37365670366	1.46163940429688	1.4617919921875	4.190673828125E-06	6.12589337833924E-06	348820.28125	9.588851389708E-05
2	512	117.474364703406	1.45156860351563	1.4520263671875	4.09820556640625E-06	5.95070241615758E-06	354307.84375	9.630589192966E-05
2	513	117.575072703151	1.44149780273438	1.44134521484375	4.0179443359375E-06	5.79124480282189E-06	358727.03125	9.67145751928911E-05
2	514	117.675780702897	1.43142700195313	1.43157958984375	3.948974609375E-06	5.65327127333148E-06	362519.3125	9.71157423919067E-05
2	515	117.776488702643	1.42135620117188	1.4208984375	3.88763427734375E-06	5.52393339603441E-06	365491.8125	9.75103466771543E-05
2	516	117.877196702389	1.41128540039063	1.41143798828125	3.83331298828125E-06	5.4104834816826E-06	368203.1875	9.78991301963106E-05
2	517	117.977904702134	1.40121459960938	1.4007568359375	3.785400390625E-06	5.30242550667026E-06	370041.90625	9.8282762337476E-05
2	518	118.07861270188	1.39114379882813	1.3909912109375	3.74114990234375E-06	5.20390676683746E-06	371808.46875	9.86617524176836E-05
2	519	118.179320701626	1.38107299804688	1.3812255859375	3.7017822265625E-06	5.11299640493235E-06	373124.5	9.90365297184326E-05
2	520	118.280028701372	1.37100219726563	1.37115478515625	3.66485595703125E-06	5.02508464705897E-06	374136.0625	9.94074725895189E-05
2	521	118.380736701117	1.36093139648438	1.361083984375	3.6309814453125E-06	4.94207051815465E-06	374852.9375	9.97748502413742E-05
2	522	118.481444700863	1.35086059570313	1.35040283203125	3.59954833984375E-06	4.86084036310785E-06	375158.96875	0.00010013893188443
2	523	118.582152700609	1.34078979492188	1.34063720703125	3.5699462890625E-06	4.78600259157247E-06	375534.3125	0.000100499943073373
2	524	118.682860700355	1.33071899414063	1.3299560546875	3.5418701171875E-06	4.7105313569773E-06	375495.4375	0.000100858051155228
2	525	118.7835687001	1.32064819335938	1.3201904296875	3.51531982421875E-06	4.64089134766255E-06	375553.4375	0.000101213408925105
2	526	118.884276699846	1.31057739257813	1.31103515625	3.489990234375E-06	4.57549958809977E-06	375655.84375	0.000101566154626198
2	527	118.984984699592	1.30050659179688	1.3006591796875	3.465576171875E-06	4.50753350378363E-06	375308.21875	0.000101916397397872
2	528	119.085692699338	1.29043579101563	1.2908935546875	3.44207763671875E-06	4.44335546490038E-06	375033.25	0.000102264224551618
2	529	119.186400699083	1.28036499023438	1.28082275390625	3.41949462890625E-06	4.37976632383652E-06	374564.9375	0.000102609730674885
2	530	119.287108698829	1.27029418945313	1.27044677734375	3.39691162109375E-06	4.31559556091088E-06	374000.53125	0.000102952966699377
2	531	119.387816698575	1.26022338867188	1.2603759765625	3.37646484375E-06	4.2556148400763E-06	373282.71875	0.000103294034488499
2	532	119.48852469832	1.25015258789063	1.25091552734375	3.3563232421875E-06	4.19847674493212E-06	372704.15625	0.000103633057733532
2	533	119.589232698066	1.24008178710938	1.23992919921875	3.33709716796875E-06	4.13776388086262E-06	371559.21875	0.000103970094642136
2	534	119.689940697812	1.23001098632813	1.2298583984375	3.31817626953125E-06	4.08088681069785E-06	370642.90625	0.000104305217973888
2	535	119.790648697558	1.21994018554688	1.2200927734375	3.29986572265625E-06	4.02614250560873E-06	369740.125	0.000104638464108575
2	536	119.891356697303	1.20986938476563	1.21002197265625	3.28155517578125E-06	3.97075382352341E-06	368734.3125	0.000104969862150028
2	537	119.992064697049	1.19979858398438	1.1993408203125	3.26385498046875E-06	3.9144742913777E-06	367461.4375	0.000105299448478036
2	538	120.092772696795	1.18972778320313	1.1895751953125	3.245849609375E-06	3.86118199457997E-06	366491.1875	0.000105627237644512
2	539	120.193480696541	1.17965698242188	1.1798095703125	3.22784423828125E-06	3.80824144485814E-06	365510.0625	0.000105953215097543
2	540	120.294188696286	1.16958618164063	1.16973876953125	3.2098388671875E-06	3.75467288904474E-06	364422.90625	0.000106277380837128
2	541	120.394896696032	1.15951538085938	1.15936279296875	3.189697265625E-06	3.69801637134515E-06	363471.09375	0.000106599618447945
2	542	120.495604695778	1.14944458007813	1.14959716796875	3.1683349609375E-06	3.64230868399318E-06	362839.53125	0.000106919775134884
2	543	120.596312695524	1.13937377929688	1.13983154296875	3.14453125E-06	3.58423562829557E-06	362480.59375	0.00010723765444709
2	544	120.697020695269	1.12930297851563	1.129150390625	3.1158447265625E-06	3.51825724465016E-06	362389.8125	0.000107552885310724
2	545	120.797728695015	1.11923217773438	1.119384765625	3.08135986328125E-06	3.44922727890662E-06	363276.21875	0.000107864943856839
2	546	120.898436694761	1.10916137695313	1.1090087890625	3.03863525390625E-06	3.3698731840559E-06	364969.375	0.00010817310976563
2	547	120.999144694507	1.09909057617188	1.0992431640625	2.98431396484375E-06	3.28048668052361E-06	368340.34375	0.000108476386230905
2	548	121.099852694252	1.08901977539063	1.08917236328125	2.913818359375E-06	3.17365015689575E-06	373795.59375	0.000108773383544758
2	549	121.200560693998	1.07894897460938	1.07879638671875	2.8204345703125E-06	3.04267450701445E-06	382492.96875	0.000109062122646719
2	550	121.301268693744	1.06887817382813	1.06903076171875	2.7001953125E-06	2.88659180114337E-06	395908.6875	0.000109340107883327
2	551	121.401976693489	1.05880737304688	1.0589599609375	2.54730224609375E-06	2.69749079961912E-06	415718.25	0.000109604341560043
2	552	121.502684693235	1.04873657226563	1.04888916015625	2.3590087890625E-06	2.47433877120784E-06	444631.3125	0.000109851396700833
2	553	121.603392692981	1.03866577148438	1.0382080078125	2.14111328125E-06	2.22292101170751E-06	484891.65625	0.000110077991848812
2	554	121.704100692727	1.02859497070313	1.02874755859375	1.90155029296875E-06	1.95621510101773E-06	541004.6875	0.000110281558590941
2	555	121.804808692472	1.01852416992188	1.01837158203125	1.65924072265625E-06	1.68972349001706E-06	613757.625	0.000110460860014427
2	556	121.905516692218	1.00845336914063	1.0089111328125	1.434326171875E-06	1.44710759286681E-06	703404.25	0.00011061663099099
2	557	122.006224691964	0.998382568359375	0.99853515625	1.248779296875E-06	1.24695009162679E-06	799609	0.000110751738247927
2	558	122.10693269171	0.988311767578125	0.98876953125	1.11602783203125E-06	1.10349424176093E-06	885972.1875	0.000110870816570241
2	559	122.207640691455	0.978240966796875	0.97900390625	1.03973388671875E-06	1.01790351436648E-06	941590.8125	0.000110979366581887
2	560	122.308348691201	0.968170166015625	0.968017578125	1.0113525390625E-06	9.7900704076892E-07	957151.5	0.00011108264880022
2	561	122.409056690947	0.958099365234375	0.958251953125	1.0125732421875E-06	9.70300220615172E-07	946353.25	0.000111184555862565
2	562	122.509764690693	0.948028564453125	0.948486328125	1.02264404296875E-06	9.69963934949192E-07	927484.375	0.00011128703772556
2	563	122.610472690438	0.937957763671875	0.93841552734375	1.02203369140625E-06	9.59092290031549E-07	918184.5625	0.000111389999801759
2	564	122.711180690184	0.927886962890625	0.92742919921875	9.9517822265625E-07	9.22957326565665E-07	931922.75	0.000111491572170053
2	565	122.81188868993	0.917816162109375	0.91766357421875	9.320068359375E-07	8.55268694976985E-07	984610.375	0.000111588611616753
2	566	122.912596689676	0.907745361328125	0.90789794921875	8.2000732421875E-07	7.44482974823768E-07	1107182.75	0.000111676832602825
2	567	123.013304689421	0.897674560546875	0.897216796875	6.49414062500001E-07	5.82665222736978E-07	1381579	0.000111750821815804
2	568	123.114012689167	0.887603759765625	0.8880615234375	4.17480468750001E-07	3.70748324485248E-07	2127193	0.000111804547486827
2	569	123.214720688913	0.877532958984375	0.87738037109375	1.2542724609375E-07	1.10047409407343E-07	6995133.5	0.000111831883259583
2	570	123.315428688658	0.867462158203125	0.86761474609375	-2.1331787109375E-07	-1.85077723813265E-07	-4067239	0.000111827459477354
2	571	123.416136688404	0.857391357421875	0.85784912109375	-5.77392578124999E-07	-4.95315703119559E-07	-1485729.5	0.000111787645437289
2	572	123.51684468815	0.847320556640625	0.8477783203125	-9.33837890625E-07	-7.91687455148349E-07	-907843.1875	0.000111711546196602
2	573	123.617552687896	0.837249755859375	0.8367919921875	-1.25244140625E-06	-1.0480329137863E-06	-668128.6875	0.0001116014609579
2	574	123.718260687641	0.827178955078125	0.82763671875	-1.50390625E-06	-1.24468806461664E-06	-550324.6875	0.000111462664790452
2	575	123.818968687387	0.817108154296875	0.81695556640625	-1.6729736328125E-06	-1.36674509576551E-06	-488325.4375	0.000111302695586346
2	576	123.919676687133	0.807037353515625	0.806884765625	-1.754150390625E-06	-1.41539726428164E-06	-459986.09375	0.000111130131699611
2	577	124.020384686879	0.796966552734375	0.79681396484375	-1.7620849609375E-06	-1.40405393267429E-06	-452199.53125	0.000110953071271069
2	578	124.121092686624	0.786895751953125	0.78704833984375	-1.71600341796875E-06	-1.35057757688628E-06	-458652	0.000110777938971296
2	579	124.22180068637	0.776824951171875	0.77667236328125	-1.63970947265625E-06	-1.27351700029976E-06	-473664.625	0.000110608962131664
2	580	124.322508686116	0.766754150390625	0.7672119140625	-1.553955078125E-06	-1.19221283512161E-06	-493715.65625	0.000110448148916475
2	581	124.423216685862	0.756683349609375	0.75714111328125	-1.474609375E-06	-1.11648739675729E-06	-513452	0.00011029565212084
2	582	124.523924685607	0.746612548828125	0.746490478515625	-1.41326904296875E-06	-1.05499191249692E-06	-528201.25	0.000110150234831963
2	583	124.624632685353	0.736541748046875	0.73651123046875	-1.37847900390625E-06	-1.01526518392347E-06	-534292.6875	0.000110009656054899
2	584	124.725340685099	0.726470947265625	0.7264404296875	-1.376953125E-06	-1.00027432381466E-06	-527570.9375	0.000109870910819154
2	585	124.826048684845	0.716400146484375	0.71636962890625	-1.40899658203125E-06	-1.00936233593529E-06	-508425.375	0.000109730623080395
2	586	124.92675668459	0.706329345703125	0.706298828125	-1.47430419921875E-06	-1.04129935607489E-06	-479072.65625	0.000109585438622162
2	587	125.027464684336	0.696258544921875	0.69622802734375	-1.56494140625E-06	-1.08955600808258E-06	-444890.8125	0.000109432403405663
2	588	125.128172684082	0.686187744140625	0.6861572265625	-1.66748046875E-06	-1.14415377083787E-06	-411493.40625	0.000109269640233833
2	589	125.228880683827	0.676116943359375	0.676025390625	-1.76666259765625E-06	-1.19430876566184E-06	-382656.78125	0.000109096712549217
2	590	125.329588683573	0.666046142578125	0.66595458984375	-1.84417724609375E-06	-1.22813821690215E-06	-361112.03125	0.000108914893644396
2	591	125.430296683319	0.655975341796875	0.655914306640625	-1.88873291015625E-06	-1.23884694858134E-06	-347277.4375	0.000108726926555391
2	592	125.531004683065	0.645904541015625	0.645843505859375	-1.8951416015625E-06	-1.22396488677623E-06	-340789.0625	0.000108536391053349
2	593	125.63171268281	0.635833740234375	0.635833740234375	-1.86798095703125E-06	-1.18772527457622E-06	-340385.5625	0.000108346903289203
2	594	125.732420682556	0.625762939453125	0.625732421875	-1.81365966796875E-06	-1.13486566988286E-06	-345010.9375	0.000108161519165151
2	595	125.833128682302	0.615692138671875	0.615692138671875	-1.7431640625E-06	-1.0732524060586E-06	-353203.78125	0.000107982421468478
2	596	125.933836682048	0.605621337890625	0.6055908203125	-1.66229248046875E-06	-1.00666909474967E-06	-364310.625	0.000107810941699427
2	597	126.034544681793	0.595550537109375	0.59552001953125	-1.57989501953125E-06	-9.40859081310919E-07	-376936.46875	0.00010764768376248
2	598	126.135252681539	0.585479736328125	0.58544921875	-1.4996337890625E-06	-8.77959394074423E-07	-390394.8125	0.000107492618553806
2	599	126.235960681285	0.575408935546875	0.575408935546875	-1.42364501953125E-06	-8.19178069377813E-07	-404180.0625	0.000107345418655314
2	600	126.336668681031	0.565338134765625	0.565338134765625	-1.35223388671875E-06	-7.64469405112322E-07	-418077.1875	0.000107205640233587
2	601	126.437376680776	0.555267333984375	0.555267333984375	-1.28662109375E-06	-7.14418661118543E-07	-431570.1875	0.000107072766695637
2	602	126.538084680522	0.545196533203125	0.545166015625	-1.2261962890625E-06	-6.68480481635925E-07	-444599.34375	0.000106946237792727
2	603	126.638792680268	0.535125732421875	0.53515625	-1.1712646484375E-06	-6.26809594450606E-07	-456904.625	0.000106825515103992
2	604	126.739500680014	0.525054931640625	0.5250244140625	-1.12091064453125E-06	-5.88505429277575E-07	-468390.96875	0.000106710096588358
2	605	126.840208679759	0.514984130859375	0.515045166015625	-1.0748291015625E-06	-5.5358555073326E-07	-479187.9375	0.000106599531136453
2	606	126.940916679505	0.504913330078125	0.50494384765625	-1.0333251953125E-06	-5.21771141848149E-07	-488659.21875	0.000106493374914862
2	607	127.041624679251	0.494842529296875	0.49481201171875	-9.94873046875E-07	-4.92275148644694E-07	-497361.96875	0.00010639124957379
2	608	127.142332678996	0.484771728515625	0.484771728515625	-9.5947265625E-07	-4.65125225446172E-07	-505248.0625	0.0001062928349711
2	609	127.243040678742	0.474700927734375	0.474700927734375	-9.27124023437501E-07	-4.40106617816127E-07	-512014.5	0.000106197840068489
2	610	127.343748678488	0.464630126953125	0.464630126953125	-8.97216796875E-07	-4.1687394514156E-07	-517857.15625	0.000106105973827653
2	611	127.444456678234	0.454559326171875	0.454559326171875	-8.6944580078125E-07	-3.95214698301061E-07	-522815.03125	0.000106017017969862
2	612	127.545164677979	0.444488525390625	0.44451904296875	-8.44421386718749E-07	-3.75361395299478E-07	-526418.5	0.0001059307178366
2	613	127.645872677725	0.434417724609375	0.434417724609375	-8.2000732421875E-07	-3.56225712039304E-07	-529773	0.000105846906080842
2	614	127.746580677471	0.424346923828125	0.424407958984375	-7.9833984375E-07	-3.38821791956434E-07	-531613.125	0.000105765415355563
2	615	127.847288677217	0.414276123046875	0.414276123046875	-7.7789306640625E-07	-3.22262508234417E-07	-532561.8125	0.000105686049209908
2	616	127.947996676962	0.404205322265625	0.404205322265625	-7.59277343750001E-07	-3.06903928048996E-07	-532355.3125	0.000105608647572808
2	617	128.048704676708	0.394134521484375	0.3941650390625	-7.4188232421875E-07	-2.92424090275745E-07	-531304	0.000105533057649154
2	618	128.149412676454	0.384063720703125	0.384063720703125	-7.25708007812501E-07	-2.78718118806864E-07	-529226.25	0.000105459155747667
2	619	128.2501206762	0.373992919921875	0.373992919921875	-7.10144042968749E-07	-2.65588852244036E-07	-526643.75	0.000105386854556855
2	620	128.350828675945	0.363922119140625	0.363922119140625	-6.96411132812499E-07	-2.53439424113822E-07	-522567.9375	0.000105316030385438
2	621	128.451536675691	0.353851318359375	0.3538818359375	-6.8328857421875E-07	-2.41803405742758E-07	-517909.8125	0.000105246559542138
2	622	128.552244675437	0.343780517578125	0.343780517578125	-6.7108154296875E-07	-2.30704756631894E-07	-512278.3125	0.00010517836199142
2	623	128.652952675183	0.333709716796875	0.333709716796875	-6.60400390625E-07	-2.20382020188481E-07	-505314.25	0.000105111314042006
2	624	128.753660674928	0.323638916015625	0.32366943359375	-6.500244140625E-07	-2.10393025668054E-07	-497934.28125	0.000105045328382403
2	625	128.854368674674	0.313568115234375	0.3135986328125	-6.4056396484375E-07	-2.00879981093749E-07	-489566.46875	0.000104980339528993
2	626	128.95507667442	0.303497314453125	0.30352783203125	-6.32629394531251E-07	-1.92020621625488E-07	-479787.75	0.000104916231066454
2	627	129.055784674165	0.293426513671875	0.29339599609375	-6.243896484375E-07	-1.83193421321448E-07	-469892.46875	0.000104852937511168
2	628	129.156492673911	0.283355712890625	0.283355712890625	-6.170654296875E-07	-1.74849020595502E-07	-459198.8125	0.000104790422483347
2	629	129.257200673657	0.273284912109375	0.27325439453125	-6.10961914062499E-07	-1.66948012747525E-07	-447252.78125	0.000104728584119584
2	630	129.357908673403	0.263214111328125	0.263275146484375	-6.0546875E-07	-1.59404876853841E-07	-434828.625	0.000104667335108388
2	631	129.458616673148	0.253143310546875	0.253204345703125	-6.0089111328125E-07	-1.52148231791216E-07	-421381.4375	0.000104606588138267
2	632	129.559324672894	0.243072509765625	0.243072509765625	-5.97534179687501E-07	-1.45244129612365E-07	-406792.65625	0.000104546248621773
2	633	129.66003267264	0.233001708984375	0.2330322265625	-5.9417724609375E-07	-1.38462439736031E-07	-392193.15625	0.000104486236523371
2	634	129.760740672386	0.222930908203125	0.22296142578125	-5.92041015625E-07	-1.32002298869338E-07	-376597.96875	0.000104426508187316
2	635	129.861448672131	0.212860107421875	0.212921142578125	-5.9112548828125E-07	-1.25863110156388E-07	-360196.1875	0.000104366932646371
2	636	129.962156671877	0.202789306640625	0.20281982421875	-5.92041015625E-07	-1.20077643828154E-07	-342577.34375	0.000104307349829469
2	637	130.062864671623	0.192718505859375	0.192779541015625	-5.92956542968751E-07	-1.14309891330322E-07	-325115.78125	0.000104247679701075
2	638	130.163572671369	0.182647705078125	0.182708740234375	-5.95703124999999E-07	-1.08840168877578E-07	-306711.0625	0.000104187827673741
2	639	130.264280671114	0.172576904296875	0.172607421875	-6.00585937500001E-07	-1.03665584560986E-07	-287398.375	0.000104127590020653
2	640	130.36498867086	0.162506103515625	0.16253662109375	-6.07910156249999E-07	-9.88076607200128E-08	-267369.5	0.000104066741187125
2	641	130.465696670606	0.152435302734375	0.152496337890625	-6.182861328125E-07	-9.42863636055336E-08	-246643.640625	0.000104004997410811
2	642	130.566404670352	0.142364501953125	0.142425537109375	-6.32629394531251E-07	-9.01025813959677E-08	-225132.65625	0.000103942009445745
2	643	130.667112670097	0.132293701171875	0.132354736328125	-6.5277099609375E-07	-8.63973355080816E-08	-202758.296875	0.00010387728252681
2	644	130.767820669843	0.122222900390625	0.12225341796875	-6.8023681640625E-07	-8.31612680940452E-08	-179721.859375	0.000103810161817819
2	645	130.868528669589	0.112152099609375	0.112213134765625	-7.18994140625E-07	-8.06805786623954E-08	-156069.625	0.000103739701444283
2	646	130.969236669334	0.102081298828125	0.10211181640625	-7.720947265625E-07	-7.88399958651098E-08	-132252.96875	0.000103664620837662
2	647	131.06994466908	0.092010498046875	0.092041015625	-8.4564208984375E-07	-7.78337536644358E-08	-108841.5703125	0.000103583159216214
2	648	131.170652668826	0.081939697265625	0.08197021484375	-9.4573974609375E-07	-7.75224862081814E-08	-86673.125	0.000103492959169671
2	649	131.271360668572	0.071868896484375	0.071929931640625	-1.07940673828125E-06	-7.76416513303957E-08	-66638.3984375	0.000103390979347751
2	650	131.372068668317	0.061798095703125	0.061798095703125	-1.24969482421875E-06	-7.72287620520729E-08	-49450.55078125	0.000103273705462925
2	651	131.472776668063	0.051727294921875	0.051788330078125	-1.45782470703125E-06	-7.54983062734027E-08	-35524.390625	0.000103137368569151
2	652	131.573484667809	0.041656494140625	0.0417449951171875	-1.69891357421875E-06	-7.09211391836106E-08	-24571.583984375	0.000102978417999111
2	653	131.674192667555	0.031585693359375	0.031683349609375	-1.9586181640625E-06	-6.20555837826942E-08	-16176.3779296875	0.000102794241684023
2	654	131.7749006673	0.021514892578125	0.021649169921875	-2.2113037109375E-06	-4.78728878761103E-08	-9790.23046875	0.000102584272099193
2	655	131.875608667046	0.011444091796875	0.0115509033203125	-2.43560791015625E-06	-2.81334724405724E-08	-4742.51318359375	0.000102350277302321
2	656	131.976316666792	0.001373291015625	0.00150146484374999	-2.60711669921875E-06	-3.91449406222932E-09	-575.91015625	0.000102096360933501
2	657	132.077024666538	-0.008697509765625	-0.00855407714843751	-2.7154541015625E-06	2.32282015844021E-08	3150.14599609375	0.000101828343758825
2	658	132.177732666283	-0.018768310546875	-0.018621826171875	-2.75909423828125E-06	5.13793700918086E-08	6749.25390625	0.000101552679552697
2	659	132.278440666029	-0.028839111328125	-0.0286895751953125	-2.74993896484375E-06	7.88945726526435E-08	10432.8046875	0.000101275276392698
2	660	132.379148665775	-0.038909912109375	-0.0387603759765625	-2.70355224609375E-06	1.04790693455925E-07	14336.8330078125	0.000101000674476381
2	661	132.479856665521	-0.048980712890625	-0.0488433837890625	-2.63427734375E-06	1.2866701126768E-07	18541.474609375	0.000100731893326156
2	662	132.580564665266	-0.059051513671875	-0.05902099609375	-2.55645751953125E-06	1.50884673644214E-07	23087.0234375	0.000100470519100782
2	663	132.681272665012	-0.069122314453125	-0.069091796875	-2.4761962890625E-06	1.7108484939854E-07	27902.392578125	0.000100217104773037
2	664	132.781980664758	-0.079193115234375	-0.079132080078125	-2.39959716796875E-06	1.89885113854871E-07	32977.234375	9.99715921352617E-05
2	665	132.882688664503	-0.089263916015625	-0.089202880859375	-2.327880859375E-06	2.07653670258878E-07	38319.3515625	9.97335446299985E-05
2	666	132.983396664249	-0.099334716796875	-0.099212646484375	-2.26348876953125E-06	2.24566718998176E-07	43831.73828125	9.95023438008502E-05
2	667	133.084104663995	-0.109405517578125	-0.10931396484375	-2.2064208984375E-06	2.41192594785389E-07	49543.5703125	9.92772693280131E-05
2	668	133.184812663741	-0.119476318359375	-0.11932373046875	-2.1551513671875E-06	2.57160706951254E-07	55366.75	9.90576445474289E-05
2	669	133.285520663486	-0.129547119140625	-0.129425048828125	-2.109375E-06	2.73005952067251E-07	61357.0625	9.88429092103615E-05
2	670	133.386228663232	-0.139617919921875	-0.13946533203125	-2.07000732421875E-06	2.88694252503774E-07	67374.3203125	9.86324594123289E-05
2	671	133.486936662978	-0.149688720703125	-0.1495361328125	-2.03643798828125E-06	3.04521051930351E-07	73430.2421875	9.84256839728914E-05
2	672	133.587644662724	-0.159759521484375	-0.15960693359375	-2.00775146484375E-06	3.2045105058387E-07	79495.3671875	9.82220444711857E-05
2	673	133.688352662469	-0.169830322265625	-0.169647216796875	-1.9842529296875E-06	3.3662297482806E-07	85496.7734375	9.80210315901786E-05
2	674	133.789060662215	-0.179901123046875	-0.1796875	-1.966552734375E-06	3.53364924876587E-07	91371.8203125	9.78220923570916E-05
2	675	133.889768661961	-0.189971923828125	-0.189727783203125	-1.95404052734375E-06	3.7073576208968E-07	97095.109375	9.7624673799146E-05
2	676	133.990476661707	-0.200042724609375	-0.19989013671875	-1.94610595703125E-06	3.89007368539751E-07	102712.8828125	9.74282884271815E-05
2	677	134.091184661452	-0.189971923828125	-0.189788818359375	-1.7364501953125E-06	3.29558815792552E-07	109297.015625	9.72428533714265E-05
