Potential - OCP -0.0252606859394148 V
Time (s)	WE(1).Potential (V)
6.94630998246225	-0.0257965087890625
7.04630998220978	-0.0257965087890625
7.1463099819573	-0.0257965087890625
7.24630998170483	-0.025799560546875
7.34630998145235	-0.0257965087890625
7.44630998119987	-0.0257965087890625
7.5463099809474	-0.0257965087890625
7.64630998069492	-0.0257965087890625
7.74630998044245	-0.0257965087890625
7.84630998018997	-0.0257965087890625
7.9463099799375	-0.0257965087890625
8.04630997968502	-0.0257965087890625
8.14630997943254	-0.0257965087890625
8.24630997918007	-0.02579345703125
8.34630997892759	-0.02579345703125
8.44630997867512	-0.0257904052734375
8.54630997842264	-0.0257904052734375
8.64630997817017	-0.025787353515625
8.74630997791769	-0.025787353515625
8.84630997766521	-0.025787353515625
8.94630997741274	-0.025787353515625
9.04630997716026	-0.0257843017578125
9.14630997690779	-0.0257843017578125
9.24630997665531	-0.0257843017578125
9.34630997640284	-0.0257843017578125
9.44630997615036	-0.02578125
9.54630997589788	-0.02578125
9.64630997564541	-0.02578125
9.74630997539293	-0.0257781982421875
9.84630997514046	-0.0257781982421875
9.94630997488798	-0.0257781982421875
10.0463099746355	-0.0257781982421875
10.146309974383	-0.025775146484375
10.2463099741306	-0.0257720947265625
10.3463099738781	-0.02576904296875
10.4463099736256	-0.02576904296875
10.5463099733731	-0.0257659912109375
10.6463099731207	-0.025762939453125
10.7463099728682	-0.0257598876953125
10.8463099726157	-0.0257598876953125
10.9463099723632	-0.0257568359375
11.0463099721107	-0.0257568359375
11.1463099718583	-0.0257537841796875
11.2463099716058	-0.0257537841796875
11.3463099713533	-0.025750732421875
11.4463099711008	-0.025750732421875
11.5463099708484	-0.0257476806640625
11.6463099705959	-0.025750732421875
11.7463099703434	-0.0257476806640625
11.8463099700909	-0.02574462890625
11.9463099698385	-0.0257354736328125
12.046309969586	-0.025732421875
12.1463099693335	-0.025726318359375
12.246309969081	-0.0257232666015625
12.3463099688286	-0.02572021484375
12.4463099685761	-0.02572021484375
12.5463099683236	-0.02572021484375
12.6463099680711	-0.02572021484375
12.7463099678187	-0.0257171630859375
12.8463099675662	-0.0257110595703125
12.9463099673137	-0.0257080078125
13.0463099670612	-0.025701904296875
13.1463099668088	-0.0256988525390625
13.2463099665563	-0.02569580078125
13.3463099663038	-0.0256927490234375
13.4463099660513	-0.025689697265625
13.5463099657989	-0.02568359375
13.6463099655464	-0.02568359375
13.7463099652939	-0.02568359375
13.8463099650414	-0.0256805419921875
13.946309964789	-0.025677490234375
14.0463099645365	-0.025677490234375
14.146309964284	-0.02567138671875
14.2463099640315	-0.0256622314453125
14.346309963779	-0.0256591796875
14.4463099635266	-0.0256561279296875
14.5463099632741	-0.0256591796875
14.6463099630216	-0.0256500244140625
14.7463099627691	-0.025634765625
14.8463099625167	-0.0256256103515625
14.9463099622642	-0.0256256103515625
15.0463099620117	-0.025628662109375
15.1463099617592	-0.025628662109375
15.2463099615068	-0.0256256103515625
15.3463099612543	-0.0256256103515625
15.4463099610018	-0.02562255859375
15.5463099607493	-0.02562255859375
15.6463099604969	-0.0256195068359375
15.7463099602444	-0.0256134033203125
15.8463099599919	-0.0256134033203125
15.9463099597394	-0.0256103515625
16.046309959487	-0.0256103515625
16.1463099592345	-0.025604248046875
16.246309958982	-0.0255859375
16.3463099587295	-0.0255859375
16.4463099584771	-0.0255889892578125
16.5463099582246	-0.0255889892578125
16.6463099579721	-0.025592041015625
16.7463099577196	-0.0255889892578125
16.8463099574672	-0.0255828857421875
16.9463099572147	-0.025579833984375
17.0463099569622	-0.02557373046875
17.1463099567097	-0.02557373046875
17.2463099564573	-0.0255645751953125
17.3463099562048	-0.0255615234375
17.4463099559523	-0.025543212890625
17.5463099556998	-0.02552490234375
17.6463099554474	-0.02550048828125
17.7463099551949	-0.0254791259765625
17.8463099549424	-0.025482177734375
17.9463099546899	-0.0254913330078125
18.0463099544374	-0.02550048828125
18.146309954185	-0.0254974365234375
18.2463099539325	-0.0254974365234375
18.34630995368	-0.0254974365234375
18.4463099534275	-0.025494384765625
18.5463099531751	-0.0254974365234375
18.6463099529226	-0.02550048828125
18.7463099526701	-0.0254974365234375
18.8463099524176	-0.025494384765625
18.9463099521652	-0.025494384765625
19.0463099519127	-0.0254913330078125
19.1463099516602	-0.025506591796875
19.2463099514077	-0.0255035400390625
19.3463099511553	-0.0255126953125
19.4463099509028	-0.0255279541015625
19.5463099506503	-0.025543212890625
19.6463099503978	-0.025555419921875
19.7463099501454	-0.0255615234375
19.8463099498929	-0.025555419921875
19.9463099496404	-0.0255523681640625
20.0463099493879	-0.025555419921875
20.1463099491355	-0.0255523681640625
20.246309948883	-0.025543212890625
20.3463099486305	-0.0255401611328125
20.446309948378	-0.0255279541015625
20.5463099481256	-0.0255218505859375
20.6463099478731	-0.0255157470703125
20.7463099476206	-0.0255035400390625
20.8463099473681	-0.02550048828125
20.9463099471157	-0.0255126953125
21.0463099468632	-0.025518798828125
21.1463099466107	-0.025518798828125
21.2463099463582	-0.0255126953125
21.3463099461057	-0.0255096435546875
21.4463099458533	-0.02550048828125
21.5463099456008	-0.0254974365234375
21.6463099453483	-0.0254913330078125
21.7463099450958	-0.02548828125
21.8463099448434	-0.02548828125
21.9463099445909	-0.0254852294921875
22.0463099443384	-0.025482177734375
22.1463099440859	-0.02547607421875
22.2463099438335	-0.0254730224609375
22.346309943581	-0.0254730224609375
22.4463099433285	-0.025469970703125
22.546309943076	-0.025469970703125
22.6463099428236	-0.0254669189453125
22.7463099425711	-0.025457763671875
22.8463099423186	-0.0254547119140625
22.9463099420661	-0.0254608154296875
23.0463099418137	-0.0254547119140625
23.1463099415612	-0.025457763671875
23.2463099413087	-0.025457763671875
23.3463099410562	-0.0254608154296875
23.4463099408038	-0.0254608154296875
23.5463099405513	-0.0254547119140625
23.6463099402988	-0.025445556640625
23.7463099400463	-0.0254425048828125
23.8463099397939	-0.025439453125
23.9463099395414	-0.025439453125
24.0463099392889	-0.0254364013671875
24.1463099390364	-0.0254364013671875
24.246309938784	-0.025433349609375
24.3463099385315	-0.0254302978515625
24.446309938279	-0.02542724609375
24.5463099380265	-0.0254241943359375
24.646309937774	-0.025421142578125
24.7463099375216	-0.02542724609375
24.8463099372691	-0.0254241943359375
24.9463099370166	-0.0254241943359375
25.0463099367641	-0.025421142578125
25.1463099365117	-0.0254150390625
25.2463099362592	-0.0254119873046875
25.3463099360067	-0.025408935546875
25.4463099357542	-0.0254058837890625
25.5463099355018	-0.0254058837890625
25.6463099352493	-0.02540283203125
25.7463099349968	-0.02540283203125
25.8463099347443	-0.0253997802734375
25.9463099344919	-0.025396728515625
26.0463099342394	-0.025396728515625
26.1463099339869	-0.0253936767578125
26.2463099337344	-0.025390625
26.346309933482	-0.0253875732421875
26.4463099332295	-0.0253875732421875
26.546309932977	-0.025384521484375
26.6463099327245	-0.0253814697265625
26.7463099324721	-0.0253814697265625
26.8463099322196	-0.02537841796875
26.9463099319671	-0.0253753662109375
27.0463099317146	-0.0253753662109375
27.1463099314622	-0.025372314453125
27.2463099312097	-0.0253692626953125
27.3463099309572	-0.0253692626953125
27.4463099307047	-0.0253662109375
27.5463099304523	-0.0253631591796875
27.6463099301998	-0.0253631591796875
27.7463099299473	-0.025360107421875
27.8463099296948	-0.025360107421875
27.9463099294424	-0.0253570556640625
28.0463099291899	-0.02535400390625
28.1463099289374	-0.02535400390625
28.2463099286849	-0.0253509521484375
28.3463099284324	-0.0253509521484375
28.44630992818	-0.025347900390625
28.5463099279275	-0.025347900390625
28.646309927675	-0.0253448486328125
28.7463099274225	-0.0253448486328125
28.8463099271701	-0.025341796875
28.9463099269176	-0.025341796875
29.0463099266651	-0.0253387451171875
29.1463099264126	-0.0253387451171875
29.2463099261602	-0.025335693359375
29.3463099259077	-0.025335693359375
29.4463099256552	-0.0253326416015625
29.5463099254027	-0.0253326416015625
29.6463099251503	-0.0253326416015625
29.7463099248978	-0.02532958984375
29.8463099246453	-0.02532958984375
29.9463099243928	-0.0253265380859375
30.0463099241404	-0.0253265380859375
30.1463099238879	-0.0253265380859375
30.2463099236354	-0.025323486328125
30.3463099233829	-0.025323486328125
30.4463099231305	-0.025323486328125
30.546309922878	-0.025323486328125
30.6463099226255	-0.0253204345703125
30.746309922373	-0.0253204345703125
30.8463099221206	-0.0253204345703125
30.9463099218681	-0.0253173828125
31.0463099216156	-0.0253173828125
31.1463099213631	-0.0253173828125
31.2463099211107	-0.0253143310546875
31.3463099208582	-0.0253143310546875
31.4463099206057	-0.025311279296875
31.5463099203532	-0.025311279296875
31.6463099201007	-0.0253082275390625
31.7463099198483	-0.0253082275390625
31.8463099195958	-0.02530517578125
31.9463099193433	-0.02530517578125
32.0463099190908	-0.0253021240234375
32.1463099188384	-0.0253021240234375
32.2463099185859	-0.025299072265625
32.3463099183334	-0.025299072265625
32.4463099180809	-0.0252960205078125
32.5463099178285	-0.0252960205078125
32.646309917576	-0.02529296875
32.7463099173235	-0.0252899169921875
32.846309917071	-0.025286865234375
32.9463099168186	-0.025286865234375
33.0463099165661	-0.0252838134765625
33.1463099163136	-0.02528076171875
33.2463099160611	-0.02528076171875
33.3463099158087	-0.0252777099609375
33.4463099155562	-0.025274658203125
33.5463099153037	-0.025274658203125
33.6463099150512	-0.0252716064453125
33.7463099147988	-0.0252685546875
33.8463099145463	-0.0252685546875
33.9463099142938	-0.0252655029296875
34.0463099140413	-0.025262451171875
34.1463099137889	-0.025262451171875
34.2463099135364	-0.0252593994140625
34.3463099132839	-0.0252593994140625
34.4463099130314	-0.02525634765625
34.546309912779	-0.02525634765625
34.6463099125265	-0.0252532958984375
34.746309912274	-0.0252532958984375
34.8463099120215	-0.025250244140625
34.946309911769	-0.0252471923828125
35.0463099115166	-0.0252471923828125
35.1463099112641	-0.025244140625
35.2463099110116	-0.025244140625
35.3463099107591	-0.0252410888671875
35.4463099105067	-0.025238037109375
35.5463099102542	-0.025238037109375
35.6463099100017	-0.0252349853515625
35.7463099097492	-0.0252349853515625
35.8463099094968	-0.02523193359375
35.9463099092443	-0.02523193359375
36.0463099089918	-0.0252288818359375
36.1463099087393	-0.025225830078125
36.2463099084869	-0.025225830078125
36.3463099082344	-0.0252227783203125
36.4463099079819	-0.0252227783203125
36.5463099077294	-0.0252197265625
36.646309907477	-0.0252166748046875
36.7463099072245	-0.0252166748046875
36.846309906972	-0.025213623046875
