Potential - Start -0.2 V, Upper Vertex 1.5 V, Lower Vertex -0.2 V, Stop -0.19 V; Scan - # end cross 5, Rate 0.1 Vps, Step 0.01 V 
Scan	Index	Time (s)	Potential applied (V)	WE(1).Potential (V)	WE(1).Current (A)	WE(1).Power (W)	WE(1).Resistance (Ω)	WE(1).Charge (C)
1	1	67.0635968306807	-0.189971923828125	-0.1898193359375	-2.27966308593749E-07	4.32724114318717E-08	832664.0625	0
1	2	67.1643048304264	-0.179901123046875	-0.1798095703125	-1.96533203125E-07	3.53385480877932E-08	914906.875	-2.13752464617301E-08
1	3	67.2650128301722	-0.169830322265625	-0.169708251953125	-1.708984375E-07	2.90028747684801E-08	993035.75	-3.98768982279307E-08
1	4	67.3657208299179	-0.159759521484375	-0.159637451171875	-1.4923095703125E-07	2.38228494708892E-08	1069734.125	-5.59966935043121E-08
1	5	67.4664288296636	-0.149688720703125	-0.1495361328125	-1.2969970703125E-07	1.93947915505532E-08	1152941.25	-7.00419704458E-08
1	6	67.5671368294094	-0.139617919921875	-0.13946533203125	-1.11083984375E-07	1.54923647244232E-08	1255494.5	-8.2166387471716E-08
1	7	67.6678448291551	-0.129547119140625	-0.12939453125	-9.307861328125E-08	1.20438636841413E-08	1390164	-9.24467968843601E-08
1	8	67.7685528289009	-0.119476318359375	-0.11944580078125	-7.476806640625E-08	8.93073170971093E-09	1597551	-1.00898546406825E-07
1	9	67.8692608286466	-0.109405517578125	-0.1092529296875	-5.52368164062497E-08	6.03478378380373E-09	1977900.625	-1.07444812158519E-07
1	10	67.9699688283923	-0.099334716796875	-0.0992431640625	-3.38745117187497E-08	3.36181349425146E-09	2929729.75	-1.11931925061981E-07
1	11	68.0706768281381	-0.089263916015625	-0.089141845703125	-8.85009765625028E-09	7.88914045202205E-10	10072414	-1.14083277935606E-07
1	12	68.1713848278838	-0.079193115234375	-0.079193115234375	2.19726562499994E-08	-1.74008296660588E-09	-3604167	-1.13422501613059E-07
1	13	68.2720928276295	-0.069122314453125	-0.06903076171875	6.04248046875006E-08	-4.17117007600609E-09	-1142424.25	-1.09273464943271E-07
1	14	68.3728008273753	-0.059051513671875	-0.058990478515625	1.10473632812499E-07	-6.51689235908748E-09	-533977.9375	-1.00668046343344E-07
1	15	68.473508827121	-0.048980712890625	-0.048822021484375	1.77917480468751E-07	-8.68629079775474E-09	-274408.25	-8.61464002355206E-08
1	16	68.5742168268667	-0.038909912109375	-0.038763427734375	2.67333984375E-07	-1.03627808556439E-08	-145000	-6.37262047575859E-08
1	17	68.6749248266125	-0.028839111328125	-0.028729248046875	3.84521484375E-07	-1.10470130820772E-08	-74714.2890625	-3.09026759737208E-08
1	18	68.7756328263582	-0.018768310546875	-0.0186737060546875	5.352783203125E-07	-9.99563098957879E-09	-34885.9765625	1.54129224938515E-08
1	19	68.876340826104	-0.008697509765625	-0.0086029052734375	7.21130371093751E-07	-6.20381568339212E-09	-11929.7509765625	7.86781271244763E-08
1	20	68.9770488258497	0.001373291015625	0.00146484375	9.37499999999999E-07	1.3732910364439E-09	1562.5	1.62196798214609E-07
1	21	69.0777568255954	0.011444091796875	0.0115509033203125	1.1724853515625E-06	1.35432642878186E-08	9851.6396484375	2.68442988726747E-07
1	22	69.1784648253412	0.021514892578125	0.02164306640625	1.40655517578125E-06	3.04421661212473E-08	15387.2861328125	3.98308003468628E-07
1	23	69.2791728250869	0.031585693359375	0.0316864013671875	1.6156005859375E-06	5.11925719592909E-08	19612.76953125	5.50485651729105E-07
1	24	69.3798808248326	0.041656494140625	0.041729736328125	1.78009033203125E-06	7.4282702655637E-08	23442.482421875	7.21472247278143E-07
1	25	69.4805888245784	0.051727294921875	0.0517578125	1.88690185546875E-06	9.76619105585996E-08	27430.05078125	9.06119964838581E-07
1	26	69.5812968243241	0.061798095703125	0.061859130859375	1.93511962890625E-06	1.197048220547E-07	31966.56640625	1.09857398911117E-06
1	27	69.6820048240698	0.071868896484375	0.071868896484375	1.93572998046875E-06	1.39118768061053E-07	37127.54296875	1.29348677546659E-06
1	28	69.7827128238156	0.081939697265625	0.08197021484375	1.90155029296875E-06	1.55870480966769E-07	43107.046875	1.48670915223192E-06
1	29	69.8834208235613	0.092010498046875	0.092041015625	1.84539794921875E-06	1.69852299336526E-07	49875.97265625	1.67538303230685E-06
1	30	69.9841288233071	0.102081298828125	0.102081298828125	1.77947998046875E-06	1.81651628849977E-07	57365.8046875	1.85791009243985E-06
1	31	70.0848368230528	0.112152099609375	0.112213134765625	1.7108154296875E-06	1.91975956909118E-07	65590.4453125	2.0336603938631E-06
1	32	70.1855448227985	0.122222900390625	0.122283935546875	1.644287109375E-06	2.01069894956163E-07	74368.96875	2.20260335481726E-06
1	33	70.2862528225443	0.132293701171875	0.1324462890625	1.58233642578125E-06	2.09574579912442E-07	83702.9921875	2.36507662521035E-06
1	34	70.38696082229	0.142364501953125	0.1424560546875	1.52496337890625E-06	2.17240256006335E-07	93416.0546875	2.52154154622986E-06
1	35	70.4876688220357	0.152435302734375	0.15240478515625	1.47369384765625E-06	2.24597997089404E-07	103416.859375	2.67253608399187E-06
1	36	70.5883768217815	0.162506103515625	0.1624755859375	1.42730712890625E-06	2.31902561154129E-07	113833.65625	2.8186129839014E-06
1	37	70.6890848215272	0.172576904296875	0.17254638671875	1.38641357421875E-06	2.39220639741689E-07	124455.2109375	2.96029520541197E-06
1	38	70.789792821273	0.182647705078125	0.1826171875	1.348876953125E-06	2.46328113462368E-07	135384.609375	3.09802794618008E-06
1	39	70.8905008210187	0.192718505859375	0.1927490234375	1.31622314453125E-06	2.53700733310325E-07	146441	3.23222639053711E-06
1	40	70.9912088207644	0.202789306640625	0.2027587890625	1.2872314453125E-06	2.60997467194102E-07	157515.421875	3.36332072947698E-06
1	41	71.0919168205102	0.212860107421875	0.212921142578125	1.259765625E-06	2.68230706979011E-07	169016.484375	3.49157221535279E-06
1	42	71.1926248202559	0.222930908203125	0.222930908203125	1.23626708984375E-06	2.75602133115171E-07	180325.84375	3.61725733455387E-06
1	43	71.2933328200016	0.233001708984375	0.233001708984375	1.21490478515625E-06	2.83074882645451E-07	191786	3.7406837236631E-06
1	44	71.3940408197474	0.243072509765625	0.2430419921875	1.19537353515625E-06	2.90525974833145E-07	203318.859375	3.86205101676751E-06
1	45	71.4947488194931	0.253143310546875	0.25311279296875	1.1773681640625E-06	2.9800693823745E-07	214981.859375	3.98152815250796E-06
1	46	71.5954568192388	0.263214111328125	0.263214111328125	1.16119384765625E-06	3.05642601006184E-07	226675.421875	4.09928406952531E-06
1	47	71.6961648189846	0.273284912109375	0.273345947265625	1.14654541015625E-06	3.13403546670088E-07	238408.3125	4.21548793383408E-06
1	48	71.7968728187303	0.283355712890625	0.2833251953125	1.13311767578125E-06	3.21040772632841E-07	250040.40625	4.33027798862895E-06
1	49	71.8975808184761	0.293426513671875	0.293426513671875	1.12091064453125E-06	3.28904889101977E-07	261775.125	4.443777470442E-06
1	50	71.9982888182218	0.303497314453125	0.303497314453125	1.109619140625E-06	3.36766419195555E-07	273514.84375	4.55609324490069E-06
1	51	72.0989968179675	0.313568115234375	0.313629150390625	1.099853515625E-06	3.44946130326207E-07	285155.375	4.66734900328447E-06
1	52	72.1997048177133	0.323638916015625	0.3236083984375	1.09130859375E-06	3.53156622168171E-07	296532.4375	4.777682988788E-06
1	53	72.300412817459	0.333709716796875	0.333709716796875	1.08306884765625E-06	3.61430579687294E-07	308114.96875	4.88717159896623E-06
1	54	72.4011208172047	0.343780517578125	0.34381103515625	1.0760498046875E-06	3.69957803059151E-07	319512.1875	4.99589168612147E-06
1	55	72.5018288169505	0.353851318359375	0.3538818359375	1.0699462890625E-06	3.78634553044321E-07	330747.28125	5.10395148012321E-06
1	56	72.6025368166962	0.363922119140625	0.363922119140625	1.0650634765625E-06	3.87600152862433E-07	341690.5625	5.21145739185158E-06
1	57	72.703244816442	0.373992919921875	0.373992919921875	1.060791015625E-06	3.96728296436777E-07	352560.4375	5.3185026445135E-06
1	58	72.8039528161877	0.384063720703125	0.38409423828125	1.0565185546875E-06	4.05802666136879E-07	363547.09375	5.42511770618148E-06
1	59	72.9046608159334	0.394134521484375	0.3941650390625	1.0540771484375E-06	4.15480343463059E-07	373943.28125	5.53139489056775E-06
1	60	73.0053688156792	0.404205322265625	0.404266357421875	1.05133056640625E-06	4.25017560701235E-07	384528.3125	5.63741059522727E-06
1	61	73.1060768154249	0.414276123046875	0.41424560546875	1.0498046875E-06	4.34876938015805E-07	394593.0625	5.74321120438981E-06
1	62	73.2067848151706	0.424346923828125	0.42437744140625	1.048583984375E-06	4.44995379211832E-07	404714.78125	5.84887311561033E-06
1	63	73.3074928149164	0.434417724609375	0.43438720703125	1.04766845703125E-06	4.55093754681002E-07	414622.78125	5.9544281612034E-06
1	64	73.4082008146621	0.444488525390625	0.444488525390625	1.04736328125E-06	4.6554097821172E-07	424388.09375	6.05992136115674E-06
1	65	73.5089088144078	0.454559326171875	0.454559326171875	1.04736328125E-06	4.76088757750404E-07	434003.5	6.16539909970015E-06
1	66	73.6096168141536	0.464630126953125	0.46466064453125	1.0479736328125E-06	4.86952046685474E-07	443389.65625	6.27090776106343E-06
1	67	73.7103248138993	0.474700927734375	0.474700927734375	1.04949951171875E-06	4.98198346576828E-07	452311.75	6.37652374280151E-06
1	68	73.8110328136451	0.484771728515625	0.484771728515625	1.0516357421875E-06	5.09803271597775E-07	460969.21875	6.48232435196405E-06
1	69	73.9117408133908	0.494842529296875	0.494781494140625	1.0546875E-06	5.21839808698132E-07	469126.1875	6.588385986106E-06
1	70	74.0124488131365	0.504913330078125	0.504913330078125	1.05865478515625E-06	5.34528908247012E-07	476938.59375	6.69480141368695E-06
1	71	74.1131568128823	0.514984130859375	0.514984130859375	1.06414794921875E-06	5.48019272628153E-07	483940.375	6.80169296174427E-06
1	72	74.213864812628	0.525054931640625	0.5250244140625	1.070556640625E-06	5.62068407816696E-07	490421.875	6.90918386681005E-06
1	73	74.3145728123737	0.535125732421875	0.535125732421875	1.080322265625E-06	5.78108256377163E-07	495339	7.01748922438128E-06
1	74	74.4152808121195	0.545196533203125	0.545135498046875	1.0906982421875E-06	5.94578295931569E-07	499804.15625	7.12680866854498E-06
1	75	74.5159888118652	0.555267333984375	0.55523681640625	1.1065673828125E-06	6.14406928889366E-07	501765.0625	7.23745006325771E-06
1	76	74.616696811611	0.565338134765625	0.56536865234375	1.126708984375E-06	6.37005939552182E-07	501787.65625	7.34990453565842E-06
1	77	74.7174048113567	0.575408935546875	0.57537841796875	1.15509033203125E-06	6.64614049128431E-07	498124.1875	7.4648019108281E-06
1	78	74.8181128111024	0.585479736328125	0.585479736328125	1.1944580078125E-06	6.99330882980576E-07	490163.5625	7.58311125537148E-06
1	79	74.9188208108482	0.595550537109375	0.59552001953125	1.25152587890625E-06	7.45308739169559E-07	475835.15625	7.70627593738027E-06
1	80	75.0195288105939	0.605621337890625	0.605621337890625	1.3336181640625E-06	8.07667561275593E-07	454119	7.83644827606622E-06
1	81	75.1202368103396	0.615692138671875	0.61566162109375	1.44805908203125E-06	8.91514389422809E-07	425163.34375	7.97651682660216E-06
1	82	75.2209448100854	0.625762939453125	0.625701904296875	1.60430908203125E-06	1.0038193067885E-06	390013.3125	8.13021597423358E-06
1	83	75.3216528098311	0.635833740234375	0.635772705078125	1.80999755859375E-06	1.1507469253047E-06	351256.125	8.30214048619382E-06
1	84	75.4223608095768	0.645904541015625	0.6458740234375	2.06817626953125E-06	1.33578123495681E-06	312291.59375	8.49742173159029E-06
1	85	75.5230688093226	0.655975341796875	0.655975341796875	2.3760986328125E-06	1.55866212026012E-06	276072.4375	8.72120835992973E-06
1	86	75.6237768090683	0.666046142578125	0.665985107421875	2.72125244140625E-06	1.81231359874801E-06	244734.765625	8.97788049769588E-06
1	87	75.7244848088141	0.676116943359375	0.676055908203125	3.0780029296875E-06	2.08090204978362E-06	219641.09375	9.26989650906762E-06
1	88	75.8251928085598	0.686187744140625	0.686065673828125	3.419189453125E-06	2.3457885163225E-06	200651.5625	9.59705630521057E-06
1	89	75.9259008083055	0.696258544921875	0.696197509765625	3.71185302734375E-06	2.58418276644079E-06	187560.640625	9.95613299892284E-06
1	90	76.0266088080513	0.706329345703125	0.70623779296875	3.93524169921875E-06	2.7792164019047E-06	179464.90625	1.03411939562648E-05
1	91	76.127316807797	0.716400146484375	0.716278076171875	4.07501220703125E-06	2.91884180114721E-06	175773.25	1.07445430330699E-05
1	92	76.2280248075427	0.726470947265625	0.726348876953125	4.1400146484375E-06	3.00709484690742E-06	175445.984375	1.11582021418144E-05
1	93	76.3287328072885	0.736541748046875	0.73638916015625	4.150390625E-06	3.05630260299949E-06	177426.484375	1.15756574814441E-05
1	94	76.4294408070342	0.746612548828125	0.74652099609375	4.1339111328125E-06	3.08605126519979E-06	180584.6875	1.19928045023698E-05
1	95	76.5301488067799	0.756683349609375	0.7568359375	4.1162109375E-06	3.11529606733529E-06	183867.15625	1.24082316688146E-05
1	96	76.6308568065257	0.766754150390625	0.7666015625	4.12506103515625E-06	3.16227828989213E-06	185840.0625	1.28232122733607E-05
1	97	76.7315648062714	0.776824951171875	0.77728271484375	4.18304443359375E-06	3.25140808854485E-06	185817.46875	1.32415589177981E-05
1	98	76.8322728060172	0.786895751953125	0.7861328125	4.31243896484375E-06	3.39014945893723E-06	182294.25	1.36693406602717E-05
1	99	76.9329808057629	0.796966552734375	0.79681396484375	4.53033447265625E-06	3.60983381142432E-06	175884.140625	1.41146092573763E-05
1	100	77.0336888055086	0.807037353515625	0.80657958984375	4.8480224609375E-06	3.9103160816012E-06	166372.90625	1.45868471008725E-05
1	101	77.1343968052544	0.817108154296875	0.81756591796875	5.267333984375E-06	4.30639283877099E-06	155214.375	1.50961959661799E-05
1	102	77.2351048050001	0.827178955078125	0.8270263671875	5.7708740234375E-06	4.77266485177097E-06	143310.421875	1.56520145537797E-05
1	103	77.3358128047458	0.837249755859375	0.83709716796875	6.329345703125E-06	5.29827730133547E-06	132256.515625	1.62613087013597E-05
1	104	77.4365208044916	0.847320556640625	0.84808349609375	6.915283203125E-06	5.86473743169336E-06	122639.015625	1.69282284332439E-05
1	105	77.5372288042373	0.857391357421875	0.8575439453125	7.470703125E-06	6.40645566818421E-06	114787.5859375	1.76526209543226E-05
1	106	77.6379368039831	0.867462158203125	0.86761474609375	7.958984375E-06	6.90533215674805E-06	109010.734375	1.84295658982592E-05
1	107	77.7386448037288	0.877532958984375	0.87738037109375	8.3282470703125E-06	7.30704005036387E-06	105349.953125	1.92496936506359E-05
1	108	77.8393528034745	0.887603759765625	0.88775634765625	8.551025390625E-06	7.59122713134275E-06	103818.703125	2.00996328203473E-05
1	109	77.9400608032203	0.897674560546875	0.897216796875	8.6212158203125E-06	7.73509964346886E-06	104070.796875	2.09643239941215E-05
1	110	78.040768802966	0.907745361328125	0.90789794921875	8.5601806640625E-06	7.77177046984434E-06	106060.609375	2.18294753722148E-05
1	111	78.1414768027117	0.917816162109375	0.91796875	8.404541015625E-06	7.71510531194508E-06	109222.953125	2.26837164518656E-05
1	112	78.2421848024575	0.927886962890625	0.92742919921875	8.2000732421875E-06	7.60498733143322E-06	113100.109375	2.35198258451419E-05
1	113	78.3428928022032	0.937957763671875	0.9381103515625	7.989501953125E-06	7.49503442420973E-06	117417.8828125	2.43350350501714E-05
1	114	78.4436008019489	0.948028564453125	0.94818115234375	7.80029296875E-06	7.39609095035121E-06	121557.1171875	2.51301153184613E-05
1	115	78.5443088016947	0.958099365234375	0.95794677734375	7.6568603515625E-06	7.33486467652256E-06	125109.6015625	2.5908444513334E-05
1	116	78.6450168014404	0.968170166015625	0.96832275390625	7.568359375E-06	7.32861462893197E-06	127943.546875	2.66750957962358E-05
1	117	78.7457248011862	0.978240966796875	0.97869873046875	7.550048828125E-06	7.38922335585812E-06	129628.1328125	2.74363683274714E-05
1	118	78.8464328009319	0.988311767578125	0.98846435546875	7.598876953125E-06	7.51121888242778E-06	130080.3203125	2.81991760857636E-05
1	119	78.9471408006776	0.998382568359375	0.99853515625	7.7056884765625E-06	7.69440066505922E-06	129584.15625	2.89698236883851E-05
1	120	79.0478488004234	1.00845336914063	1.00830078125	7.8521728515625E-06	7.91735146776773E-06	128410.421875	2.97532242257148E-05
1	121	79.1485568001691	1.01852416992188	1.01776123046875	8.0078125E-06	8.15004113974283E-06	127096.0390625	3.05518369714264E-05
1	122	79.2492647999148	1.02859497070313	1.029052734375	8.14208984375E-06	8.37863899505464E-06	126386.8125	3.13650489260908E-05
1	123	79.3499727996606	1.03866577148438	1.03851318359375	8.2275390625E-06	8.54440804687329E-06	126224.03125	3.21893239743076E-05
1	124	79.4506807994063	1.04873657226563	1.04888916015625	8.2489013671875E-06	8.65218316903338E-06	127155.015625	3.30189795931801E-05
1	125	79.5513887991521	1.05880737304688	1.0589599609375	8.2061767578125E-06	8.69001269165892E-06	129044.25	3.38475583703257E-05
1	126	79.6520967988978	1.06887817382813	1.06903076171875	8.1146240234375E-06	8.67478229338303E-06	131741.265625	3.46693777828477E-05
1	127	79.7528047986435	1.07894897460938	1.0791015625	7.99560546875E-06	8.62806973600527E-06	134961.828125	3.54805924871471E-05
1	128	79.8535127983893	1.08901977539063	1.0888671875	7.8826904296875E-06	8.58320345287211E-06	138133.953125	3.62801256414969E-05
1	129	79.954220798135	1.09909057617188	1.0992431640625	7.7880859375E-06	8.56099995871773E-06	141144.203125	3.70692141586915E-05
1	130	80.0549287978807	1.10916137695313	1.1090087890625	7.7117919921875E-06	8.55244525155285E-06	143806.890625	3.78496952180285E-05
1	131	80.1556367976265	1.11923217773438	1.11907958984375	7.647705078125E-06	8.55838970892364E-06	146328.828125	3.86231076845434E-05
1	132	80.2563447973722	1.12930297851563	1.1297607421875	7.586669921875E-06	8.57112172525376E-06	148913.921875	3.93902191717643E-05
1	133	80.3570527971179	1.13937377929688	1.13983154296875	7.525634765625E-06	8.57795566844288E-06	151459.859375	4.01511824748013E-05
1	134	80.4577607968637	1.14944458007813	1.1492919921875	7.4615478515625E-06	8.57549730426399E-06	154028.625	4.09058484365232E-05
1	135	80.5584687966094	1.15951538085938	1.1590576171875	7.391357421875E-06	8.56700899021234E-06	156812.5625	4.16537513956428E-05
1	136	80.6591767963552	1.16958618164063	1.16973876953125	7.3211669921875E-06	8.56385304359719E-06	159774.90625	4.23945857619401E-05
1	137	80.7598847961009	1.17965698242188	1.1798095703125	7.2479248046875E-06	8.55117104947567E-06	162778.953125	4.31281987403054E-05
1	138	80.8605927958466	1.18972778320313	1.18927001953125	7.177734375E-06	8.53626352181891E-06	165688.78125	4.38545866927598E-05
1	139	80.9613007955924	1.19979858398438	1.19964599609375	7.1075439453125E-06	8.52653647598345E-06	168784.890625	4.4573906052392E-05
1	140	81.0620087953381	1.20986938476563	1.2103271484375	7.037353515625E-06	8.51749973662663E-06	171986.125	4.52861604571808E-05
1	141	81.1627167950838	1.21994018554688	1.2200927734375	6.97021484375E-06	8.50430842547212E-06	175043.78125	4.59914954262786E-05
1	142	81.2634247948296	1.23001098632813	1.23016357421875	6.9091796875E-06	8.49942080094479E-06	178047.71875	4.66903802589513E-05
1	143	81.3641327945753	1.24008178710938	1.24053955078125	6.84814453125E-06	8.49539446790004E-06	181149.734375	4.73831169074401E-05
1	144	81.464840794321	1.25015258789063	1.25030517578125	6.7901611328125E-06	8.48977379064308E-06	184134.828125	4.80698581668548E-05
1	145	81.5655487940668	1.26022338867188	1.26068115234375	6.73828125E-06	8.49482421472203E-06	187092.390625	4.87510696984828E-05
1	146	81.6662567938125	1.27029418945313	1.27044677734375	6.6864013671875E-06	8.49471689434722E-06	190004.5625	4.94270570925437E-05
1	147	81.7669647935583	1.28036499023438	1.280517578125	6.640625E-06	8.50343622005312E-06	192830.890625	5.00981259392574E-05
1	148	81.867672793304	1.29043579101563	1.29058837890625	6.5948486328125E-06	8.51123513712082E-06	195696.4375	5.07645854668226E-05
1	149	81.9683807930497	1.30050659179688	1.3006591796875	6.55517578125E-06	8.526049896318E-06	198417.125	5.1426741265459E-05
1	150	82.0690887927955	1.31057739257813	1.31072998046875	6.5155029296875E-06	8.54006430017762E-06	201170.96875	5.20849025633652E-05
1	151	82.1697967925412	1.32064819335938	1.32080078125	6.48193359375E-06	8.5613428382203E-06	203766.484375	5.2739374950761E-05
1	152	82.2705047922869	1.33071899414063	1.33056640625	6.4483642578125E-06	8.57997656567022E-06	206341.6875	5.3390467655845E-05
1	153	82.3712127920327	1.34078979492188	1.34124755859375	6.4178466796875E-06	8.6079207903822E-06	208987.15625	5.40383334737271E-05
1	154	82.4719207917784	1.35086059570313	1.35101318359375	6.390380859375E-06	8.63348850543844E-06	211413.5625	5.46832779946271E-05
1	155	82.5726287915242	1.36093139648438	1.36077880859375	6.3629150390625E-06	8.65851961862063E-06	213860.90625	5.53254576516338E-05
1	156	82.6733367912699	1.37100219726563	1.37115478515625	6.3385009765625E-06	8.69106588652357E-06	216321.625	5.59650252398569E-05
1	157	82.7740447910156	1.38107299804688	1.3812255859375	6.317138671875E-06	8.72539294505259E-06	218647.359375	5.66022863495164E-05
1	158	82.8747527907614	1.39114379882813	1.3909912109375	6.298828125E-06	8.7616144810454E-06	220833.34375	5.72375502088107E-05
1	159	82.9754607905071	1.40121459960938	1.4007568359375	6.2835693359375E-06	8.80175230122404E-06	222923.75	5.78711260459386E-05
1	160	83.0761687902528	1.41128540039063	1.4111328125	6.2713623046875E-06	8.84972450876376E-06	225012.171875	5.85033158131409E-05
1	161	83.1768767899986	1.42135620117188	1.42120361328125	6.26220703125E-06	8.89987131813541E-06	226949.3125	5.91344323765952E-05
1	162	83.2775847897443	1.43142700195313	1.4312744140625	6.2530517578125E-06	8.9498325905879E-06	228892.140625	5.97646248934325E-05
1	163	83.37829278949	1.44149780273438	1.44134521484375	6.25E-06	9.00840768736089E-06	230615.234375	6.03942025918514E-05
1	164	83.4790007892358	1.45156860351563	1.45172119140625	6.2530517578125E-06	9.07768753677374E-06	232162.03125	6.10237802902702E-05
1	165	83.5797087889815	1.46163940429688	1.46209716796875	6.26220703125E-06	9.15595501282951E-06	233479.53125	6.16539764450863E-05
1	166	83.6804167887273	1.47171020507813	1.4715576171875	6.2744140625E-06	9.23316110856831E-06	234533.078125	6.22852458036505E-05
1	167	83.781124788473	1.48178100585938	1.4813232421875	6.2957763671875E-06	9.32607963477494E-06	235288.421875	6.29182031843811E-05
1	168	83.8818327882187	1.49185180664063	1.49169921875	6.3262939453125E-06	9.43692703003762E-06	235793.546875	6.35537726338953E-05
1	169	83.9825407879645	1.50192260742188	1.50238037109375	6.3690185546875E-06	9.56868825596757E-06	235888.828125	6.41930382698774E-05
1	170	84.0832487877102	1.49185180664063	1.49200439453125	6.121826171875E-06	9.133791536442E-06	243718.84375	6.48220011498779E-05
1	171	84.1839567874559	1.48178100585938	1.48193359375	5.9326171875E-06	8.79174422152573E-06	249794.234375	6.54289906378835E-05
1	172	84.2846647872017	1.47171020507813	1.4715576171875	5.77392578125E-06	8.49666412250372E-06	254862.578125	6.60184596199542E-05
1	173	84.3853727869474	1.46163940429688	1.46148681640625	5.6365966796875E-06	8.23781192593742E-06	259285.328125	6.65930274408311E-05
1	174	84.4860807866932	1.45156860351563	1.45172119140625	5.517578125E-06	8.009984412638E-06	263108.40625	6.71546804369427E-05
1	175	84.5867887864389	1.44149780273438	1.4410400390625	5.413818359375E-06	7.80152913648635E-06	266178.125	6.77051211823709E-05
1	176	84.6874967861846	1.43142700195313	1.431884765625	5.316162109375E-06	7.61213141231565E-06	269345.59375	6.8245419242885E-05
1	177	84.7882047859304	1.42135620117188	1.42120361328125	5.230712890625E-06	7.43390774005093E-06	271703.625	6.87764986651018E-05
1	178	84.8889127856761	1.41128540039063	1.4111328125	5.1483154296875E-06	7.26495682101813E-06	274096.03125	6.9299123424571E-05
1	179	84.9896207854218	1.40121459960938	1.40106201171875	5.0750732421875E-06	7.11049233359518E-06	276067.34375	6.98139119776897E-05
1	180	85.0903287851676	1.39114379882813	1.39068603515625	5.0079345703125E-06	6.96446431902586E-06	277696.53125	7.03216283000074E-05
1	181	85.1910367849133	1.38107299804688	1.38092041015625	4.94171142578125E-06	6.82410973240621E-06	279441.75	7.08226361894049E-05
1	182	85.291744784659	1.37100219726563	1.370849609375	4.88250732421875E-06	6.69318296786514E-06	280767.5625	7.13173212716356E-05
1	183	85.3924527844048	1.36093139648438	1.36077880859375	4.82635498046875E-06	6.56760175843374E-06	281947.5	7.18062074156478E-05
1	184	85.4931607841505	1.35086059570313	1.3507080078125	4.77386474609375E-06	6.44809688310488E-06	282938.0625	7.22896147635765E-05
1	185	85.5938687838963	1.34078979492188	1.3409423828125	4.7247314453125E-06	6.33559238849557E-06	283813.46875	7.27679071133025E-05
1	186	85.694576783642	1.33071899414063	1.33056640625	4.67803955078125E-06	6.22444258624455E-06	284428.1875	7.32413755031303E-05
1	187	85.7952847833877	1.32064819335938	1.3201904296875	4.6337890625E-06	6.11748419032665E-06	284905.15625	7.37102600396611E-05
1	188	85.8959927831335	1.31057739257813	1.31072998046875	4.59197998046875E-06	6.01884585194057E-06	285438.9375	7.41748153814115E-05
1	189	85.9967007828792	1.30050659179688	1.3006591796875	4.55230712890625E-06	5.92100013818708E-06	285714.28125	7.46352670830674E-05
1	190	86.0974087826249	1.29043579101563	1.290283203125	4.51416015625E-06	5.82454504183261E-06	285830.1875	7.50917970435694E-05
1	191	86.1981167823707	1.28036499023438	1.280517578125	4.47845458984375E-06	5.7347401707375E-06	285928.4375	7.55446162656881E-05
1	192	86.2988247821164	1.27029418945313	1.270751953125	4.44366455078125E-06	5.64679521630751E-06	285969.375	7.59938775445335E-05
1	193	86.3995327818621	1.26022338867188	1.26007080078125	4.41070556640625E-06	5.55780115973903E-06	285684.625	7.64397336752154E-05
1	194	86.5002407816079	1.25015258789063	1.25030517578125	4.3792724609375E-06	5.4754268603574E-06	285505.21875	7.68823447288014E-05
1	195	86.6009487813536	1.24008178710938	1.240234375	4.3487548828125E-06	5.39347502126475E-06	285193	7.73218343965709E-05
1	196	86.7016567810994	1.23001098632813	1.2298583984375	4.31854248046875E-06	5.31119576407946E-06	284785.53125	7.77582681621425E-05
1	197	86.8023647808451	1.21994018554688	1.21978759765625	4.28985595703125E-06	5.23271319252672E-06	284342.3125	7.81917333370075E-05
1	198	86.9030727805908	1.20986938476563	1.21002197265625	4.26177978515625E-06	5.15684723723098E-06	283924.09375	7.86223390605301E-05
1	199	87.0037807803366	1.19979858398438	1.19964599609375	4.234619140625E-06	5.08004404764506E-06	283294.90625	7.90501726442017E-05
1	200	87.1044887800823	1.18972778320313	1.1895751953125	4.2071533203125E-06	5.00472515341244E-06	282750.625	7.94752486399375E-05
1	201	87.205196779828	1.17965698242188	1.17919921875	4.1790771484375E-06	4.9279647100775E-06	282167.375	7.98975233919919E-05
1	202	87.3059047795738	1.16958618164063	1.16973876953125	4.15008544921875E-06	4.85451573695173E-06	281858.96875	8.03169314167462E-05
1	203	87.4066127793195	1.15951538085938	1.15966796875	4.12017822265625E-06	4.77803814646904E-06	281460.65625	8.0733370850794E-05
1	204	87.5073207790653	1.14944458007813	1.14990234375	4.08782958984375E-06	4.7006046770548E-06	281299	8.11466816230677E-05
1	205	87.608028778811	1.13937377929688	1.13922119140625	4.0521240234375E-06	4.61626541436999E-06	281141.75	8.15565581433475E-05
1	206	87.7087367785567	1.12930297851563	1.1297607421875	4.01123046875E-06	4.5317306103243E-06	281649.4375	8.19625784060918E-05
1	207	87.8094447783025	1.11923217773438	1.119384765625	3.963623046875E-06	4.43681892647874E-06	282414.53125	8.23641457827762E-05
1	208	87.9101527780482	1.10916137695313	1.10931396484375	3.9044189453125E-06	4.3312265916029E-06	284117.5625	8.27603362267837E-05
1	209	88.0108607777939	1.09909057617188	1.0992431640625	3.83056640625E-06	4.21072354583885E-06	286966.25	8.31498255138285E-05
1	210	88.1115687775397	1.08901977539063	1.08917236328125	3.736572265625E-06	4.06977096645278E-06	291489.71875	8.35308601381257E-05
1	211	88.2122767772854	1.07894897460938	1.07879638671875	3.61541748046875E-06	3.90029936170322E-06	298387.78125	8.39010608615354E-05
1	212	88.3129847770311	1.06887817382813	1.0687255859375	3.45977783203125E-06	3.69755298379459E-06	308900.09375	8.42573208501562E-05
1	213	88.4136927767769	1.05880737304688	1.0589599609375	3.26446533203125E-06	3.45693797498825E-06	324390.03125	8.45959148136899E-05
1	214	88.5144007765226	1.04873657226563	1.04888916015625	3.026123046875E-06	3.17406761496386E-06	346611.53125	8.49126736284234E-05
1	215	88.6151087762684	1.03866577148438	1.0382080078125	2.75054931640625E-06	2.85564237856306E-06	377454.78125	8.52035518619232E-05
1	216	88.7158167760141	1.02859497070313	1.0284423828125	2.44873046875E-06	2.51837809628341E-06	419990.0625	8.54653553687967E-05
1	217	88.8165247757598	1.01852416992188	1.0186767578125	2.1417236328125E-06	2.18172408494866E-06	475634.09375	8.56965052662417E-05
1	218	88.9172327755056	1.00845336914063	1.00830078125	1.85272216796875E-06	1.86810109426006E-06	544226.6875	8.58976418385282E-05
1	219	89.0179407752513	0.998382568359375	0.99853515625	1.60736083984375E-06	1.60500621859683E-06	621226.5	8.60718719195575E-05
1	220	89.118648774997	0.988311767578125	0.9881591796875	1.42242431640625E-06	1.40558154271275E-06	694700.75	8.62244341988117E-05
1	221	89.2193567747428	0.978240966796875	0.97869873046875	1.3006591796875E-06	1.27295345464518E-06	752463.625	8.63615496200509E-05
1	222	89.3200647744885	0.968170166015625	0.96832275390625	1.2347412109375E-06	1.19562798772677E-06	784231.375	8.64892135723494E-05
1	223	89.4207727742343	0.958099365234375	0.95855712890625	1.2066650390625E-06	1.15665739031101E-06	794385.4375	8.66121481521986E-05
1	224	89.52148077398	0.948028564453125	0.94757080078125	1.19476318359375E-06	1.13212274754915E-06	793103.4375	8.67330745677464E-05
1	225	89.6221887737257	0.937957763671875	0.93780517578125	1.17706298828125E-06	1.10385565221804E-06	796733.25	8.68525021360256E-05
1	226	89.7228967734715	0.927886962890625	0.927734375	1.1334228515625E-06	1.05151536899939E-06	818524.5	8.69688446982764E-05
1	227	89.8236047732172	0.917816162109375	0.9173583984375	1.05010986328125E-06	9.63327124736679E-07	873583.25	8.70787989697419E-05
1	228	89.9243127729629	0.907745361328125	0.908203125	9.1094970703125E-07	8.27327312435955E-07	996985	8.7177540990524E-05
1	229	90.0250207727087	0.897674560546875	0.8978271484375	7.03125E-07	6.31284706287261E-07	1276909.75	8.7258820713032E-05
1	230	90.1257287724544	0.887603759765625	0.88775634765625	4.22058105468751E-07	3.74684759663069E-07	2103398.5	8.73154785949737E-05
1	231	90.2264367722001	0.877532958984375	0.877685546875	6.80541992187506E-08	5.97301834659447E-08	12896861	8.73401513672434E-05
1	232	90.3271447719459	0.867462158203125	0.86700439453125	-3.45764160156251E-07	-2.99779060242145E-07	-2507502.25	8.73261742526665E-05
1	233	90.4278527716916	0.857391357421875	0.85784912109375	-7.965087890625E-07	-6.83284326896683E-07	-1077011.5	8.72686505317688E-05
1	234	90.5285607714374	0.847320556640625	0.84716796875	-1.2469482421875E-06	-1.05637457181729E-06	-679393.125	8.7165753939189E-05
1	235	90.6292687711831	0.837249755859375	0.8380126953125	-1.6619873046875E-06	-1.39276642130426E-06	-504223.28125	8.70192816364579E-05
1	236	90.7299767709288	0.827178955078125	0.82733154296875	-2.00714111328125E-06	-1.66057111528062E-06	-412194	8.68345232447609E-05
1	237	90.8306847706746	0.817108154296875	0.81756591796875	-2.2564697265625E-06	-1.84481280030013E-06	-362320.78125	8.66198315634392E-05
1	238	90.9313927704203	0.807037353515625	0.806884765625	-2.39837646484375E-06	-1.93521327673807E-06	-336429.59375	8.63854438648559E-05
1	239	91.032100770166	0.796966552734375	0.797119140625	-2.4444580078125E-06	-1.94852418644587E-06	-326092.375	8.61415901454166E-05
1	240	91.1328087699118	0.786895751953125	0.7867431640625	-2.415771484375E-06	-1.90059165561252E-06	-325669.53125	8.58968560351059E-05
1	241	91.2335167696575	0.776824951171875	0.7769775390625	-2.3406982421875E-06	-1.81866982984502E-06	-331942.65625	8.56573460623622E-05
1	242	91.3342247694032	0.766754150390625	0.76690673828125	-2.2467041015625E-06	-1.72301247403084E-06	-341347.46875	8.54263562359847E-05
1	243	91.434932769149	0.756683349609375	0.75714111328125	-2.1588134765625E-06	-1.6345263702533E-06	-350720.9375	8.52045195642859E-05
1	244	91.5356407688947	0.746612548828125	0.746490478515625	-2.0941162109375E-06	-1.56323767441791E-06	-356470.4375	8.49903663038276E-05
1	245	91.6363487686405	0.736541748046875	0.736419677734375	-2.06634521484375E-06	-1.52169718603545E-06	-356387.5625	8.47808696562424E-05
1	246	91.7370567683862	0.726470947265625	0.7264404296875	-2.0843505859375E-06	-1.51415656546305E-06	-348521.21875	8.4571867773775E-05
1	247	91.8377647681319	0.716400146484375	0.71630859375	-2.154541015625E-06	-1.54331610247027E-06	-332464.625	8.43584202812053E-05
1	248	91.9384727678777	0.706329345703125	0.706298828125	-2.27569580078125E-06	-1.60732133736019E-06	-310366.09375	8.41353394207545E-05
1	249	92.0391807676234	0.696258544921875	0.6961669921875	-2.43927001953125E-06	-1.69813927186624E-06	-285399.71875	8.38979249238037E-05
1	250	92.1398887673691	0.686187744140625	0.6861572265625	-2.62725830078125E-06	-1.80271229055506E-06	-261168.546875	8.36428080219775E-05
1	251	92.2405967671149	0.676116943359375	0.67608642578125	-2.81707763671875E-06	-1.90458786164527E-06	-239995.671875	8.33686644909903E-05
1	252	92.3413047668606	0.666046142578125	0.666015625	-2.98126220703125E-06	-1.98556722352805E-06	-223400.546875	8.30766948638484E-05
1	253	92.4420127666064	0.655975341796875	0.65594482421875	-3.09906005859375E-06	-2.0328122900537E-06	-211659.28125	8.27705225674435E-05
1	254	92.5427207663521	0.645904541015625	0.645843505859375	-3.155517578125E-06	-2.0379704892548E-06	-204671.1875	8.24555827421136E-05
1	255	92.6434287660978	0.635833740234375	0.63580322265625	-3.1512451171875E-06	-2.00357180801802E-06	-201762.546875	8.21380090201274E-05
1	256	92.7441367658436	0.625762939453125	0.625732421875	-3.09600830078125E-06	-1.93727260011656E-06	-202109.421875	8.18234329926781E-05
1	257	92.8448447655893	0.615692138671875	0.61566162109375	-3.0035400390625E-06	-1.84916416401393E-06	-204978.671875	8.15163002698682E-05
1	258	92.945552765335	0.605621337890625	0.605560302734375	-2.8900146484375E-06	-1.7500781268609E-06	-209535.375	8.12195357866585E-05
1	259	93.0462607650808	0.595550537109375	0.595489501953125	-2.767333984375E-06	-1.64791822498955E-06	-215185.28125	8.0934667494148E-05
1	260	93.1469687648265	0.585479736328125	0.585418701171875	-2.6434326171875E-06	-1.54751478476101E-06	-221461.5625	8.06622119853273E-05
1	261	93.2476767645722	0.575408935546875	0.575469970703125	-2.5238037109375E-06	-1.45237322612957E-06	-228016.9375	8.04020164650865E-05
1	262	93.348384764318	0.565338134765625	0.56536865234375	-2.40997314453125E-06	-1.36252322135988E-06	-234595.421875	8.01535861683078E-05
1	263	93.4490927640637	0.555267333984375	0.555267333984375	-2.30499267578125E-06	-1.27988710119098E-06	-240897.65625	7.99161643953994E-05
1	264	93.5498007638095	0.545196533203125	0.545196533203125	-2.20733642578125E-06	-1.203432134389E-06	-246992.953125	7.96889507910237E-05
1	265	93.6505087635552	0.535125732421875	0.535125732421875	-2.11822509765625E-06	-1.13351666186645E-06	-252629.3125	7.94711449998431E-05
1	266	93.7512167633009	0.525054931640625	0.5250244140625	-2.0367431640625E-06	-1.06933987353841E-06	-257776.453125	7.92619248386472E-05
1	267	93.8519247630467	0.514984130859375	0.514984130859375	-1.96258544921875E-06	-1.01070031632844E-06	-262400.875	7.90605408838019E-05
1	268	93.9526327627924	0.504913330078125	0.504913330078125	-1.89422607421875E-06	-9.56419967224065E-07	-266553.90625	7.88663382991217E-05
1	269	94.0533407625381	0.494842529296875	0.49481201171875	-1.83135986328125E-06	-9.06178797777102E-07	-270188.3125	7.86787350079976E-05
1	270	94.1540487622839	0.484771728515625	0.48480224609375	-1.77490234375E-06	-8.60476632169593E-07	-273143.0625	7.84971489338204E-05
1	271	94.2547567620296	0.474700927734375	0.47467041015625	-1.72149658203125E-06	-8.17143472886528E-07	-275731.25	7.832109258743E-05
1	272	94.3554647617754	0.464630126953125	0.464599609375	-1.67236328125E-06	-7.76979334204952E-07	-277810.21875	7.81501948949881E-05
1	273	94.4561727615211	0.454559326171875	0.454559326171875	-1.62689208984375E-06	-7.39518952741491E-07	-279403.5	7.79840629547834E-05
1	274	94.5568807612668	0.444488525390625	0.44451904296875	-1.58416748046875E-06	-7.04192586908903E-07	-280601.0625	7.78223766246811E-05
1	275	94.6575887610126	0.434417724609375	0.434356689453125	-1.54449462890625E-06	-6.70861538765166E-07	-281229	7.76648375904188E-05
1	276	94.7582967607583	0.424346923828125	0.424346923828125	-1.50909423828125E-06	-6.40379482774733E-07	-281193.125	7.75110747781582E-05
1	277	94.859004760504	0.414276123046875	0.414306640625	-1.4752197265625E-06	-6.11193343047489E-07	-280844.03125	7.73608044255525E-05
1	278	94.9597127602498	0.404205322265625	0.40423583984375	-1.44439697265625E-06	-5.83877010740252E-07	-279864.78125	7.72137864260003E-05
1	279	95.0604207599955	0.394134521484375	0.3941650390625	-1.414794921875E-06	-5.57662644951051E-07	-278602.25	7.70698170526884E-05
1	280	95.1611287597412	0.384063720703125	0.384063720703125	-1.38763427734375E-06	-5.32939964159596E-07	-276775.90625	7.69286998547614E-05
1	281	95.261836759487	0.373992919921875	0.373992919921875	-1.3616943359375E-06	-5.09264054926462E-07	-274652.625	7.67902602092363E-05
1	282	95.3625447592327	0.363922119140625	0.363983154296875	-1.33819580078125E-06	-4.87080683342356E-07	-271995.46875	7.66543162171729E-05
1	283	95.4632527589785	0.353851318359375	0.353790283203125	-1.31591796875E-06	-4.65558997575499E-07	-268854.34375	7.65206714277156E-05
1	284	95.5639607587242	0.343780517578125	0.343719482421875	-1.2945556640625E-06	-4.44964001644621E-07	-265511.5625	7.63892167015001E-05
1	285	95.6646687584699	0.333709716796875	0.33367919921875	-1.27471923828125E-06	-4.25347280952337E-07	-261766.8125	7.62598501751199E-05
1	286	95.7653767582157	0.323638916015625	0.323699951171875	-1.256103515625E-06	-4.06600634050847E-07	-257701.65625	7.61324117775075E-05
1	287	95.8660847579614	0.313568115234375	0.313568115234375	-1.239013671875E-06	-3.88515161375835E-07	-253078.828125	7.60067705414258E-05
1	288	95.9667927577071	0.303497314453125	0.303466796875	-1.22283935546875E-06	-3.71091118722688E-07	-248165.734375	7.5882810051553E-05
1	289	96.0675007574529	0.293426513671875	0.29339599609375	-1.2078857421875E-06	-3.54388816958817E-07	-242900.46875	7.57604066166095E-05
1	290	96.1682087571986	0.283355712890625	0.283416748046875	-1.19415283203125E-06	-3.38442902148017E-07	-237337.09375	7.5639458373189E-05
1	291	96.2689167569443	0.273284912109375	0.273284912109375	-1.18194580078125E-06	-3.23007952829357E-07	-231216.109375	7.55198125261813E-05
1	292	96.3696247566901	0.263214111328125	0.263275146484375	-1.16973876953125E-06	-3.07963148316048E-07	-225071.75	7.54013963160105E-05
1	293	96.4703327564358	0.253143310546875	0.253082275390625	-1.15936279296875E-06	-2.93414160523753E-07	-218294.28125	7.52841151552275E-05
1	294	96.5710407561816	0.243072509765625	0.24310302734375	-1.14959716796875E-06	-2.79470526720615E-07	-211468.03125	7.51678526285104E-05
1	295	96.6717487559273	0.233001708984375	0.23297119140625	-1.141357421875E-06	-2.65903395302303E-07	-204117.640625	7.50524923205376E-05
1	296	96.772456755673	0.222930908203125	0.222991943359375	-1.1346435546875E-06	-2.5301636696895E-07	-196530.390625	7.49378887121566E-05
1	297	96.8731647554188	0.212860107421875	0.212890625	-1.12823486328125E-06	-2.40190615841129E-07	-188693.53125	7.48239399399608E-05
1	298	96.9738727551645	0.202789306640625	0.202850341796875	-1.1236572265625E-06	-2.27934236818328E-07	-180526.890625	7.47105514165014E-05
1	299	97.0745807549102	0.192718505859375	0.19268798828125	-1.12060546875E-06	-2.15927215663214E-07	-171949.890625	7.45975412428379E-05
1	300	97.175288754656	0.182647705078125	0.18267822265625	-1.11968994140625E-06	-2.04542971005139E-07	-163150.71875	7.44847347959876E-05
1	301	97.2759967544017	0.172576904296875	0.172637939453125	-1.12152099609375E-06	-1.93617069044194E-07	-153931.96875	7.4371877417434E-05
1	302	97.3767047541475	0.162506103515625	0.162567138671875	-1.12579345703125E-06	-1.83017021981868E-07	-144402.28125	7.42587144486606E-05
1	303	97.4774127538932	0.152435302734375	0.152496337890625	-1.1346435546875E-06	-1.73028979588707E-07	-134400.21875	7.41448966437019E-05
1	304	97.5781207536389	0.142364501953125	0.1424560546875	-1.148681640625E-06	-1.63636642014353E-07	-124017.0078125	7.40299219614826E-05
1	305	97.6788287533847	0.132293701171875	0.13238525390625	-1.1700439453125E-06	-1.54896554249717E-07	-113145.546875	7.39131646696478E-05
1	306	97.7795367531304	0.122222900390625	0.122222900390625	-1.199951171875E-06	-1.46661506050805E-07	-101856.5625	7.379382441286E-05
1	307	97.8802447528761	0.112152099609375	0.1121826171875	-1.24298095703125E-06	-1.39440857083173E-07	-90252.8828125	7.36708170734346E-05
1	308	97.9809527526219	0.102081298828125	0.10211181640625	-1.3006591796875E-06	-1.32812672859473E-07	-78507.7421875	7.35427311155945E-05
1	309	98.0816607523676	0.092010498046875	0.092071533203125	-1.37786865234375E-06	-1.2686247430338E-07	-66821.703125	7.34078566893004E-05
1	310	98.1823687521133	0.081939697265625	0.081939697265625	-1.47796630859375E-06	-1.21104108075087E-07	-55440.84375	7.32640546630137E-05
1	311	98.2830767518591	0.071868896484375	0.071929931640625	-1.6058349609375E-06	-1.15507596376574E-07	-44792.85546875	7.31087711756118E-05
1	312	98.3837847516048	0.061798095703125	0.061920166015625	-1.76239013671875E-06	-1.09127483938209E-07	-35134.19921875	7.29391686036251E-05
1	313	98.4844927513506	0.051727294921875	0.05181884765625	-1.951904296875E-06	-1.01145431585792E-07	-26547.841796875	7.27521401131526E-05
1	314	98.5852007510963	0.041656494140625	0.0417755126953125	-2.16827392578125E-06	-9.05807482354248E-08	-19266.71484375	7.25446734577417E-05
1	315	98.685908750842	0.031585693359375	0.031689453125	-2.4029541015625E-06	-7.61483036626487E-08	-13187.70703125	7.23144912626594E-05
1	316	98.7866167505878	0.021514892578125	0.0216064453125	-2.63580322265625E-06	-5.69503377789715E-08	-8197.291015625	7.20607713446952E-05
1	317	98.8873247503335	0.011444091796875	0.0115264892578125	-2.8460693359375E-06	-3.28051861231415E-08	-4049.96801757813	7.17847360647283E-05
1	318	98.9880327500792	0.001373291015625	0.0014495849609375	-3.01483154296875E-06	-4.37025438060346E-09	-480.817901611328	7.14896159479395E-05
1	319	99.088740749825	-0.008697509765625	-0.0085906982421875	-3.12713623046875E-06	2.68642832423893E-08	2747.1455078125	7.1180344093591E-05
1	320	99.1894487495707	-0.018768310546875	-0.0186370849609375	-3.18084716796875E-06	5.92817173128424E-08	5859.158203125	7.08627121639438E-05
1	321	99.2901567493165	-0.028839111328125	-0.02872314453125	-3.18389892578125E-06	9.14515894123724E-08	9021.375	7.05422207829542E-05
1	322	99.3908647490622	-0.038909912109375	-0.0387847900390625	-3.1488037109375E-06	1.22125697998854E-07	12317.3095703125	7.0223344664555E-05
1	323	99.4915727488079	-0.048980712890625	-0.04886474609375	-3.08929443359375E-06	1.50957575328903E-07	15817.4453125	6.99092342983931E-05
1	324	99.5922807485537	-0.059051513671875	-0.058929443359375	-3.01788330078125E-06	1.77842181869892E-07	19526.74609375	6.96017086738721E-05
1	325	99.6929887482994	-0.069122314453125	-0.06903076171875	-2.94219970703125E-06	2.03102288764967E-07	23462.296875	6.93015972501598E-05
1	326	99.7936967480451	-0.079193115234375	-0.079132080078125	-2.86865234375E-06	2.27002416863797E-07	27585.107421875	6.90089946147054E-05
1	327	99.8944047477909	-0.089263916015625	-0.089202880859375	-2.7984619140625E-06	2.49630858206729E-07	31875.68359375	6.87236315570772E-05
1	328	99.9951127475366	-0.099334716796875	-0.099273681640625	-2.7349853515625E-06	2.7151205017617E-07	36297.703125	6.84450060361996E-05
1	329	100.095820747282	-0.109405517578125	-0.10931396484375	-2.67730712890625E-06	2.92667039047956E-07	40829.8203125	6.81724704918452E-05
1	330	100.196528747028	-0.119476318359375	-0.119354248046875	-2.62542724609375E-06	3.13355883463373E-07	45460.88671875	6.79054573993199E-05
1	331	100.297236746774	-0.129547119140625	-0.129425048828125	-2.57904052734375E-06	3.33792428364177E-07	50183.41015625	6.76433919579722E-05
1	332	100.39794474652	-0.139617919921875	-0.139495849609375	-2.53814697265625E-06	3.54060944118828E-07	54959.72265625	6.73857211950235E-05
1	333	100.498652746265	-0.149688720703125	-0.14959716796875	-2.5018310546875E-06	3.74266818425895E-07	59795.07421875	6.71319430693984E-05
1	334	100.599360746011	-0.159759521484375	-0.159698486328125	-2.469482421875E-06	3.94372591472347E-07	64668.8125	6.68816137476824E-05
1	335	100.700068745757	-0.169830322265625	-0.169708251953125	-2.44110107421875E-06	4.14275007187825E-07	69521.1875	6.6634347604122E-05
1	336	100.800776745503	-0.179901123046875	-0.179718017578125	-2.4151611328125E-06	4.34047962016848E-07	74412.4375	6.63898172206245E-05
1	337	100.901484745248	-0.189971923828125	-0.189849853515625	-2.39288330078125E-06	4.54288539231129E-07	79339.3671875	6.61477097310126E-05
1	338	101.002192744994	-0.200042724609375	-0.19989013671875	-2.373046875E-06	4.74348638590527E-07	84233.546875	6.5907726821024E-05
1	339	101.10290074474	-0.189971923828125	-0.189788818359375	-2.1575927734375E-06	4.09486972330342E-07	87963.2265625	6.56795891700312E-05
2	340	101.203608744485	-0.179901123046875	-0.179718017578125	-2.00225830078125E-06	3.59841891395263E-07	89757.6640625	6.54701289022341E-05
2	341	101.304316744231	-0.169830322265625	-0.169647216796875	-1.875E-06	3.18088524409177E-07	90478.515625	6.52748931315728E-05
2	342	101.405024743977	-0.159759521484375	-0.15966796875	-1.766357421875E-06	2.82030697462687E-07	90393.921875	6.50915317237377E-05
2	343	101.505732743723	-0.149688720703125	-0.149566650390625	-1.6705322265625E-06	2.49855901301999E-07	89532.34375	6.49184730718844E-05
2	344	101.606440743468	-0.139617919921875	-0.139495849609375	-1.5850830078125E-06	2.21112486542552E-07	88005.390625	6.47545384708792E-05
2	345	101.707148743214	-0.129547119140625	-0.12939453125	-1.50665283203125E-06	1.94952633592038E-07	85882.1171875	6.45988548058085E-05
2	346	101.80785674296	-0.119476318359375	-0.119354248046875	-1.43341064453125E-06	1.71083641475889E-07	83265.9140625	6.44508108962327E-05
2	347	101.908564742706	-0.109405517578125	-0.10931396484375	-1.36383056640625E-06	1.49085721545816E-07	80152.1640625	6.43099629087374E-05
2	348	102.009272742451	-0.099334716796875	-0.0992431640625	-1.29547119140625E-06	1.28566654211681E-07	76607.7734375	6.41760561848059E-05
2	349	102.109980742197	-0.089263916015625	-0.089141845703125	-1.226806640625E-06	1.09359802991094E-07	72661.6953125	6.40490470686927E-05
2	350	102.210688741943	-0.079193115234375	-0.079132080078125	-1.15570068359375E-06	9.14529891815619E-08	68471.09375	6.39290810795501E-05
2	351	102.311396741689	-0.069122314453125	-0.069091796875	-1.0772705078125E-06	7.44305523880939E-08	64135.98046875	6.38166384305805E-05
2	352	102.412104741434	-0.059051513671875	-0.058990478515625	-9.89990234375E-07	5.83999977266103E-08	59586.9296875	6.3712548580952E-05
2	353	102.51281274118	-0.048980712890625	-0.0488677978515625	-8.868408203125E-07	4.33379589992455E-08	55103.23828125	6.36180411675014E-05
2	354	102.613520740926	-0.038909912109375	-0.0387542724609375	-7.6263427734375E-07	2.95553377327451E-08	50816.328125	6.35349788353778E-05
2	355	102.714228740672	-0.028839111328125	-0.0287445068359375	-6.1187744140625E-07	1.75881158526181E-08	46977.5546875	6.34657699265517E-05
2	356	102.814936740417	-0.018768310546875	-0.0186859130859375	-4.29687500000001E-07	8.02910360420128E-09	43487.21484375	6.34133248240687E-05
2	357	102.915644740163	-0.008697509765625	-0.00856933593750001	-2.154541015625E-07	1.84629844746098E-09	39773.37109375	6.33808376733214E-05
2	358	103.016352739909	0.001373291015625	0.001513671875	2.62451171874997E-08	3.97264929286045E-11	57674.41796875	6.33713134448044E-05
2	359	103.117060739654	0.011444091796875	0.011578369140625	2.81372070312499E-07	3.25782933963126E-09	41149.67578125	6.33867966826074E-05
2	360	103.2177687394	0.021514892578125	0.021636962890625	5.2947998046875E-07	1.14563381004018E-08	40864.5546875	6.34276293567382E-05
2	361	103.318476739146	0.031585693359375	0.031646728515625	7.4920654296875E-07	2.37099371247496E-08	42240.32421875	6.34920143056661E-05
2	362	103.419184738892	0.041656494140625	0.0417510986328125	9.2315673828125E-07	3.85428080562633E-08	45226.4453125	6.35762262390926E-05
2	363	103.519892738637	0.051727294921875	0.051849365234375	1.03912353515625E-06	5.3877894146126E-08	49897.2109375	6.36750337434933E-05
2	364	103.620600738383	0.061798095703125	0.06182861328125	1.10260009765625E-06	6.81722340800661E-08	56075.28515625	6.37828779872507E-05
2	365	103.721308738129	0.071868896484375	0.071868896484375	1.11907958984375E-06	8.04270143817121E-08	64221.43359375	6.38947531115264E-05
2	366	103.822016737875	0.081939697265625	0.08197021484375	1.10443115234375E-06	9.05304560205877E-08	74219.3984375	6.40067155472934E-05
2	367	103.92272473762	0.092010498046875	0.092071533203125	1.0699462890625E-06	9.85115917728763E-08	86052.484375	6.41162041574717E-05
2	368	104.023432737366	0.102081298828125	0.10211181640625	1.02630615234375E-06	1.04797983624394E-07	99494.5	6.42217564745806E-05
2	369	104.124140737112	0.112152099609375	0.112213134765625	9.7991943359375E-07	1.09959827909734E-07	114512.6171875	6.43227758700959E-05
2	370	104.224848736858	0.122222900390625	0.12225341796875	9.344482421875E-07	1.14239490756063E-07	130829.5234375	6.44191750325263E-05
2	371	104.325556736603	0.132293701171875	0.13232421875	8.929443359375E-07	1.18158155260062E-07	148188.65625	6.45111867925152E-05
2	372	104.426264736349	0.142364501953125	0.142425537109375	8.5601806640625E-07	1.21918830586765E-07	166381.46875	6.45992549834773E-05
2	373	104.526972736095	0.152435302734375	0.152496337890625	8.23364257812501E-07	1.25560035257877E-07	185211.265625	6.46838234388269E-05
2	374	104.62768073584	0.162506103515625	0.1624755859375	7.952880859375E-07	1.2921489656037E-07	204297.78125	6.4765328716021E-05
2	375	104.728388735586	0.172576904296875	0.172607421875	7.708740234375E-07	1.33058577489464E-07	223911.328125	6.48441855446436E-05
2	376	104.829096735332	0.182647705078125	0.182647705078125	7.50122070312501E-07	1.37008072442768E-07	243490.640625	6.49207795504481E-05
2	377	104.929804735078	0.192718505859375	0.192718505859375	7.3272705078125E-07	1.41210051651797E-07	263015.4375	6.49954454274848E-05
2	378	105.030512734823	0.202789306640625	0.202850341796875	7.18078613281251E-07	1.45662482964326E-07	282490.4375	6.50684960419312E-05
2	379	105.131220734569	0.212860107421875	0.212860107421875	7.0648193359375E-07	1.50381808339262E-07	301295.90625	6.51402297080494E-05
2	380	105.231928734315	0.222930908203125	0.222991943359375	6.9610595703125E-07	1.55226018705434E-07	320341.96875	6.52108574286103E-05
2	381	105.332636734061	0.233001708984375	0.23297119140625	6.8695068359375E-07	1.60039718366534E-07	339138.15625	6.52804956189357E-05
2	382	105.433344733806	0.243072509765625	0.2430419921875	6.79931640625001E-07	1.65251947237266E-07	357450.625	6.53493261779658E-05
2	383	105.534052733552	0.253143310546875	0.253173828125	6.7474365234375E-07	1.70827433976228E-07	375214.84375	6.54175382805988E-05
2	384	105.634760733298	0.263214111328125	0.263275146484375	6.6986083984375E-07	1.76357701775487E-07	393029.625	6.54852483421564E-05
2	385	105.735468733044	0.273284912109375	0.273284912109375	6.6558837890625E-07	1.8189524553236E-07	410591.5	6.55524927424267E-05
2	386	105.836176732789	0.283355712890625	0.283355712890625	6.6253662109375E-07	1.8773353360757E-07	427683.125	6.56193660688587E-05
2	387	105.936884732535	0.293426513671875	0.29339599609375	6.610107421875E-07	1.93937907511099E-07	443859.65625	6.56860138406046E-05
2	388	106.037592732281	0.303497314453125	0.303466796875	6.5948486328125E-07	2.00131751171284E-07	460157.34375	6.57525088172406E-05
2	389	106.138300732027	0.313568115234375	0.3135986328125	6.58264160156249E-07	2.06430726734652E-07	476402.4375	6.58188582747243E-05
2	390	106.239008731772	0.323638916015625	0.32366943359375	6.57958984375E-07	2.12961211332185E-07	491929.5	6.58851349726319E-05
2	391	106.339716731518	0.333709716796875	0.333709716796875	6.58264160156249E-07	2.19669132661693E-07	506954.125	6.59514116705395E-05
2	392	106.440424731264	0.343780517578125	0.34381103515625	6.5948486328125E-07	2.26738166020368E-07	521332.75	6.60177684039809E-05
2	393	106.541132731009	0.353851318359375	0.35382080078125	6.6070556640625E-07	2.33771373814307E-07	535519.625	6.60842488287017E-05
2	394	106.641840730755	0.363922119140625	0.3638916015625	6.6253662109375E-07	2.41091498764945E-07	549240	6.61508747725748E-05
2	395	106.742548730501	0.373992919921875	0.373992919921875	6.65283203125E-07	2.48811204528465E-07	562155.9375	6.62177335470915E-05
2	396	106.843256730247	0.384063720703125	0.384033203125	6.683349609375E-07	2.56662815445452E-07	574611.875	6.62848906358704E-05
2	397	106.943964729992	0.394134521484375	0.394134521484375	6.7169189453125E-07	2.64736939925569E-07	586778.75	6.63523678667843E-05
2	398	107.044672729738	0.404205322265625	0.4041748046875	6.75354003906251E-07	2.72961074188061E-07	598463.625	6.64201943436638E-05
2	399	107.145380729484	0.414276123046875	0.414306640625	6.793212890625E-07	2.81447313454919E-07	609883.25	6.64884064462967E-05
2	400	107.24608872923	0.424346923828125	0.42437744140625	6.8389892578125E-07	2.90231270128061E-07	620526.5625	6.65570551063865E-05
2	401	107.346796728975	0.434417724609375	0.434417724609375	6.884765625E-07	2.99086394761616E-07	630984.0625	6.66261548758484E-05
2	402	107.447504728721	0.444488525390625	0.44451904296875	6.9305419921875E-07	3.08075783550521E-07	641391.5	6.66957203065977E-05
2	403	107.548212728467	0.454559326171875	0.454559326171875	6.9732666015625E-07	3.16976326075746E-07	651860	6.67657295707613E-05
2	404	107.648920728213	0.464630126953125	0.464569091796875	7.03125E-07	3.26650138049445E-07	660720.5	6.6836248151958E-05
2	405	107.749628727958	0.474700927734375	0.474700927734375	7.080078125E-07	3.36091972030772E-07	670474.125	6.69073051540181E-05
2	406	107.850336727704	0.484771728515625	0.48480224609375	7.14111328125E-07	3.46202767786963E-07	678888.9375	6.69789151288569E-05
2	407	107.95104472745	0.494842529296875	0.494842529296875	7.2021484375E-07	3.56392916955883E-07	687076.3125	6.70511435600929E-05
2	408	108.051752727196	0.504913330078125	0.50494384765625	7.2784423828125E-07	3.67520470945237E-07	693752.625	6.71240559313446E-05
2	409	108.152460726941	0.514984130859375	0.514984130859375	7.36083984374999E-07	3.79071565248523E-07	699626.875	6.71977686579339E-05
2	410	108.253168726687	0.525054931640625	0.524993896484375	7.45849609375E-07	3.91566487678574E-07	703887.0625	6.7272390879225E-05
2	411	108.353876726433	0.535125732421875	0.53509521484375	7.58056640625E-07	4.05632476940809E-07	705877.625	6.73481190460734E-05
2	412	108.454584726178	0.545196533203125	0.545166015625	7.73010253906251E-07	4.21418917539995E-07	705250.6875	6.74252150929533E-05
2	413	108.555292725924	0.555267333984375	0.5552978515625	7.916259765625E-07	4.39588177414407E-07	701464.9375	6.75039991619997E-05
2	414	108.65600072567	0.565338134765625	0.5653076171875	8.15734863281251E-07	4.61141127061637E-07	693004.125	6.75849369144998E-05
2	415	108.756708725416	0.575408935546875	0.57537841796875	8.4869384765625E-07	4.88320097247197E-07	677957.5625	6.76687486702576E-05
2	416	108.857416725161	0.585479736328125	0.58544921875	8.93554687500001E-07	5.23130893270718E-07	655191.25	6.77564748912118E-05
2	417	108.958124724907	0.595550537109375	0.595489501953125	9.5672607421875E-07	5.69720270959806E-07	622424.3125	6.78496508044191E-05
2	418	109.058832724653	0.605621337890625	0.6055908203125	1.0430908203125E-06	6.31686248198093E-07	580573.4375	6.79503427818418E-05
2	419	109.159540724399	0.615692138671875	0.61572265625	1.16058349609375E-06	7.14597547357698E-07	530528.5625	6.80613084114157E-05
2	420	109.260248724144	0.625762939453125	0.625823974609375	1.31866455078125E-06	8.25251902369928E-07	474589.21875	6.81861492921598E-05
2	421	109.36095672389	0.635833740234375	0.635772705078125	1.52069091796875E-06	9.66813672675926E-07	418081.5	6.83291218592785E-05
2	422	109.461664723636	0.645904541015625	0.6458740234375	1.7742919921875E-06	1.14596912226261E-06	364017.90625	6.84950355207548E-05
2	423	109.562372723382	0.655975341796875	0.6558837890625	2.07244873046875E-06	1.35928553390841E-06	316477.6875	6.86887360643595E-05
2	424	109.663080723127	0.666046142578125	0.66595458984375	2.4029541015625E-06	1.60025831519306E-06	277139.9375	6.89140942995436E-05
2	425	109.763788722873	0.676116943359375	0.676055908203125	2.74322509765625E-06	1.85457349743956E-06	246445.671875	6.91732202540152E-05
2	426	109.864496722619	0.686187744140625	0.686065673828125	3.06610107421875E-06	2.10354664886836E-06	223758.34375	6.94657428539358E-05
2	427	109.965204722365	0.696258544921875	0.69610595703125	3.3416748046875E-06	2.32615980166884E-06	208310.5	6.97884024702944E-05
2	428	110.06591272211	0.706329345703125	0.706268310546875	3.55133056640625E-06	2.50819221037091E-06	198874.28125	7.01354947523214E-05
2	429	110.166620721856	0.716400146484375	0.71630859375	3.68499755859375E-06	2.63959532276203E-06	194385.09375	7.04998674336821E-05
2	430	110.267328721602	0.726470947265625	0.726409912109375	3.75152587890625E-06	2.72514557764225E-06	193630.53125	7.08743318682536E-05
2	431	110.368036721347	0.736541748046875	0.736419677734375	3.76983642578125E-06	2.77618164545856E-06	195345.265625	7.12530600139871E-05
2	432	110.468744721093	0.746612548828125	0.7464599609375	3.76617431640625E-06	2.81129814538872E-06	198201.125	7.16325303073972E-05
2	433	110.569452720839	0.756683349609375	0.7568359375	3.76373291015625E-06	2.84852831100579E-06	201086.515625	7.201168773463E-05
2	434	110.670160720585	0.766754150390625	0.76690673828125	3.78875732421875E-06	2.90562343252532E-06	202416.4375	7.23919874872081E-05
2	435	110.77086872033	0.776824951171875	0.777587890625	3.86016845703125E-06	3.0016201435501E-06	201438.859375	7.27771403035149E-05
2	436	110.871576720076	0.786895751953125	0.78704833984375	3.99871826171875E-06	3.14718431582151E-06	196825.171875	7.31728650862351E-05
2	437	110.972284719822	0.796966552734375	0.7977294921875	4.22119140625E-06	3.36736889039457E-06	188982.078125	7.35867724870332E-05
2	438	111.072992719568	0.807037353515625	0.80718994140625	4.5361328125E-06	3.66152062269975E-06	177946.734375	7.40277391741984E-05
2	439	111.173700719313	0.817108154296875	0.8172607421875	4.94384765625E-06	4.04041247747955E-06	165308.640625	7.45050929253921E-05
2	440	111.274408719059	0.827178955078125	0.82733154296875	5.426025390625E-06	4.48912214778829E-06	152474.6875	7.50272592995316E-05
2	441	111.375116718805	0.837249755859375	0.83770751953125	5.9600830078125E-06	4.9928062253457E-06	140553	7.56005974835716E-05
2	442	111.475824718551	0.847320556640625	0.8477783203125	6.5093994140625E-06	5.51852735952707E-06	130239.109375	7.62284835218452E-05
2	443	111.576532718296	0.857391357421875	0.8575439453125	7.025146484375E-06	6.02437148700119E-06	122067.7734375	7.69100006436929E-05
2	444	111.677240718042	0.867462158203125	0.867919921875	7.470703125E-06	6.48397190161631E-06	116176.4765625	7.76399247115478E-05
2	445	111.777948717788	0.877532958984375	0.87738037109375	7.8033447265625E-06	6.84650149196386E-06	112436.453125	7.84090370871127E-05
2	446	111.878656717534	0.887603759765625	0.88775634765625	7.99560546875E-06	7.09814958099741E-06	111030.5390625	7.92045757407323E-05
2	447	111.979364717279	0.897674560546875	0.897216796875	8.050537109375E-06	7.22307686373824E-06	111448.0703125	8.00125635578297E-05
2	448	112.080072717025	0.907745361328125	0.908203125	7.989501953125E-06	7.2560906119179E-06	113674.5625	8.08202457847074E-05
2	449	112.180780716771	0.917816162109375	0.91827392578125	7.8460693359375E-06	7.20484058547299E-06	117036.1796875	8.16176252556033E-05
2	450	112.281488716516	0.927886962890625	0.927734375	7.6690673828125E-06	7.11485745341633E-06	120970.9453125	8.23988739284687E-05
2	451	112.382196716262	0.937957763671875	0.9381103515625	7.489013671875E-06	7.02552097209264E-06	125264.875	8.31621437100694E-05
2	452	112.482904716008	0.948028564453125	0.948486328125	7.3333740234375E-06	6.95560493113589E-06	129338.328125	8.39085114421323E-05
2	453	112.583612715754	0.958099365234375	0.958251953125	7.220458984375E-06	6.91901868776768E-06	132713.4375	8.46413531689905E-05
2	454	112.684320715499	0.968170166015625	0.96832275390625	7.16552734375E-06	6.93854326527799E-06	135136.28125	8.53657475090586E-05
2	455	112.785028715245	0.978240966796875	0.97808837890625	7.1746826171875E-06	7.01747376297135E-06	136324.96875	8.6087835370563E-05
2	456	112.885736714991	0.988311767578125	0.98785400390625	7.2540283203125E-06	7.16592103344738E-06	136180.0625	8.68143761181273E-05
2	457	112.986444714737	0.998382568359375	0.9979248046875	7.391357421875E-06	7.37601840228308E-06	135012.390625	8.75518308021128E-05
2	458	113.087152714482	1.00845336914063	1.00830078125	7.562255859375E-06	7.62502804718679E-06	133333.34375	8.83048051036894E-05
2	459	113.187860714228	1.01852416992188	1.01837158203125	7.7423095703125E-06	7.88454781286418E-06	131533.3125	8.90754527063109E-05
2	460	113.288568713974	1.02859497070313	1.0284423828125	7.9010009765625E-06	8.12572397990152E-06	130166.09375	8.986315515358E-05
2	461	113.38927671372	1.03866577148438	1.03912353515625	8.0078125E-06	8.32110617920989E-06	129763.71875	9.0664230810944E-05
2	462	113.489984713465	1.04873657226563	1.048583984375	8.0535888671875E-06	8.44486385176424E-06	130200.84375	9.14729826035909E-05
2	463	113.590692713211	1.05880737304688	1.0589599609375	8.038330078125E-06	8.51226923259674E-06	131738.8125	9.22832768992521E-05
2	464	113.691400712957	1.06887817382813	1.0687255859375	7.9681396484375E-06	8.51575441629393E-06	134124.859375	9.30892638280056E-05
2	465	113.792108712703	1.07894897460938	1.0791015625	7.8704833984375E-06	8.49305070005357E-06	137107.40625	9.38868033699691E-05
2	466	113.892816712448	1.08901977539063	1.08917236328125	7.75146484375E-06	8.44268197397469E-06	140511.8125	9.46734289755113E-05
2	467	113.993524712194	1.09909057617188	1.09893798828125	7.6263427734375E-06	8.38087817101041E-06	144097.640625	9.54477654886432E-05
2	468	114.09423271194	1.10916137695313	1.10931396484375	7.50732421875E-06	8.32797923067119E-06	147764.234375	9.62098056334071E-05
2	469	114.194940711685	1.11923217773438	1.11907958984375	7.391357421875E-06	8.27151689009042E-06	151403.8125	9.69600150710903E-05
2	470	114.295648711431	1.12930297851563	1.129150390625	7.281494140625E-06	8.22190213511931E-06	155071.25	9.76988521870226E-05
2	471	114.396356711177	1.13937377929688	1.13922119140625	7.177734375E-06	8.17702675703913E-06	158716	9.84269281616434E-05
2	472	114.497064710923	1.14944458007813	1.14898681640625	7.0831298828125E-06	8.13842234492768E-06	162214.5625	9.91450215224177E-05
2	473	114.597772710668	1.15951538085938	1.15997314453125	6.99462890625E-06	8.11358131613815E-06	165837.703125	9.98538962448947E-05
2	474	114.698480710414	1.16958618164063	1.16943359375	6.9091796875E-06	8.07982632977655E-06	169257.953125	0.000100554003438447
2	475	114.79918871016	1.17965698242188	1.17950439453125	6.829833984375E-06	8.05581839813385E-06	172698.84375	0.000101245823316276
2	476	114.899896709906	1.18972778320313	1.18927001953125	6.756591796875E-06	8.03541206551017E-06	176016.265625	0.000101929952506907
2	477	115.000604709651	1.19979858398438	1.199951171875	6.6864013671875E-06	8.02335489424877E-06	179461.4375	0.000102606863947585
2	478	115.101312709397	1.20986938476563	1.21002197265625	6.6192626953125E-06	8.00945326773217E-06	182803.140625	0.000103276855952572
2	479	115.202020709143	1.21994018554688	1.2200927734375	6.5582275390625E-06	8.00164616521215E-06	186040.015625	0.000103940394183155
2	480	115.302728708889	1.23001098632813	1.2298583984375	6.5032958984375E-06	7.9981327871792E-06	189113.09375	0.000104598089819774
2	481	115.403436708634	1.24008178710938	1.240234375	6.4483642578125E-06	7.99748340796214E-06	192333.171875	0.000105250263004564
2	482	115.50414470838	1.25015258789063	1.25	6.396484375E-06	7.99560530140297E-06	195419.84375	0.000105897051980719
2	483	115.604852708126	1.26022338867188	1.26007080078125	6.3507080078125E-06	8.00234101916431E-06	198414.234375	0.000106538922409527
2	484	115.705560707872	1.27029418945313	1.2701416015625	6.3079833984375E-06	8.0120316852117E-06	201354.625	0.000107176339952275
2	485	115.806268707617	1.28036499023438	1.2799072265625	6.2652587890625E-06	8.01894930191338E-06	204286.421875	0.000107809450128116
2	486	115.906976707363	1.29043579101563	1.2908935546875	6.2286376953125E-06	8.04050796432421E-06	207251.34375	0.000108438565803226
2	487	116.007684707109	1.30050659179688	1.30096435546875	6.1920166015625E-06	8.05559284344781E-06	210103.5	0.000109063999843784
2	488	116.108392706854	1.31057739257813	1.31072998046875	6.158447265625E-06	8.07206106401281E-06	212834.5	0.000109685890492983
2	489	116.2091007066	1.32064819335938	1.32080078125	6.1279296875E-06	8.09377434052294E-06	215537.84375	0.000110304565168917
2	490	116.309808706346	1.33071899414063	1.33056640625	6.1004638671875E-06	8.11707195680356E-06	218109.046875	0.000110920307633933
2	491	116.410516706092	1.34078979492188	1.3409423828125	6.0760498046875E-06	8.14763188827783E-06	220693.125	0.000111533445306122
2	492	116.511224705837	1.35086059570313	1.351318359375	6.0516357421875E-06	8.17768614069792E-06	223298.046875	0.000112144123704638
2	493	116.611932705583	1.36093139648438	1.36077880859375	6.0302734375E-06	8.20586774352705E-06	225657.90625	0.000112752495624591
2	494	116.712640705329	1.37100219726563	1.37054443359375	6.011962890625E-06	8.23966183816083E-06	227969.546875	0.000113358873932157
2	495	116.813348705075	1.38107299804688	1.380615234375	5.99365234375E-06	8.27492749522207E-06	230346.234375	0.000113963404146489
2	496	116.91405670482	1.39114379882813	1.3909912109375	5.9783935546875E-06	8.31589295557933E-06	232669.734375	0.000114566239062697
2	497	117.014764704566	1.40121459960938	1.4013671875	5.9661865234375E-06	8.3608183558681E-06	234884.90625	0.000115167698822916
2	498	117.115472704312	1.41128540039063	1.4111328125	5.95703125E-06	8.4061621237197E-06	236885.25	0.000115768081741408
2	499	117.216180704058	1.42135620117188	1.42120361328125	5.9478759765625E-06	8.45314207253978E-06	238943.0625	0.000116367540613282
2	500	117.316888703803	1.43142700195313	1.43157958984375	5.9417724609375E-06	8.50611922942335E-06	240934.78125	0.000116966235509608
2	501	117.417596703549	1.44149780273438	1.44134521484375	5.938720703125E-06	8.55974667501869E-06	242702.984375	0.000117564464744646
2	502	117.518304703295	1.45156860351563	1.45172119140625	5.938720703125E-06	8.62136676005321E-06	244450.15625	0.000118162541184574
2	503	117.619012703041	1.46163940429688	1.46209716796875	5.94482421875E-06	8.69190989760682E-06	245944.578125	0.000118760923214722
2	504	117.719720702786	1.47171020507813	1.47216796875	5.9539794921875E-06	8.7652579168207E-06	247257.828125	0.000119360076496378
2	505	117.820428702532	1.48178100585938	1.48193359375	5.9661865234375E-06	8.84149267221801E-06	248388.75	0.00011996030661976
2	506	117.921136702278	1.49185180664063	1.49169921875	5.987548828125E-06	8.9316217781743E-06	249133.546875	0.000120562224765308
2	507	118.021844702023	1.50192260742188	1.50177001953125	6.0150146484375E-06	9.03316868061665E-06	249670.21875	0.00012116660218453
2	508	118.122552701769	1.49185180664063	1.49200439453125	5.8319091796875E-06	8.7012340372894E-06	255834.640625	0.000121763136121444
2	509	118.223260701515	1.48178100585938	1.48193359375	5.6976318359375E-06	8.4435123426374E-06	260096.40625	0.000122343699331395
2	510	118.323968701261	1.47171020507813	1.47186279296875	5.584716796875E-06	8.21993671706878E-06	263551.90625	0.000122911806101911
2	511	118.424676701006	1.46163940429688	1.46148681640625	5.4901123046875E-06	8.02372596808709E-06	266203.46875	0.000123469464597292
2	512	118.525384700752	1.45156860351563	1.451416015625	5.4046630859375E-06	7.84441454015905E-06	268548.84375	0.000124018071801402
2	513	118.626092700498	1.44149780273438	1.441650390625	5.3314208984375E-06	7.68604422773933E-06	270406.4375	0.000124558675452136
2	514	118.726800700244	1.43142700195313	1.4312744140625	5.26123046875E-06	7.53026461097761E-06	272041.78125	0.000125092061352916
2	515	118.827508699989	1.42135620117188	1.42181396484375	5.2001953125E-06	7.39370989322197E-06	273415.5	0.000125618826132268
2	516	118.928216699735	1.41128540039063	1.4111328125	5.13916015625E-06	7.2520369940321E-06	274584.34375	0.000126139450003393
2	517	119.028924699481	1.40121459960938	1.40106201171875	5.084228515625E-06	7.12331893737428E-06	275570.25	0.000126654238556512
2	518	119.129632699227	1.39114379882813	1.39129638671875	5.0323486328125E-06	7.00148802934564E-06	276470.59375	0.000127163657452911
2	519	119.230340698972	1.38107299804688	1.3812255859375	4.98046875E-06	6.87915053276811E-06	277328.4375	0.000127667837659828
2	520	119.331048698718	1.37100219726563	1.37115478515625	4.9322509765625E-06	6.7628793658514E-06	277997.78125	0.000128166982904077
2	521	119.431756698464	1.36093139648438	1.36077880859375	4.8870849609375E-06	6.65024117552093E-06	278443.875	0.000128661427879706
2	522	119.53246469821	1.35086059570313	1.35101318359375	4.84375E-06	6.54397035759757E-06	278918.84375	0.000129151419969276
2	523	119.633172697955	1.34078979492188	1.34033203125	4.80194091796875E-06	6.43619478069013E-06	279123	0.000129637119243853
2	524	119.733880697701	1.33071899414063	1.33026123046875	4.761962890625E-06	6.33465469945804E-06	279351.4375	0.00013011870032642
2	525	119.834588697447	1.32064819335938	1.32049560546875	4.7235107421875E-06	6.23737514615641E-06	279558.09375	0.000130596323288046
2	526	119.935296697192	1.31057739257813	1.309814453125	4.686279296875E-06	6.13815609540325E-06	279499.875	0.000131070148199797
2	527	120.036004696938	1.30050659179688	1.30035400390625	4.649658203125E-06	6.04620117883314E-06	279666.59375	0.000131540247821249
2	528	120.136712696684	1.29043579101563	1.29119873046875	4.6148681640625E-06	5.95871188124875E-06	279791.03125	0.00013200675311964
2	529	120.23742069643	1.28036499023438	1.28021240234375	4.5819091796875E-06	5.86581700190436E-06	279405.875	0.000132469853269868
2	530	120.338128696175	1.27029418945313	1.26983642578125	4.5489501953125E-06	5.77642231291975E-06	279149.34375	0.000132929621031508
2	531	120.438836695921	1.26022338867188	1.26007080078125	4.517822265625E-06	5.69277563045034E-06	278911.125	0.000133386172819883
2	532	120.539544695667	1.25015258789063	1.25030517578125	4.4873046875E-06	5.61050001124386E-06	278631.6875	0.000133839610498399
2	533	120.640252695413	1.24008178710938	1.23992919921875	4.45770263671875E-06	5.52723577129655E-06	278154.3125	0.000134290035930462
2	534	120.740960695158	1.23001098632813	1.23016357421875	4.4287109375E-06	5.44803879165556E-06	277770.125	0.000134737507323734
2	535	120.841668694904	1.21994018554688	1.21978759765625	4.4000244140625E-06	5.36709512743982E-06	277222.90625	0.000135182068333961
2	536	120.94237669465	1.20986938476563	1.20941162109375	4.37164306640625E-06	5.28711598235532E-06	276649.21875	0.000135623748064972
2	537	121.043084694396	1.19979858398438	1.19964599609375	4.34356689453125E-06	5.21074207426864E-06	276189.15625	0.000136062590172514
2	538	121.143792694141	1.18972778320313	1.1895751953125	4.3157958984375E-06	5.13396344103967E-06	275632.875	0.000136498623760417
2	539	121.244500693887	1.17965698242188	1.1798095703125	4.28680419921875E-06	5.05761272506788E-06	275218.90625	0.000136931805172935
2	540	121.345208693633	1.16958618164063	1.16973876953125	4.25750732421875E-06	4.98017107020132E-06	274747.34375	0.000137362047098577
2	541	121.445916693379	1.15951538085938	1.15936279296875	4.2266845703125E-06	4.9002605919668E-06	274296.0625	0.000137789262225851
2	542	121.546624693124	1.14944458007813	1.1492919921875	4.19342041015625E-06	4.8194647206401E-06	274070.3125	0.000138213246827945
2	543	121.64733269287	1.13937377929688	1.13922119140625	4.15679931640625E-06	4.73551381219295E-06	274062.125	0.000138633709866554
2	544	121.748040692616	1.12930297851563	1.129150390625	4.11468505859375E-06	4.6460982048302E-06	274419.65625	0.00013905021478422
2	545	121.848748692361	1.11923217773438	1.11907958984375	4.0655517578125E-06	4.54967585028498E-06	275258.96875	0.000139462121296674
2	546	121.949456692107	1.10916137695313	1.10931396484375	4.005126953125E-06	4.44294300905312E-06	276973.5	0.000139868512633257
2	547	122.050164691853	1.09909057617188	1.09954833984375	3.9306640625E-06	4.32195474786568E-06	279736.0625	0.000140268108225428
2	548	122.150872691599	1.08901977539063	1.0888671875	3.83514404296875E-06	4.17596265833708E-06	283918.1875	0.000140659147291444
2	549	122.251580691344	1.07894897460938	1.0784912109375	3.71337890625E-06	4.00484668716672E-06	290433.9375	0.000141039243317209
2	550	122.35228869109	1.06887817382813	1.06903076171875	3.55712890625E-06	3.80268011213047E-06	300531.9375	0.00014140535495244
2	551	122.452996690836	1.05880737304688	1.05804443359375	3.3612060546875E-06	3.5563052733778E-06	314781.1875	0.000141753713251092
2	552	122.553704690582	1.04873657226563	1.04888916015625	3.12164306640625E-06	3.27425755131117E-06	336005.46875	0.000142080156365409
2	553	122.654412690327	1.03866577148438	1.038818359375	2.84393310546875E-06	2.95432982966304E-06	365275.25	0.000142380536999553
2	554	122.755120690073	1.02859497070313	1.02874755859375	2.537841796875E-06	2.61079844676715E-06	405363.15625	0.000142651537316851
2	555	122.855828689819	1.01852416992188	1.01837158203125	2.2247314453125E-06	2.26560314331437E-06	457750.375	0.000142891352879815
2	556	122.956536689565	1.00845336914063	1.00830078125	1.92901611328125E-06	1.94502831618593E-06	522702.125	0.000143100507557392
2	557	123.05724468931	0.998382568359375	0.99853515625	1.676025390625E-06	1.67357029567938E-06	595775.6875	0.000143282042699866
2	558	123.157952689056	0.988311767578125	0.98876953125	1.4825439453125E-06	1.46589422911347E-06	666941.125	0.000143441080581397
2	559	123.258660688802	0.978240966796875	0.97808837890625	1.356201171875E-06	1.32648449380213E-06	721197.1875	0.000143584024044685
2	560	123.359368688548	0.968170166015625	0.968017578125	1.287841796875E-06	1.24665348266717E-06	751658.8125	0.000143717159517109
2	561	123.460076688293	0.958099365234375	0.95794677734375	1.26129150390625E-06	1.20825006888481E-06	759496.75	0.000143845521961339
2	562	123.560784688039	0.948028564453125	0.9478759765625	1.25030517578125E-06	1.18513412417087E-06	758115.75	0.000143971992656589
2	563	123.661492687785	0.937957763671875	0.93841552734375	1.234130859375E-06	1.15812758849643E-06	760385.75	0.000144097095471807
2	564	123.76220068753	0.927886962890625	0.92803955078125	1.19293212890625E-06	1.10708822376182E-06	777948.3125	0.000144219302455895
2	565	123.862908687276	0.917816162109375	0.91796875	1.11083984375E-06	1.01971625099395E-06	826373.6875	0.000144335310324095
2	566	123.963616687022	0.907745361328125	0.90789794921875	9.7320556640625E-07	8.83571260601457E-07	932894.375	0.000144440244184807
2	567	124.064324686768	0.897674560546875	0.89813232421875	7.659912109375E-07	6.87961460243969E-07	1172510	0.000144527817610651
2	568	124.165032686513	0.887603759765625	0.88775634765625	4.8553466796875E-07	4.31036482950731E-07	1828409.875	0.000144590841955505
2	569	124.265740686259	0.877532958984375	0.877685546875	1.3153076171875E-07	1.15442638559671E-07	6672854	0.000144621910294518
2	570	124.366448686005	0.867462158203125	0.86761474609375	-2.8564453125E-07	-2.47829404997901E-07	-3037393.25	0.000144614154123701
2	571	124.467156685751	0.857391357421875	0.85784912109375	-7.421875E-07	-6.36684887922456E-07	-1155838.875	0.000144562392961234
2	572	124.567864685496	0.847320556640625	0.84747314453125	-1.20025634765625E-06	-1.01718501355208E-06	-706076.8125	0.000144464589538984
2	573	124.668572685242	0.837249755859375	0.83770751953125	-1.62689208984375E-06	-1.36285973439954E-06	-514912.78125	0.000144322228152305
2	574	124.769280684988	0.827178955078125	0.8270263671875	-1.9842529296875E-06	-1.64102937105781E-06	-416794.875	0.000144140401971526
2	575	124.869988684734	0.817108154296875	0.81756591796875	-2.2467041015625E-06	-1.83682868737378E-06	-363895.6875	0.000143927347380668
2	576	124.970696684479	0.807037353515625	0.8074951171875	-2.401123046875E-06	-1.93889513866452E-06	-336298.9375	0.00014369330892805
2	577	125.071404684225	0.796966552734375	0.797119140625	-2.4560546875E-06	-1.95776806322101E-06	-324552.71875	0.000143448734888807
2	578	125.172112683971	0.786895751953125	0.78643798828125	-2.4334716796875E-06	-1.9137744402542E-06	-323175.34375	0.000143202531035058
2	579	125.272820683717	0.776824951171875	0.77667236328125	-2.3614501953125E-06	-1.83407314580109E-06	-328896.34375	0.000142961085657589
2	580	125.373528683462	0.766754150390625	0.76751708984375	-2.2686767578125E-06	-1.7412481838619E-06	-338310.46875	0.0001427279348718
2	581	125.474236683208	0.756683349609375	0.75653076171875	-2.1795654296875E-06	-1.64890832365927E-06	-347101.65625	0.000142503951792605
2	582	125.574944682954	0.746612548828125	0.746551513671875	-2.1112060546875E-06	-1.57612396378681E-06	-353613.78125	0.00014228789950721
2	583	125.675652682699	0.736541748046875	0.73651123046875	-2.07977294921875E-06	-1.53177609263366E-06	-354130.59375	0.000142076867632568
2	584	125.776360682445	0.726470947265625	0.72637939453125	-2.09442138671875E-06	-1.521344415778E-06	-346816.28125	0.000141866679769009
2	585	125.877068682191	0.716400146484375	0.716339111328125	-2.16033935546875E-06	-1.54753558945231E-06	-331586.375	0.000141652431921102
2	586	125.977776681937	0.706329345703125	0.706298828125	-2.27691650390625E-06	-1.6081833109638E-06	-310199.71875	0.000141429001814686
2	587	126.078484681682	0.696258544921875	0.696197509765625	-2.437744140625E-06	-1.69715133324644E-06	-285590.875	0.00014119160186965
2	588	126.179192681428	0.686187744140625	0.686187744140625	-2.62298583984375E-06	-1.79986056991766E-06	-261605.59375	0.000140936768730171
2	589	126.279900681174	0.676116943359375	0.676055908203125	-2.81158447265625E-06	-1.90078822015494E-06	-240453.71875	0.000140663119964302
2	590	126.38060868092	0.666046142578125	0.665985107421875	-2.97607421875E-06	-1.98202110368584E-06	-223779.734375	0.000140371688758023
2	591	126.481316680665	0.655975341796875	0.6558837890625	-3.0938720703125E-06	-2.02922046810272E-06	-211994.484375	0.000140066040330566
2	592	126.582024680411	0.645904541015625	0.645843505859375	-3.15155029296875E-06	-2.03540821530623E-06	-204928.84375	0.000139751558890566
2	593	126.682732680157	0.635833740234375	0.63580322265625	-3.148193359375E-06	-2.00163140107179E-06	-201958.140625	0.000139434341690503
2	594	126.783440679903	0.625762939453125	0.625732421875	-3.09326171875E-06	-1.93555410987756E-06	-202288.875	0.000139120049425401
2	595	126.884148679648	0.615692138671875	0.615631103515625	-3.0010986328125E-06	-1.84756959242804E-06	-205135.25	0.000138813178637065
2	596	126.984856679394	0.605621337890625	0.605621337890625	-2.8863525390625E-06	-1.74803653862909E-06	-209822.390625	0.000138516727020033
2	597	127.08556467914	0.595550537109375	0.595550537109375	-2.76153564453125E-06	-1.64463403962145E-06	-215659.1875	0.00013823232438881
2	598	127.186272678886	0.585479736328125	0.585479736328125	-2.6348876953125E-06	-1.54267331708979E-06	-222202.9375	0.00013796059647575
2	599	127.286980678631	0.575408935546875	0.575408935546875	-2.51251220703125E-06	-1.44572186400183E-06	-229017.375	0.000137701412313618
2	600	127.387688678377	0.565338134765625	0.56536865234375	-2.39654541015625E-06	-1.35493166908418E-06	-235909.84375	0.000137454218929633
2	601	127.488396678123	0.555267333984375	0.55523681640625	-2.288818359375E-06	-1.27083615097945E-06	-242586.6875	0.000137218288728036
2	602	127.589104677868	0.545196533203125	0.545166015625	-2.18902587890625E-06	-1.19338244530809E-06	-249045.046875	0.000136992806801572
2	603	127.689812677614	0.535125732421875	0.53509521484375	-2.0965576171875E-06	-1.12185796297126E-06	-255225.609375	0.000136777016450651
2	604	127.79052067736	0.525054931640625	0.52508544921875	-2.01202392578125E-06	-1.05648450698936E-06	-260973.75	0.000136570131871849
2	605	127.891228677106	0.514984130859375	0.514984130859375	-1.934814453125E-06	-9.96398739516735E-07	-266167.1875	0.000136371396365575
2	606	127.991936676851	0.504913330078125	0.504913330078125	-1.86431884765625E-06	-9.41319456160272E-07	-270829.9375	0.000136180096887983
2	607	128.092644676597	0.494842529296875	0.49481201171875	-1.79931640625E-06	-8.90323349267419E-07	-275000	0.000135995607706718
2	608	128.193352676343	0.484771728515625	0.4847412109375	-1.73980712890625E-06	-8.43356190216582E-07	-278617.78125	0.000135817404952832
2	609	128.294060676089	0.474700927734375	0.4747314453125	-1.6839599609375E-06	-7.99428732989327E-07	-281913.75	0.000135645008413121
2	610	128.394768675834	0.464630126953125	0.464691162109375	-1.63330078125E-06	-7.58980434056866E-07	-284510.46875	0.000135477966978215
2	611	128.49547667558	0.454559326171875	0.454620361328125	-1.58538818359375E-06	-7.20749767424422E-07	-286756.5	0.000135315887746401
2	612	128.596184675326	0.444488525390625	0.444488525390625	-1.54144287109375E-06	-6.85153679569339E-07	-288358.75	0.000135158450575545
2	613	128.696892675072	0.434417724609375	0.4344482421875	-1.50115966796875E-06	-6.52176197490917E-07	-289408.40625	0.000135005233460106
2	614	128.797600674817	0.424346923828125	0.424346923828125	-1.46270751953125E-06	-6.206954026311E-07	-290110.59375	0.000134855989017524
2	615	128.898308674563	0.414276123046875	0.41424560546875	-1.42822265625E-06	-5.91634943702957E-07	-290042.75	0.000134710426209494
2	616	128.999016674309	0.404205322265625	0.40411376953125	-1.39617919921875E-06	-5.64215213216812E-07	-289442.625	0.000134568210341968
2	617	129.099724674055	0.394134521484375	0.3941650390625	-1.36566162109375E-06	-5.38296035301755E-07	-288625.71875	0.00013442913768813
2	618	129.2004326738	0.384063720703125	0.38409423828125	-1.337890625E-06	-5.13876045715733E-07	-287089.4375	0.000134293004521169
2	619	129.301140673546	0.373992919921875	0.374053955078125	-1.3116455078125E-06	-4.90626177906961E-07	-285179.15625	0.00013415957801044
2	620	129.401848673292	0.363922119140625	0.363983154296875	-1.2872314453125E-06	-4.68530544139867E-07	-282764.34375	0.000134028727188706
2	621	129.502556673037	0.353851318359375	0.3538818359375	-1.2640380859375E-06	-4.47320104512983E-07	-279961.375	0.000133900248329155
2	622	129.603264672783	0.343780517578125	0.343780517578125	-1.24298095703125E-06	-4.2731264215945E-07	-276577.46875	0.000133774010464549
2	623	129.703972672529	0.333709716796875	0.333770751953125	-1.22283935546875E-06	-4.08147997177366E-07	-272947.375	0.000133649853523821
2	624	129.804680672275	0.323638916015625	0.323638916015625	-1.204833984375E-06	-3.89931159361367E-07	-268617.03125	0.000133527602883987
2	625	129.90538867202	0.313568115234375	0.313568115234375	-1.187744140625E-06	-3.72438705653622E-07	-264003.09375	0.000133407127577811
2	626	130.006096671766	0.303497314453125	0.303466796875	-1.171875E-06	-3.5562513289733E-07	-258958.34375	0.000133288311189972
2	627	130.106804671512	0.293426513671875	0.293426513671875	-1.1572265625E-06	-3.39560926931881E-07	-253560.140625	0.000133171037305146
2	628	130.207512671258	0.283355712890625	0.28338623046875	-1.1444091796875E-06	-3.24309780808107E-07	-247626.6875	0.000133055145852268
2	629	130.308220671003	0.273284912109375	0.27325439453125	-1.13250732421875E-06	-3.09462620862178E-07	-241282.671875	0.000132940491312183
2	630	130.408928670749	0.263214111328125	0.26324462890625	-1.12152099609375E-06	-2.95234372060804E-07	-234721.09375	0.000132826986373402
2	631	130.509636670495	0.253143310546875	0.25311279296875	-1.11175537109375E-06	-2.81399479717948E-07	-227669.515625	0.000132714529172517
2	632	130.610344670241	0.243072509765625	0.24310302734375	-1.103515625E-06	-2.68267996261784E-07	-220298.671875	0.000132602988742292
2	633	130.711052669986	0.233001708984375	0.233001708984375	-1.09619140625E-06	-2.5541444870214E-07	-212555.6875	0.000132492219563574
2	634	130.811760669732	0.222930908203125	0.222991943359375	-1.09039306640625E-06	-2.43148861045483E-07	-204506.015625	0.000132382119772956
2	635	130.912468669478	0.212860107421875	0.212890625	-1.08551025390625E-06	-2.31094958280664E-07	-196120.328125	0.000132272558403201
2	636	131.013176669224	0.202789306640625	0.202850341796875	-1.08184814453125E-06	-2.19453269778569E-07	-187503.53125	0.000132163419038989
2	637	131.113884668969	0.192718505859375	0.1927490234375	-1.080322265625E-06	-2.08231057285957E-07	-178418.078125	0.00013205454160925
2	638	131.214592668715	0.182647705078125	0.18267822265625	-1.0809326171875E-06	-1.97462853179786E-07	-169000.5625	0.000131945722387172
2	639	131.315300668461	0.172576904296875	0.172576904296875	-1.08428955078125E-06	-1.87123333716954E-07	-159161.265625	0.000131836684886366
2	640	131.416008668206	0.162506103515625	0.162567138671875	-1.0906982421875E-06	-1.77311690663373E-07	-149048.6875	0.000131727167172357
2	641	131.516716667952	0.152435302734375	0.15240478515625	-1.10137939453125E-06	-1.67855475297074E-07	-138376.296875	0.00013161679089535
2	642	131.617424667698	0.142364501953125	0.14239501953125	-1.11724853515625E-06	-1.59090632223524E-07	-127451.515625	0.000131505075842142
2	643	131.718132667444	0.132293701171875	0.132354736328125	-1.14105224609375E-06	-1.51023655803328E-07	-115993.5859375	0.000131391352624632
2	644	131.818840667189	0.122222900390625	0.122283935546875	-1.17431640625E-06	-1.43600033197799E-07	-104132.0234375	0.000131274777231738
2	645	131.919548666935	0.112152099609375	0.1121826171875	-1.21978759765625E-06	-1.36838963271657E-07	-91968.9765625	0.000131154214614071
2	646	132.020256666681	0.102081298828125	0.102081298828125	-1.28082275390625E-06	-1.30748048832174E-07	-79699.7890625	0.0001310282968916
2	647	132.120964666427	0.092010498046875	0.092071533203125	-1.3604736328125E-06	-1.25260882555267E-07	-67676.09375	0.000130895306938328
2	648	132.221672666172	0.081939697265625	0.08197021484375	-1.46270751953125E-06	-1.19898444950195E-07	-56040.05859375	0.000130753149278462
2	649	132.322380665918	0.071868896484375	0.0718994140625	-1.591796875E-06	-1.14449257182514E-07	-45168.71484375	0.000130599335534498
2	650	132.423088665664	0.061798095703125	0.061859130859375	-1.75048828125E-06	-1.08283678912358E-07	-35338.21484375	0.000130431042634882
2	651	132.52379666541	0.051727294921875	0.051788330078125	-1.94122314453125E-06	-1.00532695057609E-07	-26678.197265625	0.00013024514191784
2	652	132.624504665155	0.041656494140625	0.04173583984375	-2.1588134765625E-06	-9.00998884389992E-08	-19332.767578125	0.000130038693896495
2	653	132.725212664901	0.031585693359375	0.0317047119140625	-2.39471435546875E-06	-7.59237295255843E-08	-13239.455078125	0.000129809413920157
2	654	132.825920664647	0.021514892578125	0.0216064453125	-2.6300048828125E-06	-5.6825058436516E-08	-8215.36328125	0.000129556385218166
2	655	132.926628664393	0.011444091796875	0.0115325927734375	-2.84393310546875E-06	-3.27979208236684E-08	-4055.15600585938	0.000129280757391825
2	656	133.027336664138	0.001373291015625	0.0014495849609375	-3.016357421875E-06	-4.37246638895772E-09	-480.574676513672	0.000128985673654824
2	657	133.128044663884	-0.008697509765625	-0.0086181640625	-3.13232421875E-06	2.69948827735789E-08	2751.36401367188	0.000128676052554511
2	658	133.22875266363	-0.018768310546875	-0.018634033203125	-3.18939208984375E-06	5.94312332680147E-08	5842.50341796875	0.00012835772940889
2	659	133.329460663375	-0.028839111328125	-0.0286895751953125	-3.19549560546875E-06	9.16774069992243E-08	8978.1298828125	0.00012803623394575
2	660	133.430168663121	-0.038909912109375	-0.03875732421875	-3.162841796875E-06	1.22583287520683E-07	12253.9560546875	0.000127716062706895
2	661	133.530876662867	-0.048980712890625	-0.048828125	-3.10516357421875E-06	1.51619303778716E-07	15724.81640625	0.000127400446217507
2	662	133.631584662613	-0.059051513671875	-0.058990478515625	-3.03558349609375E-06	1.79070511308055E-07	19432.99609375	0.00012709123257082
2	663	133.732292662358	-0.069122314453125	-0.06903076171875	-2.960205078125E-06	2.04345198540068E-07	23319.587890625	0.000126789323985577
2	664	133.833000662104	-0.079193115234375	-0.079132080078125	-2.8875732421875E-06	2.28499672516591E-07	27404.35546875	0.000126494865980931
2	665	133.93370866185	-0.089263916015625	-0.089141845703125	-2.8179931640625E-06	2.5120110080934E-07	31633.095703125	0.000126207567518577
2	666	134.034416661596	-0.099334716796875	-0.099334716796875	-2.75482177734375E-06	2.73649447990465E-07	36058.4921875	0.000125926948385313
2	667	134.135124661341	-0.109405517578125	-0.109344482421875	-2.6983642578125E-06	2.95051222565235E-07	40522.5078125	0.000125652353744954
2	668	134.235832661087	-0.119476318359375	-0.119415283203125	-2.6470947265625E-06	3.16103552222557E-07	45111.83203125	0.000125383186968975
2	669	134.336540660833	-0.129547119140625	-0.129425048828125	-2.601318359375E-06	3.36675753942473E-07	49753.63671875	0.000125118909636512
2	670	134.437248660579	-0.139617919921875	-0.1395263671875	-2.56134033203125E-06	3.57374517534481E-07	54473.96484375	0.000124858954222873
2	671	134.537956660324	-0.149688720703125	-0.14959716796875	-2.52532958984375E-06	3.77782157556794E-07	59238.671875	0.000124602825962938
2	672	134.63866466007	-0.159759521484375	-0.15966796875	-2.49420166015625E-06	3.98244111465829E-07	64015.66015625	0.000124350073747337
2	673	134.739372659816	-0.169830322265625	-0.169677734375	-2.46612548828125E-06	4.18446575167764E-07	68803.3671875	0.000124100290122442
2	674	134.840080659562	-0.179901123046875	-0.179718017578125	-2.44171142578125E-06	4.38819512282862E-07	73603.3046875	0.000123853169498034
2	675	134.940788659307	-0.189971923828125	-0.189849853515625	-2.42034912109375E-06	4.59502928151778E-07	78439.0390625	0.000123608348076232
2	676	135.041496659053	-0.200042724609375	-0.199920654296875	-2.401123046875E-06	4.80034088923276E-07	83261.3125	0.000123365563922562
2	677	135.142204658799	-0.189971923828125	-0.1898193359375	-2.17193603515625E-06	4.12275426242559E-07	87396.3828125	0.000123135294415988
