Potential - Start -0.2 V, Upper Vertex 1.5 V, Lower Vertex -0.2 V, Stop -0.19 V; Scan - # end cross 5, Rate 0.1 Vps, Step 0.01 V 
Scan	Index	Time (s)	Potential applied (V)	WE(1).Potential (V)	WE(1).Current (A)	WE(1).Power (W)	WE(1).Resistance (Ω)	WE(1).Charge (C)
1	1	65.7855688339074	-0.189971923828125	-0.1898193359375	-2.349853515625E-07	4.46047643265501E-08	807792.1875	0
1	2	65.8862768336531	-0.179901123046875	-0.17974853515625	-2.0172119140625E-07	3.62590881763936E-08	891074.125	-2.19899209952246E-08
1	3	65.9869848333989	-0.169830322265625	-0.169708251953125	-1.74560546874999E-07	2.96243634068105E-08	972202.8125	-4.09372127307961E-08
1	4	66.0876928331446	-0.159759521484375	-0.159698486328125	-1.5106201171875E-07	2.41243736098795E-08	1057171.75	-5.73336080833542E-08
1	5	66.1884008328904	-0.149688720703125	-0.14959716796875	-1.30615234375001E-07	1.95396694380179E-08	1145327.125	-7.15171850629304E-08
1	6	66.2891088326361	-0.139617919921875	-0.139495849609375	-1.116943359375E-07	1.5580896572942E-08	1248907.125	-8.37184401802915E-08
1	7	66.3898168323818	-0.129547119140625	-0.12945556640625	-9.24682617187506E-08	1.19705312329188E-08	1400000	-9.39988424875082E-08
1	8	66.4905248321276	-0.119476318359375	-0.11944580078125	-7.35473632812497E-08	8.78492389944086E-09	1624066.375	-1.02358399090008E-07
1	9	66.5912328318733	-0.109405517578125	-0.109344482421875	-5.40161132812494E-08	5.90636384245613E-09	2024293.875	-1.08781726737561E-07
1	10	66.691940831619	-0.099334716796875	-0.0992431640625	-3.38745117187497E-08	3.36181349425146E-09	2929729.75	-1.13207370588952E-07
1	11	66.7926488313648	-0.089263916015625	-0.08917236328125	-9.46044921874972E-09	8.43610625800295E-10	9425806	-1.15389461541326E-07
1	12	66.8933568311105	-0.079193115234375	-0.079132080078125	1.86157226562497E-08	-1.47310086351382E-09	-4250820	-1.14928454308938E-07
1	13	66.9940648308562	-0.069122314453125	-0.069061279296875	5.40161132812494E-08	-3.73042174928173E-09	-1278531.125	-1.11271148739434E-07
1	14	67.094772830602	-0.059051513671875	-0.058990478515625	9.918212890625E-08	-5.85080073278732E-09	-594769.25	-1.03557006525534E-07
1	15	67.1954808303477	-0.048980712890625	-0.0488494873046875	1.5869140625E-07	-7.75199371361168E-09	-307826.90625	-9.05720440869118E-08
1	16	67.2961888300935	-0.038909912109375	-0.0387939453125	2.38952636718751E-07	-9.26991461369653E-09	-162349.9375	-7.05490776908846E-08
1	17	67.3968968298392	-0.028839111328125	-0.0287353515625	3.460693359375E-07	-9.94442395096939E-09	-83033.5078125	-4.10908818082589E-08
1	18	67.4976048295849	-0.018768310546875	-0.0186614990234375	4.852294921875E-07	-9.05510955107047E-09	-38459.12109375	7.68338059842222E-10
1	19	67.5983128293307	-0.008697509765625	-0.0085906982421875	6.61621093750001E-07	-5.68378677456849E-09	-12984.3173828125	5.85168500322197E-08
1	20	67.6990208290764	0.001373291015625	0.00147094726562499	8.75244140625001E-07	1.28743793403885E-09	1680.61376953125	1.35904159037636E-07
1	21	67.7997288288221	0.011444091796875	0.01153564453125	1.1187744140625E-06	1.29057839970415E-08	10310.9658203125	2.36310967238751E-07
1	22	67.9004368285679	0.021514892578125	0.02159423828125	1.3739013671875E-06	2.96683513312246E-08	15717.458984375	3.61827176220686E-07
1	23	68.0011448283136	0.031585693359375	0.0316497802734375	1.6162109375E-06	5.11527176172422E-08	19582.705078125	5.12391295615089E-07
1	24	68.1018528280594	0.041656494140625	0.0417510986328125	1.82281494140625E-06	7.61045200192711E-08	22904.73828125	6.85559996327356E-07
1	25	68.2025608278051	0.051727294921875	0.05181884765625	1.9720458984375E-06	1.02189140704922E-07	26276.697265625	8.76646367942158E-07
1	26	68.3032688275508	0.061798095703125	0.061859130859375	2.056884765625E-06	1.27237100855382E-07	30074.18359375	1.07951916561433E-06
1	27	68.4039768272966	0.071868896484375	0.0718994140625	2.0831298828125E-06	1.49775814861641E-07	34515.08984375	1.28798546938924E-06
1	28	68.5046848270423	0.081939697265625	0.082000732421875	2.064208984375E-06	1.69266641592003E-07	39725.015625	1.49682057326572E-06
1	29	68.605392826788	0.092010498046875	0.092071533203125	2.01416015625E-06	1.85446808131928E-07	45712.12109375	1.70218277162348E-06
1	30	68.7061008265338	0.102081298828125	0.10205078125	1.94671630859375E-06	1.98663926198606E-07	52422.0078125	1.90162870694621E-06
1	31	68.8068088262795	0.112152099609375	0.11224365234375	1.87347412109375E-06	2.10285563184698E-07	59912.0390625	2.09399058803683E-06
1	32	68.9075168260252	0.122222900390625	0.122314453125	1.7999267578125E-06	2.20157048147485E-07	67955.2421875	2.27896111937298E-06
1	33	69.008224825771	0.132293701171875	0.132293701171875	1.7291259765625E-06	2.2875246941112E-07	76509	2.45666296905256E-06
1	34	69.1089328255167	0.142364501953125	0.14239501953125	1.66412353515625E-06	2.36962890198811E-07	85567.578125	2.62752655544318E-06
1	35	69.2096408252625	0.152435302734375	0.1524658203125	1.60614013671875E-06	2.4488147687407E-07	94926.8515625	2.79219739240943E-06
1	36	69.3103488250082	0.162506103515625	0.16259765625	1.5533447265625E-06	2.52570202974312E-07	104675.84375	2.95129007099604E-06
1	37	69.4110568247539	0.172576904296875	0.172576904296875	1.5069580078125E-06	2.60066144619486E-07	114520.0546875	3.10538871417521E-06
1	38	69.5117648244997	0.182647705078125	0.182708740234375	1.46514892578125E-06	2.67695497768727E-07	124703.1875	3.25504606735194E-06
1	39	69.6124728242454	0.192718505859375	0.192779541015625	1.42730712890625E-06	2.7515559963831E-07	135065.21875	3.40069277626753E-06
1	40	69.7131808239911	0.202789306640625	0.20281982421875	1.3946533203125E-06	2.82863339862161E-07	145426.703125	3.54278972736211E-06
1	41	69.8138888237369	0.212860107421875	0.212890625	1.36474609375E-06	2.90541635195041E-07	155992.859375	3.68173664355709E-06
1	42	69.9145968234826	0.222930908203125	0.222930908203125	1.33819580078125E-06	2.98325176117942E-07	166590.65625	3.81784047931433E-06
1	43	70.0153048232283	0.233001708984375	0.233001708984375	1.3140869140625E-06	3.06184489318184E-07	177310.734375	3.95139340980677E-06
1	44	70.1160128229741	0.243072509765625	0.243133544921875	1.2921142578125E-06	3.14156324066062E-07	188167.21875	4.08262621931499E-06
1	45	70.2167208227198	0.253143310546875	0.253173828125	1.2725830078125E-06	3.22184689593996E-07	198944.859375	4.21176900999853E-06
1	46	70.3174288224656	0.263214111328125	0.263214111328125	1.25457763671875E-06	3.30222519551171E-07	209802.984375	4.33902141594444E-06
1	47	70.4181368222113	0.273284912109375	0.273223876953125	1.2384033203125E-06	3.38361360263661E-07	220625.921875	4.4645530579146E-06
1	48	70.518844821957	0.283355712890625	0.2833251953125	1.22406005859375E-06	3.46807041751163E-07	231463.484375	4.58854810858611E-06
1	49	70.6195528217028	0.293426513671875	0.293365478515625	1.2109375E-06	3.55247266270453E-07	242263.109375	4.71115981781622E-06
1	50	70.7202608214485	0.303497314453125	0.3035888671875	1.19842529296875E-06	3.63828576155356E-07	253323.15625	4.83248095406452E-06
1	51	70.8209688211942	0.313568115234375	0.313629150390625	1.1871337890625E-06	3.72319760799655E-07	264190.25	4.95260337629588E-06
1	52	70.92167682094	0.323638916015625	0.32366943359375	1.1773681640625E-06	3.81078081090891E-07	274909.28125	5.07166578245233E-06
1	53	71.0223848206857	0.333709716796875	0.333770751953125	1.16851806640625E-06	3.90017135032394E-07	285635.96875	5.18979049957125E-06
1	54	71.1230928204315	0.343780517578125	0.343780517578125	1.1602783203125E-06	3.98881070395873E-07	296291.4375	5.30705437995493E-06
1	55	71.2238008201772	0.353851318359375	0.3538818359375	1.15325927734375E-06	4.08117529104857E-07	306853.65625	5.42355019206298E-06
1	56	71.3245088199229	0.363922119140625	0.363922119140625	1.1468505859375E-06	4.17364276472654E-07	317323.0625	5.5393702496076E-06
1	57	71.4252168196687	0.373992919921875	0.37396240234375	1.141357421875E-06	4.26824755095367E-07	327647.0625	5.65459049539641E-06
1	58	71.5259248194144	0.384063720703125	0.384033203125	1.13677978515625E-06	4.36561151673232E-07	337825.53125	5.76930369788897E-06
1	59	71.6266328191601	0.394134521484375	0.3941650390625	1.13250732421875E-06	4.46394807340766E-07	348046.34375	5.88357170272502E-06
1	60	71.7273408189059	0.404205322265625	0.40423583984375	1.129150390625E-06	4.5644307533621E-07	358000	5.99745499130222E-06
1	61	71.8280488186516	0.414276123046875	0.414276123046875	1.126708984375E-06	4.66768625528857E-07	367686.90625	6.1110467868275E-06
1	62	71.9287568183973	0.424346923828125	0.424346923828125	1.124267578125E-06	4.77079481697729E-07	377443	6.2243921092886E-06
1	63	72.0294648181431	0.434417724609375	0.43438720703125	1.123046875E-06	4.87837212403974E-07	386793.46875	6.33755371381994E-06
1	64	72.1301728178888	0.444488525390625	0.44451904296875	1.12213134765625E-06	4.98808731208555E-07	396138.1875	6.45060708848177E-06
1	65	72.2308808176346	0.454559326171875	0.454620361328125	1.1212158203125E-06	5.09727499320434E-07	405470.90625	6.56356860417873E-06
1	66	72.3315888173803	0.464630126953125	0.464599609375	1.1212158203125E-06	5.20916387358739E-07	414371.28125	6.67648419039324E-06
1	67	72.432296817126	0.474700927734375	0.474700927734375	1.121826171875E-06	5.32531885255594E-07	423150.1875	6.78943024468026E-06
1	68	72.5330048168718	0.484771728515625	0.484832763671875	1.123046875E-06	5.44489921594504E-07	431711.9375	6.90246861267951E-06
1	69	72.6337128166175	0.494842529296875	0.494842529296875	1.1248779296875E-06	5.56637417048478E-07	439907.75	7.01566068528336E-06
1	70	72.7344208163632	0.504913330078125	0.504913330078125	1.1279296875E-06	5.69506710235146E-07	447646.125	7.12909832145669E-06
1	71	72.835128816109	0.514984130859375	0.51495361328125	1.13189697265625E-06	5.82874406518386E-07	454947.4375	7.24288975106901E-06
1	72	72.9358368158547	0.525054931640625	0.5250244140625	1.13677978515625E-06	5.96837082866841E-07	461852.375	7.3571268330852E-06
1	73	73.0365448156005	0.535125732421875	0.535064697265625	1.14288330078125E-06	6.11516497883713E-07	468170.875	7.47191688788007E-06
1	74	73.1372528153462	0.545196533203125	0.54510498046875	1.15081787109375E-06	6.27316524060006E-07	473667.46875	7.58741407480557E-06
1	75	73.2379608150919	0.555267333984375	0.55523681640625	1.16119384765625E-06	6.44737554011954E-07	478160.3125	7.70383303461131E-06
1	76	73.3386688148377	0.565338134765625	0.5653076171875	1.17431640625E-06	6.63849959892104E-07	481392.9375	7.82143524702406E-06
1	77	73.4393768145834	0.575408935546875	0.57537841796875	1.1920166015625E-06	6.85860641169711E-07	482693.28125	7.94058996689273E-06
1	78	73.5400848143291	0.585479736328125	0.58544921875	1.2158203125E-06	7.11801021680003E-07	481526.125	8.06183379609138E-06
1	79	73.6407928140749	0.595550537109375	0.595458984375	1.2481689453125E-06	7.43233385946951E-07	477066.03125	8.18590524431784E-06
1	80	73.7415008138206	0.605621337890625	0.60552978515625	1.29364013671875E-06	7.83337611665047E-07	468082.09375	8.31389570521424E-06
1	81	73.8422088135663	0.615692138671875	0.615753173828125	1.3580322265625E-06	8.36212620924925E-07	453415.75	8.44741771288682E-06
1	82	73.9429168133121	0.625762939453125	0.625762939453125	1.44775390625E-06	9.05950741980632E-07	432230.1875	8.58870043884963E-06
1	83	74.0436248130578	0.635833740234375	0.635772705078125	1.56951904296875E-06	9.97857341644703E-07	405074.875	8.7406324382755E-06
1	84	74.1443328128036	0.645904541015625	0.6458740234375	1.72943115234375E-06	1.11699466742721E-06	373460.40625	8.90674800757552E-06
1	85	74.2450408125493	0.655975341796875	0.65594482421875	1.92779541015625E-06	1.2645274409806E-06	340256.4375	9.0909034042852E-06
1	86	74.345748812295	0.666046142578125	0.665985107421875	2.1588134765625E-06	1.43773763738864E-06	308495.90625	9.29668112803483E-06
1	87	74.4464568120408	0.676116943359375	0.676055908203125	2.410888671875E-06	1.62989545060555E-06	280417.75	9.52678328758338E-06
1	88	74.5471648117865	0.686187744140625	0.68609619140625	2.659912109375E-06	1.82495557510265E-06	257939.421875	9.78211846813792E-06
1	89	74.6478728115322	0.696258544921875	0.6961669921875	2.8814697265625E-06	2.00598424271448E-06	241601.359375	1.00611496236525E-05
1	90	74.748580811278	0.706329345703125	0.70623779296875	3.05511474609375E-06	2.15763748201425E-06	231165.734375	1.03600805232418E-05
1	91	74.8492888110237	0.716400146484375	0.71630859375	3.1671142578125E-06	2.26863107855024E-06	226170.765625	1.06733941720449E-05
1	92	74.9499968107694	0.726470947265625	0.726287841796875	3.21868896484375E-06	2.33769446822407E-06	225647.109375	1.09949451143621E-05
1	93	75.0507048105152	0.736541748046875	0.736419677734375	3.22021484375E-06	2.37142944570223E-06	228686.515625	1.13191699711024E-05
1	94	75.1514128102609	0.746612548828125	0.746551513671875	3.18634033203125E-06	2.37876724895614E-06	234297.484375	1.16417650133371E-05
1	95	75.2521208100067	0.756683349609375	0.75714111328125	3.133544921875E-06	2.37253561863326E-06	241624.46875	1.19599962999928E-05
1	96	75.3528288097524	0.766754150390625	0.76751708984375	3.07525634765625E-06	2.36031178246776E-06	249578.25	1.22726351037272E-05
1	97	75.4535368094981	0.776824951171875	0.77667236328125	3.02093505859375E-06	2.34627668760368E-06	257096.671875	1.25796022985014E-05
1	98	75.5542448092439	0.786895751953125	0.7867431640625	2.9779052734375E-06	2.34284652833594E-06	264193.46875	1.28816682263277E-05
1	99	75.6549528089896	0.796966552734375	0.797119140625	2.9510498046875E-06	2.35233824241732E-06	270113.75	1.31802144096582E-05
1	100	75.7556608087353	0.807037353515625	0.80718994140625	2.94464111328125E-06	2.37688459492347E-06	274121.6875	1.34770862132427E-05
1	101	75.8563688084811	0.817108154296875	0.81756591796875	2.958984375E-06	2.41916472987214E-06	276299.5	1.37743572850013E-05
1	102	75.9570768082268	0.827178955078125	0.82733154296875	2.9949951171875E-06	2.47785374085652E-06	276238.03125	1.40741640279884E-05
1	103	76.0577848079726	0.837249755859375	0.83770751953125	3.04779052734375E-06	2.55315694630553E-06	274857.3125	1.43784427564242E-05
1	104	76.1584928077183	0.847320556640625	0.8477783203125	3.11065673828125E-06	2.63714741777221E-06	272539.96875	1.46885449794354E-05
1	105	76.259200807464	0.857391357421875	0.85784912109375	3.17352294921875E-06	2.72240367849008E-06	270314.46875	1.50049781950656E-05
1	106	76.3599088072098	0.867462158203125	0.8673095703125	3.22540283203125E-06	2.7974226668448E-06	268899.625	1.53271903400309E-05
1	107	76.4606168069555	0.877532958984375	0.877685546875	3.2598876953125E-06	2.86115619019256E-06	269237.96875	1.56537498696707E-05
1	108	76.5613248067012	0.887603759765625	0.8880615234375	3.27606201171875E-06	2.90934463009762E-06	271075.90625	1.59828614414437E-05
1	109	76.662032806447	0.897674560546875	0.89752197265625	3.2745361328125E-06	2.93896800940274E-06	274091.34375	1.63127097039251E-05
1	110	76.7627408061927	0.907745361328125	0.9075927734375	3.26416015625E-06	2.96252824227849E-06	278047.875	1.66419595188927E-05
1	111	76.8634488059384	0.917816162109375	0.91796875	3.2501220703125E-06	2.98351051242207E-06	282441.3125	1.69699796970235E-05
1	112	76.9641568056842	0.927886962890625	0.92803955078125	3.2403564453125E-06	3.00717897516734E-06	286400.46875	1.72968011611374E-05
1	113	77.0648648054299	0.937957763671875	0.93780517578125	3.243408203125E-06	3.04168497677892E-06	289141.90625	1.76232842932222E-05
1	114	77.1655728051757	0.948028564453125	0.94818115234375	3.2659912109375E-06	3.09675124299247E-06	290319.5625	1.79510589077836E-05
1	115	77.2662808049214	0.958099365234375	0.958251953125	3.31634521484375E-06	3.17789408654789E-06	288948.1875	1.82825060619507E-05
1	116	77.3669888046671	0.968170166015625	0.96771240234375	3.3990478515625E-06	3.28930059367849E-06	284701.03125	1.86206525540911E-05
1	117	77.4676968044129	0.978240966796875	0.9783935546875	3.51959228515625E-06	3.44354634762567E-06	277984.9375	1.89690344996052E-05
1	118	77.5684048041586	0.988311767578125	0.98846435546875	3.67706298828125E-06	3.63464573638339E-06	268819	1.9331415387569E-05
1	119	77.6691128039043	0.998382568359375	0.99853515625	3.86322021484375E-06	3.85756129617221E-06	258472.234375	1.97110985027393E-05
1	120	77.7698208036501	1.00845336914063	1.00830078125	4.0631103515625E-06	4.09683707403019E-06	248159.84375	2.01102211576654E-05
1	121	77.8705288033958	1.01852416992188	1.01837158203125	4.2559814453125E-06	4.33417062595254E-06	239280.078125	2.05291198653867E-05
1	122	77.9712368031416	1.02859497070313	1.0284423828125	4.41650390625E-06	4.54211976830265E-06	232863.453125	2.0965813746443E-05
1	123	78.0719448028873	1.03866577148438	1.03851318359375	4.52972412109375E-06	4.70417808173806E-06	229266.34375	2.14162919291994E-05
1	124	78.172652802633	1.04873657226563	1.04888916015625	4.5867919921875E-06	4.81103643323877E-06	228675.984375	2.1875344828004E-05
1	125	78.2733608023788	1.05880737304688	1.05865478515625	4.59197998046875E-06	4.86132148580509E-06	230544.296875	2.23375336645404E-05
1	126	78.3740688021245	1.06887817382813	1.06903076171875	4.55535888671875E-06	4.86981889480376E-06	234675.421875	2.27981381613063E-05
1	127	78.4747768018702	1.07894897460938	1.0791015625	4.490966796875E-06	4.84620886709308E-06	240282.703125	2.32536567636998E-05
1	128	78.575484801616	1.08901977539063	1.08856201171875	4.41162109375E-06	4.80232301924843E-06	246748.765625	2.37019376072567E-05
1	129	78.6761928013617	1.09909057617188	1.09954833984375	4.3267822265625E-06	4.75750584882917E-06	254126.125	2.41419511439744E-05
1	130	78.7769008011074	1.10916137695313	1.1083984375	4.24224853515625E-06	4.70210170533392E-06	261276.171875	2.45734372583684E-05
1	131	78.8776088008532	1.11923217773438	1.119384765625	4.1619873046875E-06	4.65886523670633E-06	268954.375	2.49966233241139E-05
1	132	78.9783168005989	1.12930297851563	1.129150390625	4.08843994140625E-06	4.61646322946763E-06	276181.25	2.54120659519685E-05
1	133	79.0790248003447	1.13937377929688	1.1395263671875	4.02130126953125E-06	4.58237900602398E-06	283372.53125	2.58204236160964E-05
1	134	79.1797328000904	1.14944458007813	1.14898681640625	3.96026611328125E-06	4.55029339718749E-06	290128.6875	2.62223275058204E-05
1	135	79.2804407998361	1.15951538085938	1.15966796875	3.90655517578125E-06	4.53030634162133E-06	296851.84375	2.66184524662094E-05
1	136	79.3811487995819	1.16958618164063	1.16973876953125	3.858642578125E-06	4.51360392617062E-06	303147.71875	2.70094624283956E-05
1	137	79.4818567993276	1.17965698242188	1.18011474609375	3.81591796875E-06	4.50322067990783E-06	309261.0625	2.7395906727179E-05
1	138	79.5825647990733	1.18972778320313	1.18988037109375	3.7774658203125E-06	4.49473236585618E-06	314994.34375	2.77782637567725E-05
1	139	79.6832727988191	1.19979858398438	1.199951171875	3.743896484375E-06	4.49249273515306E-06	320508.65625	2.81569955404848E-05
1	140	79.7839807985648	1.20986938476563	1.209716796875	3.7127685546875E-06	4.49139815827948E-06	325826.09375	2.85324676951859E-05
1	141	79.8846887983105	1.21994018554688	1.2200927734375	3.68621826171875E-06	4.49752815256943E-06	330987.6875	2.8905036742799E-05
1	142	79.9853967980563	1.23001098632813	1.2298583984375	3.662109375E-06	4.50387597084045E-06	335833.34375	2.92750537482789E-05
1	143	80.086104797802	1.24008178710938	1.240234375	3.641357421875E-06	4.5161364141677E-06	340596.71875	2.9642813387909E-05
1	144	80.1868127975478	1.25015258789063	1.25	3.62335205078125E-06	4.5291899368749E-06	344984.4375	3.00086194329197E-05
1	145	80.2875207972935	1.26022338867188	1.26007080078125	3.6065673828125E-06	4.5445303840097E-06	349382.3125	3.03726756101241E-05
1	146	80.3882287970392	1.27029418945313	1.27044677734375	3.59283447265625E-06	4.56450516139739E-06	353605.71875	3.07351947412826E-05
1	147	80.488936796785	1.28036499023438	1.28021240234375	3.5809326171875E-06	4.58435442851624E-06	357508.09375	3.10964205709752E-05
1	148	80.5896447965307	1.29043579101563	1.290283203125	3.57086181640625E-06	4.607422852132E-06	361336.65625	3.14565440930892E-05
1	149	80.6903527962764	1.30050659179688	1.3006591796875	3.563232421875E-06	4.63455080534914E-06	365022.28125	3.18157726724166E-05
1	150	80.7910607960222	1.31057739257813	1.31103515625	3.55804443359375E-06	4.66472147309105E-06	368470.71875	3.21743573294953E-05
1	151	80.8917687957679	1.32064819335938	1.32080078125	3.5540771484375E-06	4.69422775495332E-06	371629.75	3.25324836012442E-05
1	152	80.9924767955137	1.33071899414063	1.33026123046875	3.5528564453125E-06	4.72622696179315E-06	374420.21875	3.28903443005402E-05
1	153	81.0931847952594	1.34078979492188	1.34033203125	3.55255126953125E-06	4.7615981202398E-06	377287.1875	3.32481286022812E-05
1	154	81.1938927950051	1.35086059570313	1.35040283203125	3.55499267578125E-06	4.80067228636472E-06	379860.9375	3.36060220433865E-05
1	155	81.2946007947509	1.36093139648438	1.361083984375	3.558349609375E-06	4.84321253679809E-06	382504.28125	3.39642101607751E-05
1	156	81.3953087944966	1.37100219726563	1.370849609375	3.564453125E-06	4.88632895212504E-06	384589.0625	3.43228712154087E-05
1	157	81.4960167942423	1.38107299804688	1.38214111328125	3.57330322265625E-06	4.93880907015409E-06	386796.5	3.46822853316553E-05
1	158	81.5967247939881	1.39114379882813	1.39068603515625	3.58551025390625E-06	4.98631879963796E-06	387862.8125	3.50427580997348E-05
1	159	81.6974327937338	1.40121459960938	1.4013671875	3.60198974609375E-06	5.04771014675498E-06	389053.65625	3.54046787833795E-05
1	160	81.7981407934795	1.41128540039063	1.41143798828125	3.624267578125E-06	5.11542884851224E-06	389440.90625	3.57685494236648E-05
1	161	81.8988487932253	1.42135620117188	1.42181396484375	3.65264892578125E-06	5.19338709636941E-06	389255.59375	3.61349702870939E-05
1	162	81.999556792971	1.43142700195313	1.43157958984375	3.68865966796875E-06	5.28060945725883E-06	388102.9375	3.65046362276189E-05
1	163	82.1002647927168	1.44149780273438	1.44134521484375	3.7347412109375E-06	5.38305130248773E-06	385929.09375	3.68784349120688E-05
1	164	82.2009727924625	1.45156860351563	1.4520263671875	3.7939453125E-06	5.50890854356112E-06	382722	3.72575341316406E-05
1	165	82.3016807922082	1.46163940429688	1.4617919921875	3.8702392578125E-06	5.65748450753745E-06	377700.6875	3.76434545614757E-05
1	166	82.402388791954	1.47171020507813	1.4715576171875	3.96575927734375E-06	5.83584323976538E-06	371065.78125	3.80380297428928E-05
1	167	82.5030967916997	1.48178100585938	1.48193359375	4.08050537109375E-06	6.04703791395877E-06	363174.03125	3.84431914426386E-05
1	168	82.6038047914454	1.49185180664063	1.49200439453125	4.21478271484375E-06	6.28847419648082E-06	353993.1875	3.88608932553325E-05
1	169	82.7045127911912	1.50192260742188	1.50146484375	4.36676025390625E-06	6.55653684589197E-06	343839.5625	3.929300874006E-05
1	170	82.8052207909369	1.49185180664063	1.49169921875	3.9923095703125E-06	5.95532446823199E-06	373643.1875	3.97139192500617E-05
1	171	82.9059287906827	1.48178100585938	1.48193359375	3.71551513671875E-06	5.50614640815184E-06	398850.125	4.01020406570751E-05
1	172	83.0066367904284	1.47171020507813	1.47186279296875	3.49853515625E-06	5.14936346007744E-06	420708.3125	4.0465296478942E-05
1	173	83.1073447901741	1.46163940429688	1.46148681640625	3.3203125E-06	4.85259261040483E-06	440165.46875	4.08086525567342E-05
1	174	83.2080527899199	1.45156860351563	1.45172119140625	3.173828125E-06	4.60751334685483E-06	457403.875	4.11356595577672E-05
1	175	83.3087607896656	1.44149780273438	1.44134521484375	3.04962158203125E-06	4.39555742559605E-06	472630.875	4.14490350522101E-05
1	176	83.4094687894113	1.43142700195313	1.4312744140625	2.94525146484375E-06	4.21546292272978E-06	485960	4.17508999817073E-05
1	177	83.5101767891571	1.42135620117188	1.42181396484375	2.8570556640625E-06	4.06220124204992E-06	497650.09375	4.20430696976837E-05
1	178	83.6108847889028	1.41128540039063	1.41143798828125	2.7813720703125E-06	3.92573383578565E-06	507461.09375	4.23269848397467E-05
1	179	83.7115927886485	1.40121459960938	1.4013671875	2.716064453125E-06	3.80620326723147E-06	515955.09375	4.26038022851571E-05
1	180	83.8123007883943	1.39114379882813	1.3909912109375	2.65899658203125E-06	3.69864073945791E-06	523126.40625	4.28744606324472E-05
1	181	83.91300878814	1.38107299804688	1.38153076171875	2.60986328125E-06	3.60560648005048E-06	529349.875	4.31397675129119E-05
1	182	84.0137167878858	1.37100219726563	1.37115478515625	2.56683349609375E-06	3.51952598975913E-06	534181.4375	4.34004359703977E-05
1	183	84.1144247876315	1.36093139648438	1.361083984375	2.5286865234375E-06	3.44175464306318E-06	538257.3125	4.36570153397042E-05
1	184	84.2151327873772	1.35086059570313	1.35040283203125	2.49481201171875E-06	3.36900120601058E-06	541284.4375	4.39099676441401E-05
1	185	84.315840787123	1.34078979492188	1.34063720703125	2.46429443359375E-06	3.30372472490126E-06	544024.8125	4.41596785094589E-05
1	186	84.4165487868687	1.33071899414063	1.33087158203125	2.4359130859375E-06	3.24188749800669E-06	546354.3125	4.44064244220499E-05
1	187	84.5172567866144	1.32064819335938	1.32080078125	2.40997314453125E-06	3.18309434987896E-06	548056.25	4.4650434574578E-05
1	188	84.6179647863602	1.31057739257813	1.3104248046875	2.38494873046875E-06	3.12529573420761E-06	549456.1875	4.48918763140682E-05
1	189	84.7186727861059	1.30050659179688	1.3006591796875	2.36175537109375E-06	3.07183881886886E-06	550717.125	4.51308915216941E-05
1	190	84.8193807858516	1.29043579101563	1.290283203125	2.340087890625E-06	3.01937598123914E-06	551382.375	4.53676511824597E-05
1	191	84.9200887855974	1.28036499023438	1.280517578125	2.31903076171875E-06	2.9695595458179E-06	552177.9375	4.56022535217926E-05
1	192	85.0207967853431	1.27029418945313	1.270751953125	2.29888916015625E-06	2.92131767309911E-06	552767.875	4.58347858511843E-05
1	193	85.1215047850889	1.26022338867188	1.2603759765625	2.27935791015625E-06	2.87284797195753E-06	552952.1875	4.60653172922321E-05
1	194	85.2222127848346	1.25015258789063	1.25030517578125	2.2607421875E-06	2.82661767414538E-06	553050.75	4.62939315184485E-05
1	195	85.3229207845803	1.24008178710938	1.24053955078125	2.24273681640625E-06	2.78220386462635E-06	553136.5	4.6520697651431E-05
1	196	85.4236287843261	1.23001098632813	1.22955322265625	2.225341796875E-06	2.73617592938535E-06	552523.375	4.67456848127767E-05
1	197	85.5243367840718	1.21994018554688	1.21978759765625	2.20855712890625E-06	2.69397060037591E-06	552300.6875	4.6968947572168E-05
1	198	85.6250447838175	1.20986938476563	1.209716796875	2.19207763671875E-06	2.65179301095486E-06	551858.5625	4.71905404992867E-05
1	199	85.7257527835633	1.19979858398438	1.1993408203125	2.17529296875E-06	2.60891738435021E-06	551346.8125	4.74104526801966E-05
1	200	85.826460783309	1.18972778320313	1.18988037109375	2.159423828125E-06	2.56945600085601E-06	551017.5625	4.76287241326645E-05
1	201	85.9271687830548	1.17965698242188	1.17950439453125	2.14324951171875E-06	2.52797212851874E-06	550334.625	4.7845380322542E-05
1	202	86.0278767828005	1.16958618164063	1.1700439453125	2.12646484375E-06	2.48805713454203E-06	550229.625	4.80603775940835E-05
1	203	86.1285847825462	1.15951538085938	1.15966796875	2.1087646484375E-06	2.44546686190006E-06	549927.625	4.82736395497341E-05
1	204	86.229292782292	1.14944458007813	1.14898681640625	2.0892333984375E-06	2.40050144384441E-06	549956.1875	4.84850243083201E-05
1	205	86.3300007820377	1.13937377929688	1.13922119140625	2.06695556640625E-06	2.35471929954656E-06	551159.0625	4.86943063151557E-05
1	206	86.4307087817834	1.12930297851563	1.12945556640625	2.0416259765625E-06	2.30592581829114E-06	553213.75	4.89011872559786E-05
1	207	86.5314167815292	1.11923217773438	1.119384765625	2.010498046875E-06	2.25052099267486E-06	556769.875	4.91052305733319E-05
1	208	86.6321247812749	1.10916137695313	1.10870361328125	1.9720458984375E-06	2.1864143491257E-06	562209.875	4.93057668791153E-05
1	209	86.7328327810206	1.09909057617188	1.09954833984375	1.92169189453125E-06	2.11299311558832E-06	572177.25	4.95018321089447E-05
1	210	86.8335407807664	1.08901977539063	1.08917236328125	1.85577392578125E-06	2.02125761461502E-06	586910.0625	4.96920438308734E-05
1	211	86.9342487805121	1.07894897460938	1.07940673828125	1.7694091796875E-06	1.90991204362945E-06	610038	4.98745830554981E-05
1	212	87.0349567802579	1.06887817382813	1.06903076171875	1.6546630859375E-06	1.7688856814857E-06	646071.5625	5.00470014230814E-05
1	213	87.1356647800036	1.05880737304688	1.0589599609375	1.50848388671875E-06	1.59742398864182E-06	702002.875	5.02062757732347E-05
1	214	87.2363727797493	1.04873657226563	1.04888916015625	1.32537841796875E-06	1.39017504352523E-06	791388.4375	5.03489754919428E-05
1	215	87.3370807794951	1.03866577148438	1.038818359375	1.10931396484375E-06	1.15237571662874E-06	936451.125	5.0471571739763E-05
1	216	87.4377887792408	1.02859497070313	1.02874755859375	8.67919921875E-07	8.92870446023153E-07	1185302.5	5.05711323057767E-05
1	217	87.5384967789865	1.01852416992188	1.01806640625	6.18896484375001E-07	6.3007769313117E-07	1644970.375	5.06459982716478E-05
1	218	87.6392047787323	1.00845336914063	1.00830078125	3.85131835937499E-07	3.88328714961972E-07	2618066.75	5.069655526313E-05
1	219	87.739912778478	0.998382568359375	0.99884033203125	1.90124511718751E-07	1.89904028502497E-07	5253611.5	5.07255208503921E-05
1	220	87.8406207782238	0.988311767578125	0.9881591796875	4.76074218749997E-08	4.7043709372474E-08	20756410	5.07374934386462E-05
1	221	87.9413287779695	0.978240966796875	0.97808837890625	-3.63159179687503E-08	-3.55201770219082E-08	-26932774	5.07380609633401E-05
1	222	88.0420367777152	0.968170166015625	0.96832275390625	-6.74438476562497E-08	-6.53074039291823E-08	-14357467	5.07328368257731E-05
1	223	88.142744777461	0.958099365234375	0.958251953125	-5.55419921874995E-08	-5.32232213856787E-08	-17252748	5.07266449858434E-05
1	224	88.2434527772067	0.948028564453125	0.94818115234375	-1.46484375000006E-08	-1.38893723189426E-08	-64729168	5.0723108870443E-05
1	225	88.3441607769524	0.937957763671875	0.9381103515625	4.30297851562497E-08	4.03666859938312E-08	21801420	5.07245385961141E-05
1	226	88.4448687766982	0.927886962890625	0.9283447265625	1.025390625E-07	9.51915950508919E-08	9053572	5.07318691234104E-05
1	227	88.5455767764439	0.917816162109375	0.91796875	1.52587890625E-07	1.40070909537826E-07	6016000	5.07447148265783E-05
1	228	88.6462847761896	0.907745361328125	0.9075927734375	1.8035888671875E-07	1.6369241961911E-07	5032149	5.07614822709002E-05
1	229	88.7469927759354	0.897674560546875	0.8978271484375	1.81884765625E-07	1.63301066891108E-07	4936242	5.07797194586601E-05
1	230	88.8477007756811	0.887603759765625	0.887451171875	1.5716552734375E-07	1.39476739491329E-07	5646602	5.07967924932018E-05
1	231	88.9484087754269	0.877532958984375	0.87799072265625	1.068115234375E-07	9.37795263666885E-08	8220000.5	5.08100856677629E-05
1	232	89.0491167751726	0.867462158203125	0.86761474609375	3.54003906249997E-08	3.0713898979684E-08	24508622	5.08172452100553E-05
1	233	89.1498247749183	0.857391357421875	0.8575439453125	-4.76074218749997E-08	-4.08254550166021E-08	-18012820	5.08166303916369E-05
1	234	89.2505327746641	0.847320556640625	0.8477783203125	-1.2939453125E-07	-1.09697872119341E-07	-6551887.5	5.08077209815383E-05
1	235	89.3512407744098	0.837249755859375	0.83770751953125	-2.00805664062501E-07	-1.68216416795985E-07	-4171732.75	5.07910917804111E-05
1	236	89.4519487741555	0.827178955078125	0.82733154296875	-2.49633789062501E-07	-2.0652990428971E-07	-3314181	5.07684126205277E-05
1	237	89.5526567739013	0.817108154296875	0.8172607421875	-2.7618408203125E-07	-2.2571440183583E-07	-2959116.25	5.07419354107697E-05
1	238	89.653364773647	0.807037353515625	0.80718994140625	-2.7923583984375E-07	-2.25396348696449E-07	-2890710.5	5.07139666297007E-05
1	239	89.7540727733927	0.796966552734375	0.797119140625	-2.66418457031251E-07	-2.12367254448509E-07	-2991981.75	5.06864889757708E-05
1	240	89.8547807731385	0.786895751953125	0.7867431640625	-2.4444580078125E-07	-1.92316065295017E-07	-3218477	5.06607648276258E-05
1	241	89.9554887728842	0.776824951171875	0.7769775390625	-2.2247314453125E-07	-1.72856630342721E-07	-3492455.5	5.06372562085744E-05
1	242	90.05619677263	0.766754150390625	0.7666015625	-2.093505859375E-07	-1.60488482947585E-07	-3661807.75	5.06155120092444E-05
1	243	90.1569047723757	0.756683349609375	0.7568359375	-2.17590332031251E-07	-1.646801734978E-07	-3478261	5.05940115544945E-05
1	244	90.2576127721214	0.746612548828125	0.746490478515625	-2.5360107421875E-07	-1.89310782161556E-07	-2943562.25	5.05702882946935E-05
1	245	90.3583207718672	0.736541748046875	0.7364501953125	-3.277587890625E-07	-2.41378018017713E-07	-2246927.5	5.05410134792328E-05
1	246	90.4590287716129	0.726470947265625	0.726409912109375	-4.443359375E-07	-3.22770034699715E-07	-1634821.375	5.05021343997214E-05
1	247	90.5597367713586	0.716400146484375	0.71630859375	-6.06689453125001E-07	-4.34576833185929E-07	-1180684.125	5.04492127220146E-05
1	248	90.6604447711044	0.706329345703125	0.706268310546875	-8.09631347656251E-07	-5.71816940464487E-07	-872333.25	5.03778937854804E-05
1	249	90.7611527708501	0.696258544921875	0.69610595703125	-1.04095458984375E-06	-7.24614665159606E-07	-668718.875	5.02847105963156E-05
1	250	90.8618607705959	0.686187744140625	0.686065673828125	-1.27593994140625E-06	-8.75378589171305E-07	-537694.375	5.01680442539509E-05
1	251	90.9625687703416	0.676116943359375	0.676116943359375	-1.48773193359375E-06	-1.00588067653007E-06	-454461.5625	5.00288842886221E-05
1	252	91.0632767700873	0.666046142578125	0.665985107421875	-1.65283203125E-06	-1.10076155124261E-06	-402935.75	4.98707413498778E-05
1	253	91.1639847698331	0.655975341796875	0.655975341796875	-1.75537109375E-06	-1.15148009172117E-06	-373696.125	4.96991269756109E-05
1	254	91.2646927695788	0.645904541015625	0.6458740234375	-1.7919921875E-06	-1.15740124329022E-06	-360422.34375	4.95205022161826E-05
1	255	91.3654007693245	0.635833740234375	0.63580322265625	-1.77337646484375E-06	-1.12751843062142E-06	-358526.9375	4.93409716000315E-05
1	256	91.4661087690703	0.625762939453125	0.625701904296875	-1.71356201171875E-06	-1.07217897493683E-06	-365146.9375	4.91653918288648E-05
1	257	91.566816768816	0.615692138671875	0.61566162109375	-1.62933349609375E-06	-1.00311808637343E-06	-377861.03125	4.89970625494607E-05
1	258	91.6675247685617	0.605621337890625	0.605621337890625	-1.5338134765625E-06	-9.28910196762445E-07	-394846.8125	4.88377845613286E-05
1	259	91.7682327683075	0.595550537109375	0.59552001953125	-1.43524169921875E-06	-8.54715153764118E-07	-414926.65625	4.86882818222512E-05
1	260	91.8689407680532	0.585479736328125	0.58538818359375	-1.34002685546875E-06	-7.84435883360857E-07	-436848.09375	4.85485361423343E-05
1	261	91.969648767799	0.575408935546875	0.575439453125	-1.25091552734375E-06	-7.19826118711353E-07	-460014.65625	4.84180709463544E-05
1	262	92.0703567675447	0.565338134765625	0.5653076171875	-1.16912841796875E-06	-6.609171805394E-07	-483529.125	4.82962132082321E-05
1	263	92.1710647672904	0.555267333984375	0.55523681640625	-1.0943603515625E-06	-6.07629146998079E-07	-507362	4.81822353322059E-05
1	264	92.2717727670362	0.545196533203125	0.545196533203125	-1.0272216796875E-06	-5.60037676677894E-07	-530748.6875	4.80754060845356E-05
1	265	92.3724807667819	0.535125732421875	0.535064697265625	-9.66796875000001E-07	-5.17298872182437E-07	-553440.6875	4.79749978694599E-05
1	266	92.4731887665276	0.525054931640625	0.524993896484375	-9.124755859375E-07	-4.79044103940396E-07	-575351.1875	4.78803704027086E-05
1	267	92.5738967662734	0.514984130859375	0.51495361328125	-8.624267578125E-07	-4.4410978716769E-07	-597098.375	4.77909961773548E-05
1	268	92.6746047660191	0.504913330078125	0.5048828125	-8.1817626953125E-07	-4.13083142802861E-07	-617083.1875	4.77063731523231E-05
1	269	92.7753127657649	0.494842529296875	0.49481201171875	-7.77282714843749E-07	-3.84608824788302E-07	-636592.0625	4.76260356663261E-05
1	270	92.8760207655106	0.484771728515625	0.4847412109375	-7.403564453125E-07	-3.58881266038225E-07	-654740.3125	4.75496162835043E-05
1	271	92.9767287652563	0.474700927734375	0.474700927734375	-7.0556640625E-07	-3.34933019985328E-07	-672794.125	4.74768057756592E-05
1	272	93.0774367650021	0.464630126953125	0.46466064453125	-6.7413330078125E-07	-3.13243191385482E-07	-689271.1875	4.74073349323589E-05
1	273	93.1781447647478	0.454559326171875	0.454559326171875	-6.4422607421875E-07	-2.928389619683E-07	-705589.75	4.73409490950871E-05
1	274	93.2788527644935	0.444488525390625	0.444549560546875	-6.170654296875E-07	-2.74316164450283E-07	-720425.3125	4.72774372610729E-05
1	275	93.3795607642393	0.434417724609375	0.434417724609375	-5.92041015625E-07	-2.57193107700004E-07	-733762.9375	4.72165556857362E-05
1	276	93.480268763985	0.424346923828125	0.424224853515625	-5.6793212890625E-07	-2.40930916106663E-07	-746964.0625	4.71581442980096E-05
1	277	93.5809767637307	0.414276123046875	0.41424560546875	-5.4656982421875E-07	-2.26414144322007E-07	-757900.625	4.71020248369314E-05
1	278	93.6816847634765	0.404205322265625	0.40423583984375	-5.2520751953125E-07	-2.12307696756397E-07	-769668.8125	4.7048059059307E-05
1	279	93.7823927632222	0.394134521484375	0.394195556640625	-5.0506591796875E-07	-1.99094728259297E-07	-780483.4375	4.6996177843539E-05
1	280	93.883100762968	0.384063720703125	0.38409423828125	-4.87060546875E-07	-1.8707714843913E-07	-788596.4375	4.69462211185601E-05
1	281	93.9838087627137	0.373992919921875	0.37396240234375	-4.6844482421875E-07	-1.75180758787974E-07	-798306.1875	4.68981088488363E-05
1	282	94.0845167624594	0.363922119140625	0.36395263671875	-4.51049804687501E-07	-1.64160766757959E-07	-806901.25	4.68518082925584E-05
1	283	94.1852247622052	0.353851318359375	0.353851318359375	-4.33959960937499E-07	-1.53557294879647E-07	-815400.875	4.68072430521715E-05
1	284	94.2859327619509	0.343780517578125	0.34381103515625	-4.17175292968749E-07	-1.43429460308653E-07	-824140.5	4.6764387661824E-05
1	285	94.3866407616966	0.333709716796875	0.333831787109375	-4.010009765625E-07	-1.33866862483956E-07	-832496.25	4.67231875518337E-05
1	286	94.4873487614424	0.323638916015625	0.323638916015625	-3.857421875E-07	-1.24841179172108E-07	-839003.1875	4.66835736006033E-05
1	287	94.5880567611881	0.313568115234375	0.31353759765625	-3.7078857421875E-07	-1.16256160254125E-07	-845596.6875	4.66454766865354E-05
1	288	94.6887647609339	0.303497314453125	0.30352783203125	-3.55224609375E-07	-1.07820554262616E-07	-854467.3125	4.66089186375029E-05
1	289	94.7894727606796	0.293426513671875	0.293426513671875	-3.4027099609375E-07	-9.98445273125981E-08	-862331.875	4.65738994535059E-05
1	290	94.8901807604253	0.283355712890625	0.28338623046875	-3.2501220703125E-07	-9.21039813306379E-08	-871924.9375	4.65404009446502E-05
1	291	94.9908887601711	0.273284912109375	0.2733154296875	-3.0975341796875E-07	-8.46603853688066E-08	-882364.5625	4.65084376628511E-05
1	292	95.0915967599168	0.263214111328125	0.26318359375	-2.95410156250001E-07	-7.77471100832372E-08	-890909.0625	4.64779623143841E-05
1	293	95.1923047596625	0.253143310546875	0.253143310546875	-2.81372070312499E-07	-7.12274541569968E-08	-899674.6875	4.6448920329567E-05
1	294	95.2930127594083	0.243072509765625	0.243072509765625	-2.69165039062499E-07	-6.54266258948155E-08	-903061.1875	4.6421198931057E-05
1	295	95.393720759154	0.233001708984375	0.23297119140625	-2.5787353515625E-07	-6.00770988512522E-08	-903432	4.63946598756593E-05
1	296	95.4944287588997	0.222930908203125	0.222930908203125	-2.484130859375E-07	-5.5378951202556E-08	-897420.1875	4.6369168558158E-05
1	297	95.5951367586455	0.212860107421875	0.212860107421875	-2.40173339843749E-07	-5.11233224642638E-08	-886277	4.63445649074856E-05
1	298	95.6958447583912	0.202789306640625	0.202850341796875	-2.337646484375E-07	-4.74192383137506E-08	-867754.625	4.63206997665111E-05
1	299	95.796552758137	0.192718505859375	0.1927490234375	-2.288818359375E-07	-4.41167493647754E-08	-842133.375	4.62974021502305E-05
1	300	95.8972607578827	0.182647705078125	0.18267822265625	-2.25219726562501E-07	-4.11427372171147E-08	-811111.125	4.62745374534279E-05
1	301	95.9979687576284	0.172576904296875	0.172576904296875	-2.24609375E-07	-3.87623906306089E-08	-768342.4375	4.6251887397375E-05
1	302	96.0986767573742	0.162506103515625	0.1624755859375	-2.2613525390625E-07	-3.6741454323419E-08	-718488.5625	4.62291900475975E-05
1	303	96.1993847571199	0.152435302734375	0.1524658203125	-2.31018066406249E-07	-3.52223601396418E-08	-659973.5625	4.6206172555685E-05
1	304	96.3000927568656	0.142364501953125	0.142425537109375	-2.4078369140625E-07	-3.42937482855632E-08	-591508.25	4.61824129160959E-05
1	305	96.4008007566114	0.132293701171875	0.13232421875	-2.5665283203125E-07	-3.39613848154841E-08	-515576.6875	4.61573654320091E-05
1	306	96.5015087563571	0.122222900390625	0.1221923828125	-2.81677246093751E-07	-3.4418814465198E-08	-433802.8125	4.61302588519175E-05
1	307	96.6022167561028	0.112152099609375	0.112213134765625	-3.192138671875E-07	-3.58199869765485E-08	-351529.65625	4.61000017821789E-05
1	308	96.7029247558486	0.102081298828125	0.102142333984375	-3.73229980468751E-07	-3.81225788714801E-08	-273671.3125	4.60651353932917E-05
1	309	96.8036327555943	0.092010498046875	0.092071533203125	-4.49218749999999E-07	-4.13602556648129E-08	-204959.25	4.60237206425518E-05
1	310	96.9043407553401	0.081939697265625	0.08197021484375	-5.54504394531249E-07	-4.54528432669576E-08	-147826.09375	4.59731782029849E-05
1	311	97.0050487550858	0.071868896484375	0.071929931640625	-6.94580078125E-07	-4.9961098369522E-08	-103558.875	4.5910281187389E-05
1	312	97.1057567548315	0.061798095703125	0.06182861328125	-8.73413085937499E-07	-5.40019193806529E-08	-70789.65625	4.58313297713175E-05
1	313	97.2064647545773	0.051727294921875	0.051788330078125	-1.0894775390625E-06	-5.64222233379041E-08	-47535.01171875	4.57324895251077E-05
1	314	97.307172754323	0.041656494140625	0.04178466796875	-1.3323974609375E-06	-5.56737838053323E-08	-31360.51171875	4.56105371995363E-05
1	315	97.4078807540687	0.031585693359375	0.0316619873046875	-1.5850830078125E-06	-5.01868768765235E-08	-19974.97265625	4.54636319773272E-05
1	316	97.5085887538145	0.021514892578125	0.0216278076171875	-1.8212890625E-06	-3.93904890927388E-08	-11875	4.52921049145516E-05
1	317	97.6092967535602	0.011444091796875	0.0115570068359375	-2.0159912109375E-06	-2.32988242032661E-08	-5732.66748046875	4.50988845841493E-05
1	318	97.710004753306	0.001373291015625	0.00148620605468749	-2.15118408203125E-06	-3.19710258267492E-09	-690.878173828125	4.48890496045351E-05
1	319	97.8107127530517	-0.008697509765625	-0.00859680175781249	-2.22320556640625E-06	1.9112457394499E-08	3866.85009765625	4.46687809017021E-05
1	320	97.9114207527974	-0.018768310546875	-0.0186492919921875	-2.23663330078125E-06	4.17116261530737E-08	8338.1083984375	4.44442121079192E-05
1	321	98.0121287525432	-0.028839111328125	-0.0287261962890625	-2.20733642578125E-06	6.34083789918805E-08	13013.9638671875	4.42204400314949E-05
1	322	98.1128367522889	-0.038909912109375	-0.0387664794921875	-2.14996337890625E-06	8.33465136906852E-08	18031.228515625	4.40010335296392E-05
1	323	98.2135447520346	-0.048980712890625	-0.048809814453125	-2.07855224609375E-06	1.01453743184265E-07	23482.603515625	4.37881099060178E-05
1	324	98.3142527517804	-0.059051513671875	-0.059051513671875	-2.003173828125E-06	1.18290437001178E-07	29478.978515625	4.35825786553323E-05
1	325	98.4149607515261	-0.069122314453125	-0.069091796875	-1.929931640625E-06	1.33342439312401E-07	35800.12890625	4.33845307270531E-05
1	326	98.5156687512718	-0.079193115234375	-0.079132080078125	-1.86126708984375E-06	1.47285931006991E-07	42515.16796875	4.31936277891509E-05
1	327	98.6163767510176	-0.089263916015625	-0.0892333984375	-1.80023193359375E-06	1.60640809099277E-07	49567.7265625	4.30092586611863E-05
1	328	98.7170847507633	-0.099334716796875	-0.099273681640625	-1.74560546875E-06	1.73292676208803E-07	56870.62890625	4.28307102993131E-05
1	329	98.8177927505091	-0.109405517578125	-0.109344482421875	-1.69921875E-06	1.85800189456131E-07	64349.85546875	4.26572514697909E-05
1	330	98.9185007502548	-0.119476318359375	-0.11944580078125	-1.658935546875E-06	1.98152875441338E-07	72001.4765625	4.24881545768585E-05
1	331	99.0192087500005	-0.129547119140625	-0.12945556640625	-1.624755859375E-06	2.10333681138763E-07	79676.9375	4.23228048020974E-05
1	332	99.1199167497463	-0.139617919921875	-0.13946533203125	-1.59637451171875E-06	2.22638888658366E-07	87363.796875	4.2160609154962E-05
1	333	99.220624749492	-0.149688720703125	-0.149566650390625	-1.5728759765625E-06	2.35249785873748E-07	95091.1953125	4.20010255766101E-05
1	334	99.3213327492377	-0.159759521484375	-0.15966796875	-1.55426025390625E-06	2.48165576977044E-07	102729.2421875	4.18435629399028E-05
1	335	99.4220407489835	-0.169830322265625	-0.169769287109375	-1.539306640625E-06	2.61326988493238E-07	110289.453125	4.16877883253619E-05
1	336	99.5227487487292	-0.179901123046875	-0.17974853515625	-1.52862548828125E-06	2.74768183317065E-07	117588.34375	4.15333051932976E-05
1	337	99.623456748475	-0.189971923828125	-0.18988037109375	-1.5216064453125E-06	2.88923189373236E-07	124789.421875	4.1379713366041E-05
1	338	99.7241647482207	-0.200042724609375	-0.199920654296875	-1.51824951171875E-06	3.03529446910034E-07	131678.390625	4.12266454077326E-05
1	339	99.8248727479664	-0.189971923828125	-0.1898193359375	-1.353759765625E-06	2.569697699073E-07	140216.40625	4.10820284741931E-05
2	340	99.9255807477122	-0.179901123046875	-0.17974853515625	-1.236572265625E-06	2.22272035443893E-07	145360.328125	4.09515960200224E-05
2	341	100.026288747458	-0.169830322265625	-0.169677734375	-1.1407470703125E-06	1.9355937297405E-07	148742.640625	4.08318883273751E-05
2	342	100.126996747204	-0.159759521484375	-0.159637451171875	-1.05865478515625E-06	1.69000955452248E-07	150792.734375	4.07211373385508E-05
2	343	100.227704746949	-0.149688720703125	-0.1495361328125	-9.8724365234375E-07	1.47628597346738E-07	151468.3125	4.06181170546915E-05
2	344	100.328412746695	-0.139617919921875	-0.139556884765625	-9.2193603515625E-07	1.2866252063759E-07	151373.71875	4.05219834647141E-05
2	345	100.429120746441	-0.129547119140625	-0.12939453125	-8.624267578125E-07	1.11593308815827E-07	150035.390625	4.04321326641366E-05
2	346	100.529828746187	-0.119476318359375	-0.119384765625	-8.06884765625E-07	9.63297495104598E-08	147957.640625	4.03480771637987E-05
2	347	100.630536745932	-0.109405517578125	-0.109283447265625	-7.537841796875E-07	8.2376132581885E-08	144979.765625	4.02694931835867E-05
2	348	100.731244745678	-0.099334716796875	-0.09930419921875	-7.01904296875E-07	6.97020468010123E-08	141478.265625	4.01961915486027E-05
2	349	100.831952745424	-0.089263916015625	-0.089202880859375	-6.4971923828125E-07	5.79568251168894E-08	137294.515625	4.01281322410796E-05
2	350	100.93266074517	-0.079193115234375	-0.079132080078125	-5.94482421875001E-07	4.70426293475157E-08	133110.890625	4.00654826080427E-05
2	351	101.033368744915	-0.069122314453125	-0.069061279296875	-5.33447265625001E-07	3.68405501660618E-08	129462.25	4.00086864829063E-05
2	352	101.134076744661	-0.059051513671875	-0.0589599609375	-4.63256835937501E-07	2.73136038231314E-08	127272.734375	3.99584969272837E-05
2	353	101.234784744407	-0.048980712890625	-0.0488739013671875	-3.79638671875E-07	1.85544219988287E-08	128737.9453125	3.99160562665202E-05
2	354	101.335492744152	-0.038909912109375	-0.0387939453125	-2.7496337890625E-07	1.06669144628313E-08	141087.671875	3.98830925405491E-05
2	355	101.436200743898	-0.028839111328125	-0.0287078857421875	-1.446533203125E-07	4.15269063580581E-09	198459.921875	3.98619631596375E-05
2	356	101.536908743644	-0.018768310546875	-0.01861572265625	1.983642578125E-08	-3.69269392841431E-10	-938461.5625	3.98556803702377E-05
2	357	101.63761674339	-0.008697509765625	-0.00859985351562501	2.20642089843751E-07	-1.89748949885882E-09	-38976.48828125	3.98677875637077E-05
2	358	101.738324743135	0.001373291015625	0.00145263671875	4.58374023437499E-07	6.65850929948419E-10	3169.10791015625	3.99019772885367E-05
2	359	101.839032742881	0.011444091796875	0.0115570068359375	7.23876953125E-07	8.36585112296007E-09	15965.4306640625	3.9961509173736E-05
2	360	101.939740742627	0.021514892578125	0.0216217041015625	9.9761962890625E-07	2.1570237151991E-08	21673.294921875	4.00481949327514E-05
2	361	102.040448742373	0.031585693359375	0.031671142578125	1.25640869140625E-06	3.97918995531654E-08	25207.677734375	4.0161692595575E-05
2	362	102.141156742118	0.041656494140625	0.0417205810546875	1.47491455078125E-06	6.15342869991764E-08	28286.779296875	4.02992263843771E-05
2	363	102.241864741864	0.051727294921875	0.051788330078125	1.63299560546875E-06	8.45701109142283E-08	31713.69921875	4.04557213187218E-05
2	364	102.34257274161	0.061798095703125	0.061859130859375	1.7242431640625E-06	1.06660181131701E-07	35876.10546875	4.06247709179297E-05
2	365	102.443280741356	0.071868896484375	0.07196044921875	1.75628662109375E-06	1.26383170595545E-07	40973.06640625	4.08000305469614E-05
2	366	102.543988741101	0.081939697265625	0.082061767578125	1.74224853515625E-06	1.42971998684516E-07	47101.0703125	4.0976196032716E-05
2	367	102.644696740847	0.092010498046875	0.09210205078125	1.6973876953125E-06	1.56332887968347E-07	54261.05859375	4.11493965657428E-05
2	368	102.745404740593	0.102081298828125	0.1021728515625	1.6357421875E-06	1.6712843375899E-07	62462.6875	4.13172310800292E-05
2	369	102.846112740339	0.112152099609375	0.112152099609375	1.56829833984375E-06	1.75887947762021E-07	71511.96875	4.14785681641661E-05
2	370	102.946820740084	0.122222900390625	0.12225341796875	1.50115966796875E-06	1.8352190522819E-07	81439.3203125	4.16331276937854E-05
2	371	103.04752873983	0.132293701171875	0.13238525390625	1.436767578125E-06	1.90206833394768E-07	92141.0390625	4.17810661019757E-05
2	372	103.148236739576	0.142364501953125	0.14239501953125	1.378173828125E-06	1.96245082406676E-07	103321.5234375	4.19228090322576E-05
2	373	103.248944739321	0.152435302734375	0.1524658203125	1.3250732421875E-06	2.02028374474139E-07	115062.1875	4.20589276473038E-05
2	374	103.349652739067	0.162506103515625	0.162506103515625	1.2786865234375E-06	2.07794357720559E-07	127088.3125	4.21900367655326E-05
2	375	103.450360738813	0.172576904296875	0.17254638671875	1.2371826171875E-06	2.13471381016461E-07	139467.203125	4.23167221015319E-05
2	376	103.551068738559	0.182647705078125	0.182647705078125	1.201171875E-06	2.19391282030301E-07	152057.9375	4.24395002482925E-05
2	377	103.651776738304	0.192718505859375	0.1927490234375	1.1688232421875E-06	2.2528953991241E-07	164908.609375	4.25588405050803E-05
2	378	103.75248473805	0.202789306640625	0.20281982421875	1.14105224609375E-06	2.3142800387177E-07	177748.078125	4.26751539635006E-05
2	379	103.853192737796	0.212860107421875	0.212921142578125	1.1163330078125E-06	2.37690898075016E-07	190732.640625	4.27888189733494E-05
2	380	103.953900737542	0.222930908203125	0.222930908203125	1.09466552734375E-06	2.44034794150139E-07	203652.078125	4.29001520387828E-05
2	381	104.054608737287	0.233001708984375	0.233001708984375	1.07513427734375E-06	2.50508122690007E-07	216718.703125	4.30094114562962E-05
2	382	104.155316737033	0.243072509765625	0.2430419921875	1.058349609375E-06	2.57223376820548E-07	229642.453125	4.31168409704696E-05
2	383	104.256024736779	0.253143310546875	0.253173828125	1.04339599609375E-06	2.64160547658321E-07	242644.046875	4.32226734119467E-05
2	384	104.356732736525	0.263214111328125	0.263214111328125	1.02996826171875E-06	2.71102152282765E-07	255555.578125	4.33270724897739E-05
2	385	104.45744073627	0.273284912109375	0.27325439453125	1.01806640625E-06	2.78191123470606E-07	268405.28125	4.34302019129973E-05
2	386	104.558148736016	0.283355712890625	0.283416748046875	1.007080078125E-06	2.85423368495685E-07	281424.25	4.35321744589601E-05
2	387	104.658856735762	0.293426513671875	0.293426513671875	9.9761962890625E-07	2.92728060458103E-07	294126.65625	4.36331210948993E-05
2	388	104.759564735508	0.303497314453125	0.303436279296875	9.8907470703125E-07	3.00121143936849E-07	306788.03125	4.37331582361367E-05
2	389	104.860272735253	0.313568115234375	0.31353759765625	9.814453125E-07	3.07720000591871E-07	319465.1875	4.38323804701213E-05
2	390	104.960980734999	0.323638916015625	0.323638916015625	9.747314453125E-07	3.15461022637464E-07	332028.8125	4.39308823843021E-05
2	391	105.061688734745	0.333709716796875	0.333709716796875	9.686279296875E-07	3.23240527677626E-07	344517.96875	4.40287403762341E-05
2	392	105.16239673449	0.343780517578125	0.343780517578125	9.63134765625E-07	3.31106974726936E-07	356939.15625	4.41260090155993E-05
2	393	105.263104734236	0.353851318359375	0.353912353515625	9.58862304687499E-07	3.39353221079364E-07	369096.125	4.42227901658043E-05
2	394	105.363812733982	0.363922119140625	0.3638916015625	9.5428466796875E-07	3.47256133181872E-07	381324	4.43191238446161E-05
2	395	105.464520733728	0.373992919921875	0.3740234375	9.5184326171875E-07	3.56011668145584E-07	392946.46875	4.44151082774624E-05
2	396	105.565228733473	0.384063720703125	0.38409423828125	9.4940185546875E-07	3.64659769047648E-07	404564.4375	4.4510841689771E-05
2	397	105.665936733219	0.394134521484375	0.3941650390625	9.47265625E-07	3.73378981066708E-07	416108.25	4.46063459094148E-05
2	398	105.766644732965	0.404205322265625	0.4041748046875	9.4635009765625E-07	3.82490867423257E-07	427088.03125	4.47016973339487E-05
2	399	105.867352732711	0.414276123046875	0.41424560546875	9.45434570312501E-07	3.91642089425659E-07	438153.65625	4.47969578090124E-05
2	400	105.968060732456	0.424346923828125	0.424346923828125	9.4482421875E-07	4.00933231503586E-07	449127.90625	4.48921382485423E-05
2	401	106.068768732202	0.434417724609375	0.43438720703125	9.4512939453125E-07	4.10552104312956E-07	459606.0625	4.4987304136157E-05
2	402	106.169476731948	0.444488525390625	0.444549560546875	9.4512939453125E-07	4.20156851532738E-07	470358.40625	4.50824882136658E-05
2	403	106.270184731694	0.454559326171875	0.45452880859375	9.4635009765625E-07	4.30143387575299E-07	480296.6875	4.51777304988354E-05
2	404	106.370892731439	0.464630126953125	0.464630126953125	9.46960449218751E-07	4.39986337141818E-07	490654.21875	4.52730673714541E-05
2	405	106.471600731185	0.474700927734375	0.474700927734375	9.478759765625E-07	4.49957582304705E-07	500804.90625	4.53684806416277E-05
2	406	106.572308730931	0.484771728515625	0.4847412109375	9.4970703125E-07	4.60362116427859E-07	510411.34375	4.54640321549959E-05
2	407	106.673016730677	0.494842529296875	0.4947509765625	9.527587890625E-07	4.71378314159665E-07	519282.53125	4.55598274129443E-05
2	408	106.773724730422	0.504913330078125	0.504913330078125	9.55810546875E-07	4.82601478779543E-07	528256.75	4.56559318990912E-05
2	409	106.874432730168	0.514984130859375	0.51495361328125	9.6038818359375E-07	4.94555365548877E-07	536193.1875	4.57524183730129E-05
2	410	106.975140729914	0.525054931640625	0.525054931640625	9.65576171875E-07	5.06980541103985E-07	543773.6875	4.58493996120524E-05
2	411	107.075848729659	0.535125732421875	0.5350341796875	9.7198486328125E-07	5.2004509143444E-07	550455.25	4.5946962927701E-05
2	412	107.176556729405	0.545196533203125	0.545135498046875	9.808349609375E-07	5.34687899289565E-07	555787.1875	4.60452974948566E-05
2	413	107.277264729151	0.555267333984375	0.555206298828125	9.91210937500001E-07	5.50326490156294E-07	560129.375	4.61445961263962E-05
2	414	107.377972728897	0.565338134765625	0.56536865234375	1.0052490234375E-06	5.68336304240802E-07	562416.5	4.62451243947726E-05
2	415	107.478680728642	0.575408935546875	0.575439453125	1.024169921875E-06	5.89347791901673E-07	561859.375	4.63473152194638E-05
2	416	107.579388728388	0.585479736328125	0.58544921875	1.0491943359375E-06	6.14249984209891E-07	557998.8125	4.64517179352697E-05
2	417	107.680096728134	0.595550537109375	0.595489501953125	1.0845947265625E-06	6.45864759007964E-07	549043.3125	4.65591620013583E-05
2	418	107.78080472788	0.605621337890625	0.6055908203125	1.1334228515625E-06	6.86390478676913E-07	534302.625	4.66708479507361E-05
2	419	107.881512727625	0.615692138671875	0.61566162109375	1.202392578125E-06	7.40266955290281E-07	512030.46875	4.67884674435481E-05
2	420	107.982220727371	0.625762939453125	0.625732421875	1.2982177734375E-06	8.12336907074496E-07	481993.4375	4.69143815280404E-05
2	421	108.082928727117	0.635833740234375	0.63580322265625	1.4276123046875E-06	9.07680430373148E-07	445361.28125	4.70516388304532E-05
2	422	108.183636726863	0.645904541015625	0.64581298828125	1.5960693359375E-06	1.03076229152066E-06	404627.15625	4.72038918815088E-05
2	423	108.284344726608	0.655975341796875	0.655914306640625	1.8023681640625E-06	1.18219907108141E-06	363918.0625	4.73750187666155E-05
2	424	108.385052726354	0.666046142578125	0.666015625	2.04193115234375E-06	1.35995799155353E-06	326169.5	4.75685919809621E-05
2	425	108.4857607261	0.676116943359375	0.676025390625	2.29827880859375E-06	1.55369480125955E-06	294144.21875	4.77871399198193E-05
2	426	108.586468725846	0.686187744140625	0.68609619140625	2.55126953125E-06	1.75041634520312E-06	268923.4375	4.80313356092665E-05
2	427	108.687176725591	0.696258544921875	0.696136474609375	2.7740478515625E-06	1.93111577573291E-06	250946.109375	4.82994837511797E-05
2	428	108.787884725337	0.706329345703125	0.70623779296875	2.94677734375E-06	2.0811253307329E-06	239664.46875	4.85875534650404E-05
2	429	108.888592725083	0.716400146484375	0.716339111328125	3.056640625E-06	2.18959121411899E-06	234355.046875	4.88898476760369E-05
2	430	108.989300724828	0.726470947265625	0.726348876953125	3.10577392578125E-06	2.25587541535788E-06	233870.5	4.92001490783878E-05
2	431	109.090008724574	0.736541748046875	0.73651123046875	3.1048583984375E-06	2.28676299229846E-06	237212.515625	4.95128806505818E-05
2	432	109.19071672432	0.746612548828125	0.74652099609375	3.07037353515625E-06	2.29209831559274E-06	243136.875	4.98238296131603E-05
2	433	109.291424724066	0.756683349609375	0.75714111328125	3.017578125E-06	2.28473254537676E-06	250910.1875	5.01303802593611E-05
2	434	109.392132723811	0.766754150390625	0.7672119140625	2.960205078125E-06	2.27110444939171E-06	259175.265625	5.04313866258599E-05
2	435	109.492840723557	0.776824951171875	0.7769775390625	2.90740966796875E-06	2.25899202632718E-06	267240.46875	5.07268450746778E-05
2	436	109.593548723303	0.786895751953125	0.787353515625	2.86651611328125E-06	2.25696157940547E-06	274672.625	5.1017585064983E-05
2	437	109.694256723049	0.796966552734375	0.79742431640625	2.84088134765625E-06	2.26538782044372E-06	280696.09375	5.13049744768068E-05
2	438	109.794964722794	0.807037353515625	0.80718994140625	2.8350830078125E-06	2.2884505597176E-06	284714.75	5.15907813678496E-05
2	439	109.89567272254	0.817108154296875	0.81695556640625	2.84912109375E-06	2.32760521612363E-06	286739.5	5.18770029884763E-05
2	440	109.996380722286	0.827178955078125	0.82763671875	2.88360595703125E-06	2.38657821682864E-06	287014.5	5.21656693308614E-05
2	441	110.097088722032	0.837249755859375	0.83740234375	2.93304443359375E-06	2.45613841798331E-06	285506.1875	5.24585630046204E-05
2	442	110.197796721777	0.847320556640625	0.8477783203125	2.989501953125E-06	2.53443477049586E-06	283585.15625	5.27567863173317E-05
2	443	110.298504721523	0.857391357421875	0.85723876953125	3.04473876953125E-06	2.61006789514795E-06	281547.5625	5.30606339452788E-05
2	444	110.399212721269	0.867462158203125	0.86761474609375	3.0902099609375E-06	2.68111170953489E-06	280762.40625	5.3369552915683E-05
2	445	110.499920721015	0.877532958984375	0.877685546875	3.118896484375E-06	2.73741011369566E-06	281409.03125	5.36822044523433E-05
2	446	110.60062872076	0.887603759765625	0.88775634765625	3.12896728515625E-06	2.77776052826084E-06	283721.84375	5.3996809583623E-05
2	447	110.701336720506	0.897674560546875	0.89752197265625	3.12408447265625E-06	2.80393419416214E-06	287291.21875	5.43116766493767E-05
2	448	110.802044720252	0.907745361328125	0.908203125	3.1121826171875E-06	2.82649398286594E-06	291821.9375	5.46256997040473E-05
2	449	110.902752719997	0.917816162109375	0.91827392578125	3.09906005859375E-06	2.84578595710627E-06	296307.25	5.49384603800718E-05
2	450	111.003460719743	0.927886962890625	0.927734375	3.09173583984375E-06	2.86830959339568E-06	300069.09375	5.52501915080938E-05
2	451	111.104168719489	0.937957763671875	0.938720703125	3.09906005859375E-06	2.90915181722085E-06	302904.96875	5.55619226361159E-05
2	452	111.204876719235	0.948028564453125	0.948486328125	3.126220703125E-06	2.96517760034476E-06	303397.125	5.5875389080029E-05
2	453	111.30558471898	0.958099365234375	0.95855712890625	3.182373046875E-06	3.05048615700798E-06	301208.3125	5.61930537514854E-05
2	454	111.406292718726	0.968170166015625	0.968017578125	3.27117919921875E-06	3.16655882670602E-06	295923.125	5.65180162084289E-05
2	455	111.507000718472	0.978240966796875	0.977783203125	3.39813232421875E-06	3.32263675772992E-06	287741.34375	5.68538416700903E-05
2	456	111.607708718218	0.988311767578125	0.98846435546875	3.56109619140625E-06	3.52001643477706E-06	277573.0625	5.72042663407046E-05
2	457	111.708416717963	0.998382568359375	0.99822998046875	3.75152587890625E-06	3.74488558918529E-06	266086.40625	5.75724843656644E-05
2	458	111.809124717709	1.00845336914063	1.0089111328125	3.9532470703125E-06	3.9884748730401E-06	255210.75	5.79604529775679E-05
2	459	111.909832717455	1.01852416992188	1.0186767578125	4.1448974609375E-06	4.22231096308678E-06	245766.453125	5.83682267460972E-05
2	460	112.010540717201	1.02859497070313	1.0284423828125	4.30389404296875E-06	4.42630698671564E-06	238956.25	5.87936556257773E-05
2	461	112.111248716946	1.03866577148438	1.03851318359375	4.41314697265625E-06	4.58311160400626E-06	235322.59375	5.9232595958747E-05
2	462	112.211956716692	1.04873657226563	1.04888916015625	4.4659423828125E-06	4.68427833766327E-06	234864.015625	5.96796926402021E-05
2	463	112.312664716438	1.05880737304688	1.0589599609375	4.4677734375E-06	4.73119280286483E-06	237021.875	6.01295396336354E-05
2	464	112.413372716184	1.06887817382813	1.0687255859375	4.42779541015625E-06	4.73209820484044E-06	241367.421875	6.05774694122374E-05
2	465	112.514080715929	1.07894897460938	1.07879638671875	4.3609619140625E-06	4.70458962809062E-06	247375.796875	6.10200186201837E-05
2	466	112.614788715675	1.08901977539063	1.0894775390625	4.2803955078125E-06	4.66339452032116E-06	254527.3125	6.14551463513635E-05
2	467	112.715496715421	1.09909057617188	1.09893798828125	4.1937255859375E-06	4.60864430351648E-06	262043.375	6.18818521616049E-05
2	468	112.816204715166	1.10916137695313	1.1090087890625	4.10858154296875E-06	4.55645295005525E-06	269925	6.2299906858243E-05
2	469	112.916912714912	1.11923217773438	1.11907958984375	4.0264892578125E-06	4.50596189693897E-06	277929.375	6.2709535995964E-05
2	470	113.017620714658	1.12930297851563	1.12945556640625	3.95050048828125E-06	4.46191461378476E-06	285901.90625	6.31112125120126E-05
2	471	113.118328714404	1.13937377929688	1.1395263671875	3.88153076171875E-06	4.42310647486011E-06	293576.5625	6.35055839666165E-05
2	472	113.219036714149	1.14944458007813	1.1492919921875	3.81927490234375E-06	4.38946199210477E-06	300918.90625	6.38933488517068E-05
2	473	113.319744713895	1.15951538085938	1.15966796875	3.76312255859375E-06	4.36397249359288E-06	308166.40625	6.42751547275111E-05
2	474	113.420452713641	1.16958618164063	1.16973876953125	3.7127685546875E-06	4.34296907769749E-06	315058.375	6.46515982225537E-05
2	475	113.521160713387	1.17965698242188	1.1798095703125	3.6676025390625E-06	4.32707247455255E-06	321684.15625	6.50232250336558E-05
2	476	113.621868713132	1.18972778320313	1.18988037109375	3.6273193359375E-06	4.31607622886077E-06	328032.96875	6.53905590297654E-05
2	477	113.722576712878	1.19979858398438	1.199951171875	3.59130859375E-06	4.30939508078154E-06	334126.4375	6.57540440442972E-05
2	478	113.823284712624	1.20986938476563	1.20941162109375	3.55865478515625E-06	4.30387854066794E-06	339850.78125	6.61140729789622E-05
2	479	113.92399271237	1.21994018554688	1.21978759765625	3.52996826171875E-06	4.30581121690921E-06	345552	6.64710096316412E-05
2	480	114.024700712115	1.23001098632813	1.2298583984375	3.5040283203125E-06	4.30945829066331E-06	350984.15625	6.68252032482997E-05
2	481	114.125408711861	1.24008178710938	1.23992919921875	3.4814453125E-06	4.31674561696127E-06	356153.59375	6.71769521431997E-05
2	482	114.226116711607	1.25015258789063	1.2506103515625	3.4619140625E-06	4.32950537287979E-06	361248.25	6.75265764584765E-05
2	483	114.326824711353	1.26022338867188	1.2603759765625	3.44390869140625E-06	4.34061939813546E-06	365972.53125	6.78743090247735E-05
2	484	114.427532711098	1.27029418945313	1.27044677734375	3.42926025390625E-06	4.35669244325254E-06	370472.5625	6.82204045006074E-05
2	485	114.528240710844	1.28036499023438	1.280517578125	3.41583251953125E-06	4.37403332398389E-06	374877.15625	6.85650811647065E-05
2	486	114.62894871059	1.29043579101563	1.29058837890625	3.40545654296875E-06	4.39504265159485E-06	378976.625	6.89085572957993E-05
2	487	114.729656710335	1.30050659179688	1.300048828125	3.39691162109375E-06	4.41615065938095E-06	382714.9375	6.92510875524022E-05
2	488	114.830364710081	1.31057739257813	1.3104248046875	3.39080810546875E-06	4.44339866589871E-06	386463.875	6.95928756613284E-05
2	489	114.931072709827	1.32064819335938	1.32049560546875	3.38653564453125E-06	4.47190541308373E-06	389925.21875	6.99341399013065E-05
2	490	115.031780709573	1.33071899414063	1.33056640625	3.385009765625E-06	4.50398010798381E-06	393076.09375	7.027511310298E-05
2	491	115.132488709318	1.34078979492188	1.34033203125	3.38592529296875E-06	4.53826396551449E-06	395854	7.0616057200823E-05
2	492	115.233196709064	1.35086059570313	1.3507080078125	3.3880615234375E-06	4.5762817535433E-06	398666.90625	7.09571540937759E-05
2	493	115.33390470881	1.36093139648438	1.36077880859375	3.39324951171875E-06	4.61746185465017E-06	401025.28125	7.12986220605671E-05
2	494	115.434612708556	1.37100219726563	1.370849609375	3.40057373046875E-06	4.66167512058746E-06	403123.0625	7.16407157597132E-05
2	495	115.535320708301	1.38107299804688	1.3812255859375	3.41064453125E-06	4.71086923425901E-06	404974.96875	7.19836898497306E-05
2	496	115.636028708047	1.39114379882813	1.390380859375	3.424072265625E-06	4.76076456834562E-06	406060.59375	7.23278426448815E-05
2	497	115.736736707793	1.40121459960938	1.4007568359375	3.4423828125E-06	4.82194081996568E-06	406914.90625	7.26735961507075E-05
2	498	115.837444707539	1.41128540039063	1.4117431640625	3.46649169921875E-06	4.8937959036266E-06	407254.1875	7.3021488788072E-05
2	499	115.938152707284	1.42135620117188	1.42120361328125	3.4967041015625E-06	4.96952861794853E-06	406440.9375	7.33721099095419E-05
2	500	116.03886070703	1.43142700195313	1.431884765625	3.53424072265625E-06	5.06062542626751E-06	405146.375	7.37261507310905E-05
2	501	116.139568706776	1.44149780273438	1.44134521484375	3.58184814453125E-06	5.1626793720061E-06	402402.6875	7.40844698157161E-05
2	502	116.240276706522	1.45156860351563	1.4520263671875	3.641357421875E-06	5.28734699400957E-06	398759.65625	7.44481876608916E-05
2	503	116.340984706267	1.46163940429688	1.46148681640625	3.71612548828125E-06	5.43106807526783E-06	393282.4375	7.48186721466482E-05
2	504	116.441692706013	1.47171020507813	1.4715576171875	3.80950927734375E-06	5.60591251996811E-06	386285.34375	7.51976112951525E-05
2	505	116.542400705759	1.48178100585938	1.4813232421875	3.92120361328125E-06	5.80857022214332E-06	377772.59375	7.55868895794265E-05
2	506	116.643108705504	1.49185180664063	1.49169921875	4.05242919921875E-06	6.04500564804766E-06	368100	7.59883914724924E-05
2	507	116.74381670525	1.50192260742188	1.50146484375	4.19952392578125E-06	6.30543763691094E-06	357532.15625	7.64039068599232E-05
2	508	116.844524704996	1.49185180664063	1.49139404296875	3.84490966796875E-06	5.73427541894489E-06	387887.90625	7.68089812481776E-05
2	509	116.945232704742	1.48178100585938	1.48162841796875	3.58428955078125E-06	5.31058503838722E-06	413367.40625	7.71830673329532E-05
2	510	117.045940704487	1.47171020507813	1.47216796875	3.37982177734375E-06	4.97566543344874E-06	435575.625	7.75337393861264E-05
2	511	117.146648704233	1.46163940429688	1.46240234375	3.21319580078125E-06	4.69898486699094E-06	455123.96875	7.78657267801464E-05
2	512	117.247356703979	1.45156860351563	1.451416015625	3.074951171875E-06	4.46303329226794E-06	472012.71875	7.81823619036004E-05
2	513	117.348064703725	1.44149780273438	1.44134521484375	2.95989990234375E-06	4.26623728344566E-06	486957.4375	7.84862349973992E-05
2	514	117.44877270347	1.43142700195313	1.43096923828125	2.8631591796875E-06	4.09709264204139E-06	499786.84375	7.87794488132931E-05
2	515	117.549480703216	1.42135620117188	1.4215087890625	2.78045654296875E-06	3.95244342143997E-06	511250.15625	7.90636331657879E-05
2	516	117.650188702962	1.41128540039063	1.41082763671875	2.70965576171875E-06	3.82285725208931E-06	520666.75	7.93400831753388E-05
2	517	117.750896702708	1.40121459960938	1.4013671875	2.64892578125E-06	3.71211740457511E-06	529032.3125	7.96099047875032E-05
2	518	117.851604702453	1.39114379882813	1.39129638671875	2.596435546875E-06	3.61241131940915E-06	535848.625	7.98740293248557E-05
2	519	117.952312702199	1.38107299804688	1.3812255859375	2.55035400390625E-06	3.52261395164533E-06	541581.9375	8.01331916591153E-05
2	520	118.053020701945	1.37100219726563	1.370849609375	2.51129150390625E-06	3.44260297424626E-06	545874.3125	8.03880684543401E-05
2	521	118.153728701691	1.36093139648438	1.36077880859375	2.4755859375E-06	3.36872494699492E-06	549679.5	8.06391763035208E-05
2	522	118.254436701436	1.35086059570313	1.35040283203125	2.44415283203125E-06	3.3005910609063E-06	552503.4375	8.08869008324109E-05
2	523	118.355144701182	1.34078979492188	1.34063720703125	2.41546630859375E-06	3.23826384374115E-06	555022.125	8.11316058388911E-05
2	524	118.455852700928	1.33071899414063	1.33056640625	2.38922119140625E-06	3.17901753987826E-06	556903.8125	8.13735387055203E-05
2	525	118.556560700673	1.32064819335938	1.32080078125	2.364501953125E-06	3.12303586724738E-06	558595.8125	8.16129104350694E-05
2	526	118.657268700419	1.31057739257813	1.31072998046875	2.34130859375E-06	3.06882338918513E-06	559827.9375	8.18498665466905E-05
2	527	118.757976700165	1.30050659179688	1.30035400390625	2.3193359375E-06	3.01595764540252E-06	560657.9375	8.20845452835783E-05
2	528	118.858684699911	1.29043579101563	1.2908935546875	2.298583984375E-06	2.9672271466552E-06	561603.8125	8.231707761297E-05
2	529	118.959392699656	1.28036499023438	1.28021240234375	2.27813720703125E-06	2.91649939754279E-06	561955.8125	8.25475362944417E-05
2	530	119.060100699402	1.27029418945313	1.27044677734375	2.259521484375E-06	2.87060152004415E-06	562263.6875	8.27760231913999E-05
2	531	119.160808699148	1.26022338867188	1.259765625	2.24090576171875E-06	2.82301607512636E-06	562168.0625	8.30026401672512E-05
2	532	119.261516698894	1.25015258789063	1.25030517578125	2.22259521484375E-06	2.77892218036868E-06	562542.9375	8.32273944979534E-05
2	533	119.362224698639	1.24008178710938	1.2396240234375	2.20489501953125E-06	2.73324098998273E-06	562214.5	8.34503371152095E-05
2	534	119.462932698385	1.23001098632813	1.2298583984375	2.1881103515625E-06	2.69106590167212E-06	562064.1875	8.3671540778596E-05
2	535	119.563640698131	1.21994018554688	1.21978759765625	2.17193603515625E-06	2.64930054072465E-06	561613.0625	8.38910855236463E-05
2	536	119.664348697877	1.20986938476563	1.209716796875	2.15545654296875E-06	2.60749197877885E-06	561234.625	8.41089859022759E-05
2	537	119.765056697622	1.19979858398438	1.199951171875	2.13958740234375E-06	2.56740054283E-06	560833	8.43252637423575E-05
2	538	119.865764697368	1.18972778320313	1.1895751953125	2.122802734375E-06	2.52523341259803E-06	560379.5625	8.45398899400607E-05
2	539	119.966472697114	1.17965698242188	1.17919921875	2.1063232421875E-06	2.48377455136506E-06	559837.75	8.47528426675126E-05
2	540	120.06718069686	1.16958618164063	1.16912841796875	2.088623046875E-06	2.44186844611249E-06	559760.375	8.49640782689676E-05
2	541	120.167888696605	1.15951538085938	1.15936279296875	2.07122802734375E-06	2.40130475503975E-06	559746.5625	8.51735385367647E-05
2	542	120.268596696351	1.14944458007813	1.1492919921875	2.05108642578125E-06	2.35729703490506E-06	560333.3125	8.53811143315397E-05
2	543	120.369304696097	1.13937377929688	1.13922119140625	2.02911376953125E-06	2.3116094780562E-06	561437.8125	8.5586572822649E-05
2	544	120.470012695842	1.12930297851563	1.129150390625	2.003173828125E-06	2.26188444685249E-06	563680.75	8.57896084198728E-05
2	545	120.570720695588	1.11923217773438	1.11907958984375	1.9720458984375E-06	2.20687616092619E-06	567471.4375	8.59897772897966E-05
2	546	120.671428695334	1.10916137695313	1.10931396484375	1.93359375E-06	2.14496253647667E-06	573705.8125	8.6186446424108E-05
2	547	120.77213669508	1.09909057617188	1.0992431640625	1.883544921875E-06	2.07047378353309E-06	583603.375	8.63786553964019E-05
2	548	120.872844694825	1.08901977539063	1.0894775390625	1.81884765625E-06	1.981593641176E-06	598993.3125	8.65650799823925E-05
2	549	120.973552694571	1.07894897460938	1.0791015625	1.7327880859375E-06	1.86985425898456E-06	622754.5	8.67439230205491E-05
2	550	121.074260694317	1.06887817382813	1.0687255859375	1.62017822265625E-06	1.73152591287362E-06	659634.625	8.69127543410286E-05
2	551	121.174968694063	1.05880737304688	1.05926513671875	1.47552490234375E-06	1.56297210196499E-06	717890.375	8.70686344569549E-05
2	552	121.275676693808	1.04873657226563	1.048583984375	1.2945556640625E-06	1.35745028728707E-06	809995.3125	8.72081218403764E-05
2	553	121.376384693554	1.03866577148438	1.038818359375	1.07940673828125E-06	1.12130749130301E-06	962397.5	8.73276585480198E-05
2	554	121.4770926933	1.02859497070313	1.0284423828125	8.392333984375E-07	8.63103196024895E-07	1225454.5	8.7424268713221E-05
2	555	121.577800693046	1.01852416992188	1.01806640625	5.902099609375E-07	6.0087290876254E-07	1724922.5	8.74962497618981E-05
2	556	121.678508692791	1.00845336914063	1.00830078125	3.54919433593751E-07	3.57865530986601E-07	2840928.75	8.75438418006524E-05
2	557	121.779216692537	0.998382568359375	0.99761962890625	1.58081054687501E-07	1.57704761249988E-07	6310811	8.75696714501828E-05
2	558	121.879924692283	0.988311767578125	0.98876953125	1.220703125E-08	1.20699406025437E-08	81000000	8.75782498042099E-05
2	559	121.980632692029	0.978240966796875	0.97808837890625	-7.44628906250003E-08	-7.28312841147272E-08	-13135246	8.75751138664782E-05
2	560	122.081340691774	0.968170166015625	0.968017578125	-1.07421874999999E-07	-1.03986259603062E-07	-9011364	8.75659534358419E-05
2	561	122.18204869152	0.958099365234375	0.958251953125	-9.67407226562494E-08	-9.2701981202481E-08	-9905363	8.75556725077331E-05
2	562	122.282756691266	0.948028564453125	0.948486328125	-5.52368164062497E-08	-5.23913641359286E-08	-17171272	8.7548018200323E-05
2	563	122.383464691011	0.937957763671875	0.9381103515625	4.57763671875E-09	4.29432800430618E-09	204933344	8.7545471615158E-05
2	564	122.484172690757	0.927886962890625	0.92803955078125	6.74438476562497E-08	6.25905514084479E-08	13760182	8.75490950420499E-05
2	565	122.584880690503	0.917816162109375	0.91766357421875	1.19934082031251E-07	1.10059140467911E-07	7651399.5	8.75585319590755E-05
2	566	122.685588690249	0.907745361328125	0.9075927734375	1.4984130859375E-07	1.35994881134138E-07	6057027	8.75721161719412E-05
2	567	122.786296689994	0.897674560546875	0.89813232421875	1.53503417968751E-07	1.37866365435002E-07	5850895	8.75873884069733E-05
2	568	122.88700468974	0.887603759765625	0.8880615234375	1.30310058593749E-07	1.1572334557286E-07	6814988.5	8.76016856636852E-05
2	569	122.987712689486	0.877532958984375	0.877685546875	8.17871093750006E-08	7.17833614771735E-08	10731344	8.76123594935052E-05
2	570	123.088420689232	0.867462158203125	0.86761474609375	1.12915039062494E-08	9.79667547085228E-09	76837840	8.76170524861664E-05
2	571	123.189128688977	0.857391357421875	0.8575439453125	-7.14111328125003E-08	-6.12381825249031E-08	-12008548	8.76140184118412E-05
2	572	123.289836688723	0.847320556640625	0.84716796875	-1.5411376953125E-07	-1.30560238176258E-07	-5497030	8.76026679179631E-05
2	573	123.390544688469	0.837249755859375	0.83740234375	-2.25830078125E-07	-1.89110636483747E-07	-3708108	8.75835321494378E-05
2	574	123.491252688215	0.827178955078125	0.82733154296875	-2.777099609375E-07	-2.29758200021024E-07	-2979121	8.75581754371524E-05
2	575	123.59196068796	0.817108154296875	0.81695556640625	-3.0517578125E-07	-2.49315036171538E-07	-2677000	8.75288315000944E-05
2	576	123.692668687706	0.807037353515625	0.806884765625	-3.1005859375E-07	-2.50181557248652E-07	-2602362.25	8.74978504725732E-05
2	577	123.793376687452	0.796966552734375	0.797119140625	-2.98461914062501E-07	-2.37909702605066E-07	-2670756.75	8.74672041391023E-05
2	578	123.894084687198	0.786895751953125	0.78704833984375	-2.7801513671875E-07	-2.18811351260229E-07	-2830955	8.74381803441793E-05
2	579	123.994792686943	0.776824951171875	0.77728271484375	-2.56958007812499E-07	-1.99729015548655E-07	-3024940.75	8.7411237473134E-05
2	580	124.095500686689	0.766754150390625	0.76690673828125	-2.45056152343751E-07	-1.87935214057688E-07	-3129514.25	8.73859607963823E-05
2	581	124.196208686435	0.756683349609375	0.75653076171875	-2.52685546875001E-07	-1.91164389207188E-07	-2993961.5	8.7360902398359E-05
2	582	124.29691668618	0.746612548828125	0.7464599609375	-2.899169921875E-07	-2.16411422115925E-07	-2574737	8.73335739015602E-05
2	583	124.397624685926	0.736541748046875	0.73638916015625	-3.64074707031251E-07	-2.68100677658367E-07	-2022632	8.73006429173984E-05
2	584	124.498332685672	0.726470947265625	0.726409912109375	-4.80041503906251E-07	-3.48706890918038E-07	-1513223.25	8.72581440489739E-05
2	585	124.599040685418	0.716400146484375	0.716339111328125	-6.4208984375E-07	-4.59954065945567E-07	-1115636.875	8.72016389621422E-05
2	586	124.699748685163	0.706329345703125	0.706298828125	-8.441162109375E-07	-5.96198276525683E-07	-836731.75	8.71267984621227E-05
2	587	124.800456684909	0.696258544921875	0.696197509765625	-1.07269287109375E-06	-7.4680610850919E-07	-649018.5	8.70302828843705E-05
2	588	124.901164684655	0.686187744140625	0.686126708984375	-1.30645751953125E-06	-8.96395420113549E-07	-525181	8.6910484242253E-05
2	589	125.001872684401	0.676116943359375	0.67608642578125	-1.51824951171875E-06	-1.02646788491256E-06	-445306.53125	8.67682465468533E-05
2	590	125.102580684146	0.666046142578125	0.666015625	-1.68243408203125E-06	-1.12052737222257E-06	-395864.34375	8.66070768097416E-05
2	591	125.203288683892	0.655975341796875	0.656005859375	-1.785888671875E-06	-1.17155332191032E-06	-367327.4375	8.64324392750859E-05
2	592	125.303996683638	0.645904541015625	0.6458740234375	-1.8231201171875E-06	-1.17750596473343E-06	-354268.5	8.62507076817565E-05
2	593	125.404704683384	0.635833740234375	0.6357421875	-1.80511474609375E-06	-1.14758756808442E-06	-352189.34375	8.60680083860643E-05
2	594	125.505412683129	0.625762939453125	0.62567138671875	-1.7462158203125E-06	-1.09255722691159E-06	-358301.3125	8.58891871757805E-05
2	595	125.606120682875	0.615692138671875	0.61566162109375	-1.6632080078125E-06	-1.02397336831928E-06	-370165.15625	8.57175109558739E-05
2	596	125.706828682621	0.605621337890625	0.605621337890625	-1.56890869140625E-06	-9.50164519508689E-07	-386014.40625	8.55547623359598E-05
2	597	125.807536682367	0.595550537109375	0.595489501953125	-1.4715576171875E-06	-8.76297065133258E-07	-404666.125	8.54016616358422E-05
2	598	125.908244682112	0.585479736328125	0.585418701171875	-1.3775634765625E-06	-8.06451396329066E-07	-424966.78125	8.52581943036057E-05
2	599	126.008952681858	0.575408935546875	0.57537841796875	-1.2890625E-06	-7.41698670481128E-07	-446354.1875	8.51239237817936E-05
2	600	126.109660681604	0.565338134765625	0.56524658203125	-1.2078857421875E-06	-6.82753238834266E-07	-467963.625	8.49981879582629E-05
2	601	126.210368681349	0.555267333984375	0.555267333984375	-1.13433837890625E-06	-6.29861062861892E-07	-489507.65625	8.48802519612946E-05
2	602	126.311076681095	0.545196533203125	0.545196533203125	-1.0675048828125E-06	-5.81999927362631E-07	-510720.4375	8.4769373643212E-05
2	603	126.411784680841	0.535125732421875	0.535125732421875	-1.00738525390625E-06	-5.39077745997929E-07	-531202.6875	8.466489816783E-05
2	604	126.512492680587	0.525054931640625	0.525054931640625	-9.53063964843751E-07	-5.00410919812566E-07	-550912.625	8.45661852508783E-05
2	605	126.613200680332	0.514984130859375	0.515045166015625	-9.04235839843751E-07	-4.65722308717886E-07	-569591.625	8.44726600917056E-05
2	606	126.713908680078	0.504913330078125	0.50482177734375	-8.59375E-07	-4.33831189639022E-07	-587429	8.43838570290245E-05
2	607	126.814616679824	0.494842529296875	0.49481201171875	-8.18786621093751E-07	-4.0514544252801E-07	-604323.5625	8.42993540572934E-05
2	608	126.91532467957	0.484771728515625	0.484832763671875	-7.82165527343751E-07	-3.79219471824399E-07	-619859.5625	8.42187364469282E-05
2	609	127.016032679315	0.474700927734375	0.4747314453125	-7.476806640625E-07	-3.54947502501091E-07	-634938.8125	8.41417058836669E-05
2	610	127.116740679061	0.464630126953125	0.4647216796875	-7.16552734375001E-07	-3.32997586838246E-07	-648551.9375	8.40679713292047E-05
2	611	127.217448678807	0.454559326171875	0.45458984375	-6.87561035156251E-07	-3.12558256609918E-07	-661162.9375	8.39972708490677E-05
2	612	127.318156678553	0.444488525390625	0.444549560546875	-6.6070556640625E-07	-2.93716368560126E-07	-672840.6875	8.39293788885698E-05
2	613	127.418864678298	0.434417724609375	0.434417724609375	-6.3629150390625E-07	-2.76416301403515E-07	-682733.875	8.38640698930249E-05
2	614	127.519572678044	0.424346923828125	0.42425537109375	-6.1309814453125E-07	-2.60110169847394E-07	-691986.125	8.38011619634926E-05
2	615	127.62028067779	0.414276123046875	0.41424560546875	-5.9173583984375E-07	-2.45123970898931E-07	-700051.5625	8.37404950289056E-05
2	616	127.720988677536	0.404205322265625	0.404205322265625	-5.71594238281251E-07	-2.31041425990952E-07	-707154.3125	8.36819162941538E-05
2	617	127.821696677281	0.394134521484375	0.3941650390625	-5.535888671875E-07	-2.18205371993463E-07	-712017.6875	8.36252584122121E-05
2	618	127.922404677027	0.384063720703125	0.384033203125	-5.3558349609375E-07	-2.05681828902016E-07	-717037.0625	8.35704122437164E-05
2	619	128.023112676773	0.373992919921875	0.373931884765625	-5.1849365234375E-07	-1.93881319887623E-07	-721188.9375	8.3517334132921E-05
2	620	128.123820676518	0.363922119140625	0.363922119140625	-5.02624511718749E-07	-1.82916181756809E-07	-724043.6875	8.34659149404615E-05
2	621	128.224528676264	0.353851318359375	0.353851318359375	-4.87060546875E-07	-1.7234701488178E-07	-726503.75	8.3416081906762E-05
2	622	128.32523667601	0.343780517578125	0.34375	-4.730224609375E-07	-1.62601466513479E-07	-726709.6875	8.33677404443733E-05
2	623	128.425944675756	0.333709716796875	0.33367919921875	-4.5928955078125E-07	-1.53255371060368E-07	-726511.625	8.33207959658466E-05
2	624	128.526652675501	0.323638916015625	0.32366943359375	-4.46472167968751E-07	-1.44509385791025E-07	-724948.75	8.32751829875633E-05
2	625	128.627360675247	0.313568115234375	0.313568115234375	-4.351806640625E-07	-1.36458780275461E-07	-720547	8.32307923701592E-05
2	626	128.728068674993	0.303497314453125	0.303466796875	-4.2388916015625E-07	-1.28636287399786E-07	-715910.75	8.31875295261852E-05
2	627	128.828776674739	0.293426513671875	0.293487548828125	-4.132080078125E-07	-1.21271398256795E-07	-710265.875	8.31453799037263E-05
2	628	128.929484674484	0.283355712890625	0.283294677734375	-4.0313720703125E-07	-1.14206621049107E-07	-702725.25	8.31042780191638E-05
2	629	129.03019267423	0.273284912109375	0.27325439453125	-3.94287109374999E-07	-1.0774068215369E-07	-693034.0625	8.30641220090911E-05
2	630	129.130900673976	0.263214111328125	0.263214111328125	-3.8604736328125E-07	-1.01613110814469E-07	-681818.1875	8.30248245620169E-05
2	631	129.231608673722	0.253143310546875	0.253143310546875	-3.7872314453125E-07	-9.58712291776465E-08	-668412.5625	8.29863201943226E-05
2	632	129.332316673467	0.243072509765625	0.2431640625	-3.7200927734375E-07	-9.0459288060174E-08	-653650.5	8.29485143185593E-05
2	633	129.433024673213	0.233001708984375	0.23297119140625	-3.65600585937501E-07	-8.51744061947102E-08	-637228.6875	8.29113778308965E-05
2	634	129.533732672959	0.222930908203125	0.222930908203125	-3.59191894531249E-07	-8.00749759832797E-08	-620645.75	8.28748816275038E-05
2	635	129.634440672704	0.212860107421875	0.212890625	-3.53088378906249E-07	-7.51692041944807E-08	-602938.625	8.28390111564659E-05
2	636	129.73514867245	0.202789306640625	0.20281982421875	-3.466796875E-07	-7.0313511457698E-08	-585035.1875	8.28037736937404E-05
2	637	129.835856672196	0.192718505859375	0.1927490234375	-3.39660644531251E-07	-6.54692513535338E-08	-567475.3125	8.2769212895073E-05
2	638	129.936564671942	0.182647705078125	0.1826171875	-3.3416748046875E-07	-6.10247283816534E-08	-546484	8.27352851047181E-05
2	639	130.037272671687	0.172576904296875	0.172576904296875	-3.30200195312499E-07	-5.69849234466346E-08	-522643.28125	8.2701830251608E-05
2	640	130.137980671433	0.162506103515625	0.162567138671875	-3.28979492187501E-07	-5.348125498017E-08	-494155.84375	8.26686373329721E-05
2	641	130.238688671179	0.152435302734375	0.152496337890625	-3.32031250000001E-07	-5.0633548909218E-08	-459283.09375	8.26353571028449E-05
2	642	130.339396670925	0.142364501953125	0.142425537109375	-3.39660644531251E-07	-4.83763464842468E-08	-419317.1875	8.26015311758965E-05
2	643	130.44010467067	0.132293701171875	0.132354736328125	-3.5430908203125E-07	-4.68944811871097E-08	-373557.28125	8.25665920274332E-05
2	644	130.540812670416	0.122222900390625	0.122283935546875	-3.7811279296875E-07	-4.62371190224076E-08	-323405.96875	8.25297101982869E-05
2	645	130.641520670162	0.112152099609375	0.11224365234375	-4.150390625E-07	-4.65854981257507E-08	-270441.1875	8.24897724669427E-05
2	646	130.742228669908	0.102081298828125	0.102142333984375	-4.6844482421875E-07	-4.78480473020682E-08	-218045.609375	8.24452872620896E-05
2	647	130.842936669653	0.092010498046875	0.092041015625	-5.4473876953125E-07	-5.01383112805343E-08	-168963.578125	8.23942682472989E-05
2	648	130.943644669399	0.081939697265625	0.081939697265625	-6.49414062500001E-07	-5.32127906183177E-08	-126174.8125	8.23341324576177E-05
2	649	131.044352669145	0.071868896484375	0.0718994140625	-7.89489746093749E-07	-5.67638487325439E-08	-91070.7421875	8.22616784716956E-05
2	650	131.145060668891	0.061798095703125	0.06182861328125	-9.6771240234375E-07	-5.98323168787829E-08	-63891.51953125	8.21731955511495E-05
2	651	131.245768668636	0.051727294921875	0.05181884765625	-1.18377685546875E-06	-6.13419501860335E-08	-43774.171875	8.2064863818232E-05
2	652	131.346476668382	0.041656494140625	0.04178466796875	-1.42730712890625E-06	-5.96395537399985E-08	-29275.17578125	8.19333872641437E-05
2	653	131.447184668128	0.031585693359375	0.0316650390625	-1.68121337890625E-06	-5.32356843052639E-08	-18834.634765625	8.17768595879897E-05
2	654	131.547892667873	0.021514892578125	0.0216094970703125	-1.9189453125E-06	-4.1467444589216E-08	-11261.1318359375	8.15955791040324E-05
2	655	131.648600667619	0.011444091796875	0.011566162109375	-2.1160888671875E-06	-2.44750264499771E-08	-5465.82080078125	8.13923979876563E-05
2	656	131.749308667365	0.001373291015625	0.001483154296875	-2.2540283203125E-06	-3.34307159732816E-09	-658.001647949219	8.11723439255729E-05
2	657	131.850016667111	-0.008697509765625	-0.00858154296874999	-2.3284912109375E-06	1.99820462398748E-08	3685.45263671875	8.09415942057967E-05
2	658	131.950724666856	-0.018768310546875	-0.0186370849609375	-2.34375E-06	4.36806679715573E-08	7951.8232421875	8.07063261163421E-05
2	659	132.051432666602	-0.028839111328125	-0.0287353515625	-2.31689453125E-06	6.6576774315763E-08	12402.5283203125	8.04716473794542E-05
2	660	132.152140666348	-0.038909912109375	-0.03875732421875	-2.2613525390625E-06	8.7643968527118E-08	17139.001953125	8.02411159384064E-05
2	661	132.252848666094	-0.048980712890625	-0.0488037109375	-2.19207763671875E-06	1.06981516978522E-07	22263.677734375	8.00168636487797E-05
2	662	132.353556665839	-0.059051513671875	-0.058929443359375	-2.119140625E-06	1.24879775853515E-07	27808.1796875	7.97997781774029E-05
2	663	132.454264665585	-0.069122314453125	-0.06903076171875	-2.047119140625E-06	1.4131418879515E-07	33720.9296875	7.95899904915132E-05
2	664	132.554972665331	-0.079193115234375	-0.079132080078125	-1.98150634765625E-06	1.56800723516426E-07	39935.31640625	7.93871295172721E-05
2	665	132.655680665077	-0.089263916015625	-0.089202880859375	-1.9219970703125E-06	1.71447666730273E-07	46411.5625	7.91905767982826E-05
2	666	132.756388664822	-0.099334716796875	-0.099273681640625	-1.8707275390625E-06	1.85714000622283E-07	53066.88671875	7.89995974628255E-05
2	667	132.857096664568	-0.109405517578125	-0.109283447265625	-1.8267822265625E-06	1.99637057107793E-07	59822.921875	7.88134129834361E-05
2	668	132.957804664314	-0.119476318359375	-0.119354248046875	-1.78924560546875E-06	2.13554059769194E-07	66706.46875	7.86313321441412E-05
2	669	133.05851266406	-0.129547119140625	-0.129425048828125	-1.759033203125E-06	2.27662951601815E-07	73577.3828125	7.84526637289673E-05
2	670	133.159220663805	-0.139617919921875	-0.139556884765625	-1.7340087890625E-06	2.41992864857821E-07	80482.2265625	7.8276774729602E-05
2	671	133.259928663551	-0.149688720703125	-0.1495361328125	-1.715087890625E-06	2.56467586723375E-07	87188.6171875	7.81030976213515E-05
2	672	133.360636663297	-0.159759521484375	-0.159637451171875	-1.70074462890625E-06	2.71502528903511E-07	93863.265625	7.79310939833522E-05
2	673	133.461344663042	-0.169830322265625	-0.169677734375	-1.69097900390625E-06	2.86921476799762E-07	100342.90625	7.77603054302745E-05
2	674	133.562052662788	-0.179901123046875	-0.1798095703125	-1.68548583984375E-06	3.03066485685122E-07	106681.15625	7.75902881287038E-05
2	675	133.662760662534	-0.189971923828125	-0.189788818359375	-1.68426513671875E-06	3.1965467428563E-07	112683.4609375	7.74206127971411E-05
2	676	133.76346866228	-0.200042724609375	-0.199859619140625	-1.68731689453125E-06	3.37226509827815E-07	118448.1875	7.72508356021717E-05
2	677	133.864176662025	-0.189971923828125	-0.1898193359375	-1.50360107421875E-06	2.85412568246102E-07	126243.1484375	7.70901606301777E-05
