Potential - Start -0.2 V, Upper Vertex 1.5 V, Lower Vertex -0.2 V, Stop -0.19 V; Scan - # end cross 5, Rate 0.1 Vps, Step 0.01 V 
Scan	Index	Time (s)	Potential applied (V)	WE(1).Potential (V)	WE(1).Current (A)	WE(1).Power (W)	WE(1).Resistance (Ω)	WE(1).Charge (C)
1	1	66.1695768329379	-0.189971923828125	-0.1898193359375	-2.43225097656249E-07	4.616882520736E-08	780426.625	0
1	2	66.2702848326836	-0.179901123046875	-0.179718017578125	-2.08740234375E-07	3.75143791586652E-08	860964.9375	-2.27582610534682E-08
1	3	66.3709928324294	-0.169830322265625	-0.169708251953125	-1.80969238281251E-07	3.07119734088701E-08	937774.0625	-4.23816928218912E-08
1	4	66.4717008321751	-0.159759521484375	-0.159637451171875	-1.568603515625E-07	2.50407872215419E-08	1017704.25	-5.93927644843006E-08
1	5	66.5724088319208	-0.149688720703125	-0.14959716796875	-1.35192871093751E-07	2.02244692104614E-08	1106546.375	-7.40988141956223E-08
1	6	66.6731168316666	-0.139617919921875	-0.13946533203125	-1.1474609375E-07	1.60031028428875E-08	1215425.5	-8.66842384539268E-08
1	7	66.7738248314123	-0.129547119140625	-0.129486083984375	-9.49096679687497E-08	1.22894805443252E-08	1364308.75	-9.72412408373202E-08
1	8	66.874532831158	-0.119476318359375	-0.119384765625	-7.44628906250003E-08	8.88973428203599E-09	1603278.75	-1.0576982845123E-07
1	9	66.9752408309038	-0.109405517578125	-0.10931396484375	-5.21850585937497E-08	5.70455549464555E-09	2094736.875	-1.12147063191514E-07
1	10	67.0759488306495	-0.099334716796875	-0.099212646484375	-2.74658203125E-08	2.72495670472495E-09	3612222.25	-1.16157799823213E-07
1	11	67.1766568303952	-0.089263916015625	-0.08917236328125	3.35693359374972E-09	-2.99345687126973E-10	-26563638	-1.17371776298114E-07
1	12	67.277364830141	-0.079193115234375	-0.079071044921875	4.15039062499997E-08	-3.28175731034719E-09	-1905147.125	-1.15112854359722E-07
1	13	67.3780728298867	-0.069122314453125	-0.069122314453125	9.002685546875E-08	-6.22286444595943E-09	-767796.625	-1.0848975762201E-07
1	14	67.4787808296325	-0.059051513671875	-0.058929443359375	1.544189453125E-07	-9.09982222907502E-09	-381620.5625	-9.61809334398822E-08
1	15	67.5794888293782	-0.048980712890625	-0.0488525390625	2.38647460937499E-07	-1.16585345821818E-08	-204705.890625	-7.63884671073356E-08
1	16	67.6801968291239	-0.038909912109375	-0.0387451171875	3.5064697265625E-07	-1.35858568839353E-08	-110496.0859375	-4.67151366478902E-08
1	17	67.7809048288697	-0.028839111328125	-0.0287384033203125	4.9285888671875E-07	-1.41639775463887E-08	-58309.6015625	-4.24124380060675E-09
1	18	67.8816128286154	-0.018768310546875	-0.018603515625	6.6864013671875E-07	-1.24390560074517E-08	-27822.912109375	5.42448752582914E-08
1	19	67.9823208283611	-0.008697509765625	-0.00860595703125	8.73718261718751E-07	-7.51918172170463E-09	-9849.8076171875	1.31908791445312E-07
1	20	68.0830288281069	0.001373291015625	0.00146484375	1.09771728515625E-06	1.60798419024388E-09	1334.44543457031	2.31178447052116E-07
1	21	68.1837368278526	0.011444091796875	0.011572265625	1.32171630859375E-06	1.52952512877391E-08	8755.484375	3.53006612385798E-07
1	22	68.2844448275983	0.021514892578125	0.021600341796875	1.52313232421875E-06	3.29001750287716E-08	14181.52734375	4.96256120641192E-07
1	23	68.3851528273441	0.031585693359375	0.0316864013671875	1.68182373046875E-06	5.3290943213824E-08	18840.501953125	6.57638452139508E-07
1	24	68.4858608270898	0.041656494140625	0.041729736328125	1.787109375E-06	7.4575602582172E-08	23350.41015625	8.32313105547655E-07
1	25	68.5865688268356	0.051727294921875	0.05181884765625	1.83563232421875E-06	9.51203489307773E-08	28229.427734375	1.01473267477559E-06
1	26	68.6872768265813	0.061798095703125	0.061859130859375	1.83746337890625E-06	1.13663880085824E-07	33665.50390625	1.19968774470181E-06
1	27	68.787984826327	0.071868896484375	0.07196044921875	1.80450439453125E-06	1.29852949726228E-07	39878.234375	1.38307530050952E-06
1	28	68.8886928260728	0.081939697265625	0.082000732421875	1.7523193359375E-06	1.43691465837037E-07	46795.54296875	1.56217561197991E-06
1	29	68.9894008258185	0.092010498046875	0.092071533203125	1.68914794921875E-06	1.55522442923939E-07	54507.6796875	1.73546732185059E-06
1	30	69.0901088255642	0.102081298828125	0.102203369140625	1.62353515625E-06	1.65930757134447E-07	62951.12890625	1.90227410712396E-06
1	31	69.19081682531	0.112152099609375	0.112213134765625	1.5594482421875E-06	1.74990560708466E-07	71956.953125	2.06255003831757E-06
1	32	69.2915248250557	0.122222900390625	0.122283935546875	1.500244140625E-06	1.83455753699491E-07	81509.359375	2.21661775867688E-06
1	33	69.3922328248015	0.132293701171875	0.132354736328125	1.44561767578125E-06	1.91334336818727E-07	91555.84375	2.36495361605193E-06
1	34	69.4929408245472	0.142364501953125	0.142364501953125	1.39678955078125E-06	1.98853257415976E-07	101922.65625	2.50808034252259E-06
1	35	69.5936488242929	0.152435302734375	0.152496337890625	1.35284423828125E-06	2.06303781169481E-07	112722.765625	2.64653544945759E-06
1	36	69.6943568240387	0.162506103515625	0.162506103515625	1.3140869140625E-06	2.13547124872093E-07	123664.6640625	2.78082598015317E-06
1	37	69.7950648237844	0.172576904296875	0.172576904296875	1.27899169921875E-06	2.20724430732844E-07	134932	2.91139781438687E-06
1	38	69.8957728235301	0.182647705078125	0.182708740234375	1.2481689453125E-06	2.28051376893745E-07	146381.421875	3.03865044770646E-06
1	39	69.9964808232759	0.192718505859375	0.19268798828125	1.220703125E-06	2.35214827171148E-07	157850	3.16296814162342E-06
1	40	70.0971888230216	0.202789306640625	0.20281982421875	1.19598388671875E-06	2.4256922870336E-07	169584.09375	3.28465785059961E-06
1	41	70.1978968227673	0.212860107421875	0.212890625	1.173095703125E-06	2.497410775959E-07	181477.625	3.40395058628928E-06
1	42	70.2986048225131	0.222930908203125	0.22296142578125	1.1529541015625E-06	2.57064272091156E-07	193382.75	3.52107645085198E-06
1	43	70.3993128222588	0.233001708984375	0.233001708984375	1.134033203125E-06	2.64231658775316E-07	205462.875	3.63623553312209E-06
1	44	70.5000208220046	0.243072509765625	0.243011474609375	1.11724853515625E-06	2.71504205784368E-07	217508.875	3.7495965443668E-06
1	45	70.6007288217503	0.253143310546875	0.253143310546875	1.10260009765625E-06	2.79115852208633E-07	229587.59375	3.86137480745674E-06
1	46	70.701436821496	0.263214111328125	0.263214111328125	1.08856201171875E-06	2.86524851844661E-07	241799.84375	3.97170833821292E-06
1	47	70.8021448212418	0.273284912109375	0.27325439453125	1.07574462890625E-06	2.93951956109595E-07	254014.171875	4.08068990509491E-06
1	48	70.9028528209875	0.283355712890625	0.283355712890625	1.06475830078125E-06	3.0170534159879E-07	266122.09375	4.18847275795997E-06
1	49	71.0035608207332	0.293426513671875	0.293426513671875	1.05438232421875E-06	3.09383722196799E-07	278292.34375	4.29518013334018E-06
1	50	71.104268820479	0.303497314453125	0.303497314453125	1.044921875E-06	3.17130968596757E-07	290449.78125	4.40088842879049E-06
1	51	71.2049768202247	0.313568115234375	0.313629150390625	1.036376953125E-06	3.25038030268843E-07	302620.71875	4.50568995802314E-06
1	52	71.3056848199705	0.323638916015625	0.3236083984375	1.02874755859375E-06	3.32911355371834E-07	314565.40625	4.6096774894977E-06
1	53	71.4063928197162	0.333709716796875	0.333770751953125	1.0223388671875E-06	3.41226808586725E-07	326477.59375	4.71295788884163E-06
1	54	71.5071008194619	0.343780517578125	0.34375	1.015625E-06	3.49121080489567E-07	338461.53125	4.81557754028472E-06
1	55	71.6078088192077	0.353851318359375	0.35382080078125	1.01043701171875E-06	3.57513641802143E-07	350166.125	4.91759783471934E-06
1	56	71.7085168189534	0.363922119140625	0.363983154296875	1.005859375E-06	3.66115841643477E-07	361862.875	5.01912654726766E-06
1	57	71.8092248186991	0.373992919921875	0.37408447265625	1.0028076171875E-06	3.7513476058848E-07	373037.125	5.12027099830448E-06
1	58	71.9099328184449	0.384063720703125	0.384033203125	9.99755859375E-07	3.83939408266087E-07	384127	5.22110804013209E-06
1	59	72.0106408181906	0.394134521484375	0.39422607421875	9.97314453125001E-07	3.93167340462242E-07	395287.65625	5.32166814082302E-06
1	60	72.1113488179363	0.404205322265625	0.40423583984375	9.95788574218751E-07	4.02533430587937E-07	405945.4375	5.42202906217426E-06
1	61	72.2120568176821	0.414276123046875	0.41424560546875	9.93957519531249E-07	4.11742547612448E-07	416763.875	5.52222081751097E-06
1	62	72.3127648174278	0.424346923828125	0.42431640625	9.930419921875E-07	4.21364035219085E-07	427289.46875	5.62227432965301E-06
1	63	72.4134728171736	0.434417724609375	0.4344482421875	9.9212646484375E-07	4.3102755853397E-07	437896.0625	5.72223507333547E-06
1	64	72.5141808169193	0.444488525390625	0.444610595703125	9.918212890625E-07	4.40974247339909E-07	448276.9375	5.82213488087291E-06
1	65	72.614888816665	0.454559326171875	0.45458984375	9.918212890625E-07	4.50871880275372E-07	458338.46875	5.92201922700042E-06
1	66	72.7155968164108	0.464630126953125	0.464630126953125	9.92431640625E-07	4.61113643268618E-07	468173.4375	6.02193449594779E-06
1	67	72.8163048161565	0.474700927734375	0.474700927734375	9.9334716796875E-07	4.71542819013848E-07	477880.1875	6.12192616245011E-06
1	68	72.9170128159022	0.484771728515625	0.484771728515625	9.9517822265625E-07	4.82434245441254E-07	487120.53125	6.22205652689445E-06
1	69	73.017720815648	0.494842529296875	0.494873046875	9.97314453125001E-07	4.93544007440505E-07	496205.65625	6.32238652542583E-06
1	70	73.1184288153937	0.504913330078125	0.504852294921875	9.99755859375E-07	5.04729030126327E-07	504975.625	6.42294708086411E-06
1	71	73.2191368151394	0.514984130859375	0.51495361328125	1.0028076171875E-06	5.16399381922383E-07	513511.875	6.52378412269172E-06
1	72	73.3198448148852	0.525054931640625	0.5250244140625	1.005859375E-06	5.28100713381718E-07	521966.0625	6.62492857372854E-06
1	73	73.4205528146309	0.535125732421875	0.53515625	1.0107421875E-06	5.4090497769721E-07	529468.625	6.72647229293943E-06
1	74	73.5212608143767	0.545196533203125	0.545135498046875	1.0150146484375E-06	5.53320489871112E-07	537071.5625	6.82847712596413E-06
1	75	73.6219688141224	0.555267333984375	0.555267333984375	1.02081298828125E-06	5.66824098768848E-07	543946.1875	6.93098945703241E-06
1	76	73.7226768138681	0.565338134765625	0.5653076171875	1.02752685546875E-06	5.80868743327301E-07	550163.3125	7.03413161318167E-06
1	77	73.8233848136139	0.575408935546875	0.575408935546875	1.03607177734375E-06	5.96164966282231E-07	555375.5625	7.13804183760658E-06
1	78	73.9240928133596	0.585479736328125	0.58551025390625	1.04522705078125E-06	6.11991140431201E-07	560175.1875	7.24284382158658E-06
1	79	74.0248008131053	0.595550537109375	0.59552001953125	1.05804443359375E-06	6.30086617547931E-07	562849.75	7.34875175112393E-06
1	80	74.1255088128511	0.605621337890625	0.605621337890625	1.07330322265625E-06	6.50015351766342E-07	564259.3125	7.45607349017519E-06
1	81	74.2262168125968	0.615692138671875	0.615631103515625	1.09283447265625E-06	6.72782846322661E-07	563334.3125	7.56514737076941E-06
1	82	74.3269248123426	0.625762939453125	0.62579345703125	1.11785888671875E-06	6.99548820648488E-07	559814.375	7.67646452004556E-06
1	83	74.4276328120883	0.635833740234375	0.63580322265625	1.14837646484375E-06	7.30141437088605E-07	553654	7.79057882027701E-06
1	84	74.528340811834	0.645904541015625	0.6458740234375	1.18499755859375E-06	7.65359061460913E-07	545042.5625	7.90807371231494E-06
1	85	74.6290488115798	0.655975341796875	0.65594482421875	1.2274169921875E-06	8.05117792879173E-07	534410.75	8.02954764367314E-06
1	86	74.7297568113255	0.666046142578125	0.666015625	1.27197265625E-06	8.47153671656997E-07	523608.4375	8.15540261100978E-06
1	87	74.8304648110712	0.676116943359375	0.67608642578125	1.31378173828125E-06	8.88229976681032E-07	514610.9375	8.28560587251559E-06
1	88	74.931172810817	0.686187744140625	0.686126708984375	1.34796142578125E-06	9.24872324503667E-07	509010.65625	8.41963446873706E-06
1	89	75.0318808105627	0.696258544921875	0.696258544921875	1.37359619140625E-06	9.56378130467783E-07	506887.34375	8.5566762209055E-06
1	90	75.1325888103084	0.706329345703125	0.70623779296875	1.38824462890625E-06	9.80430854724545E-07	508727.1875	8.6957461462589E-06
1	91	75.2332968100542	0.716400146484375	0.716339111328125	1.39373779296875E-06	9.98388827611052E-07	513969.78125	8.83583015820477E-06
1	92	75.3340048097999	0.726470947265625	0.726409912109375	1.3922119140625E-06	1.01131649898889E-06	521766.78125	8.97611334949033E-06
1	93	75.4347128095457	0.736541748046875	0.736419677734375	1.38641357421875E-06	1.02098215393198E-06	531168.875	9.11602819542168E-06
1	94	75.5354208092914	0.746612548828125	0.74652099609375	1.3787841796875E-06	1.02929129752738E-06	541434.25	9.2552672867896E-06
1	95	75.6361288090371	0.756683349609375	0.7568359375	1.3702392578125E-06	1.03704633147572E-06	552338.5	9.39369147090474E-06
1	96	75.7368368087829	0.766754150390625	0.7666015625	1.3623046875E-06	1.04434479908377E-06	562724.0625	9.53128619585186E-06
1	97	75.8375448085286	0.776824951171875	0.7769775390625	1.35467529296875E-06	1.05255230664625E-06	573552.625	9.66809693636606E-06
1	98	75.9382528082743	0.786895751953125	0.78704833984375	1.348876953125E-06	1.0616313375067E-06	583484.1875	9.80423192231683E-06
1	99	76.0389608080201	0.796966552734375	0.79681396484375	1.3446044921875E-06	1.07139965166425E-06	592601	9.93985941022402E-06
1	100	76.1396688077658	0.807037353515625	0.8074951171875	1.341552734375E-06	1.08329720660549E-06	601910.875	1.00751176432823E-05
1	101	76.2403768075116	0.817108154296875	0.81695556640625	1.34033203125E-06	1.09499171685457E-06	609517.3125	1.02101612355909E-05
1	102	76.3410848072573	0.827178955078125	0.82733154296875	1.34063720703125E-06	1.10915141249279E-06	617118.1875	1.03451593531645E-05
1	103	76.441792807003	0.837249755859375	0.83740234375	1.3409423828125E-06	1.12290831566497E-06	624487.9375	1.04801874840632E-05
1	104	76.5425008067488	0.847320556640625	0.84747314453125	1.3421630859375E-06	1.137447156907E-06	631423.375	1.06152920125169E-05
1	105	76.6432088064945	0.857391357421875	0.8575439453125	1.343994140625E-06	1.15253396870685E-06	638056.3125	1.07505511550698E-05
1	106	76.7439168062402	0.867462158203125	0.86700439453125	1.34674072265625E-06	1.16763010282739E-06	643779.75	1.08860403997824E-05
1	107	76.844624805986	0.877532958984375	0.877685546875	1.3482666015625E-06	1.18335401566583E-06	650973.3125	1.10217442852445E-05
1	108	76.9453328057317	0.887603759765625	0.88775634765625	1.35101318359375E-06	1.19937044473772E-06	657104.1875	1.11576646304457E-05
1	109	77.0460408054774	0.897674560546875	0.897216796875	1.35345458984375E-06	1.21434209177096E-06	662908.6875	1.12938450911315E-05
1	110	77.1467488052232	0.907745361328125	0.90789794921875	1.35711669921875E-06	1.23212339531165E-06	668990.375	1.14303329610266E-05
1	111	77.2474568049689	0.917816162109375	0.91827392578125	1.36016845703125E-06	1.24900725495536E-06	675117.8125	1.15671591629507E-05
1	112	77.3481648047147	0.927886962890625	0.927734375	1.36474609375E-06	1.26612178519281E-06	679785.375	1.17043700811337E-05
1	113	77.4488728044604	0.937957763671875	0.93780517578125	1.370849609375E-06	1.28558974665793E-06	684105.125	1.18421176011907E-05
1	114	77.5495808042061	0.948028564453125	0.94818115234375	1.3775634765625E-06	1.30617968352453E-06	688303.0625	1.19805117719807E-05
1	115	77.6502888039519	0.958099365234375	0.958251953125	1.38580322265625E-06	1.32794866658514E-06	691477.625	1.2119658094889E-05
1	116	77.7509968036976	0.968170166015625	0.9686279296875	1.3958740234375E-06	1.3520824495572E-06	693922.1875	1.2259726645425E-05
1	117	77.8517048034433	0.978240966796875	0.9783935546875	1.40777587890625E-06	1.37735878524836E-06	694992.4375	1.24009011415183E-05
1	118	77.9524128031891	0.988311767578125	0.9881591796875	1.42059326171875E-06	1.40377221669041E-06	695596.1875	1.2543321645353E-05
1	119	78.0531208029348	0.998382568359375	0.99884033203125	1.43280029296875E-06	1.43113868489309E-06	697124.625	1.2687000889855E-05
1	120	78.1538288026806	1.00845336914063	1.00830078125	1.44439697265625E-06	1.45638659887481E-06	698077.3125	1.28318797578686E-05
1	121	78.2545368024263	1.01852416992188	1.0186767578125	1.45477294921875E-06	1.48194339999463E-06	700230.75	1.29778645714396E-05
1	122	78.355244802172	1.02859497070313	1.02874755859375	1.46270751953125E-06	1.50475671034656E-06	703317.375	1.31247707031434E-05
1	123	78.4559528019178	1.03866577148438	1.038818359375	1.468505859375E-06	1.52551081100682E-06	707398.1875	1.32723689603154E-05
1	124	78.5566608016635	1.04873657226563	1.04888916015625	1.4715576171875E-06	1.54350072989473E-06	712774.8125	1.34204128698912E-05
1	125	78.6573688014092	1.05880737304688	1.0589599609375	1.4739990234375E-06	1.5609058436894E-06	718426.5	1.3568734175351E-05
1	126	78.758076801155	1.06887817382813	1.06903076171875	1.4752197265625E-06	1.57705528636143E-06	724658.6875	1.37172391987406E-05
1	127	78.8587848009007	1.07894897460938	1.0791015625	1.4764404296875E-06	1.59322917170357E-06	730880.5625	1.38658670039149E-05
1	128	78.9594928006464	1.08901977539063	1.0888671875	1.4776611328125E-06	1.60897661771742E-06	736885.625	1.4014617590874E-05
1	129	79.0602008003922	1.09909057617188	1.0992431640625	1.4794921875E-06	1.62632170486177E-06	742986.8125	1.41635218824376E-05
1	130	79.1609088001379	1.10916137695313	1.10931396484375	1.48162841796875E-06	1.64359107657219E-06	748712.6875	1.43126262628357E-05
1	131	79.2616167998837	1.11923217773438	1.119384765625	1.484375E-06	1.66158667980199E-06	754111.875	1.44619762068032E-05
1	132	79.3623247996294	1.12930297851563	1.129150390625	1.48712158203125E-06	1.67918381066556E-06	759285.875	1.46116026371601E-05
1	133	79.4630327993751	1.13937377929688	1.13922119140625	1.49169921875E-06	1.69937538885279E-06	763707.0625	1.47615983223659E-05
1	134	79.5637407991209	1.14944458007813	1.14990234375	1.49658203125E-06	1.72092313732719E-06	768352.4375	1.49120705827954E-05
1	135	79.6644487988666	1.15951538085938	1.15936279296875	1.5020751953125E-06	1.74145009168569E-06	771840.75	1.50630648931838E-05
1	136	79.7651567986123	1.16958618164063	1.16943359375	1.50848388671875E-06	1.76407161234238E-06	775237.75	1.52146585605806E-05
1	137	79.8658647983581	1.17965698242188	1.1798095703125	1.5155029296875E-06	1.78800473804586E-06	778493.8125	1.53669279825408E-05
1	138	79.9665727981038	1.18972778320313	1.190185546875	1.5228271484375E-06	1.81244683972182E-06	781563.125	1.55199213622836E-05
1	139	80.0672807978495	1.19979858398438	1.19903564453125	1.5313720703125E-06	1.83616964477551E-06	782981.25	1.56737114593852E-05
1	140	80.1679887975953	1.20986938476563	1.20941162109375	1.5399169921875E-06	1.86239344657224E-06	785374.5625	1.58283637574641E-05
1	141	80.268696797341	1.21994018554688	1.219482421875	1.54998779296875E-06	1.8901827161244E-06	786769.125	1.59839528350858E-05
1	142	80.3694047970868	1.23001098632813	1.23046875	1.55975341796875E-06	1.91922777048603E-06	788886.75	1.614054053789E-05
1	143	80.4701127968325	1.24008178710938	1.240234375	1.57012939453125E-06	1.94732842828671E-06	789893.125	1.62981432367815E-05
1	144	80.5708207965782	1.25015258789063	1.2506103515625	1.5814208984375E-06	1.97774124899297E-06	790814.375	1.64568355103256E-05
1	145	80.671528796324	1.26022338867188	1.2603759765625	1.593017578125E-06	2.00780095838127E-06	791187.8125	1.66166810231516E-05
1	146	80.7722367960697	1.27029418945313	1.27044677734375	1.605224609375E-06	2.03935246645415E-06	791444.875	1.67777252499945E-05
1	147	80.8729447958154	1.28036499023438	1.28082275390625	1.617431640625E-06	2.07164316634589E-06	791886.8125	1.69399991136743E-05
1	148	80.9736527955612	1.29043579101563	1.28997802734375	1.630859375E-06	2.10377265830175E-06	790980.5625	1.71035644598305E-05
1	149	81.0743607953069	1.30050659179688	1.30035400390625	1.6436767578125E-06	2.13736166188028E-06	791125.1875	1.72684503922937E-05
1	150	81.1750687950527	1.31057739257813	1.31072998046875	1.65740966796875E-06	2.17241654354439E-06	790830.4375	1.74346732819686E-05
1	151	81.2757767947984	1.32064819335938	1.32080078125	1.6705322265625E-06	2.20644005821669E-06	790646.75	1.76022476807702E-05
1	152	81.3764847945441	1.33071899414063	1.33056640625	1.6839599609375E-06	2.24062046072504E-06	790141.375	1.77711590367835E-05
1	153	81.4771927942899	1.34078979492188	1.3409423828125	1.69708251953125E-06	2.2756896669307E-06	790145.6875	1.79414091689978E-05
1	154	81.5779007940356	1.35086059570313	1.35040283203125	1.71142578125E-06	2.31111425819108E-06	789051.375	1.81130399141693E-05
1	155	81.6786087937813	1.36093139648438	1.361083984375	1.72637939453125E-06	2.34974731938564E-06	788403.8125	1.82861476787366E-05
1	156	81.7793167935271	1.37100219726563	1.3714599609375	1.741943359375E-06	2.389005430814E-06	787316.0625	1.84607924893498E-05
1	157	81.8800247932728	1.38107299804688	1.380615234375	1.7596435546875E-06	2.42939063355152E-06	784599.375	1.86371107702143E-05
1	158	81.9807327930185	1.39114379882813	1.3909912109375	1.78009033203125E-06	2.4760900032561E-06	781416.0625	1.8815349903889E-05
1	159	82.0814407927643	1.40121459960938	1.40106201171875	1.80389404296875E-06	2.52736731454206E-06	776687.5625	1.89958191185724E-05
1	160	82.18214879251	1.41128540039063	1.41082763671875	1.8316650390625E-06	2.58416366705205E-06	770243.25	1.91788840311347E-05
1	161	82.2828567922558	1.42135620117188	1.42120361328125	1.86431884765625E-06	2.64957657236664E-06	762317.875	1.93649902939796E-05
1	162	82.3835647920015	1.43142700195313	1.4312744140625	1.90338134765625E-06	2.7242608666711E-06	751964.125	1.95547090697801E-05
1	163	82.4842727917472	1.44149780273438	1.4410400390625	1.94854736328125E-06	2.80793483398156E-06	739545.8125	1.97486697288696E-05
1	164	82.584980791493	1.45156860351563	1.451416015625	2.0025634765625E-06	2.90655270873685E-06	724779.0625	1.99476235138718E-05
1	165	82.6856887912387	1.46163940429688	1.46148681640625	2.0660400390625E-06	3.01949012282421E-06	707385.5625	2.01524944714038E-05
1	166	82.7863967909844	1.47171020507813	1.4715576171875	2.13958740234375E-06	3.14852627525397E-06	687776.375	2.03642648557434E-05
1	167	82.8871047907302	1.48178100585938	1.48162841796875	2.2222900390625E-06	3.29260819853516E-06	666712.4375	2.05839023692533E-05
1	168	82.9878127904759	1.49185180664063	1.49139404296875	2.31109619140625E-06	3.44675481755985E-06	645318.9375	2.08121764444513E-05
1	169	83.0885207902217	1.50192260742188	1.5020751953125	2.40264892578125E-06	3.60895910489489E-06	625174.6875	2.10495327337412E-05
1	170	83.1892287899674	1.49185180664063	1.49169921875	2.110595703125E-06	3.14837393489142E-06	706766.9375	2.1276791812852E-05
1	171	83.2899367897131	1.48178100585938	1.48193359375	1.90032958984375E-06	2.8161621230538E-06	779829.8125	2.14787578443065E-05
1	172	83.3906447894589	1.47171020507813	1.47125244140625	1.73614501953125E-06	2.55430768447695E-06	847424.875	2.16618700505933E-05
1	173	83.4913527892046	1.46163940429688	1.46148681640625	1.6021728515625E-06	2.3415543637384E-06	912190.5	2.18299683183432E-05
1	174	83.5920607889503	1.45156860351563	1.451416015625	1.490478515625E-06	2.16330431612732E-06	973792	2.19856956391595E-05
1	175	83.6927687886961	1.44149780273438	1.44134521484375	1.3958740234375E-06	2.01193620341655E-06	1032575.5	2.21310347114922E-05
1	176	83.7934767884418	1.43142700195313	1.4312744140625	1.31591796875E-06	1.88343972240546E-06	1087662.375	2.2267584427027E-05
1	177	83.8941847881875	1.42135620117188	1.4215087890625	1.24755859375E-06	1.77341541984788E-06	1139432.5	2.23966653720709E-05
1	178	83.9948927879333	1.41128540039063	1.4111328125	1.1883544921875E-06	1.67692587638157E-06	1187468	2.25193234655308E-05
1	179	84.095600787679	1.40121459960938	1.4007568359375	1.1370849609375E-06	1.59277954026038E-06	1231884.125	2.26364172704052E-05
1	180	84.1963087874248	1.39114379882813	1.39129638671875	1.0931396484375E-06	1.52088125560113E-06	1272752.625	2.27487180382013E-05
1	181	84.2970167871705	1.38107299804688	1.38153076171875	1.0552978515625E-06	1.45792648709175E-06	1309138.25	2.28569006139878E-05
1	182	84.3977247869162	1.37100219726563	1.37115478515625	1.0211181640625E-06	1.40011104576843E-06	1342797.375	2.2961457943893E-05
1	183	84.498432786662	1.36093139648438	1.3604736328125	9.918212890625E-07	1.34934668949427E-06	1371692.375	2.30628174904268E-05
1	184	84.5991407864077	1.35086059570313	1.3507080078125	9.65576171875E-07	1.3042115369899E-06	1398862.125	2.3161379431258E-05
1	185	84.6998487861534	1.34078979492188	1.3409423828125	9.42382812500001E-07	1.26368104247376E-06	1422927.5	2.3257452994585E-05
1	186	84.8005567858992	1.33071899414063	1.33026123046875	9.2132568359375E-07	1.22560379622882E-06	1443855.625	2.33512982958928E-05
1	187	84.9012647856449	1.32064819335938	1.32049560546875	9.02404785156249E-07	1.19162143619178E-06	1463307.5	2.34431299759308E-05
1	188	85.0019727853906	1.31057739257813	1.31072998046875	8.8531494140625E-07	1.16040882858215E-06	1480524	2.35331481235335E-05
1	189	85.1026807851364	1.30050659179688	1.300048828125	8.6883544921875E-07	1.12952841391234E-06	1496312	2.36214782489697E-05
1	190	85.2033887848821	1.29043579101563	1.29119873046875	8.5418701171875E-07	1.10292512545129E-06	1511611.375	2.37082385865506E-05
1	191	85.3040967846279	1.28036499023438	1.280517578125	8.39843749999999E-07	1.07543462490867E-06	1524709.375	2.37935400946299E-05
1	192	85.4048047843736	1.27029418945313	1.27044677734375	8.2733154296875E-07	1.05108063053194E-06	1535595.75	2.38774882745929E-05
1	193	85.5055127841193	1.26022338867188	1.26007080078125	8.148193359375E-07	1.02673004676035E-06	1546442	2.39601777138887E-05
1	194	85.6062207838651	1.25015258789063	1.25	8.026123046875E-07	1.00326542451512E-06	1557414.5	2.40416211454431E-05
1	195	85.7069287836108	1.24008178710938	1.240234375	7.91320800781251E-07	9.81423227131017E-07	1567296.625	2.41218822338851E-05
1	196	85.8076367833565	1.23001098632813	1.2298583984375	7.80334472656249E-07	9.59700855673873E-07	1576065.75	2.42010210058652E-05
1	197	85.9083447831023	1.21994018554688	1.219482421875	7.69653320312499E-07	9.3857869387648E-07	1584456.875	2.42790702031925E-05
1	198	86.009052782848	1.20986938476563	1.2103271484375	7.5958251953125E-07	9.19343335681333E-07	1593411	2.43560734816128E-05
1	199	86.1097607825938	1.19979858398438	1.20025634765625	7.4981689453125E-07	8.99972462775622E-07	1600732.625	2.44320781348506E-05
1	200	86.2104687823395	1.18972778320313	1.18988037109375	7.403564453125E-07	8.80935601799138E-07	1607172.375	2.45071132667363E-05
1	201	86.3111767820852	1.17965698242188	1.1798095703125	7.30285644531251E-07	8.61597982293461E-07	1615545.375	2.4581166144344E-05
1	202	86.411884781831	1.16958618164063	1.16973876953125	7.2021484375E-07	8.42463180106279E-07	1624152.625	2.46542040258646E-05
1	203	86.5125927815767	1.15951538085938	1.15936279296875	7.1136474609375E-07	8.24729795567691E-07	1629772.625	2.47262905759271E-05
1	204	86.6133007813224	1.14944458007813	1.14898681640625	7.0159912109375E-07	8.06128127806005E-07	1637668.625	2.47974385274574E-05
1	205	86.7140087810682	1.13937377929688	1.13922119140625	6.9244384765625E-07	7.8884670529078E-07	1645218.125	2.48676351475297E-05
1	206	86.8147167808139	1.12930297851563	1.129150390625	6.82983398437501E-07	7.71190968862356E-07	1653261.875	2.49368931690697E-05
1	207	86.9154247805596	1.11923217773438	1.11907958984375	6.73828125000001E-07	7.54067229991051E-07	1660779.125	2.50052144110668E-05
1	208	87.0161327803054	1.10916137695313	1.1090087890625	6.640625E-07	7.36451170268992E-07	1670036.75	2.50725825026166E-05
1	209	87.1168407800511	1.09909057617188	1.09893798828125	6.53991699218751E-07	7.18696298918076E-07	1680354.75	2.51389501499943E-05
1	210	87.2175487797969	1.08901977539063	1.0888671875	6.4422607421875E-07	7.01476608355733E-07	1690194.25	2.5204320991179E-05
1	211	87.3182567795426	1.07894897460938	1.07879638671875	6.3323974609375E-07	6.83136704537901E-07	1703614.5	2.5268647732446E-05
1	212	87.4189647792883	1.06887817382813	1.06903076171875	6.21337890625E-07	6.64229276026163E-07	1720530.625	2.53318194154417E-05
1	213	87.5196727790341	1.05880737304688	1.05865478515625	6.0882568359375E-07	6.4453615777893E-07	1738847.25	2.53937632805901E-05
1	214	87.6203807787798	1.04873657226563	1.04827880859375	5.94482421875001E-07	6.23183325387799E-07	1763347.125	2.54543556366116E-05
1	215	87.7210887785255	1.03866577148438	1.0382080078125	5.79223632812501E-07	6.01354599893966E-07	1792413	2.55134564213222E-05
1	216	87.8217967782713	1.02859497070313	1.02874755859375	5.62438964843751E-07	5.78607739498693E-07	1829083	2.55709437624319E-05
1	217	87.922504778017	1.01852416992188	1.01776123046875	5.4473876953125E-07	5.54413986719737E-07	1868347.25	2.56266939686611E-05
1	218	88.0232127777628	1.00845336914063	1.00860595703125	5.2642822265625E-07	5.30958629951783E-07	1915942.125	2.56806306424551E-05
1	219	88.1239207775085	0.998382568359375	0.99853515625	5.096435546875E-07	5.08897016970877E-07	1959281.5	2.57328010775382E-05
1	220	88.2246287772542	0.988311767578125	0.98846435546875	4.94384765625E-07	4.88681735077989E-07	1999382.625	2.57833580690203E-05
1	221	88.325336777	0.978240966796875	0.9783935546875	4.803466796875E-07	4.69968085781147E-07	2036848.875	2.58324398600962E-05
1	222	88.4260447767457	0.968170166015625	0.9686279296875	4.69055175781249E-07	4.54339925681779E-07	2065061.875	2.58802465396002E-05
1	223	88.5267527764914	0.958099365234375	0.958251953125	4.608154296875E-07	4.41577270748894E-07	2079470.25	2.59270691458369E-05
1	224	88.6274607762372	0.948028564453125	0.94879150390625	4.534912109375E-07	4.3026858520534E-07	2092193.875	2.59731077676406E-05
1	225	88.7281687759829	0.937957763671875	0.93780517578125	4.473876953125E-07	4.19562496745129E-07	2096180.125	2.60184715443756E-05
1	226	88.8288767757286	0.927886962890625	0.92803955078125	4.4097900390625E-07	4.09245956234372E-07	2104498.25	2.60632041317876E-05
1	227	88.9295847754744	0.917816162109375	0.91827392578125	4.35791015625001E-07	4.00175508730172E-07	2107143	2.61073528236011E-05
1	228	89.0302927752201	0.907745361328125	0.908203125	4.302978515625E-07	3.90797822547029E-07	2110638.5	2.61509630945511E-05
1	229	89.1310007749659	0.897674560546875	0.8978271484375	4.2449951171875E-07	3.81127165383077E-07	2115025.25	2.61940058408072E-05
1	230	89.2317087747116	0.887603759765625	0.88775634765625	4.180908203125E-07	3.71162769852162E-07	2123357.75	2.62364337686449E-05
1	231	89.3324167744573	0.877532958984375	0.87799072265625	4.1168212890625E-07	3.61453089681163E-07	2132691	2.62782159552444E-05
1	232	89.4331247742031	0.867462158203125	0.8673095703125	4.0435791015625E-07	3.50703487583814E-07	2144905.75	2.63193069258705E-05
1	233	89.5338327739488	0.857391357421875	0.85784912109375	3.9642333984375E-07	3.40071409254961E-07	2163972.25	2.63596302829683E-05
1	234	89.6345407736945	0.847320556640625	0.8477783203125	3.89709472656249E-07	3.3038725177903E-07	2175411.25	2.63992151303682E-05
1	235	89.7352487734403	0.837249755859375	0.8367919921875	3.82080078124999E-07	3.1972152214621E-07	2190096	2.6438077838975E-05
1	236	89.835956773186	0.827178955078125	0.82733154296875	3.74450683593749E-07	3.09794870645419E-07	2209454	2.64761711150641E-05
1	237	89.9366647729317	0.817108154296875	0.8172607421875	3.680419921875E-07	3.00786268780939E-07	2220564	2.65135586232645E-05
1	238	90.0373727726775	0.807037353515625	0.806884765625	3.61022949218751E-07	2.91303905441964E-07	2234996	2.65502712863963E-05
1	239	90.1380807724232	0.796966552734375	0.797119140625	3.54919433593751E-07	2.82913077853664E-07	2245915.75	2.65863218373852E-05
1	240	90.238788772169	0.786895751953125	0.78704833984375	3.4820556640625E-07	2.74054599458395E-07	2260298	2.66217266471358E-05
1	241	90.3394967719147	0.776824951171875	0.77728271484375	3.41186523437501E-07	2.65198366378172E-07	2278175.5	2.66564402409131E-05
1	242	90.4402047716604	0.766754150390625	0.7666015625	3.326416015625E-07	2.55003584470614E-07	2304587.25	2.66903698502574E-05
1	243	90.5409127714062	0.756683349609375	0.7568359375	3.22570800781249E-07	2.44133161686477E-07	2346263	2.67233626800589E-05
1	244	90.6416207711519	0.746612548828125	0.746551513671875	3.0975341796875E-07	2.3124687231757E-07	2410148	2.67552022705786E-05
1	245	90.7423287708976	0.736541748046875	0.7364501953125	2.9266357421875E-07	2.15532139691277E-07	2516371.25	2.67855357378721E-05
1	246	90.8430367706434	0.726470947265625	0.72637939453125	2.70996093750001E-07	1.96845974187454E-07	2680405.5	2.68139192485251E-05
1	247	90.9437447703891	0.716400146484375	0.71636962890625	2.43225097656249E-07	1.74239062289416E-07	2945295	2.68398125626845E-05
1	248	91.0444527701349	0.706329345703125	0.706268310546875	2.0751953125E-07	1.46564460123955E-07	3403382.5	2.6862509912462E-05
1	249	91.1451607698806	0.696258544921875	0.69622802734375	1.6510009765625E-07	1.14947312113145E-07	4217005.5	2.68812727881595E-05
1	250	91.2458687696263	0.686187744140625	0.68609619140625	1.1932373046875E-07	8.18675545133374E-08	5749872	2.68955936917337E-05
1	251	91.3465767693721	0.676116943359375	0.676116943359375	7.171630859375E-08	4.84886122364969E-08	9427660	2.6905214326689E-05
1	252	91.4472847691178	0.666046142578125	0.665985107421875	2.77709960937497E-08	1.84950703641107E-08	23981318	2.69102238235064E-05
1	253	91.5479927688635	0.655975341796875	0.6558837890625	-7.93457031249972E-09	-5.20415621707571E-09	-82661536	2.69112224486889E-05
1	254	91.6487007686093	0.645904541015625	0.64581298828125	-3.17382812500003E-08	-2.04969943240485E-08	-20348076	2.69092233793344E-05
1	255	91.749408768355	0.635833740234375	0.635772705078125	-4.24194335937503E-08	-2.69691184939802E-08	-14987770	2.69054908130784E-05
1	256	91.8501167681007	0.625762939453125	0.625732421875	-4.05883789062506E-08	-2.53974654640388E-08	-15416541	2.6901310775429E-05
1	257	91.9508247678465	0.615692138671875	0.615631103515625	-2.86865234375003E-08	-1.76603158763555E-08	-21460638	2.6897821953753E-05
1	258	92.0515327675922	0.605621337890625	0.605560302734375	-1.34277343750003E-08	-8.1313027422425E-09	-45097728	2.68957010121085E-05
1	259	92.152240767338	0.595550537109375	0.595550537109375	2.44140625000056E-09	1.45398071360603E-09	243937504	2.68951480393298E-05
1	260	92.2529487670837	0.585479736328125	0.58551025390625	1.58691406249994E-08	9.29154442275149E-09	36896152	2.68960702669574E-05
1	261	92.3536567668294	0.575408935546875	0.575408935546875	2.83813476562506E-08	1.63308815359642E-08	20274194	2.68982985289767E-05
1	262	92.4543647665752	0.565338134765625	0.5653076171875	3.84521484374997E-08	2.17372910782387E-08	14701588	2.69016636593733E-05
1	263	92.5550727663209	0.555267333984375	0.555267333984375	4.730224609375E-08	2.62653916394129E-08	11738710	2.69059819402173E-05
1	264	92.6557807660666	0.545196533203125	0.545196533203125	5.52368164062497E-08	3.01149185588656E-08	9870166	2.69111442321446E-05
1	265	92.7564887658124	0.535125732421875	0.53509521484375	6.22558593750003E-08	3.33128120644233E-08	8595098	2.69170614046743E-05
1	266	92.8571967655581	0.525054931640625	0.52508544921875	6.80541992187506E-08	3.57342706536201E-08	7715695	2.69236224994529E-05
1	267	92.9579047653039	0.514984130859375	0.514984130859375	7.26318359375006E-08	3.74042414819087E-08	7090336	2.69307074631797E-05
1	268	93.0586127650496	0.504913330078125	0.504913330078125	7.69042968749994E-08	3.88300023246302E-08	6565476.5	2.6938236260321E-05
1	269	93.1593207647953	0.494842529296875	0.494873046875	8.05664062500003E-08	3.98701409665136E-08	6142424.5	2.6946165235131E-05
1	270	93.2600287645411	0.484771728515625	0.484771728515625	8.33129882812506E-08	4.03877784549422E-08	5818681.5	2.69544179900549E-05
1	271	93.3607367642868	0.474700927734375	0.47467041015625	8.60595703124994E-08	4.08499296611353E-08	5515603	2.69629472313682E-05
1	272	93.4614447640325	0.464630126953125	0.464599609375	8.81958007812503E-08	4.09757312525016E-08	5267820.5	2.69717202172615E-05
1	273	93.5621527637783	0.454559326171875	0.454498291015625	9.03320312499997E-08	4.10557525754029E-08	5031419	2.69807114818832E-05
1	274	93.662860763524	0.444488525390625	0.444427490234375	9.09423828125006E-08	4.04172944001857E-08	4886913	2.69898391707102E-05
1	275	93.7635687632697	0.434417724609375	0.43438720703125	9.21630859374994E-08	4.00344646322992E-08	4713245	2.69990578090074E-05
1	276	93.8642767630155	0.424346923828125	0.424346923828125	9.27734375000003E-08	3.93681212074171E-08	4574013.5	2.70083710347535E-05
1	277	93.9649847627612	0.414276123046875	0.414306640625	9.24682617187506E-08	3.83102154444259E-08	4480528	2.70176988124149E-05
1	278	94.065692762507	0.404205322265625	0.404205322265625	9.21630859374994E-08	3.72528106140635E-08	4385761.5	2.70269956672564E-05
1	279	94.1664007622527	0.394134521484375	0.3941650390625	9.21630859374994E-08	3.63274672565694E-08	4276821.5	2.70362761511933E-05
1	280	94.2671087619984	0.384063720703125	0.384033203125	9.12475585937503E-08	3.50420918948657E-08	4208695.5	2.70455129793845E-05
1	281	94.3678167617442	0.373992919921875	0.373992919921875	9.06372070312494E-08	3.38976740010821E-08	4126262.5	2.70546715910314E-05
1	282	94.4685247614899	0.363922119140625	0.36395263671875	9.09423828125006E-08	3.30987184327114E-08	4002013.5	2.70638138317736E-05
1	283	94.5692327612356	0.353851318359375	0.35382080078125	9.03320312499997E-08	3.19613526755802E-08	3916892	2.70729415206006E-05
1	284	94.6699407609814	0.343780517578125	0.343719482421875	9.002685546875E-08	3.09439833756642E-08	3817966.25	2.70820237346925E-05
1	285	94.7706487607271	0.333709716796875	0.333740234375	9.002685546875E-08	3.00455837987101E-08	3707118.75	2.70910913968692E-05
1	286	94.8713567604728	0.323638916015625	0.323699951171875	8.97216796875003E-08	2.90429031934991E-08	3607823	2.71001408691518E-05
1	287	94.9720647602186	0.313568115234375	0.313629150390625	8.94165039062506E-08	2.80436225352787E-08	3507508.5	2.7109161237604E-05
1	288	95.0727727599643	0.303497314453125	0.303466796875	8.85009765625E-08	2.68571067607581E-08	3428965.5	2.71181215794059E-05
1	289	95.1734807597101	0.293426513671875	0.293426513671875	8.697509765625E-08	2.55207979193983E-08	3373684.5	2.71269564109389E-05
1	290	95.2741887594558	0.283355712890625	0.28338623046875	8.63647460937506E-08	2.44745788080536E-08	3281272.25	2.71356857410865E-05
1	291	95.3748967592015	0.273284912109375	0.273223876953125	8.48388671875006E-08	2.31800036942786E-08	3220503.5	2.71443059318699E-05
1	292	95.4756047589473	0.263214111328125	0.26324462890625	8.30078124999995E-08	2.18513598326808E-08	3171323.5	2.71527569566388E-05
1	293	95.576312758693	0.253143310546875	0.253143310546875	8.11767578124997E-08	2.05493524418898E-08	3118421	2.71610242634779E-05
1	294	95.6770207584387	0.243072509765625	0.243133544921875	7.87353515625006E-08	1.91432043550321E-08	3087984.75	2.71690769295674E-05
1	295	95.7777287581845	0.233001708984375	0.233062744140625	7.59887695312503E-08	1.77101497911281E-08	3067068.5	2.71768676611828E-05
1	296	95.8784367579302	0.222930908203125	0.222991943359375	7.32421875E-08	1.63324163082734E-08	3044583.5	2.71843819064088E-05
1	297	95.979144757676	0.212860107421875	0.212860107421875	6.95800781250006E-08	1.48108219022447E-08	3059210.75	2.71915741905104E-05
1	298	96.0798527574217	0.202789306640625	0.20281982421875	6.561279296875E-08	1.33075737096533E-08	3091163	2.71983808488585E-05
1	299	96.1805607571674	0.192718505859375	0.1927490234375	6.07299804687503E-08	1.17056444537411E-08	3173869.25	2.72047436737921E-05
1	300	96.2812687569132	0.182647705078125	0.182708740234375	5.58471679687506E-08	1.02037658322729E-08	3271584.75	2.72106135525974E-05
1	301	96.3819767566589	0.172576904296875	0.172607421875	4.91333007812497E-08	8.48077164050665E-09	3513043.75	2.72158995358041E-05
1	302	96.4826847564046	0.162506103515625	0.162567138671875	4.18090820312494E-08	6.79678269221995E-09	3888321.25	2.72204797511222E-05
1	303	96.5833927561504	0.152435302734375	0.1524658203125	3.26538085937494E-08	4.97858954062735E-09	4669159	2.72242286882829E-05
1	304	96.6841007558961	0.142364501953125	0.14239501953125	2.01416015624997E-08	2.86806356442071E-09	7069697.5	2.72268862318015E-05
1	305	96.7848087556418	0.132293701171875	0.13238525390625	4.57763671875E-09	6.0601157425566E-10	28920002	2.72281322395429E-05
1	306	96.8855167553876	0.122222900390625	0.122344970703125	-1.52587890625E-08	-1.86683601910431E-09	-8018000.5	2.72275938186795E-05
1	307	96.9862247551333	0.112152099609375	0.1121826171875	-4.21142578125006E-08	-4.72448746791088E-09	-2663768.25	2.72247052635066E-05
1	308	97.0869327548791	0.102081298828125	0.10211181640625	-7.87353515625006E-08	-8.03980970687235E-09	-1296899.25	2.72186189249624E-05
1	309	97.1876407546248	0.092010498046875	0.092041015625	-1.28784179687499E-07	-1.18534266846382E-08	-714691.9375	2.72081706498284E-05
1	310	97.2883487543705	0.081939697265625	0.08203125	-1.96228027343751E-07	-1.60968305351616E-08	-418040.4375	2.71918052021647E-05
1	311	97.3890567541163	0.071868896484375	0.071868896484375	-2.87780761718751E-07	-2.06824850579324E-08	-249734.90625	2.71674325631466E-05
1	312	97.489764753862	0.061798095703125	0.061920166015625	-4.08325195312501E-07	-2.52835636871396E-08	-151644.25	2.71323806373402E-05
1	313	97.5904727536077	0.051727294921875	0.051727294921875	-5.62744140625E-07	-2.91092305815255E-08	-91919.7421875	2.70834843831835E-05
1	314	97.6911807533535	0.041656494140625	0.041790771484375	-7.51647949218751E-07	-3.14119468214358E-08	-55598.8671875	2.70172986347461E-05
1	315	97.7918887530992	0.031585693359375	0.0317047119140625	-9.68322753906251E-07	-3.07003951149909E-08	-32741.884765625	2.69306910922751E-05
1	316	97.892596752845	0.021514892578125	0.021624755859375	-1.199951171875E-06	-2.59486494513794E-08	-18021.36328125	2.68215098913061E-05
1	317	97.9933047525907	0.011444091796875	0.0115875244140625	-1.42425537109375E-06	-1.65035931587454E-08	-8135.84814453125	2.66893712250749E-05
1	318	98.0940127523364	0.001373291015625	0.0014617919921875	-1.61834716796875E-06	-2.36568697964401E-09	-903.262329101563	2.65361632045824E-05
1	319	98.1947207520822	-0.008697509765625	-0.00855407714843751	-1.763916015625E-06	1.50886734218147E-08	4849.48095703125	2.63658530457178E-05
1	320	98.2954287518279	-0.018768310546875	-0.0186676025390625	-1.8511962890625E-06	3.4557395167667E-08	10084.076171875	2.6183817681158E-05
1	321	98.3961367515736	-0.028839111328125	-0.0286956787109375	-1.883544921875E-06	5.40495967982224E-08	15234.931640625	2.5995759642683E-05
1	322	98.4968447513194	-0.038909912109375	-0.0387969970703125	-1.87042236328125E-06	7.25667703704858E-08	20742.373046875	2.58067320828559E-05
1	323	98.5975527510651	-0.048980712890625	-0.048846435546875	-1.827392578125E-06	8.92616114356315E-08	26730.126953125	2.56205312325619E-05
1	324	98.6982607508108	-0.059051513671875	-0.0589599609375	-1.76727294921875E-06	1.04198342398831E-07	33362.11328125	2.54395254160045E-05
1	325	98.7989687505566	-0.069122314453125	-0.069122314453125	-1.69952392578125E-06	1.17475025263047E-07	40671.578125	2.52649588219356E-05
1	326	98.8996767503023	-0.079193115234375	-0.079132080078125	-1.6326904296875E-06	1.29198184595225E-07	48467.2890625	2.50971679633949E-05
1	327	99.0003847500481	-0.089263916015625	-0.089202880859375	-1.56951904296875E-06	1.4000561066041E-07	56834.53515625	2.4935925466707E-05
1	328	99.1010927497938	-0.099334716796875	-0.099273681640625	-1.51214599609375E-06	1.50116306940618E-07	65650.859375	2.47807511186693E-05
1	329	99.2018007495395	-0.109405517578125	-0.10931396484375	-1.46148681640625E-06	1.59760915607876E-07	74796.40625	2.46310155489482E-05
1	330	99.3025087492853	-0.119476318359375	-0.11932373046875	-1.41632080078125E-06	1.69000671235153E-07	84249.0859375	2.44861075771041E-05
1	331	99.403216749031	-0.129547119140625	-0.12945556640625	-1.37786865234375E-06	1.78372772552393E-07	93953.484375	2.43454087467398E-05
1	332	99.5039247487767	-0.139617919921875	-0.139495849609375	-1.34521484375E-06	1.87651892247231E-07	103697.8203125	2.42082896875218E-05
1	333	99.6046327485225	-0.149688720703125	-0.1495361328125	-1.317138671875E-06	1.96959817344577E-07	113531.046875	2.40742301684804E-05
1	334	99.7053407482682	-0.159759521484375	-0.159637451171875	-1.29364013671875E-06	2.0651341969824E-07	123401.7421875	2.3942766347318E-05
1	335	99.8060487480139	-0.169830322265625	-0.169708251953125	-1.2738037109375E-06	2.16174996126028E-07	133229.515625	2.38134853134397E-05
1	336	99.9067567477597	-0.179901123046875	-0.179718017578125	-1.25762939453125E-06	2.26018656235283E-07	142902.203125	2.36860178119969E-05
1	337	100.007464747505	-0.189971923828125	-0.1898193359375	-1.24481201171875E-06	2.36289380950438E-07	152488.359375	2.3560010959045E-05
1	338	100.108172747251	-0.200042724609375	-0.19989013671875	-1.23504638671875E-06	2.46873582909757E-07	161848.28125	2.3435139155481E-05
1	339	100.208880746997	-0.189971923828125	-0.189727783203125	-1.08306884765625E-06	2.05488248639085E-07	175176.109375	2.33184127864661E-05
2	340	100.309588746743	-0.179901123046875	-0.179718017578125	-9.77478027343751E-07	1.75670393787186E-07	183858.890625	2.32146558118984E-05
2	341	100.410296746488	-0.169830322265625	-0.169647216796875	-8.93554687500001E-07	1.51589063079882E-07	189856.5625	2.31204430747312E-05
2	342	100.511004746234	-0.159759521484375	-0.15960693359375	-8.221435546875E-07	1.31219806576155E-07	194135.125	2.30340501730097E-05
2	343	100.61171274598	-0.149688720703125	-0.149566650390625	-7.59277343750001E-07	1.13562563797132E-07	196985.53125	2.29544184549013E-05
2	344	100.712420745726	-0.139617919921875	-0.13946533203125	-7.02514648437499E-07	9.79764323005838E-08	198523.03125	2.28808112296974E-05
2	345	100.813128745471	-0.129547119140625	-0.12945556640625	-6.50634765624999E-07	8.42282901203362E-08	198968.109375	2.28126755246194E-05
2	346	100.913836745217	-0.119476318359375	-0.119384765625	-6.00585937500001E-07	7.17008106221328E-08	198780.5	2.27496711886488E-05
2	347	101.014544744963	-0.109405517578125	-0.109344482421875	-5.523681640625E-07	6.03984062763629E-08	197955.8125	2.26916163228452E-05
2	348	101.115252744709	-0.099334716796875	-0.099273681640625	-5.02929687500001E-07	4.99276779919455E-08	197390.796875	2.26384781853994E-05
2	349	101.215960744454	-0.089263916015625	-0.089141845703125	-4.50744628906249E-07	4.01802076055446E-08	197765.75	2.25904568651458E-05
2	350	101.3166687442	-0.079193115234375	-0.07916259765625	-3.93066406250001E-07	3.11161549859662E-08	201397.53125	2.25479670916684E-05
2	351	101.417376743946	-0.069122314453125	-0.069061279296875	-3.2470703125E-07	2.24246825553109E-08	212687.96875	2.25118237722199E-05
2	352	101.518084743691	-0.059051513671875	-0.058990478515625	-2.43225097656249E-07	1.4347964594208E-08	242534.515625	2.24832256208174E-05
2	353	101.618792743437	-0.048980712890625	-0.0488494873046875	-1.416015625E-07	6.91716328660164E-09	344978.4375	2.24638479267014E-05
2	354	101.719500743183	-0.038909912109375	-0.03878173828125	-1.34277343750003E-08	5.20750886856547E-10	2888182	2.24560426431708E-05
2	355	101.820208742929	-0.028839111328125	-0.0286773681640625	1.4617919921875E-07	-4.19203427526327E-09	-196179.5625	2.24627274292288E-05
2	356	101.920916742674	-0.018768310546875	-0.01865234375	3.38134765625001E-07	-6.30700558446051E-09	-55162.45703125	2.24871146201622E-05
2	357	102.02162474242	-0.008697509765625	-0.00862731933593749	5.5999755859375E-07	-4.83127804429273E-09	-15405.9951171875	2.25323383347131E-05
2	358	102.122332742166	0.001373291015625	0.00145568847656249	8.0108642578125E-07	1.16613230183304E-09	1817.14294433594	2.26008742174599E-05
2	359	102.223040741912	0.011444091796875	0.011529541015625	1.04217529296875E-06	1.20158025751493E-08	11062.95703125	2.26936899707653E-05
2	360	102.323748741657	0.021514892578125	0.0216064453125	1.26007080078125E-06	2.72256510669422E-08	17147.009765625	2.2809617803432E-05
2	361	102.424456741403	0.031585693359375	0.0316375732421875	1.43463134765625E-06	4.53882478268497E-08	22052.755859375	2.2945307136979E-05
2	362	102.525164741149	0.041656494140625	0.0417724609375	1.553955078125E-06	6.4912526909211E-08	26881.384765625	2.30957939493237E-05
2	363	102.625872740895	0.051727294921875	0.0517578125	1.6143798828125E-06	8.3556770391624E-08	32060.4921875	2.32553320529405E-05
2	364	102.72658074064	0.061798095703125	0.06182861328125	1.6259765625E-06	1.00531877933463E-07	38025.52734375	2.3418497221428E-05
2	365	102.827288740386	0.071868896484375	0.071990966796875	1.60064697265625E-06	1.1523211895792E-07	44976.16796875	2.35809711739421E-05
2	366	102.927996740132	0.081939697265625	0.082000732421875	1.55364990234375E-06	1.27400426208624E-07	52779.4140625	2.37398016906809E-05
2	367	103.028704739878	0.092010498046875	0.092071533203125	1.495361328125E-06	1.37680203238233E-07	61571.4296875	2.38933316722978E-05
2	368	103.129412739623	0.102081298828125	0.10205078125	1.434326171875E-06	1.46374105725045E-07	71148.9375	2.40408535319148E-05
2	369	103.230120739369	0.112152099609375	0.112213134765625	1.37420654296875E-06	1.54204016666881E-07	81656.6796875	2.41822745010722E-05
2	370	103.330828739115	0.122222900390625	0.122344970703125	1.318359375E-06	1.61294636313869E-07	92800.9296875	2.43178565142443E-05
2	371	103.43153673886	0.132293701171875	0.132293701171875	1.2677001953125E-06	1.6770874822214E-07	104357.2421875	2.44480743276654E-05
2	372	103.532244738606	0.142364501953125	0.142425537109375	1.2225341796875E-06	1.74120074802886E-07	116500.25	2.45734681811882E-05
2	373	103.632952738352	0.152435302734375	0.1524658203125	1.18194580078125E-06	1.80206328082022E-07	128995.609375	2.46945419348776E-05
2	374	103.733660738098	0.162506103515625	0.162506103515625	1.14654541015625E-06	1.86320619377511E-07	141735.421875	2.48117921728408E-05
2	375	103.834368737843	0.172576904296875	0.17266845703125	1.1151123046875E-06	1.9254470373653E-07	154844.015625	2.4925675461418E-05
2	376	103.935076737589	0.182647705078125	0.18267822265625	1.08734130859375E-06	1.98633571812934E-07	168004.5	2.50365774263628E-05
2	377	104.035784737335	0.192718505859375	0.19268798828125	1.06201171875E-06	2.04636904754807E-07	181436.78125	2.51448054768844E-05
2	378	104.136492737081	0.202789306640625	0.202789306640625	1.04095458984375E-06	2.11094445035087E-07	194810.921875	2.52506979450118E-05
2	379	104.237200736826	0.212860107421875	0.212921142578125	1.02142333984375E-06	2.17482607922648E-07	208455.34375	2.5354547688039E-05
2	380	104.337908736572	0.222930908203125	0.22296142578125	1.00433349609375E-06	2.23927628439924E-07	221999.390625	2.54565529758111E-05
2	381	104.438616736318	0.233001708984375	0.233062744140625	9.8907470703125E-07	2.30516462806918E-07	235637.15625	2.55569284490775E-05
2	382	104.539324736064	0.243072509765625	0.243072509765625	9.75341796875E-07	2.37078779719013E-07	249217.78125	2.56558450928424E-05
2	383	104.640032735809	0.253143310546875	0.25311279296875	9.6282958984375E-07	2.43704477043138E-07	262884.34375	2.57534393313108E-05
2	384	104.740740735555	0.263214111328125	0.263153076171875	9.51232910156249E-07	2.5031985728674E-07	276644.21875	2.58498203038471E-05
2	385	104.841448735301	0.273284912109375	0.27325439453125	9.40551757812499E-07	2.57009901361016E-07	290525.65625	2.59450789599214E-05
2	386	104.942156735047	0.283355712890625	0.283355712890625	9.31701660156251E-07	2.64002977701239E-07	304127.09375	2.60393553617178E-05
2	387	105.042864734792	0.293426513671875	0.29339599609375	9.2376708984375E-07	2.7102956323688E-07	317608.1875	2.61327841144521E-05
2	388	105.143572734538	0.303497314453125	0.30352783203125	9.1705322265625E-07	2.78351166116408E-07	330981.71875	2.62254779954674E-05
2	389	105.244280734284	0.313568115234375	0.313629150390625	9.10339355468751E-07	2.8550894626278E-07	344518.9375	2.63174933934351E-05
2	390	105.344988734029	0.323638916015625	0.3236083984375	9.04541015625E-07	2.92717061256553E-07	357759.8125	2.64088812400587E-05
2	391	105.445696733775	0.333709716796875	0.333740234375	8.99658203125001E-07	3.00252139595614E-07	370963.375	2.64997288468294E-05
2	392	105.546404733521	0.343780517578125	0.34375	8.9599609375E-07	3.07998647031127E-07	383651.21875	2.65901471721008E-05
2	393	105.647112733267	0.353851318359375	0.3538818359375	8.92333984375E-07	3.15780766868556E-07	396580.03125	2.66801962425234E-05
2	394	105.747820733012	0.363922119140625	0.3638916015625	8.89892578125E-07	3.23824423276164E-07	408916.34375	2.67699397227261E-05
2	395	105.848528732758	0.373992919921875	0.3740234375	8.8775634765625E-07	3.32041651063264E-07	421313.1875	2.68594503722852E-05
2	396	105.949236732504	0.384063720703125	0.384124755859375	8.8653564453125E-07	3.40540282195434E-07	433287.4375	2.69487936748192E-05
2	397	106.04994473225	0.394134521484375	0.394134521484375	8.85620117187499E-07	3.49053436821123E-07	445037.9375	2.70380296569783E-05
2	398	106.150652731995	0.404205322265625	0.404205322265625	8.85620117187499E-07	3.5797233977064E-07	456409.40625	2.7127218345413E-05
2	399	106.251360731741	0.414276123046875	0.414215087890625	8.85009765625E-07	3.66584373523438E-07	468034.5	2.72163761110278E-05
2	400	106.352068731487	0.424346923828125	0.42437744140625	8.85009765625E-07	3.75578167677304E-07	479517.25	2.73055029538227E-05
2	401	106.452776731233	0.434417724609375	0.43438720703125	8.8470458984375E-07	3.84304343015174E-07	490996.90625	2.73946152447024E-05
2	402	106.553484730978	0.444488525390625	0.44451904296875	8.85009765625E-07	3.93403695397865E-07	502275.875	2.74837275355821E-05
2	403	106.654192730724	0.454559326171875	0.45458984375	8.8531494140625E-07	4.02455185621875E-07	513478.125	2.75728707492817E-05
2	404	106.75490073047	0.464630126953125	0.464569091796875	8.8623046875E-07	4.11715262771395E-07	524208	2.7662075808621E-05
2	405	106.855608730216	0.474700927734375	0.474700927734375	8.87451171875001E-07	4.21273881556772E-07	534903.6875	2.77513881883351E-05
2	406	106.956316729961	0.484771728515625	0.4847412109375	8.8958740234375E-07	4.3121966086801E-07	544905.6875	2.78408679150743E-05
2	407	107.057024729707	0.494842529296875	0.49481201171875	8.91723632812499E-07	4.41235556536412E-07	554893.9375	2.79305641015526E-05
2	408	107.157732729453	0.504913330078125	0.5048828125	8.9385986328125E-07	4.51294482672893E-07	564834.4375	2.80204749287805E-05
2	409	107.258440729198	0.514984130859375	0.514984130859375	8.9691162109375E-07	4.61895240277954E-07	574174.875	2.81106476904824E-05
2	410	107.359148728944	0.525054931640625	0.5250244140625	9.002685546875E-07	4.72662975425919E-07	583186.4375	2.82011442322982E-05
2	411	107.45985672869	0.535125732421875	0.53509521484375	9.04541015625E-07	4.84015515667124E-07	591565.5	2.82920227618888E-05
2	412	107.560564728436	0.545196533203125	0.545196533203125	9.0911865234375E-07	4.95648350806732E-07	599697.875	2.83833487628726E-05
2	413	107.661272728181	0.555267333984375	0.555145263671875	9.1583251953125E-07	5.08420100686635E-07	606164.625	2.84752422885504E-05
2	414	107.761980727927	0.565338134765625	0.56536865234375	9.22546386718751E-07	5.21578783718724E-07	612834.9375	2.85678106592968E-05
2	415	107.862688727673	0.575408935546875	0.575469970703125	9.3048095703125E-07	5.35463868800434E-07	618465.0625	2.86611193587305E-05
2	416	107.963396727419	0.585479736328125	0.58544921875	9.40856933593751E-07	5.50823926914745E-07	622251.0625	2.87553484668024E-05
2	417	108.064104727164	0.595550537109375	0.595489501953125	9.539794921875E-07	5.68084772112343E-07	624216.25	2.88507599179866E-05
2	418	108.16481272691	0.605621337890625	0.60552978515625	9.70458984375E-07	5.87641807214823E-07	623962.3125	2.89476629404817E-05
2	419	108.265520726656	0.615692138671875	0.615692138671875	9.9029541015625E-07	6.09717062616255E-07	621725.75	2.90463958663167E-05
2	420	108.366228726402	0.625762939453125	0.625701904296875	1.0162353515625E-06	6.3586037413188E-07	615705.75	2.91474316327367E-05
2	421	108.466936726147	0.635833740234375	0.63580322265625	1.04827880859375E-06	6.66499033741275E-07	606521.125	2.92513886961387E-05
2	422	108.567644725893	0.645904541015625	0.645843505859375	1.08642578125E-06	7.01661008406518E-07	594466.3125	2.93588800559519E-05
2	423	108.668352725639	0.655975341796875	0.65594482421875	1.1297607421875E-06	7.41060659947834E-07	580605.125	2.947047323687E-05
2	424	108.769060725385	0.666046142578125	0.665985107421875	1.1749267578125E-06	7.8248370982692E-07	566831.1875	2.95865247608162E-05
2	425	108.86976872513	0.676116943359375	0.676116943359375	1.21734619140625E-06	8.23068376121228E-07	555402.375	2.97069836960873E-05
2	426	108.970476724876	0.686187744140625	0.6861572265625	1.25274658203125E-06	8.59581064105441E-07	547722.3125	2.98313625535229E-05
2	427	109.071184724622	0.696258544921875	0.696136474609375	1.27899169921875E-06	8.90352794158389E-07	544285.375	2.99588464258704E-05
2	428	109.171892724367	0.706329345703125	0.706298828125	1.295166015625E-06	9.14774204829882E-07	545334.625	3.00884657917777E-05
2	429	109.272600724113	0.716400146484375	0.716278076171875	1.30218505859375E-06	9.3272660706134E-07	550058.5625	3.02192529488821E-05
2	430	109.373308723859	0.726470947265625	0.726409912109375	1.302490234375E-06	9.46141767599329E-07	557708.5625	3.03504093608353E-05
2	431	109.474016723605	0.736541748046875	0.736419677734375	1.298828125E-06	9.56482608671649E-07	566987.8125	3.04813947877847E-05
2	432	109.57472472335	0.746612548828125	0.7464599609375	1.292724609375E-06	9.64967171057651E-07	577431.5625	3.0611889087595E-05
2	433	109.675432723096	0.756683349609375	0.75714111328125	1.28570556640625E-06	9.73460487330158E-07	588891.5625	3.07417249132413E-05
2	434	109.776140722842	0.766754150390625	0.7672119140625	1.2786865234375E-06	9.81023504209588E-07	600000.0625	3.08708513330203E-05
2	435	109.876848722588	0.776824951171875	0.7769775390625	1.27197265625E-06	9.88294232229237E-07	610844.5	3.09992865368258E-05
2	436	109.977556722333	0.786895751953125	0.7867431640625	1.26708984375E-06	9.96874291558925E-07	620905.625	3.11271396640223E-05
2	437	110.078264722079	0.796966552734375	0.797119140625	1.2628173828125E-06	1.00661588930961E-06	631222.8125	3.12545307679102E-05
2	438	110.178972721825	0.807037353515625	0.80718994140625	1.259765625E-06	1.01687010101159E-06	640746.1875	3.13815544359386E-05
2	439	110.279680721571	0.817108154296875	0.8172607421875	1.25732421875E-06	1.02756177966512E-06	650000	3.15082979795989E-05
2	440	110.380388721316	0.827178955078125	0.82733154296875	1.25579833984375E-06	1.03896161363082E-06	658809.25	3.16348450724036E-05
2	441	110.481096721062	0.837249755859375	0.83770751953125	1.25518798828125E-06	1.05148035345337E-06	667396.0625	3.1761283025844E-05
2	442	110.581804720808	0.847320556640625	0.84747314453125	1.2548828125E-06	1.06347954442754E-06	675340.4375	3.188767368556E-05
2	443	110.682512720554	0.857391357421875	0.8575439453125	1.25518798828125E-06	1.07637879409594E-06	683199.625	3.20140679832548E-05
2	444	110.783220720299	0.867462158203125	0.86822509765625	1.25518798828125E-06	1.08978565549478E-06	691709.25	3.2140473194886E-05
2	445	110.883928720045	0.877532958984375	0.87799072265625	1.256103515625E-06	1.10284724996745E-06	698979.625	3.22669293382205E-05
2	446	110.984636719791	0.887603759765625	0.88775634765625	1.25701904296875E-06	1.11592657958681E-06	706239.375	3.23934727930464E-05
2	447	111.085344719536	0.897674560546875	0.8978271484375	1.2579345703125E-06	1.12940779217752E-06	713731.25	3.25201108353212E-05
2	448	111.186052719282	0.907745361328125	0.90789794921875	1.259765625E-06	1.14373858650652E-06	720688	3.26468871207908E-05
2	449	111.286760719028	0.917816162109375	0.91766357421875	1.2628173828125E-06	1.15884154183732E-06	726679.5625	3.27739107888192E-05
2	450	111.387468718774	0.927886962890625	0.927734375	1.2664794921875E-06	1.17495653739752E-06	732530.125	3.29012691508979E-05
2	451	111.488176718519	0.937957763671875	0.9381103515625	1.2713623046875E-06	1.1926781553484E-06	737878.0625	3.30290604324546E-05
2	452	111.588884718265	0.948028564453125	0.948486328125	1.27777099609375E-06	1.21194830171589E-06	742297.625	3.31574192387052E-05
2	453	111.689592718011	0.958099365234375	0.95855712890625	1.285400390625E-06	1.23212964808772E-06	745726.5	3.32864838128444E-05
2	454	111.790300717757	0.968170166015625	0.9686279296875	1.29486083984375E-06	1.25423832741944E-06	748055.625	3.34164105879609E-05
2	455	111.891008717502	0.978240966796875	0.9783935546875	1.30584716796875E-06	1.27763246382528E-06	749240.5	3.35473669110797E-05
2	456	111.991716717248	0.988311767578125	0.98846435546875	1.31744384765625E-06	1.3022462326262E-06	750289.625	3.36794619215652E-05
2	457	112.092424716994	0.998382568359375	0.99884033203125	1.3287353515625E-06	1.32719435441686E-06	751722.625	3.38127065333538E-05
2	458	112.19313271674	1.00845336914063	1.00830078125	1.3397216796875E-06	1.35084235353133E-06	752619.625	3.39470752805937E-05
2	459	112.293840716485	1.01852416992188	1.0186767578125	1.3482666015625E-06	1.3734478443439E-06	755545.5	3.40824262821116E-05
2	460	112.394548716231	1.02859497070313	1.02874755859375	1.35528564453125E-06	1.39424673761823E-06	759063.3125	3.42185594490729E-05
2	461	112.495256715977	1.03866577148438	1.03851318359375	1.35955810546875E-06	1.41191890179471E-06	763860.875	3.4355263778707E-05
2	462	112.595964715723	1.04873657226563	1.0491943359375	1.3616943359375E-06	1.42868202601676E-06	770506.5	3.44922882504761E-05
2	463	112.696672715468	1.05880737304688	1.05865478515625	1.36260986328125E-06	1.44253340295109E-06	776931.6875	3.46294691553339E-05
2	464	112.797380715214	1.06887817382813	1.0693359375	1.363525390625E-06	1.45806666296266E-06	784243.5	3.47667410096619E-05
2	465	112.89808871496	1.07894897460938	1.0784912109375	1.3629150390625E-06	1.46989179938828E-06	791312.1875	3.49040274159051E-05
2	466	112.998796714705	1.08901977539063	1.08917236328125	1.3629150390625E-06	1.48444928527169E-06	799149.1875	3.50412847183179E-05
2	467	113.099504714451	1.09909057617188	1.09954833984375	1.3629150390625E-06	1.49859090470272E-06	806762.25	3.51785420207307E-05
2	468	113.200212714197	1.10916137695313	1.1090087890625	1.36322021484375E-06	1.51182325680566E-06	813521.375	3.53158138750587E-05
2	469	113.300920713943	1.11923217773438	1.11907958984375	1.3641357421875E-06	1.52657651142363E-06	820357.9375	3.54531475750264E-05
2	470	113.401628713688	1.12930297851563	1.13006591796875	1.3653564453125E-06	1.54294275489519E-06	827671	3.55905867763795E-05
2	471	113.502336713434	1.13937377929688	1.13983154296875	1.3665771484375E-06	1.55766770149057E-06	834077.75	3.57281496690121E-05
2	472	113.60304471318	1.14944458007813	1.14990234375	1.36962890625E-06	1.57493946062459E-06	839572.1875	3.5865930840373E-05
2	473	113.703752712926	1.15951538085938	1.15966796875	1.37237548828125E-06	1.59149988121499E-06	845007.8125	3.60039994120598E-05
2	474	113.804460712671	1.16958618164063	1.16973876953125	1.37664794921875E-06	1.61031846346305E-06	849700.75	3.61424245056696E-05
2	475	113.905168712417	1.17965698242188	1.18011474609375	1.380615234375E-06	1.62928438385279E-06	854774.5625	3.62812643288635E-05
2	476	114.005876712163	1.18972778320313	1.1895751953125	1.38580322265625E-06	1.64851712725067E-06	858401.25	3.6420562537387E-05
2	477	114.106584711909	1.19979858398438	1.19964599609375	1.3909912109375E-06	1.66869699569361E-06	862439.6875	3.65603882528376E-05
2	478	114.207292711654	1.20986938476563	1.209716796875	1.397705078125E-06	1.6908272755245E-06	865502.1875	3.67008069588337E-05
2	479	114.3080007114	1.21994018554688	1.21978759765625	1.40472412109375E-06	1.71346505339898E-06	868346.75	3.6841920518782E-05
2	480	114.408708711146	1.23001098632813	1.2298583984375	1.41265869140625E-06	1.73737009845354E-06	870598.4375	3.69837871403433E-05
2	481	114.509416710892	1.24008178710938	1.23992919921875	1.422119140625E-06	1.7633269635553E-06	871888.4375	3.71265305147972E-05
2	482	114.610124710637	1.25015258789063	1.25	1.43157958984375E-06	1.78947448148392E-06	873161.375	3.72702270396985E-05
2	483	114.710832710383	1.26022338867188	1.26007080078125	1.44287109375E-06	1.81811969923729E-06	873308	3.74149676645175E-05
2	484	114.811540710129	1.27029418945313	1.26983642578125	1.45477294921875E-06	1.84732368779805E-06	872876.0625	3.75608760805335E-05
2	485	114.912248709874	1.28036499023438	1.280517578125	1.46759033203125E-06	1.87927525985288E-06	872530.6875	3.77080286853015E-05
2	486	115.01295670962	1.29043579101563	1.29058837890625	1.48193359375E-06	1.9125661765429E-06	870881.4375	3.78565491701011E-05
2	487	115.113664709366	1.30050659179688	1.30035400390625	1.49658203125E-06	1.94608628589776E-06	868882.625	3.80065284844022E-05
2	488	115.214372709112	1.31057739257813	1.3104248046875	1.51275634765625E-06	1.98235329662566E-06	866249.8125	3.8158061215654E-05
2	489	115.315080708857	1.32064819335938	1.32110595703125	1.52923583984375E-06	2.02028240892105E-06	863899.4375	3.83112346753478E-05
2	490	115.415788708603	1.33071899414063	1.33087158203125	1.546630859375E-06	2.05836704481044E-06	860497.25	3.84661179850809E-05
2	491	115.516496708349	1.34078979492188	1.34063720703125	1.56524658203125E-06	2.09842778531311E-06	856502.25	3.862281300826E-05
2	492	115.617204708095	1.35086059570313	1.351318359375	1.583251953125E-06	2.13947737393028E-06	853508.125	3.87813524866942E-05
2	493	115.71791270784	1.36093139648438	1.361083984375	1.60247802734375E-06	2.1811069927935E-06	849362.0625	3.89417691621929E-05
2	494	115.818620707586	1.37100219726563	1.37054443359375	1.62261962890625E-06	2.22387234316557E-06	844649.25	3.91041648981627E-05
2	495	115.919328707332	1.38107299804688	1.3812255859375	1.64337158203125E-06	2.26986685447628E-06	840482.8125	3.92686197301373E-05
2	496	116.020036707078	1.39114379882813	1.39129638671875	1.6656494140625E-06	2.31741205425351E-06	835287.6875	3.94352427974809E-05
2	497	116.120744706823	1.40121459960938	1.4013671875	1.690673828125E-06	2.36925484387029E-06	828880.875	3.96042451029643E-05
2	498	116.221452706569	1.41128540039063	1.4111328125	1.7193603515625E-06	2.42624560087279E-06	820731.3125	3.97759540646803E-05
2	499	116.322160706315	1.42135620117188	1.4215087890625	1.75323486328125E-06	2.49223876380711E-06	810792	3.99508135160431E-05
2	500	116.422868706061	1.43142700195313	1.43157958984375	1.79290771484375E-06	2.56669000009424E-06	798468.0625	4.01293764298316E-05
2	501	116.523576705806	1.44149780273438	1.441650390625	1.83807373046875E-06	2.64985965259257E-06	784326.75	4.03122103307396E-05
2	502	116.624284705552	1.45156860351563	1.45111083984375	1.8914794921875E-06	2.74474632533384E-06	767183	4.05000100727193E-05
2	503	116.724992705298	1.46163940429688	1.46209716796875	1.951904296875E-06	2.85387386611546E-06	749061.875	4.06935396313202E-05
2	504	116.825700705043	1.47171020507813	1.4715576171875	2.0220947265625E-06	2.97562860396283E-06	727739.25	4.08936466556042E-05
2	505	116.926408704789	1.48178100585938	1.48223876953125	2.1014404296875E-06	3.11483654513722E-06	705344.1875	4.11012806580402E-05
2	506	117.027116704535	1.49185180664063	1.49139404296875	2.1881103515625E-06	3.26333474731655E-06	681589.9375	4.13172783737537E-05
2	507	117.127824704281	1.50192260742188	1.50238037109375	2.27813720703125E-06	3.42262842423224E-06	659477.5625	4.15421709476504E-05
2	508	117.228532704026	1.49185180664063	1.49169921875	2.00714111328125E-06	2.99405087389459E-06	743196	4.17579540226143E-05
2	509	117.329240703772	1.48178100585938	1.48162841796875	1.81396484375E-06	2.68762187261018E-06	816790.0625	4.19503594457638E-05
2	510	117.429948703518	1.47171020507813	1.4715576171875	1.66229248046875E-06	2.44615921474178E-06	885257.9375	4.21254044340458E-05
2	511	117.530656703264	1.46163940429688	1.46209716796875	1.53961181640625E-06	2.25106191464874E-06	949653.1875	4.22866323788185E-05
2	512	117.631364703009	1.45156860351563	1.451416015625	1.43768310546875E-06	2.0866762042715E-06	1009552.125	4.24365498474799E-05
2	513	117.732072702755	1.44149780273438	1.4410400390625	1.35162353515625E-06	1.94774361261807E-06	1066154.875	4.25770049332641E-05
2	514	117.832780702501	1.43142700195313	1.431884765625	1.27960205078125E-06	1.83224256034009E-06	1119007.875	4.27094964834396E-05
2	515	117.933488702247	1.42135620117188	1.4215087890625	1.2176513671875E-06	1.73090199950821E-06	1167418.625	4.28352432209067E-05
2	516	118.034196701992	1.41128540039063	1.4111328125	1.1651611328125E-06	1.64419702741725E-06	1211105.375	4.29552273999434E-05
2	517	118.134904701738	1.40121459960938	1.40106201171875	1.12030029296875E-06	1.56961004904588E-06	1250613	4.30703112215269E-05
2	518	118.235612701484	1.39114379882813	1.39129638671875	1.0809326171875E-06	1.50389769260073E-06	1287125.875	4.31811495218426E-05
2	519	118.33632070123	1.38107299804688	1.38092041015625	1.04644775390625E-06	1.44506111610099E-06	1319626.625	4.32882734457962E-05
2	520	118.437028700975	1.37100219726563	1.370849609375	1.01715087890625E-06	1.3943608792033E-06	1347734.75	4.33921850344632E-05
2	521	118.537736700721	1.36093139648438	1.36016845703125	9.9029541015625E-07	1.34696847453597E-06	1373497.75	4.34932662756182E-05
2	522	118.638444700467	1.35086059570313	1.3507080078125	9.66491699218749E-07	1.30544810872379E-06	1397537.125	4.35917972936295E-05
2	523	118.739152700212	1.34078979492188	1.34033203125	9.4573974609375E-07	1.26760528473824E-06	1417231.375	4.36880873166956E-05
2	524	118.839860699958	1.33071899414063	1.33087158203125	9.2620849609375E-07	1.2326645446592E-06	1436902.875	4.37823473475873E-05
2	525	118.940568699704	1.32064819335938	1.32049560546875	9.0850830078125E-07	1.19968126455205E-06	1453476.625	4.38747338193934E-05
2	526	119.04127669945	1.31057739257813	1.3104248046875	8.9141845703125E-07	1.16813680506311E-06	1470044.5	4.39653667854145E-05
2	527	119.141984699195	1.30050659179688	1.30035400390625	8.758544921875E-07	1.13892087938439E-06	1484669	4.40543553850148E-05
2	528	119.242692698941	1.29043579101563	1.290283203125	8.612060546875E-07	1.11119970824802E-06	1498228.25	4.41418233094737E-05
2	529	119.343400698687	1.28036499023438	1.280517578125	8.4716796875E-07	1.08481344796019E-06	1511527.375	4.42278469563462E-05
2	530	119.444108698433	1.27029418945313	1.2701416015625	8.3465576171875E-07	1.06013101230928E-06	1521755.125	4.43125318270177E-05
2	531	119.544816698178	1.26022338867188	1.2603759765625	8.21533203124999E-07	1.03544073226658E-06	1534175.375	4.43959288531914E-05
2	532	119.645524697924	1.25015258789063	1.25	8.09326171875E-07	1.01165767318889E-06	1544494.75	4.44780489488039E-05
2	533	119.74623269767	1.24008178710938	1.23992919921875	7.9803466796875E-07	9.89506474979862E-07	1553728.5	4.45589867013041E-05
2	534	119.846940697416	1.23001098632813	1.2298583984375	7.8643798828125E-07	9.67207370194956E-07	1563834	4.46387712145224E-05
2	535	119.947648697161	1.21994018554688	1.2200927734375	7.7484130859375E-07	9.45378246797191E-07	1574635.75	4.47173879365437E-05
2	536	120.048356696907	1.20986938476563	1.21002197265625	7.63549804687499E-07	9.23912011785433E-07	1584732.25	4.47948514192831E-05
2	537	120.149064696653	1.19979858398438	1.19964599609375	7.525634765625E-07	9.02809688341222E-07	1594079.625	4.48711944045499E-05
2	538	120.249772696399	1.18972778320313	1.1895751953125	7.4188232421875E-07	8.82524830103648E-07	1603455.375	4.49464459961746E-05
2	539	120.350480696144	1.17965698242188	1.1798095703125	7.31201171875E-07	8.62678120938654E-07	1613522.5	4.50206207460724E-05
2	540	120.45118869589	1.16958618164063	1.1700439453125	7.2052001953125E-07	8.43040083964297E-07	1623888.25	4.50937222922221E-05
2	541	120.551896695636	1.15951538085938	1.15936279296875	7.0953369140625E-07	8.22606921246916E-07	1633978.625	4.51657288067508E-05
2	542	120.652604695381	1.14944458007813	1.1492919921875	6.9854736328125E-07	8.02834904334304E-07	1645260	4.52366330137011E-05
2	543	120.753312695127	1.13937377929688	1.1395263671875	6.87255859375E-07	7.83146163030324E-07	1658081.75	4.53064130851999E-05
2	544	120.854020694873	1.12930297851563	1.12945556640625	6.7626953125E-07	7.63816387916449E-07	1670126.375	4.53750726592261E-05
2	545	120.954728694619	1.11923217773438	1.11907958984375	6.6436767578125E-07	7.43480256915063E-07	1684428.25	4.54425789939705E-05
2	546	121.055436694364	1.10916137695313	1.1090087890625	6.53076171875E-07	7.2426718134011E-07	1698130.875	4.55089175375178E-05
2	547	121.15614469411	1.09909057617188	1.09893798828125	6.41479492187499E-07	7.0494616011274E-07	1713130.5	4.55741028417833E-05
2	548	121.256852693856	1.08901977539063	1.0888671875	6.29272460937499E-07	6.85194095240149E-07	1730358.875	4.56380912510213E-05
2	549	121.357560693602	1.07894897460938	1.07879638671875	6.15844726562501E-07	6.64371043512801E-07	1751734.375	4.57007881777827E-05
2	550	121.458268693347	1.06887817382813	1.06903076171875	6.02111816406251E-07	6.43676060008147E-07	1775468.875	4.57621172245126E-05
2	551	121.558976693093	1.05880737304688	1.0589599609375	5.87158203125E-07	6.21777019205183E-07	1803534.375	4.58220019936562E-05
2	552	121.659684692839	1.04873657226563	1.048583984375	5.7098388671875E-07	5.98724568590114E-07	1836451	4.58803187939338E-05
2	553	121.760392692585	1.03866577148438	1.03851318359375	5.5389404296875E-07	5.75226238197502E-07	1874931.125	4.59369584859814E-05
2	554	121.86110069233	1.02859497070313	1.02874755859375	5.3558349609375E-07	5.50980189473194E-07	1920797.875	4.59918192063924E-05
2	555	121.961808692076	1.01852416992188	1.01898193359375	5.169677734375E-07	5.2678080919577E-07	1971074.375	4.60448209196329E-05
2	556	122.062516691822	1.00845336914063	1.00860595703125	4.98046875E-07	5.02333023177925E-07	2025122.625	4.60959308838937E-05
2	557	122.163224691568	0.998382568359375	0.99853515625	4.79736328125E-07	4.79033587907907E-07	2081424.875	4.61451636510901E-05
2	558	122.263932691313	0.988311767578125	0.98846435546875	4.62951660156249E-07	4.576112075938E-07	2135135.25	4.6192631998565E-05
2	559	122.364640691059	0.978240966796875	0.9783935546875	4.4830322265625E-07	4.38616979181461E-07	2182437	4.62385178252589E-05
2	560	122.465348690805	0.968170166015625	0.968017578125	4.364013671875E-07	4.22444202285988E-07	2218181.75	4.62830648757517E-05
2	561	122.56605669055	0.958099365234375	0.95794677734375	4.26330566406249E-07	4.08401973572836E-07	2246957.75	4.6326509618666E-05
2	562	122.666764690296	0.948028564453125	0.948486328125	4.1839599609375E-07	3.96842864347491E-07	2266958.5	4.63690448668785E-05
2	563	122.767472690042	0.937957763671875	0.93780517578125	4.119873046875E-07	3.8636380850221E-07	2276296.5	4.64108561573084E-05
2	564	122.868180689788	0.927886962890625	0.92803955078125	4.058837890625E-07	3.76676211999438E-07	2286466.25	4.64520417153835E-05
2	565	122.968888689533	0.917816162109375	0.91796875	4.010009765625E-07	3.68106356063436E-07	2289193.5	4.64926706627011E-05
2	566	123.069596689279	0.907745361328125	0.9075927734375	3.9642333984375E-07	3.59790959691964E-07	2289453.5	4.6532823034795E-05
2	567	123.170304689025	0.897674560546875	0.89813232421875	3.9093017578125E-07	3.51107019014307E-07	2297424	4.65724697278347E-05
2	568	123.271012688771	0.887603759765625	0.88775634765625	3.857421875E-07	3.42445048318041E-07	2301424.25	4.66115780000109E-05
2	569	123.371720688516	0.877532958984375	0.87738037109375	3.79638671875E-07	3.33087513126884E-07	2311093.25	4.66501187474933E-05
2	570	123.472428688262	0.867462158203125	0.8673095703125	3.7384033203125E-07	3.2423528750769E-07	2320000	4.66880592284724E-05
2	571	123.573136688008	0.857391357421875	0.85784912109375	3.67431640625E-07	3.15200907152757E-07	2334717.75	4.67253848910332E-05
2	572	123.673844687754	0.847320556640625	0.84747314453125	3.5980224609375E-07	3.04922735949731E-07	2355386	4.67620047857054E-05
2	573	123.774552687499	0.837249755859375	0.83770751953125	3.521728515625E-07	2.95017827056654E-07	2378683	4.67978534288704E-05
2	574	123.875260687245	0.827178955078125	0.82794189453125	3.43933105468749E-07	2.84756623614157E-07	2407276	4.68329053546768E-05
2	575	123.975968686991	0.817108154296875	0.81756591796875	3.3538818359375E-07	2.74201937600083E-07	2437670.75	4.68671132693999E-05
2	576	124.076676686737	0.807037353515625	0.80718994140625	3.2684326171875E-07	2.63824603052853E-07	2469654.5	4.69004589831457E-05
2	577	124.177384686482	0.796966552734375	0.797119140625	3.1768798828125E-07	2.53235157288145E-07	2509126	4.69329133920837E-05
2	578	124.278092686228	0.786895751953125	0.78704833984375	3.08837890624999E-07	2.43070331862327E-07	2548419	4.69644619442988E-05
2	579	124.378800685974	0.776824951171875	0.7769775390625	2.98461914062501E-07	2.31898198421732E-07	2603272	4.69950427941512E-05
2	580	124.479508685719	0.766754150390625	0.7672119140625	2.87475585937499E-07	2.20554696284125E-07	2668789.75	4.70245468022767E-05
2	581	124.580216685465	0.756683349609375	0.75714111328125	2.7496337890625E-07	2.08186079930783E-07	2753607	4.705286846729E-05
2	582	124.680924685211	0.746612548828125	0.746490478515625	2.5909423828125E-07	1.93411381133046E-07	2881154.25	4.7079760406632E-05
2	583	124.781632684957	0.736541748046875	0.736480712890625	2.4078369140625E-07	1.7733253798724E-07	3058681.75	4.71049315819982E-05
2	584	124.882340684702	0.726470947265625	0.726409912109375	2.178955078125E-07	1.58281451945186E-07	3333753.5	4.71280254714657E-05
2	585	124.983048684448	0.716400146484375	0.71630859375	1.89208984375E-07	1.35532019385209E-07	3785806.75	4.71485254820436E-05
2	586	125.083756684194	0.706329345703125	0.706298828125	1.5411376953125E-07	1.08850372271263E-07	4582970.5	4.71658131573349E-05
2	587	125.18446468394	0.696258544921875	0.696197509765625	1.129150390625E-07	7.86111655770583E-08	6165675.5	4.71792591270059E-05
2	588	125.285172683685	0.686187744140625	0.68609619140625	6.7138671875E-08	4.60635867227666E-08	10219091	4.71883249701932E-05
2	589	125.385880683431	0.676116943359375	0.676055908203125	1.95312500000003E-08	1.32042163869528E-08	34614064	4.71926905447617E-05
2	590	125.486588683177	0.666046142578125	0.666015625	-2.56347656250003E-08	-1.70731535575896E-08	-25980952	4.71923813165631E-05
2	591	125.587296682923	0.655975341796875	0.655853271484375	-6.256103515625E-08	-4.10308587106556E-08	-10483415	4.71879429824185E-05
2	592	125.688004682668	0.645904541015625	0.645904541015625	-8.81958007812503E-08	-5.69660656424276E-08	-7323529.5	4.71803505206481E-05
2	593	125.788712682414	0.635833740234375	0.635833740234375	-1.0040283203125E-07	-6.38395079022303E-08	-6332827	4.71708553959616E-05
2	594	125.88942068216	0.625762939453125	0.625762939453125	-1.01318359374999E-07	-6.34012735645229E-08	-6176205	4.71606981591322E-05
2	595	125.990128681906	0.615692138671875	0.615631103515625	-9.18579101562497E-08	-5.65505828831192E-08	-6701993.5	4.7150970203802E-05
2	596	126.090836681651	0.605621337890625	0.605560302734375	-7.69042968749994E-08	-4.65701859297951E-08	-7874207	4.71424718853086E-05
2	597	126.191544681397	0.595550537109375	0.595550537109375	-6.16455078124994E-08	-3.67130148504202E-08	-9660891	4.71354942419566E-05
2	598	126.292252681143	0.585479736328125	0.58544921875	-4.79125976562494E-08	-2.80503922311937E-08	-12219109	4.71299790660851E-05
2	599	126.392960680888	0.575408935546875	0.57537841796875	-3.57055664062494E-08	-2.05442116651966E-08	-16114531	4.71257662866265E-05
2	600	126.493668680634	0.565338134765625	0.5653076171875	-2.38037109375006E-08	-1.34564190901187E-08	-23748718	4.71227722300682E-05
2	601	126.59437668038	0.555267333984375	0.555267333984375	-1.40380859374997E-08	-7.79489006674794E-09	-39554348	4.71208659291733E-05
2	602	126.695084680126	0.545196533203125	0.545135498046875	-5.18798828124945E-09	-2.82815659780056E-09	-105076472	4.71198982268106E-05
2	603	126.795792679871	0.535125732421875	0.535064697265625	2.74658203125028E-09	1.46959910907185E-09	194811104	4.71197745355312E-05
2	604	126.896500679617	0.525054931640625	0.5250244140625	9.76562499999944E-09	5.1271915602058E-09	53762500	4.71204039058648E-05
2	605	126.997208679363	0.514984130859375	0.5150146484375	1.55639648437497E-08	8.01566990560332E-09	33090198	4.71216808364261E-05
2	606	127.097916679109	0.504913330078125	0.5048828125	2.10571289062503E-08	1.06313819969728E-08	23976814	4.71235252916813E-05
2	607	127.198624678854	0.494842529296875	0.4947509765625	2.56347656250003E-08	1.26828254565226E-08	19300000	4.71258754259907E-05
2	608	127.2993326786	0.484771728515625	0.484771728515625	2.99072265625006E-08	1.44981777694397E-08	16209183	4.71286730316933E-05
2	609	127.400040678346	0.474700927734375	0.47479248046875	3.32641601562503E-08	1.57935726718961E-08	14273396	4.71318526251707E-05
2	610	127.500748678092	0.464630126953125	0.464630126953125	3.54003906249997E-08	1.64480873365846E-08	13125000	4.71353087050375E-05
2	611	127.601456677837	0.454559326171875	0.454559326171875	3.90625000000006E-08	1.77562231584716E-08	11636719	4.71390594611876E-05
2	612	127.702164677583	0.444488525390625	0.444549560546875	4.08935546875003E-08	1.81792110254264E-08	10870896	4.7143086703727E-05
2	613	127.802872677329	0.434417724609375	0.4344482421875	4.2724609375E-08	1.8561630454883E-08	10168572	4.71472958452068E-05
2	614	127.903580677075	0.424346923828125	0.424346923828125	4.39453125000003E-08	1.8648059096904E-08	9656250	4.71516614197753E-05
2	615	128.00428867682	0.414276123046875	0.414337158203125	4.51660156250006E-08	1.87139583829321E-08	9173649	4.71561470476445E-05
2	616	128.104996676566	0.404205322265625	0.404205322265625	4.51660156250006E-08	1.82563439921068E-08	8949324	4.71606981591322E-05
2	617	128.205704676312	0.394134521484375	0.394134521484375	4.57763671875E-08	1.80420460793584E-08	8610000	4.71652747364715E-05
2	618	128.306412676057	0.384063720703125	0.384033203125	4.66918945312506E-08	1.79312387160735E-08	8224836.5	4.71699313493446E-05
2	619	128.407120675803	0.373992919921875	0.3740234375	4.69970703125003E-08	1.75780048294882E-08	7958441.5	4.71746498078573E-05
2	620	128.507828675549	0.363922119140625	0.363922119140625	4.69970703125003E-08	1.71032734641585E-08	7743506.5	4.71793828182854E-05
2	621	128.608536675295	0.353851318359375	0.3538818359375	4.730224609375E-08	1.67394045291758E-08	7481290.5	4.71841303806286E-05
2	622	128.70924467504	0.343780517578125	0.343780517578125	4.76074218749997E-08	1.63665045960215E-08	7221154	4.71889106847811E-05
2	623	128.809952674786	0.333709716796875	0.333770751953125	4.79125976562494E-08	1.59918229769573E-08	6966242	4.71937200927641E-05
2	624	128.910660674532	0.323638916015625	0.3236083984375	4.79125976562494E-08	1.55049182382072E-08	6754140.5	4.71985440526623E-05
2	625	129.011368674278	0.313568115234375	0.31365966796875	4.730224609375E-08	1.48368064500914E-08	6630968	4.72033389087301E-05
2	626	129.112076674023	0.303497314453125	0.303558349609375	4.69970703125003E-08	1.4266352543757E-08	6459091	4.72080864710733E-05
2	627	129.212784673769	0.293426513671875	0.293426513671875	4.60815429687497E-08	1.35215465491001E-08	6367550	4.72127758257557E-05
2	628	129.313492673515	0.283355712890625	0.28338623046875	4.51660156250006E-08	1.27994264076392E-08	6274324.5	4.7217370592989E-05
2	629	129.414200673261	0.273284912109375	0.2733154296875	4.425048828125E-08	1.20943406400897E-08	6176552	4.72218707727734E-05
2	630	129.514908673006	0.263214111328125	0.263275146484375	4.24194335937503E-08	1.1167982094662E-08	6206475	4.72262363473419E-05
2	631	129.615616672752	0.253143310546875	0.253143310546875	4.05883789062506E-08	1.02746762209449E-08	6236842	4.72304163849913E-05
2	632	129.716324672498	0.243072509765625	0.24310302734375	3.84521484374997E-08	9.3478336182784E-09	6322222.5	4.72343963338062E-05
2	633	129.817032672243	0.233001708984375	0.233001708984375	3.57055664062494E-08	8.31945801138545E-09	6525641.5	4.72381289000623E-05
2	634	129.917740671989	0.222930908203125	0.22296142578125	3.32641601562503E-08	7.41662420367106E-09	6702753	4.72416031698231E-05
2	635	130.018448671735	0.212860107421875	0.212890625	2.99072265625006E-08	6.36696828593131E-09	7118367.5	4.72447827633005E-05
2	636	130.119156671481	0.202789306640625	0.20281982421875	2.65502929687494E-08	5.38492583856964E-09	7639080.5	4.72476276627276E-05
2	637	130.219864671226	0.192718505859375	0.192779541015625	2.19726562499994E-08	4.23587831477334E-09	8773612	4.72500687465072E-05
2	638	130.320572670972	0.182647705078125	0.182708740234375	1.70898437499997E-08	3.122463620997E-09	10691072	4.72520368930418E-05
2	639	130.421280670718	0.172576904296875	0.172607421875	1.12915039062494E-08	1.94899740790788E-09	15286487	4.7253466618713E-05
2	640	130.521988670464	0.162506103515625	0.162567138671875	3.96728515625056E-09	6.44950204353734E-10	40976924	4.72542342322413E-05
2	641	130.622696670209	0.152435302734375	0.1524658203125	-5.79833984375028E-09	-8.84048612093125E-10	-26294738	4.72541432827711E-05
2	642	130.723404669955	0.142364501953125	0.142425537109375	-1.678466796875E-08	-2.39056530126902E-09	-8485455	4.72530045954045E-05
2	643	130.824112669701	0.132293701171875	0.13238525390625	-3.23486328124997E-08	-4.28248148054422E-09	-4092453.25	4.72505307698157E-05
2	644	130.924820669447	0.122222900390625	0.12225341796875	-5.21850585937497E-08	-6.37980157591755E-09	-2342690	4.72462743346114E-05
2	645	131.025528669192	0.112152099609375	0.112152099609375	-7.90405273437503E-08	-8.86456064108643E-09	-1418919	4.72396677650977E-05
2	646	131.126236668938	0.102081298828125	0.102081298828125	-1.1474609375E-07	-1.17134302257682E-08	-889627.6875	4.72299070679583E-05
2	647	131.226944668684	0.092010498046875	0.092071533203125	-1.64794921875E-07	-1.5172920697637E-08	-558703.75	4.72158317279536E-05
2	648	131.32765266843	0.081939697265625	0.08203125	-2.3223876953125E-07	-1.90508355757402E-08	-353219.46875	4.71958410344087E-05
2	649	131.428360668175	0.071868896484375	0.071868896484375	-3.24401855468751E-07	-2.33144028527477E-08	-221542.8125	4.71678104077E-05
2	650	131.529068667921	0.061798095703125	0.0618896484375	-4.4525146484375E-07	-2.75564566720732E-08	-138999.3125	4.71290550194681E-05
2	651	131.629776667667	0.051727294921875	0.051788330078125	-6.00280761718749E-07	-3.10875378772835E-08	-86273.5078125	4.70764098281506E-05
2	652	131.730484667412	0.041656494140625	0.041741943359375	-7.89794921875001E-07	-3.29675771126858E-08	-52851.625	4.70064151159022E-05
2	653	131.831192667158	0.031585693359375	0.0316558837890625	-1.00799560546875E-06	-3.1908992781382E-08	-31404.78515625	4.69158876512665E-05
2	654	131.931900666904	0.021514892578125	0.02159423828125	-1.23992919921875E-06	-2.6775325068229E-08	-17415.703125	4.68026955786627E-05
2	655	132.03260866665	0.011444091796875	0.0115753173828125	-1.46636962890625E-06	-1.69736917854379E-08	-7893.86083984375	4.66664241685066E-05
2	656	132.133316666395	0.001373291015625	0.001513671875	-1.66290283203125E-06	-2.51708920373517E-09	-910.258728027344	4.65088523924351E-05
2	657	132.234024666141	-0.008697509765625	-0.0085906982421875	-1.80938720703125E-06	1.5543898612691E-08	4747.849609375	4.63340074929874E-05
2	658	132.334732665887	-0.018768310546875	-0.0186370849609375	-1.898193359375E-06	3.53767894978319E-08	9818.328125	4.61473173345439E-05
2	659	132.435440665633	-0.028839111328125	-0.0286895751953125	-1.9317626953125E-06	5.54214487635818E-08	14851.5009765625	4.59544608020224E-05
2	660	132.536148665378	-0.038909912109375	-0.038812255859375	-1.92047119140625E-06	7.45378159194843E-08	20209.759765625	4.5760487410007E-05
2	661	132.636856665124	-0.048980712890625	-0.048822021484375	-1.8780517578125E-06	9.16902891390237E-08	25996.1015625	4.55692170362454E-05
2	662	132.73756466487	-0.059051513671875	-0.0589599609375	-1.8182373046875E-06	1.07203199206651E-07	32426.990234375	4.53830944024958E-05
2	663	132.838272664616	-0.069122314453125	-0.069061279296875	-1.751708984375E-06	1.20975258255385E-07	39425.0859375	4.52033309557009E-05
2	664	132.938980664361	-0.079193115234375	-0.07916259765625	-1.6851806640625E-06	1.33403275981436E-07	46975.734375	4.50302723038476E-05
2	665	133.039688664107	-0.089263916015625	-0.089111328125	-1.62200927734375E-06	1.44539399116184E-07	54938.85546875	4.48637401859742E-05
2	666	133.140396663853	-0.099334716796875	-0.099273681640625	-1.56494140625E-06	1.55357497533259E-07	63436.0390625	4.47032653028145E-05
2	667	133.241104663599	-0.109405517578125	-0.109344482421875	-1.514892578125E-06	1.65645147376381E-07	72179.6953125	4.4548181904247E-05
2	668	133.341812663344	-0.119476318359375	-0.119384765625	-1.47125244140625E-06	1.75645126887503E-07	81144.9921875	4.43978206021711E-05
2	669	133.44252066309	-0.129547119140625	-0.12939453125	-1.4337158203125E-06	1.85514977601997E-07	90251.1796875	4.42515411123168E-05
2	670	133.543228662836	-0.139617919921875	-0.139556884765625	-1.40289306640625E-06	1.95783385947834E-07	99477.921875	4.41087067883927E-05
2	671	133.643936662581	-0.149688720703125	-0.14959716796875	-1.37603759765625E-06	2.05851321766204E-07	108715.90625	4.39687755715568E-05
2	672	133.744644662327	-0.159759521484375	-0.15960693359375	-1.35498046875E-06	2.16264268715349E-07	117792.796875	4.38312599726487E-05
2	673	133.845352662073	-0.169830322265625	-0.169677734375	-1.33758544921875E-06	2.26958462690163E-07	126853.75	4.3695679778466E-05
2	674	133.946060661819	-0.179901123046875	-0.17974853515625	-1.32415771484375E-06	2.38015402942438E-07	135745.5625	4.35616493632551E-05
2	675	134.046768661564	-0.189971923828125	-0.18988037109375	-1.3140869140625E-06	2.49519302997214E-07	144496.0625	4.34288012911566E-05
2	676	134.14747666131	-0.200042724609375	-0.199859619140625	-1.30767822265625E-06	2.61352056440955E-07	152835.46875	4.32967863162048E-05
2	677	134.248184661056	-0.189971923828125	-0.189849853515625	-1.14898681640625E-06	2.18134985630059E-07	165232.40625	4.31730841228273E-05
