Potential - Start -0.2 V, Upper Vertex 1.5 V, Lower Vertex -0.2 V, Stop -0.19 V; Scan - # end cross 5, Rate 0.1 Vps, Step 0.01 V 
Scan	Index	Time (s)	Potential applied (V)	WE(1).Potential (V)	WE(1).Current (A)	WE(1).Power (W)	WE(1).Resistance (Ω)	WE(1).Charge (C)
1	1	65.7535608339882	-0.189971923828125	-0.1898193359375	-1.983642578125E-07	3.76533684232072E-08	956923.125	0
1	2	65.854268833734	-0.179901123046875	-0.179718017578125	-1.6448974609375E-07	2.95617716972174E-08	1092578.875	-1.82711499263633E-08
1	3	65.9549768334797	-0.169830322265625	-0.169677734375	-1.3763427734375E-07	2.33534720450734E-08	1232816	-3.3484301553699E-08
1	4	66.0556848332254	-0.159759521484375	-0.159698486328125	-1.1566162109375E-07	1.84709865180821E-08	1380738.75	-4.62387639288409E-08
1	5	66.1563928329712	-0.149688720703125	-0.14959716796875	-9.52148437499995E-08	1.42438709715975E-08	1571153.875	-5.68572389170185E-08
1	6	66.2571008327169	-0.139617919921875	-0.139495849609375	-7.62939453125E-08	1.06426885082556E-08	1828400	-6.54933884902675E-08
1	7	66.3578088324626	-0.129547119140625	-0.1295166015625	-5.85937499999994E-08	7.58886287144378E-09	2210416.75	-7.22855233448172E-08
1	8	66.4585168322084	-0.119476318359375	-0.119415283203125	-4.05883789062506E-08	4.84687268098583E-09	2942105.25	-7.72797434933636E-08
1	9	66.5592248319541	-0.109405517578125	-0.1092529296875	-2.22778320312506E-08	2.43391840015761E-09	4904110	-8.04453108571579E-08
1	10	66.6599328316998	-0.099334716796875	-0.099212646484375	-2.44140625000056E-09	2.42218356483193E-10	40637500	-8.16900183053804E-08
1	11	66.7606408314456	-0.089263916015625	-0.089202880859375	1.983642578125E-08	-1.76946635122022E-09	-4496923	-8.08141109587268E-08
1	12	66.8613488311913	-0.079193115234375	-0.07916259765625	4.54711914062503E-08	-3.59961749296644E-09	-1740939.625	-7.75256125962187E-08
1	13	66.9620568309371	-0.069122314453125	-0.069000244140625	7.81249999999997E-08	-5.39064393123567E-09	-883203.125	-7.13020469333969E-08
1	14	67.0627648306828	-0.059051513671875	-0.05902099609375	1.19934082031251E-07	-7.07862923832181E-09	-492111.9375	-6.13289827811059E-08
1	15	67.1634728304285	-0.048980712890625	-0.0488250732421875	1.74560546874999E-07	-8.52293169373297E-09	-279702.8125	-4.65000020710704E-08
1	16	67.2641808301743	-0.038909912109375	-0.0387786865234375	2.4871826171875E-07	-9.64496749134014E-09	-155914.109375	-2.51862193323404E-08
1	17	67.36488882992	-0.028839111328125	-0.0286956787109375	3.48510742187499E-07	-1.00007513381684E-08	-82338.0078125	4.88664886333368E-09
1	18	67.4655968296657	-0.018768310546875	-0.0186676025390625	4.8187255859375E-07	-8.99540442134139E-09	-38739.7109375	4.66997676085157E-08
1	19	67.5663048294115	-0.008697509765625	-0.008575439453125	6.5338134765625E-07	-5.60303226038172E-09	-13124.7080078125	1.03864337575033E-07
1	20	67.6670128291572	0.001373291015625	0.001483154296875	8.67309570312499E-07	1.2863538012553E-09	1710.06335449219	1.8043721183858E-07
1	21	67.767720828903	0.011444091796875	0.0115386962890625	1.11968994140625E-06	1.29197621490107E-08	10305.2607421875	2.80490581872073E-07
1	22	67.8684288286487	0.021514892578125	0.02164306640625	1.396484375E-06	3.02242035843392E-08	15498.2529296875	4.07190015039305E-07
1	23	67.9691368283944	0.031585693359375	0.031658935546875	1.67510986328125E-06	5.30321955238833E-08	18899.6171875	5.61857063985371E-07
1	24	68.0698448281402	0.041656494140625	0.0417388916015625	1.9293212890625E-06	8.05277338145061E-08	21633.974609375	7.43354576115962E-07
1	25	68.1705528278859	0.051727294921875	0.0517578125	2.13165283203125E-06	1.10329686719979E-07	24280.6015625	9.47840874232497E-07
1	26	68.2712608276316	0.061798095703125	0.061859130859375	2.26531982421875E-06	1.40130723025322E-07	27307.01953125	1.16924604753876E-06
1	27	68.3719688273774	0.071868896484375	0.071868896484375	2.3297119140625E-06	1.67433825026819E-07	30848.8359375	1.4006242281539E-06
1	28	68.4726768271231	0.081939697265625	0.082000732421875	2.333984375E-06	1.91388437542628E-07	35133.3671875	1.63546008025151E-06
1	29	68.5733848268688	0.092010498046875	0.092071533203125	2.293701171875E-06	2.11184570275691E-07	40141.03515625	1.86848251360061E-06
1	30	68.6740928266146	0.102081298828125	0.10211181640625	2.22625732421875E-06	2.27327177526604E-07	45867.03515625	2.09608037948783E-06
1	31	68.7748008263603	0.112152099609375	0.1121826171875	2.14508056640625E-06	2.40640758875088E-07	52297.625	2.31619492296886E-06
1	32	68.8755088261061	0.122222900390625	0.1221923828125	2.060546875E-06	2.51783120575055E-07	59300.94921875	2.5279650799348E-06
1	33	68.9762168258518	0.132293701171875	0.13232421875	1.9775390625E-06	2.61676319723847E-07	66913.578125	2.7312987640471E-06
1	34	69.0769248255975	0.142364501953125	0.142425537109375	1.90032958984375E-06	2.70655448275647E-07	74947.8125	2.92656500278099E-06
1	35	69.1776328253433	0.152435302734375	0.152435302734375	1.82952880859375E-06	2.78884755289255E-07	83319.4375	3.11437815980753E-06
1	36	69.278340825089	0.162506103515625	0.162567138671875	1.76513671875E-06	2.86953223849196E-07	92098.8984375	3.29538397636497E-06
1	37	69.3790488248347	0.172576904296875	0.172576904296875	1.70806884765625E-06	2.94773229825296E-07	101036.2734375	3.47027389580035E-06
1	38	69.4797568245805	0.182647705078125	0.18267822265625	1.65771484375E-06	3.02828397025223E-07	110198.8203125	3.63975459549692E-06
1	39	69.5804648243262	0.192718505859375	0.192779541015625	1.612548828125E-06	3.10866425934364E-07	119549.5859375	3.80442543246318E-06
1	40	69.681172824072	0.202789306640625	0.202850341796875	1.57196044921875E-06	3.18872707794071E-07	129042.90625	3.96477798858541E-06
1	41	69.7818808238177	0.212860107421875	0.21282958984375	1.53594970703125E-06	3.26895531088667E-07	138565.46875	4.12127383242478E-06
1	42	69.8825888235634	0.222930908203125	0.222991943359375	1.5032958984375E-06	3.352228645781E-07	148335.375	4.274311777408E-06
1	43	69.9832968233092	0.233001708984375	0.233001708984375	1.4739990234375E-06	3.43444270356486E-07	158074.546875	4.4242306103115E-06
1	44	70.0840048230549	0.243072509765625	0.243072509765625	1.4471435546875E-06	3.51760803596335E-07	167967.109375	4.57132182418718E-06
1	45	70.1847128228006	0.253143310546875	0.253143310546875	1.42364501953125E-06	3.60386223974274E-07	177813.5	4.71587736683432E-06
1	46	70.2854208225464	0.263214111328125	0.263214111328125	1.40167236328125E-06	3.6893993637932E-07	187785.765625	4.8581437113171E-06
1	47	70.3861288222921	0.273284912109375	0.273284912109375	1.38153076171875E-06	3.77551515384766E-07	197813.125	4.99828911415534E-06
1	48	70.4868368220378	0.283355712890625	0.283355712890625	1.36322021484375E-06	3.86276241215455E-07	207857.625	5.13649820277351E-06
1	49	70.5875448217836	0.293426513671875	0.293365478515625	1.34674072265625E-06	3.95087226934265E-07	217833.6875	5.27295560459606E-06
1	50	70.6882528215293	0.303497314453125	0.303497314453125	1.331787109375E-06	4.04193798431152E-07	227887.265625	5.40783003089018E-06
1	51	70.7889608212751	0.313568115234375	0.3135986328125	1.318359375E-06	4.13435685686636E-07	237870.390625	5.54127564100781E-06
1	52	70.8896688210208	0.323638916015625	0.32366943359375	1.30523681640625E-06	4.22465234350966E-07	247977.5625	5.67338429391384E-06
1	53	70.9903768207665	0.333709716796875	0.33367919921875	1.29425048828125E-06	4.31864435768148E-07	257816.5625	5.804278771393E-06
1	54	71.0910848205123	0.343780517578125	0.34381103515625	1.28326416015625E-06	4.41200370460137E-07	267919.15625	5.93406684856745E-06
1	55	71.191792820258	0.353851318359375	0.35382080078125	1.2744140625E-06	4.50914171779004E-07	277634.125	6.06285630055936E-06
1	56	71.2925008200037	0.363922119140625	0.3638916015625	1.2664794921875E-06	4.60861230067167E-07	287325.3125	6.19080037722597E-06
1	57	71.3932088197495	0.373992919921875	0.3740234375	1.25885009765625E-06	4.70839410127155E-07	297115.15625	6.317960924207E-06
1	58	71.4939168194952	0.384063720703125	0.38409423828125	1.25152587890625E-06	4.80703874927713E-07	306900.75	6.44436840957496E-06
1	59	71.5946248192409	0.394134521484375	0.394134521484375	1.24603271484375E-06	4.91104458433256E-07	316311.5625	6.57013060845202E-06
1	60	71.6953328189867	0.404205322265625	0.4041748046875	1.241455078125E-06	5.01764873206412E-07	325565.40625	6.69538530928548E-06
1	61	71.7960408187324	0.414276123046875	0.41424560546875	1.2371826171875E-06	5.12497422278102E-07	334829.8125	6.82019481246243E-06
1	62	71.8967488184782	0.424346923828125	0.424285888671875	1.2335205078125E-06	5.233653155301E-07	343963.375	6.94460459271795E-06
1	63	71.9974568182239	0.434417724609375	0.434417724609375	1.23077392578125E-06	5.34669993612624E-07	352963.0625	7.06869150235434E-06
1	64	72.0981648179696	0.444488525390625	0.44451904296875	1.2286376953125E-06	5.46152818969858E-07	361798.3125	7.19253284842125E-06
1	65	72.1988728177154	0.454559326171875	0.45452880859375	1.22650146484375E-06	5.57480234419927E-07	370589.6875	7.31615864424384E-06
1	66	72.2995808174611	0.464630126953125	0.464569091796875	1.2249755859375E-06	5.69085784718482E-07	379247.625	7.43960026738932E-06
1	67	72.4002888172068	0.474700927734375	0.4747314453125	1.22406005859375E-06	5.8109981182497E-07	387833.46875	7.56291910875007E-06
1	68	72.5009968169526	0.484771728515625	0.484771728515625	1.2237548828125E-06	5.93241793467314E-07	396134.65625	7.68617610447109E-06
1	69	72.6017048166983	0.494842529296875	0.49481201171875	1.22344970703125E-06	6.05377579177002E-07	404440.03125	7.8094026321196E-06
1	70	72.7024128164441	0.504913330078125	0.5048828125	1.224365234375E-06	6.18160925114353E-07	412362.9375	7.93266008258797E-06
1	71	72.8031208161898	0.514984130859375	0.51495361328125	1.2255859375E-06	6.31119917215983E-07	420169.3125	8.05602485343115E-06
1	72	72.9038288159355	0.525054931640625	0.5250244140625	1.2274169921875E-06	6.4442389202668E-07	427747.40625	8.17954332887894E-06
1	73	73.0045368156813	0.535125732421875	0.53515625	1.23016357421875E-06	6.58329724956275E-07	435028.53125	8.30329281598097E-06
1	74	73.105244815427	0.545196533203125	0.545135498046875	1.23321533203125E-06	6.7226949340693E-07	442044.03125	8.42733334138757E-06
1	75	73.2059528151727	0.555267333984375	0.55523681640625	1.236572265625E-06	6.86590396981046E-07	449012.875	8.551697646908E-06
1	76	73.3066608149185	0.565338134765625	0.565338134765625	1.240234375E-06	7.01151805060363E-07	455831.6875	8.67641483637271E-06
1	77	73.4073688146642	0.575408935546875	0.575469970703125	1.2457275390625E-06	7.1687878744342E-07	461954.9375	8.80159223015653E-06
1	78	73.5080768144099	0.585479736328125	0.58544921875	1.2518310546875E-06	7.32883506771032E-07	467674.3125	8.92735442903358E-06
1	79	73.6087848141557	0.595550537109375	0.59552001953125	1.25946044921875E-06	7.50033905205783E-07	472837.4375	9.05380784388399E-06
1	80	73.7094928139014	0.605621337890625	0.6055908203125	1.268310546875E-06	7.68077200063999E-07	477478.375	9.18109162739711E-06
1	81	73.8102008136472	0.615692138671875	0.61566162109375	1.280517578125E-06	7.88365468906704E-07	480791.25	9.3094349722378E-06
1	82	73.9109088133929	0.625762939453125	0.625701904296875	1.2957763671875E-06	8.10769734016503E-07	482878.03125	9.43916165851988E-06
1	83	74.0116168131386	0.635833740234375	0.6357421875	1.31500244140625E-06	8.36002527648816E-07	483453.21875	9.57062547968235E-06
1	84	74.1123248128844	0.645904541015625	0.6458740234375	1.33941650390625E-06	8.65094307300751E-07	482205.53125	9.7042857305496E-06
1	85	74.2130328126301	0.655975341796875	0.65594482421875	1.37115478515625E-06	8.99401868537097E-07	478388.59375	9.84077360044466E-06
1	86	74.3137408123758	0.666046142578125	0.665985107421875	1.409912109375E-06	9.38980463160988E-07	472359.3125	9.98081122816075E-06
1	87	74.4144488121216	0.676116943359375	0.676055908203125	1.453857421875E-06	9.82888877842925E-07	465008.40625	1.01250143416109E-05
1	88	74.5151568118673	0.686187744140625	0.68609619140625	1.5008544921875E-06	1.0297304697815E-06	457137.0625	1.02737958513899E-05
1	89	74.6158648116131	0.696258544921875	0.69622802734375	1.54541015625E-06	1.07595781173586E-06	450513.4375	1.04271866803174E-05
1	90	74.7165728113588	0.706329345703125	0.706268310546875	1.5838623046875E-06	1.1186317578904E-06	445915.21875	1.0584758456389E-05
1	91	74.8172808111045	0.716400146484375	0.716278076171875	1.61102294921875E-06	1.1539403885763E-06	444610.75	1.07456335172174E-05
1	92	74.9179888108503	0.726470947265625	0.7264404296875	1.6259765625E-06	1.18117509373405E-06	446771.78125	1.09086295196903E-05
1	93	75.018696810596	0.736541748046875	0.7364501953125	1.6326904296875E-06	1.20239519674215E-06	451065.40625	1.10727169158054E-05
1	94	75.1194048103417	0.746612548828125	0.74652099609375	1.630859375E-06	1.21747075354506E-06	457747.03125	1.12370489659952E-05
1	95	75.2201128100875	0.756683349609375	0.7574462890625	1.62384033203125E-06	1.22997175822093E-06	466453.6875	1.14009362732759E-05
1	96	75.3208208098332	0.766754150390625	0.76690673828125	1.614990234375E-06	1.23854681532976E-06	474867.75	1.15640241347137E-05
1	97	75.4215288095789	0.776824951171875	0.7769775390625	1.605224609375E-06	1.24722350847151E-06	484030.40625	1.17261752166087E-05
1	98	75.5222368093247	0.786895751953125	0.78704833984375	1.59576416015625E-06	1.25594351629843E-06	493210.9375	1.18873576866463E-05
1	99	75.6229448090704	0.796966552734375	0.797119140625	1.58721923828125E-06	1.2652028544835E-06	502211.125	1.20476333904662E-05
1	100	75.7236528088162	0.807037353515625	0.80718994140625	1.58111572265625E-06	1.27626071844134E-06	510519.21875	1.22071724035777E-05
1	101	75.8243608085619	0.817108154296875	0.8172607421875	1.5765380859375E-06	1.28844260416372E-06	518389.5	1.23661729958258E-05
1	102	75.9250688083076	0.827178955078125	0.82763671875	1.573486328125E-06	1.30227499539615E-06	525989.125	1.2524788871815E-05
1	103	76.0257768080534	0.837249755859375	0.83740234375	1.5716552734375E-06	1.31610784137592E-06	532815.5625	1.26831591842347E-05
1	104	76.1264848077991	0.847320556640625	0.8477783203125	1.5716552734375E-06	1.33241530875239E-06	539417.5	1.28414376376895E-05
1	105	76.2271928075448	0.857391357421875	0.8575439453125	1.57257080078125E-06	1.34854860789346E-06	545313.4375	1.29997615658795E-05
1	106	76.3279008072906	0.867462158203125	0.86761474609375	1.5740966796875E-06	1.36570940867387E-06	551182.6875	1.31582091853488E-05
1	107	76.4286088070363	0.877532958984375	0.877685546875	1.5765380859375E-06	1.38370467084314E-06	556717	1.33168559841579E-05
1	108	76.529316806782	0.887603759765625	0.887451171875	1.5789794921875E-06	1.40126712722122E-06	562041	1.34757492560311E-05
1	109	76.6300248065278	0.897674560546875	0.8978271484375	1.58050537109375E-06	1.41902057748666E-06	568063.3125	1.3634841707244E-05
1	110	76.7307328062735	0.907745361328125	0.9075927734375	1.583251953125E-06	1.43694796861382E-06	573246	1.37941497087013E-05
1	111	76.8314408060193	0.917816162109375	0.9173583984375	1.58599853515625E-06	1.45492901992839E-06	578410.625	1.39537341965479E-05
1	112	76.932148805765	0.927886962890625	0.927734375	1.5887451171875E-06	1.47393336646928E-06	583941.625	1.41135951707838E-05
1	113	77.0328568055107	0.937957763671875	0.9381103515625	1.5924072265625E-06	1.4938536878617E-06	589114.625	1.42737790156389E-05
1	114	77.1335648052565	0.948028564453125	0.9478759765625	1.5960693359375E-06	1.51287576954928E-06	593881.4375	1.44343312058481E-05
1	115	77.2342728050022	0.958099365234375	0.95794677734375	1.60125732421875E-06	1.53391920321155E-06	598246.625	1.4595329957956E-05
1	116	77.3349808047479	0.968170166015625	0.96832275390625	1.607666015625E-06	1.55673944846058E-06	602315.875	1.47569116961677E-05
1	117	77.4356888044937	0.978240966796875	0.9783935546875	1.61590576171875E-06	1.58099169311754E-06	605476.875	1.49192319440772E-05
1	118	77.5363968042394	0.988311767578125	0.98876953125	1.624755859375E-06	1.60650904490467E-06	608565	1.50824116644799E-05
1	119	77.6371048039852	0.998382568359375	0.99884033203125	1.63543701171875E-06	1.63354047799658E-06	610748.25	1.52465754581499E-05
1	120	77.7378128037309	1.00845336914063	1.00860595703125	1.64703369140625E-06	1.6612078752587E-06	612377.25	1.54118606587872E-05
1	121	77.8385208034766	1.01852416992188	1.01837158203125	1.65985107421875E-06	1.69034512964572E-06	613531.9375	1.5578376405756E-05
1	122	77.9392288032224	1.02859497070313	1.0284423828125	1.671142578125E-06	1.71867384324287E-06	615412.75	1.5746105418657E-05
1	123	78.0399368029681	1.03866577148438	1.03851318359375	1.68121337890625E-06	1.74596220858803E-06	617716.5	1.59149094542954E-05
1	124	78.1406448027138	1.04873657226563	1.048583984375	1.689453125E-06	1.7715333342494E-06	620664.75	1.60846357175615E-05
1	125	78.2413528024596	1.05880737304688	1.05926513671875	1.69525146484375E-06	1.79572066372202E-06	624842.5	1.62550695677055E-05
1	126	78.3420608022053	1.06887817382813	1.0687255859375	1.69891357421875E-06	1.81567224899482E-06	629064.1875	1.64259781740839E-05
1	127	78.442768801951	1.07894897460938	1.0791015625	1.70166015625E-06	1.83626411853766E-06	634146.3125	1.65972123795655E-05
1	128	78.5434768016968	1.08901977539063	1.0888671875	1.7034912109375E-06	1.85487567705422E-06	639197.4375	1.67686739587225E-05
1	129	78.6441848014425	1.09909057617188	1.09893798828125	1.70501708984375E-06	1.87370801540965E-06	644531.9375	1.69403065228835E-05
1	130	78.7448928011883	1.10916137695313	1.1090087890625	1.7071533203125E-06	1.89324794064305E-06	649624.625	1.71121228049742E-05
1	131	78.845600800934	1.11923217773438	1.1187744140625	1.7095947265625E-06	1.91265075955016E-06	654409.125	1.72841700987192E-05
1	132	78.9463088006797	1.12930297851563	1.129150390625	1.7120361328125E-06	1.93314622265461E-06	659536.5625	1.74564629560336E-05
1	133	79.0470168004255	1.13937377929688	1.13922119140625	1.71630859375E-06	1.95525512936001E-06	663762.4375	1.76290941453772E-05
1	134	79.1477248001712	1.14944458007813	1.1492919921875	1.7205810546875E-06	1.97744998331473E-06	667967.375	1.78021546162199E-05
1	135	79.2484327999169	1.15951538085938	1.1590576171875	1.72576904296875E-06	2.00026579477708E-06	671618.0625	1.79756916622864E-05
1	136	79.3491407996627	1.16958618164063	1.16973876953125	1.732177734375E-06	2.02619548872462E-06	675299.5	1.81498144229408E-05
1	137	79.4498487994084	1.17965698242188	1.17919921875	1.73797607421875E-06	2.04941989068175E-06	678489.9375	1.83245501830243E-05
1	138	79.5505567991542	1.18972778320313	1.18927001953125	1.7449951171875E-06	2.07527023121656E-06	681532	1.84999316843459E-05
1	139	79.6512647988999	1.19979858398438	1.199951171875	1.7523193359375E-06	2.10269740819058E-06	684778.875	1.86760353244608E-05
1	140	79.7519727986456	1.20986938476563	1.209716796875	1.76055908203125E-06	2.12977784030954E-06	687120.8125	1.88529229490086E-05
1	141	79.8526807983914	1.21994018554688	1.22039794921875	1.76971435546875E-06	2.15975569517468E-06	689601.6875	1.90306855074596E-05
1	142	79.9533887981371	1.23001098632813	1.2298583984375	1.7791748046875E-06	2.18813306673837E-06	691252.125	1.92093866644427E-05
1	143	80.0540967978828	1.24008178710938	1.23992919921875	1.7889404296875E-06	2.21815935219638E-06	693108.1875	1.93890555237886E-05
1	144	80.1548047976286	1.25015258789063	1.25	1.7999267578125E-06	2.24990844799322E-06	694472.6875	1.95697703020414E-05
1	145	80.2555127973743	1.26022338867188	1.2603759765625	1.81060791015625E-06	2.28204658014874E-06	696106.5625	1.9751574654947E-05
1	146	80.35622079712	1.27029418945313	1.2701416015625	1.822509765625E-06	2.31484546020511E-06	696919	1.99345158762299E-05
1	147	80.4569287968658	1.28036499023438	1.28021240234375	1.83349609375E-06	2.3472643988498E-06	698235.6875	2.01186103367945E-05
1	148	80.5576367966115	1.29043579101563	1.2908935546875	1.84600830078125E-06	2.38300003729819E-06	699289.1875	2.03038889594609E-05
1	149	80.6583447963573	1.30050659179688	1.30035400390625	1.8585205078125E-06	2.416734560029E-06	699671.625	2.04904263227945E-05
1	150	80.759052796103	1.31057739257813	1.3104248046875	1.87255859375E-06	2.45384717345587E-06	699804.4375	2.06783006433398E-05
1	151	80.8597607958487	1.32064819335938	1.3201904296875	1.8865966796875E-06	2.49066670221509E-06	699773.5625	2.08675901376409E-05
1	152	80.9604687955945	1.33071899414063	1.33026123046875	1.90155029296875E-06	2.52955851465231E-06	699566.6875	2.10583384614438E-05
1	153	81.0611767953402	1.34078979492188	1.34063720703125	1.91741943359375E-06	2.57056399277644E-06	699188.25	2.12506383832078E-05
1	154	81.1618847950859	1.35086059570313	1.351318359375	1.93389892578125E-06	2.61331297224388E-06	698753.375	2.14445681194775E-05
1	155	81.2625927948317	1.36093139648438	1.36016845703125	1.95037841796875E-06	2.65284324996173E-06	697386.9375	2.16401567740832E-05
1	156	81.3633007945774	1.37100219726563	1.37115478515625	1.968994140625E-06	2.69979568656709E-06	696373.1875	2.18375134863891E-05
1	157	81.4640087943231	1.38107299804688	1.3812255859375	1.988525390625E-06	2.7466021492728E-06	694597.9375	2.20367892325157E-05
1	158	81.5647167940689	1.39114379882813	1.39068603515625	2.010498046875E-06	2.79597156804812E-06	691712.1875	2.22381568164565E-05
1	159	81.6654247938146	1.40121459960938	1.40167236328125	2.03460693359375E-06	2.8518522867671E-06	688915.5625	2.24418436118867E-05
1	160	81.7661327935604	1.41128540039063	1.41082763671875	2.06268310546875E-06	2.9100901883794E-06	683976.9375	2.26481588470051E-05
1	161	81.8668407933061	1.42135620117188	1.42120361328125	2.0947265625E-06	2.97703309115604E-06	678467.375	2.2857500880491E-05
1	162	81.9675487930518	1.43142700195313	1.4312744140625	2.13226318359375E-06	3.0518535822921E-06	671246.625	2.30703462875681E-05
1	163	82.0682567927976	1.44149780273438	1.44073486328125	2.1771240234375E-06	3.13665827889054E-06	661760.625	2.32873408094747E-05
1	164	82.1689647925433	1.45156860351563	1.451416015625	2.2320556640625E-06	3.23964104609331E-06	650259.8125	2.35093611991033E-05
1	165	82.269672792289	1.46163940429688	1.461181640625	2.2991943359375E-06	3.35954041474906E-06	635519	2.37375279539265E-05
1	166	82.3703807920348	1.47171020507813	1.47186279296875	2.38189697265625E-06	3.50582536157162E-06	617937.25	2.39732398767956E-05
1	167	82.4710887917805	1.48178100585938	1.4825439453125	2.481689453125E-06	3.67921347788069E-06	597393.0625	2.42181413341314E-05
1	168	82.5717967915263	1.49185180664063	1.49169921875	2.59918212890625E-06	3.87719819627819E-06	573911	2.44739821937401E-05
1	169	82.672504791272	1.50192260742188	1.50177001953125	2.73223876953125E-06	4.10319398724823E-06	549648.1875	2.47424413828412E-05
1	170	82.7732127910177	1.49185180664063	1.49169921875	2.4102783203125E-06	3.59541013494891E-06	618890.875	2.50013872573618E-05
1	171	82.8739207907635	1.48178100585938	1.48223876953125	2.17498779296875E-06	3.22385108120216E-06	681492.9375	2.52322734013433E-05
1	172	82.9746287905092	1.47171020507813	1.47186279296875	1.99066162109375E-06	2.9299806101335E-06	739383.75	2.54420301644132E-05
1	173	83.0753367902549	1.46163940429688	1.46148681640625	1.8414306640625E-06	2.69122665486066E-06	793669.25	2.56349921983201E-05
1	174	83.1760447900007	1.45156860351563	1.451416015625	1.71875E-06	2.4946211851784E-06	844460.25	2.58142608799972E-05
1	175	83.2767527897464	1.44149780273438	1.4410400390625	1.6156005859375E-06	2.32814522860281E-06	891953.1875	2.59821590589127E-05
1	176	83.3774607894921	1.43142700195313	1.43096923828125	1.53076171875E-06	2.19047274185868E-06	934808.625	2.61405912169721E-05
1	177	83.4781687892379	1.42135620117188	1.4208984375	1.458740234375E-06	2.07272159968852E-06	974058.625	2.62911253230413E-05
1	178	83.5788767889836	1.41128540039063	1.4111328125	1.39739990234375E-06	1.97191684492282E-06	1009827.5	2.64349419012433E-05
1	179	83.6795847887294	1.40121459960938	1.4013671875	1.34490966796875E-06	1.88471221918007E-06	1041978.6875	2.65730286628241E-05
1	180	83.7802927884751	1.39114379882813	1.3916015625	1.2994384765625E-06	1.80830045337643E-06	1070925.375	2.67061823251424E-05
1	181	83.8810007882208	1.38107299804688	1.38031005859375	1.2615966796875E-06	1.74139449882205E-06	1094097.75	2.68351413978962E-05
1	182	83.9817087879666	1.37100219726563	1.37115478515625	1.2286376953125E-06	1.68465237493365E-06	1115996.125	2.69605334324297E-05
1	183	84.0824167877123	1.36093139648438	1.36077880859375	1.19903564453125E-06	1.6316222399837E-06	1134894.375	2.70827767963056E-05
1	184	84.183124787458	1.35086059570313	1.35040283203125	1.17340087890625E-06	1.58456384724559E-06	1150845.25	2.72022389253834E-05
1	185	84.2838327872038	1.34078979492188	1.34063720703125	1.14990234375E-06	1.54160181864427E-06	1165870.5	2.73192272288725E-05
1	186	84.3845407869495	1.33071899414063	1.33087158203125	1.129150390625E-06	1.50275423038693E-06	1178648.625	2.74339854513528E-05
1	187	84.4852487866953	1.32064819335938	1.32080078125	1.11053466796875E-06	1.46679496992874E-06	1189337.75	2.75467627943726E-05
1	188	84.585956786441	1.31057739257813	1.3104248046875	1.092529296875E-06	1.43167744681705E-06	1199441.375	2.76576956821373E-05
1	189	84.6866647861867	1.30050659179688	1.30035400390625	1.07635498046875E-06	1.39964242862334E-06	1208109	2.77669078059262E-05
1	190	84.7873727859325	1.29043579101563	1.29058837890625	1.0614013671875E-06	1.36983226184384E-06	1215928.75	2.78745519608492E-05
1	191	84.8880807856782	1.28036499023438	1.2799072265625	1.04736328125E-06	1.34052788780537E-06	1222028	2.79807372862706E-05
1	192	84.9887887854239	1.27029418945313	1.2701416015625	1.0333251953125E-06	1.31246929413464E-06	1229179	2.8085507437936E-05
1	193	85.0894967851697	1.26022338867188	1.26068115234375	1.0205078125E-06	1.28653482533991E-06	1235347	2.8188927899464E-05
1	194	85.1902047849154	1.25015258789063	1.25030517578125	1.00860595703125E-06	1.26106522202463E-06	1239636.875	2.82911005342612E-05
1	195	85.2909127846611	1.24008178710938	1.240234375	9.9700927734375E-07	1.23652512229455E-06	1243954.75	2.83920926449355E-05
1	196	85.3916207844069	1.23001098632813	1.23016357421875	9.857177734375E-07	1.21259404295415E-06	1247987.625	2.84919296973385E-05
1	197	85.4923287841526	1.21994018554688	1.21978759765625	9.75341796875E-07	1.18970979201549E-06	1250625.75	2.85906771750888E-05
1	198	85.5930367838984	1.20986938476563	1.209716796875	9.65270996093751E-07	1.16770445401926E-06	1253240.625	2.86883951048367E-05
1	199	85.6937447836441	1.19979858398438	1.199951171875	9.5550537109375E-07	1.14655972538458E-06	1255828.875	2.8785114409402E-05
1	200	85.7944527833898	1.18972778320313	1.18927001953125	9.46044921875E-07	1.12510281269351E-06	1257096.75	2.88808641926153E-05
1	201	85.8951607831356	1.17965698242188	1.17950439453125	9.368896484375E-07	1.10506550754508E-06	1258957.625	2.89756771962857E-05
1	202	85.9958687828813	1.16958618164063	1.16943359375	9.27734375E-07	1.08492372419278E-06	1260526.375	2.90695679723285E-05
1	203	86.096576782627	1.15951538085938	1.15936279296875	9.19189453124999E-07	1.06567404145608E-06	1261288.25	2.9162569262553E-05
1	204	86.1972847823728	1.14944458007813	1.1492919921875	9.10034179687499E-07	1.04589491911611E-06	1262910.875	2.92546774289804E-05
1	205	86.2979927821185	1.13937377929688	1.1395263671875	9.01184082031251E-07	1.02692297332396E-06	1264476.75	2.93458797386847E-05
1	206	86.3987007818642	1.12930297851563	1.129150390625	8.929443359375E-07	1.00826844118274E-06	1264525	2.94362216664013E-05
1	207	86.49940878161	1.11923217773438	1.11907958984375	8.8348388671875E-07	9.88688839242968E-07	1266666.625	2.952567228931E-05
1	208	86.6001167813557	1.10916137695313	1.1090087890625	8.7432861328125E-07	9.69638108472282E-07	1268411.875	2.96141843136866E-05
1	209	86.7008247811015	1.09909057617188	1.0986328125	8.64562988281251E-07	9.49837271946308E-07	1270737.75	2.97017450066051E-05
1	210	86.8015327808472	1.08901977539063	1.0888671875	8.5418701171875E-07	9.30096177853557E-07	1274741	2.97882907034364E-05
1	211	86.9022407805929	1.07894897460938	1.07879638671875	8.4259033203125E-07	9.08983395220275E-07	1280333.25	2.98737304547103E-05
1	212	87.0029487803387	1.06887817382813	1.0693359375	8.306884765625E-07	8.88285001110489E-07	1287288.75	2.99579860438826E-05
1	213	87.1036567800844	1.05880737304688	1.0589599609375	8.16650390625E-07	8.64800028921309E-07	1296711.625	3.00409355986631E-05
1	214	87.2043647798301	1.04873657226563	1.04888916015625	8.0078125E-07	8.39930748952611E-07	1309832.375	3.01223808492068E-05
1	215	87.3050727795759	1.03866577148438	1.03851318359375	7.85217285156251E-07	8.15458463421237E-07	1322580.75	3.02022417599801E-05
1	216	87.4057807793216	1.02859497070313	1.0284423828125	7.6873779296875E-07	7.90602484812553E-07	1337832.5	3.02804892271524E-05
1	217	87.5064887790674	1.01852416992188	1.0186767578125	7.53173828125001E-07	7.67240692312043E-07	1352512.125	3.03571232507238E-05
1	218	87.6071967788131	1.00845336914063	1.0089111328125	7.391357421875E-07	7.45722275041771E-07	1364987.625	3.04322675219737E-05
1	219	87.7079047785588	0.998382568359375	0.99822998046875	7.26928710937499E-07	7.25642053112097E-07	1373215.75	3.05060893879272E-05
1	220	87.8086127783046	0.988311767578125	0.98846435546875	7.1746826171875E-07	7.09191795067454E-07	1377711.625	3.05788198602386E-05
1	221	87.9093207780503	0.978240966796875	0.97808837890625	7.10144042968749E-07	6.94583604854415E-07	1377309.875	3.06507063214667E-05
1	222	88.010028777796	0.968170166015625	0.96832275390625	7.04345703125001E-07	6.82033942212001E-07	1374783.375	3.0721930670552E-05
1	223	88.1107367775418	0.958099365234375	0.95794677734375	7.000732421875E-07	6.70632857691089E-07	1368352.25	3.0792649340583E-05
1	224	88.2114447772875	0.948028564453125	0.94818115234375	6.95190429687501E-07	6.59166460081906E-07	1363915.75	3.08629059873056E-05
1	225	88.3121527770332	0.937957763671875	0.9381103515625	6.90612792968751E-07	6.47870990633237E-07	1358373.875	3.09326896967832E-05
1	226	88.412860776779	0.927886962890625	0.92803955078125	6.85729980468749E-07	6.36384527297196E-07	1353360.125	3.10019931930583E-05
1	227	88.5135687765247	0.917816162109375	0.91796875	6.81152343749999E-07	6.2527652744393E-07	1347670.375	3.10708201141097E-05
1	228	88.6142767762705	0.907745361328125	0.90789794921875	6.756591796875E-07	6.13429563145473E-07	1343721.75	3.11391413561068E-05
1	229	88.7149847760162	0.897674560546875	0.89752197265625	6.695556640625E-07	6.00940950334916E-07	1340474	3.12068768835161E-05
1	230	88.8156927757619	0.887603759765625	0.88775634765625	6.640625E-07	5.89525711802708E-07	1336856.625	3.12740303343162E-05
1	231	88.9164007755077	0.877532958984375	0.877685546875	6.57043457031251E-07	5.76677507524437E-07	1335810.625	3.13405544147827E-05
1	232	89.0171087752534	0.867462158203125	0.86761474609375	6.5032958984375E-07	5.64235563160764E-07	1334115.5	3.14063872792758E-05
1	233	89.1178167749991	0.857391357421875	0.85784912109375	6.43005371093749E-07	5.5160160172818E-07	1334124.375	3.14715107379016E-05
1	234	89.2185247747449	0.847320556640625	0.8477783203125	6.365966796875E-07	5.39692848633422E-07	1331735.375	3.1535942980554E-05
1	235	89.3192327744906	0.837249755859375	0.83770751953125	6.298828125E-07	5.2765756208828E-07	1329941.875	3.15997167490423E-05
1	236	89.4199407742364	0.827178955078125	0.82672119140625	6.2408447265625E-07	5.15943838763633E-07	1324694.375	3.16628575092182E-05
1	237	89.5206487739821	0.817108154296875	0.8172607421875	6.170654296875E-07	5.04303386605898E-07	1324431.25	3.17253543471452E-05
1	238	89.6213567737278	0.807037353515625	0.80657958984375	6.1065673828125E-07	4.92543279051461E-07	1320839.625	3.17871745210141E-05
1	239	89.7220647734736	0.796966552734375	0.797119140625	6.0394287109375E-07	4.81414417663473E-07	1319858.5	3.18483362207189E-05
1	240	89.8227727732193	0.786895751953125	0.787353515625	5.950927734375E-07	4.68548392973389E-07	1323076.875	3.19087121170014E-05
1	241	89.923480772965	0.776824951171875	0.7769775390625	5.841064453125E-07	4.53837571967597E-07	1330198.625	3.1968087569112E-05
1	242	90.0241887727108	0.766754150390625	0.7672119140625	5.7037353515625E-07	4.37597350355645E-07	1345104.375	3.20262224704493E-05
1	243	90.1248967724565	0.756683349609375	0.7568359375	5.51757812500001E-07	4.17590143797497E-07	1371681.375	3.2082727557281E-05
1	244	90.2256047722022	0.746612548828125	0.746551513671875	5.279541015625E-07	3.9414493357981E-07	1414046.25	3.21370935125742E-05
1	245	90.326312771948	0.736541748046875	0.736419677734375	4.974365234375E-07	3.66322041145395E-07	1480429.375	3.21887273457833E-05
1	246	90.4270207716937	0.726470947265625	0.726318359375	4.5928955078125E-07	3.33590435275255E-07	1581395.375	3.22369014611468E-05
1	247	90.5277287714395	0.716400146484375	0.716339111328125	4.1473388671875E-07	2.97090082312934E-07	1727226	3.22809100907762E-05
1	248	90.6284367711852	0.706329345703125	0.706207275390625	3.64990234375E-07	2.57758756561088E-07	1934866.25	3.23201747960411E-05
1	249	90.7291447709309	0.696258544921875	0.69622802734375	3.1463623046875E-07	2.19058563288854E-07	2212803.25	3.23543972626794E-05
1	250	90.8298527706767	0.686187744140625	0.686065673828125	2.6885986328125E-07	1.84455515750415E-07	2551759.5	3.23837775795255E-05
1	251	90.9305607704224	0.676116943359375	0.676055908203125	2.34069824218749E-07	1.58244276349251E-07	2888266	3.24091015500017E-05
1	252	91.0312687701681	0.666046142578125	0.66595458984375	2.1331787109375E-07	1.42060002872313E-07	3121888.5	3.24316279147752E-05
1	253	91.1319767699139	0.655975341796875	0.655975341796875	2.0721435546875E-07	1.35927507471933E-07	3165684.75	3.24528045894112E-05
1	254	91.2326847696596	0.645904541015625	0.6458740234375	2.1240234375E-07	1.37185153903374E-07	3040804.75	3.24739339703228E-05
1	255	91.3333927694054	0.635833740234375	0.635711669921875	2.22167968750001E-07	1.41234764328146E-07	2861401	3.24958164128475E-05
1	256	91.4341007691511	0.625762939453125	0.625701904296875	2.3345947265625E-07	1.46076033047393E-07	2680130.75	3.2518757507205E-05
1	257	91.5348087688968	0.615692138671875	0.61566162109375	2.45056152343751E-07	1.50871670712149E-07	2512328.75	3.25428554788232E-05
1	258	91.6355167686426	0.605621337890625	0.605621337890625	2.5634765625E-07	1.55249608724262E-07	2362500	3.25681030517444E-05
1	259	91.7362247683883	0.595550537109375	0.595550537109375	2.667236328125E-07	1.58847399234219E-07	2232837.75	3.25944420183077E-05
1	260	91.836932768134	0.585479736328125	0.585418701171875	2.7587890625E-07	1.6150467274656E-07	2122013.25	3.2621763239149E-05
1	261	91.9376407678798	0.575408935546875	0.57537841796875	2.8411865234375E-07	1.63475732506413E-07	2025134.375	3.26499612128828E-05
1	262	92.0383487676255	0.565338134765625	0.565338134765625	2.9144287109375E-07	1.64763761745235E-07	1939790.625	3.26789413520601E-05
1	263	92.1390567673712	0.555267333984375	0.55523681640625	2.9754638671875E-07	1.65208717817222E-07	1866051.25	3.27086017932743E-05
1	264	92.239764767117	0.545196533203125	0.545196533203125	3.02734374999999E-07	1.65049726774669E-07	1800907.25	3.27388261212036E-05
1	265	92.3404727668627	0.535125732421875	0.53509521484375	3.07312011718749E-07	1.64441189554054E-07	1741211.5	3.27695452142507E-05
1	266	92.4411807666085	0.525054931640625	0.524993896484375	3.1097412109375E-07	1.63259514351921E-07	1688223.75	3.28006790368818E-05
1	267	92.5418887663542	0.514984130859375	0.51495361328125	3.1463623046875E-07	1.62023056304861E-07	1636663.5	3.28321802953724E-05
1	268	92.6425967660999	0.504913330078125	0.504913330078125	3.1707763671875E-07	1.60096718104796E-07	1592396.625	3.28639907820616E-05
1	269	92.7433047658457	0.494842529296875	0.494873046875	3.192138671875E-07	1.57970333702906E-07	1550286.875	3.28960304614156E-05
1	270	92.8440127655914	0.484771728515625	0.48480224609375	3.2073974609375E-07	1.55495342823997E-07	1511512.875	3.29282556776889E-05
1	271	92.9447207653371	0.474700927734375	0.47467041015625	3.22875976562501E-07	1.53259662738492E-07	1470132.375	3.29606627929024E-05
1	272	93.0454287650829	0.464630126953125	0.464630126953125	3.2379150390625E-07	1.5044328449676E-07	1434967.125	3.29932263412047E-05
1	273	93.1461367648286	0.454559326171875	0.45458984375	3.2470703125E-07	1.47608517409026E-07	1400000	3.30258808389772E-05
1	274	93.2468447645743	0.444488525390625	0.4444580078125	3.2501220703125E-07	1.4445427609644E-07	1367511.75	3.30585971823893E-05
1	275	93.3475527643201	0.434417724609375	0.4344482421875	3.2501220703125E-07	1.41200970915634E-07	1336713.625	3.30913280777168E-05
1	276	93.4482607640658	0.424346923828125	0.424407958984375	3.2501220703125E-07	1.37937760769091E-07	1305821.625	3.31240589730442E-05
1	277	93.5489687638116	0.414276123046875	0.414276123046875	3.2501220703125E-07	1.34644793092775E-07	1274647.875	3.31567898683716E-05
1	278	93.6496767635573	0.404205322265625	0.404266357421875	3.24401855468751E-07	1.31144744841549E-07	1246190.125	3.31894916598685E-05
1	279	93.750384763303	0.394134521484375	0.394134521484375	3.24096679687499E-07	1.2773769242358E-07	1216101.75	3.3222146157641E-05
1	280	93.8510927630488	0.384063720703125	0.384063720703125	3.23486328125E-07	1.24239363685774E-07	1187264.125	3.32547533616889E-05
1	281	93.9518007627945	0.373992919921875	0.373992919921875	3.23486328125E-07	1.20981596296588E-07	1156132.125	3.32873314619064E-05
1	282	94.0525087625402	0.363922119140625	0.36395263671875	3.23486328125E-07	1.17733698346001E-07	1125094.375	3.33199095621239E-05
1	283	94.153216762286	0.353851318359375	0.3538818359375	3.22265625E-07	1.14043942289754E-07	1098106.125	3.33524258167017E-05
1	284	94.2539247620317	0.343780517578125	0.343841552734375	3.2196044921875E-07	1.1070337535557E-07	1067962.125	3.33848656737246E-05
1	285	94.3546327617775	0.333709716796875	0.333709716796875	3.21350097656251E-07	1.07237646318481E-07	1038461.5625	3.34172582370229E-05
1	286	94.4553407615232	0.323638916015625	0.323699951171875	3.2073974609375E-07	1.03823431629735E-07	1009229.375	3.34495889546815E-05
1	287	94.5560487612689	0.313568115234375	0.31353759765625	3.19824218750001E-07	1.0027691388359E-07	980343.5625	3.34818432747852E-05
1	288	94.6567567610147	0.303497314453125	0.303466796875	3.18298339843751E-07	9.65929771723495E-08	953403.6875	3.35139775415882E-05
1	289	94.7574647607604	0.293426513671875	0.293365478515625	3.1707763671875E-07	9.30196293325025E-08	925216.625	3.35459699272178E-05
1	290	94.8581727605061	0.283355712890625	0.283355712890625	3.14941406249999E-07	8.92404443675332E-08	899709.375	3.35777949658222E-05
1	291	94.9588807602519	0.273284912109375	0.273223876953125	3.125E-07	8.53824602131681E-08	874316.4375	3.3609387173783E-05
1	292	95.0595887599976	0.263214111328125	0.263214111328125	3.1005859375E-07	8.16117946556005E-08	848917.3125	3.36407356371637E-05
1	293	95.1602967597433	0.253143310546875	0.253173828125	3.07312011718749E-07	7.78033566462E-08	823833.1875	3.36718258040491E-05
1	294	95.2610047594891	0.243072509765625	0.24310302734375	3.04565429687501E-07	7.40407770649654E-08	798196.4375	3.37026358465664E-05
1	295	95.3617127592348	0.233001708984375	0.233001708984375	3.009033203125E-07	7.01109854617243E-08	774340.8125	3.37331221089698E-05
1	296	95.4624207589806	0.222930908203125	0.222930908203125	2.9632568359375E-07	6.60601529034466E-08	752317.1875	3.37631936417893E-05
1	297	95.5631287587263	0.212860107421875	0.21282958984375	2.9144287109375E-07	6.20276665586061E-08	730261.8125	3.37927922373638E-05
1	298	95.663836758472	0.202789306640625	0.20281982421875	2.85949707031249E-07	5.79962708968651E-08	709284.9375	3.382186696399E-05
1	299	95.7645447582178	0.192718505859375	0.19268798828125	2.79541015625E-07	5.38641948821805E-08	689301.3125	3.38503414241131E-05
1	300	95.8652527579635	0.182647705078125	0.1826171875	2.7191162109375E-07	4.96557319706881E-08	671605	3.38781064783689E-05
1	301	95.9659607577092	0.172576904296875	0.172576904296875	2.6123046875E-07	4.50823449682503E-08	660630.8125	3.39049547619652E-05
1	302	96.066668757455	0.162506103515625	0.162567138671875	2.4871826171875E-07	4.04334166148601E-08	653619.625	3.39306316163857E-05
1	303	96.1673767572007	0.152435302734375	0.15240478515625	2.31018066406249E-07	3.52082594190506E-08	659709.375	3.39547877956647E-05
1	304	96.2680847569465	0.142364501953125	0.142425537109375	2.08129882812499E-07	2.96430098245537E-08	684310.875	3.39769030688331E-05
1	305	96.3687927566922	0.132293701171875	0.13232421875	1.77001953125E-07	2.34216450678559E-08	747586.1875	3.39962934958749E-05
1	306	96.4695007564379	0.122222900390625	0.122222900390625	1.33056640625E-07	1.62625681809914E-08	918578.0625	3.40119077009149E-05
1	307	96.5702087561837	0.112152099609375	0.1121826171875	7.26318359375006E-08	8.14802891824229E-09	1544537.875	3.40222650265787E-05
1	308	96.6709167559294	0.102081298828125	0.10211181640625	-1.068115234375E-08	-1.0906717751169E-09	-9560000	3.40253827744164E-05
1	309	96.7716247556751	0.092010498046875	0.09197998046875	-1.22680664062499E-07	-1.12841647137429E-08	-749751.25	3.40186670655385E-05
1	310	96.8723327554209	0.081939697265625	0.08203125	-2.7130126953125E-07	-2.22551825856954E-08	-302362.1875	3.39988291671034E-05
1	311	96.9730407551666	0.071868896484375	0.071929931640625	-4.6234130859375E-07	-3.32561782556695E-08	-155577.5625	3.39618891302962E-05
1	312	97.0737487549123	0.061798095703125	0.06182861328125	-6.9580078125E-07	-4.30203961343523E-08	-88859.65625	3.39035723300185E-05
1	313	97.1744567546581	0.051727294921875	0.051788330078125	-9.65576171875E-07	-5.00055783447806E-08	-53634.63671875	3.38199133693706E-05
1	314	97.2751647544038	0.041656494140625	0.04173583984375	-1.253662109375E-06	-5.23226368898122E-08	-33291.140625	3.37081655743532E-05
1	315	97.3758727541496	0.031585693359375	0.0316680908203125	-1.536865234375E-06	-4.86695839185813E-08	-20605.638671875	3.35676522809081E-05
1	316	97.4765807538953	0.021514892578125	0.021624755859375	-1.78131103515625E-06	-3.85204117492322E-08	-12139.7978515625	3.3400567190256E-05
1	317	97.577288753641	0.011444091796875	0.011517333984375	-1.96685791015625E-06	-2.26529568436717E-08	-5855.7021484375	3.32118324877229E-05
1	318	97.6779967533868	0.001373291015625	0.001495361328125	-2.07916259765625E-06	-3.10909942236037E-09	-719.213256835938	3.30081020365469E-05
1	319	97.7787047531325	-0.008697509765625	-0.00859985351562501	-2.12005615234375E-06	1.82321713282363E-08	4056.42724609375	3.27966517943423E-05
1	320	97.8794127528782	-0.018768310546875	-0.018658447265625	-2.103271484375E-06	3.92437833340864E-08	8871.1552734375	3.2583990105195E-05
1	321	97.980120752624	-0.028839111328125	-0.0287445068359375	-2.047119140625E-06	5.88434296844298E-08	14041.443359375	3.23750027746428E-05
1	322	98.0808287523697	-0.038909912109375	-0.0387451171875	-1.96807861328125E-06	7.62534355658318E-08	19686.7734375	3.21728221024387E-05
1	323	98.1815367521154	-0.048980712890625	-0.048822021484375	-1.88079833984375E-06	9.1824375658689E-08	25958.138671875	3.19790160574485E-05
1	324	98.2822447518612	-0.059051513671875	-0.0589599609375	-1.7926025390625E-06	1.05691768226279E-07	32890.70703125	3.17940430250019E-05
1	325	98.3829527516069	-0.069122314453125	-0.069061279296875	-1.7083740234375E-06	1.179824877795E-07	40425.15234375	3.16177574859466E-05
1	326	98.4836607513527	-0.079193115234375	-0.079193115234375	-1.63238525390625E-06	1.29273672655472E-07	48513.7421875	3.14495373459067E-05
1	327	98.5843687510984	-0.089263916015625	-0.0892333984375	-1.5631103515625E-06	1.39481642236206E-07	57087.07421875	3.12886295432691E-05
1	328	98.6850767508441	-0.099334716796875	-0.099212646484375	-1.5020751953125E-06	1.49024856455071E-07	66050.390625	3.11342846543994E-05
1	329	98.7857847505899	-0.109405517578125	-0.109283447265625	-1.448974609375E-06	1.58348939294228E-07	75421.234375	3.09856877720449E-05
1	330	98.8864927503356	-0.119476318359375	-0.119384765625	-1.40228271484375E-06	1.67411187135258E-07	85136.015625	3.0842114938423E-05
1	331	98.9872007500813	-0.129547119140625	-0.1295166015625	-1.3616943359375E-06	1.7636202187532E-07	95114.296875	3.07029404211789E-05
1	332	99.0879087498271	-0.139617919921875	-0.1395263671875	-1.3262939453125E-06	1.85052982715206E-07	105200.1796875	3.05675894196611E-05
1	333	99.1886167495728	-0.149688720703125	-0.149566650390625	-1.2957763671875E-06	1.93804922332674E-07	115426.2890625	3.04355562548153E-05
1	334	99.2893247493186	-0.159759521484375	-0.15960693359375	-1.26953125E-06	2.02625983547478E-07	125721.15625	3.03063825413119E-05
1	335	99.3900327490643	-0.169830322265625	-0.16973876953125	-1.2469482421875E-06	2.11655446946679E-07	136123.359375	3.01796681014821E-05
1	336	99.49074074881	-0.179901123046875	-0.179779052734375	-1.22772216796875E-06	2.20718717969248E-07	146433.015625	3.00550582323922E-05
1	337	99.5914487485558	-0.189971923828125	-0.1898193359375	-1.21185302734375E-06	2.30033137427199E-07	156635.609375	2.99322164210025E-05
1	338	99.6921567483015	-0.200042724609375	-0.199920654296875	-1.197509765625E-06	2.39406915625295E-07	166947	2.98108952847542E-05
1	339	99.7928647480472	-0.189971923828125	-0.189849853515625	-1.04888916015625E-06	1.99131434897026E-07	181000.890625	2.96977796097053E-05
2	340	99.893572747793	-0.179901123046875	-0.17974853515625	-9.46960449218751E-07	1.70214747186037E-07	189816.3125	2.95972804451594E-05
2	341	99.9942807475387	-0.169830322265625	-0.169677734375	-8.6517333984375E-07	1.46800644529321E-07	196119.9375	2.95060326607199E-05
2	342	100.094988747284	-0.159759521484375	-0.15960693359375	-7.965087890625E-07	1.27128316762537E-07	200383.15625	2.94223609671462E-05
2	343	100.19569674703	-0.149688720703125	-0.149566650390625	-7.36389160156251E-07	1.10139261266795E-07	203108.171875	2.93451721518068E-05
2	344	100.296404746776	-0.139617919921875	-0.1395263671875	-6.8267822265625E-07	9.52516074903542E-08	204380.875	2.92737167910673E-05
2	345	100.397112746522	-0.129547119140625	-0.129486083984375	-6.329345703125E-07	8.19562160359055E-08	204580.53125	2.92074710159795E-05
2	346	100.497820746267	-0.119476318359375	-0.119354248046875	-5.86853027343751E-07	7.00433986366988E-08	203380.140625	2.914604920079E-05
2	347	100.598528746013	-0.109405517578125	-0.1092529296875	-5.42602539062501E-07	5.92809179522646E-08	201349.828125	2.90891766780987E-05
2	348	100.699236745759	-0.099334716796875	-0.0992431640625	-4.99572753906249E-07	4.9579181649051E-08	198656.078125	2.90366988338064E-05
2	349	100.799944745505	-0.089263916015625	-0.089202880859375	-4.5440673828125E-07	4.05343882903253E-08	196306.25	2.89886629616376E-05
2	350	100.90065274525	-0.079193115234375	-0.079193115234375	-4.08325195312501E-07	3.23365441090573E-08	193946.203125	2.89452200377127E-05
2	351	101.001360744996	-0.069122314453125	-0.06903076171875	-3.558349609375E-07	2.45635565221392E-08	193996.578125	2.89067411358701E-05
2	352	101.102068744742	-0.059051513671875	-0.059051513671875	-2.95104980468749E-07	1.74263945496023E-08	200103.421875	2.88739647658076E-05
2	353	101.202776744488	-0.048980712890625	-0.0488494873046875	-2.20642089843751E-07	1.07782520686328E-08	221396.96875	2.88479950540932E-05
2	354	101.303484744233	-0.038909912109375	-0.03876953125	-1.2786865234375E-07	4.95740737349593E-09	303198.125	2.88304454443278E-05
2	355	101.404192743979	-0.028839111328125	-0.0286895751953125	-8.23974609374945E-09	2.36394792629824E-10	3481852	2.88235914922552E-05
2	356	101.504900743725	-0.018768310546875	-0.018634033203125	1.45568847656249E-07	-2.71253464134702E-09	-128008.3828125	2.88305072899675E-05
2	357	101.60560874347	-0.008697509765625	-0.00858459472656251	3.375244140625E-07	-2.89751000970284E-09	-25433.99609375	2.88548326352611E-05
2	358	101.706316743216	0.001373291015625	0.001495361328125	5.72509765625E-07	8.56108961500013E-10	2611.9404296875	2.89006566163152E-05
2	359	101.807024742962	0.011444091796875	0.0115631103515625	8.46252441406251E-07	9.7853103397938E-09	13663.90234375	2.89720974251395E-05
2	360	101.907732742708	0.021514892578125	0.0215972900390625	1.14288330078125E-06	2.46831834971317E-08	18897.1953125	2.90722582576564E-05
2	361	102.008440742453	0.031585693359375	0.0316925048828125	1.43829345703125E-06	4.55831212775593E-08	22034.796875	2.92022305075079E-05
2	362	102.109148742199	0.041656494140625	0.041741943359375	1.70623779296875E-06	7.12216845499825E-08	24464.318359375	2.93605698971078E-05
2	363	102.209856741945	0.051727294921875	0.0517578125	1.91864013671875E-06	9.9304607203976E-08	26976.302734375	2.9543098207796E-05
2	364	102.310564741691	0.061798095703125	0.061859130859375	2.060546875E-06	1.27463636090397E-07	30020.734375	2.97434653475648E-05
2	365	102.411272741436	0.071868896484375	0.071868896484375	2.12890625E-06	1.53002133629343E-07	33758.6015625	2.99544208246516E-05
2	366	102.511980741182	0.081939697265625	0.08203125	2.1380615234375E-06	1.75387853573739E-07	38367.11328125	3.01692798529984E-05
2	367	102.612688740928	0.092010498046875	0.09210205078125	2.1002197265625E-06	1.93434544826232E-07	43853.53125	3.03826946037589E-05
2	368	102.713396740674	0.102081298828125	0.10211181640625	2.0355224609375E-06	2.07850888500616E-07	50164.921875	3.05909452436026E-05
2	369	102.814104740419	0.112152099609375	0.112213134765625	1.9573974609375E-06	2.19645698962267E-07	57327.72265625	3.07920054183342E-05
2	370	102.914812740165	0.122222900390625	0.122283935546875	1.87530517578125E-06	2.29319681466222E-07	65207.48828125	3.09849965560716E-05
2	371	103.015520739911	0.132293701171875	0.132354736328125	1.79534912109375E-06	2.37622941767768E-07	73720.8984375	3.11698277073447E-05
2	372	103.116228739657	0.142364501953125	0.142425537109375	1.72210693359375E-06	2.45271991161644E-07	82704.2421875	3.13469463435467E-05
2	373	103.216936739402	0.152435302734375	0.152496337890625	1.6546630859375E-06	2.52330039529625E-07	92161.5703125	3.15169818350114E-05
2	374	103.317644739148	0.162506103515625	0.16253662109375	1.59454345703125E-06	2.59171685002002E-07	101933.015625	3.16805926559027E-05
2	375	103.418352738894	0.172576904296875	0.172576904296875	1.54144287109375E-06	2.66017451622247E-07	111958.0234375	3.18384991260245E-05
2	376	103.519060738639	0.182647705078125	0.18267822265625	1.49444580078125E-06	2.73002683570667E-07	122238.109375	3.19913706334773E-05
2	377	103.619768738385	0.192718505859375	0.192779541015625	1.4520263671875E-06	2.79920982393378E-07	132765.875	3.2139738323167E-05
2	378	103.720476738131	0.202789306640625	0.202789306640625	1.4154052734375E-06	2.87029052969956E-07	143272.96875	3.22841224260628E-05
2	379	103.821184737877	0.212860107421875	0.21282958984375	1.3824462890625E-06	2.94225486641153E-07	153951.4375	3.24250067933463E-05
2	380	103.921892737622	0.222930908203125	0.22296142578125	1.3531494140625E-06	3.01700112004255E-07	164772.21875	3.2562755222898E-05
2	381	104.022600737368	0.233001708984375	0.23297119140625	1.32720947265625E-06	3.09201567461059E-07	175534.609375	3.26977205986623E-05
2	382	104.123308737114	0.243072509765625	0.2430419921875	1.3043212890625E-06	3.17004833050305E-07	186335.984375	3.28302303387318E-05
2	383	104.22401673686	0.253143310546875	0.25311279296875	1.2835693359375E-06	3.24887821534503E-07	197194.484375	3.2960539101623E-05
2	384	104.324724736605	0.263214111328125	0.263214111328125	1.26434326171875E-06	3.32792978952057E-07	208182.46875	3.30888360622339E-05
2	385	104.425432736351	0.273284912109375	0.27325439453125	1.24725341796875E-06	3.40817479127509E-07	219084.90625	3.32153067574836E-05
2	386	104.526140736097	0.283355712890625	0.2833251953125	1.231689453125E-06	3.48968654861892E-07	230029.734375	3.33401294483338E-05
2	387	104.626848735843	0.293426513671875	0.293365478515625	1.21826171875E-06	3.57395919081682E-07	240806.625	3.3463496947661E-05
2	388	104.727556735588	0.303497314453125	0.303497314453125	1.20574951171875E-06	3.65941730251507E-07	251708.421875	3.35855547746178E-05
2	389	104.828264735334	0.313568115234375	0.3135986328125	1.1944580078125E-06	3.74580366724331E-07	262544.71875	3.3706415706547E-05
2	390	104.92897273508	0.323638916015625	0.3236083984375	1.18377685546875E-06	3.83080106303169E-07	273369.4375	3.382616705494E-05
2	391	105.029680734826	0.333709716796875	0.333740234375	1.1749267578125E-06	3.92120341530244E-07	284051.9375	3.39449397870339E-05
2	392	105.130388734571	0.343780517578125	0.343780517578125	1.16668701171875E-06	4.0108423604579E-07	294663.875	3.40628466801718E-05
2	393	105.231096734317	0.353851318359375	0.353851318359375	1.15936279296875E-06	4.10242051884779E-07	305211.90625	3.41799750458449E-05
2	394	105.331804734063	0.363922119140625	0.363983154296875	1.15325927734375E-06	4.19766962522772E-07	315612.59375	3.42964231094811E-05
2	395	105.432512733808	0.373992919921875	0.37396240234375	1.14715576171875E-06	4.28993132572941E-07	325990.9375	3.44122599926777E-05
2	396	105.533220733554	0.384063720703125	0.38409423828125	1.142578125E-06	4.38857654216918E-07	336164.53125	3.45275548170321E-05
2	397	105.6339287333	0.394134521484375	0.3941650390625	1.1383056640625E-06	4.48680282261193E-07	346273.46875	3.46424094459508E-05
2	398	105.734636733046	0.404205322265625	0.40423583984375	1.13494873046875E-06	4.58786928447807E-07	356171.03125	3.47568748111371E-05
2	399	105.835344732791	0.414276123046875	0.414306640625	1.1322021484375E-06	4.69078855758198E-07	365929.9375	3.48710345861036E-05
2	400	105.936052732537	0.424346923828125	0.424285888671875	1.13037109375E-06	4.79600487324205E-07	375350.96875	3.49849651684053E-05
2	401	106.036760732283	0.434417724609375	0.43438720703125	1.1285400390625E-06	4.90223328597494E-07	384910.78125	3.50987102137879E-05
2	402	106.137468732029	0.444488525390625	0.444427490234375	1.12701416015625E-06	5.00876069509104E-07	394340.65625	3.52122879121453E-05
2	403	106.238176731774	0.454559326171875	0.454559326171875	1.12640380859375E-06	5.12017322762404E-07	403549.1875	3.53257564711384E-05
2	404	106.33888473152	0.464630126953125	0.464599609375	1.12579345703125E-06	5.23043183875416E-07	412686.375	3.54391631844919E-05
2	405	106.439592731266	0.474700927734375	0.474639892578125	1.12579345703125E-06	5.34346497715887E-07	421604.78125	3.55525371560361E-05
2	406	106.540300731012	0.484771728515625	0.48468017578125	1.12579345703125E-06	5.4564975471294E-07	430523.1875	3.56659147655591E-05
2	407	106.641008730757	0.494842529296875	0.494781494140625	1.126708984375E-06	5.57474777451716E-07	439138.6875	3.57793360308278E-05
2	408	106.741716730503	0.504913330078125	0.504852294921875	1.1279296875E-06	5.69437872854905E-07	447592	3.58928664354607E-05
2	409	106.842424730249	0.514984130859375	0.514984130859375	1.13006591796875E-06	5.81965991841571E-07	455711.59375	3.60065678250976E-05
2	410	106.943132729995	0.525054931640625	0.52496337890625	1.13250732421875E-06	5.9452486311784E-07	463540.8125	3.61204947694205E-05
2	411	107.04384072974	0.535125732421875	0.53509521484375	1.13494873046875E-06	6.07305594257923E-07	471470.84375	3.6234672734281E-05
2	412	107.144548729486	0.545196533203125	0.545135498046875	1.13800048828125E-06	6.20364460246492E-07	479029.25	3.63491235475522E-05
2	413	107.245256729232	0.555267333984375	0.555267333984375	1.14227294921875E-06	6.34266825727536E-07	486107.40625	3.64639454346616E-05
2	414	107.345964728977	0.565338134765625	0.5653076171875	1.1468505859375E-06	6.48323350560531E-07	492921.78125	3.65792111551855E-05
2	415	107.446672728723	0.575408935546875	0.57537841796875	1.1529541015625E-06	6.63384867038985E-07	499047.15625	3.66950152965728E-05
2	416	107.547380728469	0.585479736328125	0.585479736328125	1.15997314453125E-06	6.79140725878824E-07	504735.625	3.68114815501031E-05
2	417	107.648088728215	0.595550537109375	0.59552001953125	1.168212890625E-06	6.95694154728699E-07	509770.125	3.69287154171616E-05
2	418	107.74879672796	0.605621337890625	0.605621337890625	1.17919921875E-06	7.14148200131604E-07	513586.96875	3.70469169865828E-05
2	419	107.849504727706	0.615692138671875	0.61566162109375	1.19232177734375E-06	7.34066759378038E-07	516355.28125	3.71663300029468E-05
2	420	107.950212727452	0.625762939453125	0.625701904296875	1.209716796875E-06	7.56922077016497E-07	517230.09375	3.72872818843462E-05
2	421	108.050920727198	0.635833740234375	0.63580322265625	1.23138427734375E-06	7.82918050390435E-07	516332.125	3.74102019122802E-05
2	422	108.151628726943	0.645904541015625	0.645843505859375	1.25885009765625E-06	8.13020108125784E-07	513042.4375	3.7535595765803E-05
2	423	108.252336726689	0.655975341796875	0.655914306640625	1.2933349609375E-06	8.48316858537146E-07	507149.625	3.76641073671635E-05
2	424	108.353044726435	0.666046142578125	0.665924072265625	1.33392333984375E-06	8.88291594947077E-07	499222.1875	3.77964024664834E-05
2	425	108.453752726181	0.676116943359375	0.676055908203125	1.3800048828125E-06	9.32960404043115E-07	489893.875	3.7933059502393E-05
2	426	108.554460725926	0.686187744140625	0.686187744140625	1.4276123046875E-06	9.79610035756195E-07	480654.15625	3.80744349968154E-05
2	427	108.655168725672	0.696258544921875	0.696136474609375	1.4727783203125E-06	1.02525473266724E-06	472668.875	3.82204816560261E-05
2	428	108.755876725418	0.706329345703125	0.70623779296875	1.51092529296875E-06	1.06707250324689E-06	467420.75	3.83707229048014E-05
2	429	108.856584725164	0.716400146484375	0.71630859375	1.5386962890625E-06	1.10218127247208E-06	465529.5625	3.85242819902487E-05
2	430	108.957292724909	0.726470947265625	0.726318359375	1.5545654296875E-06	1.1291093642285E-06	467216.34375	3.86800384148955E-05
2	431	109.058000724655	0.736541748046875	0.7364501953125	1.5606689453125E-06	1.14935494366364E-06	471881.125	3.88369044230785E-05
2	432	109.158708724401	0.746612548828125	0.746551513671875	1.5594482421875E-06	1.16420835638564E-06	478728	3.89940141758416E-05
2	433	109.259416724146	0.756683349609375	0.7568359375	1.5533447265625E-06	1.1756270623664E-06	487229.875	3.91507564927451E-05
2	434	109.360124723892	0.766754150390625	0.7672119140625	1.54510498046875E-06	1.18542288873869E-06	496543.5625	3.93067748518661E-05
2	435	109.460832723638	0.776824951171875	0.77667236328125	1.53533935546875E-06	1.19245555652014E-06	505863.6875	3.9461887354264E-05
2	436	109.561540723384	0.786895751953125	0.78704833984375	1.52618408203125E-06	1.20118068025477E-06	515696.875	3.96160467062145E-05
2	437	109.662248723129	0.796966552734375	0.797119140625	1.51763916015625E-06	1.20973925277212E-06	525236.3125	3.97693183913361E-05
2	438	109.762956722875	0.807037353515625	0.80718994140625	1.51031494140625E-06	1.21911091355287E-06	534451.4375	3.99217860831413E-05
2	439	109.863664722621	0.817108154296875	0.8172607421875	1.50360107421875E-06	1.22883409403585E-06	543535.625	4.0073548007058E-05
2	440	109.964372722367	0.827178955078125	0.8270263671875	1.49932861328125E-06	1.23998427170591E-06	551597.8125	4.02247605961747E-05
2	441	110.065080722112	0.837249755859375	0.83740234375	1.4959716796875E-06	1.25273015783023E-06	559771.5	4.03755839215592E-05
2	442	110.165788721858	0.847320556640625	0.8477783203125	1.49322509765625E-06	1.26592385640834E-06	567749.8125	4.05261016567238E-05
2	443	110.266496721604	0.857391357421875	0.8575439453125	1.49200439453125E-06	1.27945929762063E-06	574759.6875	4.0676419303054E-05
2	444	110.36720472135	0.867462158203125	0.86761474609375	1.49139404296875E-06	1.29395539261168E-06	581747.5	4.0826645999914E-05
2	445	110.467912721095	0.877532958984375	0.87738037109375	1.49078369140625E-06	1.30798434838653E-06	588536.3125	4.09768108511344E-05
2	446	110.568620720841	0.887603759765625	0.88775634765625	1.4910888671875E-06	1.32372360894806E-06	595374.5625	4.11269611504395E-05
2	447	110.669328720587	0.897674560546875	0.89752197265625	1.4923095703125E-06	1.33938056023908E-06	601431.5	4.12771878472995E-05
2	448	110.770036720333	0.907745361328125	0.90789794921875	1.49322509765625E-06	1.35569598569418E-06	608011.4375	4.1427520045545E-05
2	449	110.870744720078	0.917816162109375	0.91796875	1.49444580078125E-06	1.37185452331323E-06	614253.625	4.15779613831546E-05
2	450	110.971452719824	0.927886962890625	0.9283447265625	1.49749755859375E-06	1.39019391554029E-06	619930.75	4.17286173615139E-05
2	451	111.07216071957	0.937957763671875	0.93780517578125	1.50054931640625E-06	1.40722283958894E-06	624974.625	4.18795825680718E-05
2	452	111.172868719315	0.948028564453125	0.94818115234375	1.50482177734375E-06	1.42684359616396E-06	630095.3125	4.20309152104892E-05
2	453	111.273576719061	0.958099365234375	0.95794677734375	1.50970458984375E-06	1.44621662911959E-06	634526	4.21827062382363E-05
2	454	111.374284718807	0.968170166015625	0.96832275390625	1.51580810546875E-06	1.46779143506137E-06	638816.1875	4.23350538767409E-05
2	455	111.474992718553	0.978240966796875	0.9783935546875	1.5240478515625E-06	1.49111849623296E-06	641970.375	4.24881218350492E-05
2	456	111.575700718298	0.988311767578125	0.98846435546875	1.53411865234375E-06	1.51642154833098E-06	644320.6875	4.26421138399746E-05
2	457	111.676408718044	0.998382568359375	0.99853515625	1.5447998046875E-06	1.54253677919769E-06	646384.875	4.27971499448176E-05
2	458	111.77711671779	1.00845336914063	1.00830078125	1.5557861328125E-06	1.56870032697043E-06	648097.3125	4.29532774433028E-05
2	459	111.877824717536	1.01852416992188	1.0186767578125	1.56768798828125E-06	1.59696730861469E-06	649795.625	4.3110554543091E-05
2	460	111.978532717281	1.02859497070313	1.0284423828125	1.57806396484375E-06	1.6229478205787E-06	651711.5	4.32689557783306E-05
2	461	112.079240717027	1.03866577148438	1.038818359375	1.58660888671875E-06	1.6481983493577E-06	654741.3125	4.34283101640176E-05
2	462	112.179948716773	1.04873657226563	1.04888916015625	1.59271240234375E-06	1.67057874023158E-06	658555.3125	4.35884030594025E-05
2	463	112.280656716519	1.05880737304688	1.0589599609375	1.59698486328125E-06	1.69114298387285E-06	663099.5625	4.37490161857568E-05
2	464	112.381364716264	1.06887817382813	1.0693359375	1.5985107421875E-06	1.70934492871311E-06	668957.625	4.39099239883944E-05
2	465	112.48207271601	1.07894897460938	1.07879638671875	1.5985107421875E-06	1.72446755186684E-06	674875.9375	4.40709045506082E-05
2	466	112.582780715756	1.08901977539063	1.0888671875	1.5985107421875E-06	1.74056583546189E-06	681176	4.42318887508009E-05
2	467	112.683488715502	1.09909057617188	1.0986328125	1.597900390625E-06	1.7555057638674E-06	687547.75	4.43928402091842E-05
2	468	112.784196715247	1.10916137695313	1.10931396484375	1.5972900390625E-06	1.77189599526173E-06	694497.5625	4.45537298219278E-05
2	469	112.884904714993	1.11923217773438	1.11907958984375	1.59698486328125E-06	1.78715310994448E-06	700745.3125	4.47145757789258E-05
2	470	112.985612714739	1.12930297851563	1.1297607421875	1.5966796875E-06	1.80386598458426E-06	707568.8125	4.48753889941145E-05
2	471	113.086320714484	1.13937377929688	1.1395263671875	1.5972900390625E-06	1.82015401151148E-06	713412.3125	4.50362167612184E-05
2	472	113.18702871423	1.14944458007813	1.14959716796875	1.5985107421875E-06	1.83764336725289E-06	719167.625	4.51971391157713E-05
2	473	113.287736713976	1.15951538085938	1.15966796875	1.600341796875E-06	1.85586509360292E-06	724637.6875	4.53582142654341E-05
2	474	113.388444713722	1.16958618164063	1.16973876953125	1.60308837890625E-06	1.8751945844997E-06	729678.3125	4.55195186077617E-05
2	475	113.489152713467	1.17965698242188	1.17950439453125	1.60552978515625E-06	1.8937294044008E-06	734651.25	4.56810885225423E-05
2	476	113.589860713213	1.18972778320313	1.18988037109375	1.60980224609375E-06	1.91547201211506E-06	739146.9375	4.58429931313731E-05
2	477	113.690568712959	1.19979858398438	1.19964599609375	1.61468505859375E-06	1.93705045603565E-06	742959.75	4.60053561255336E-05
2	478	113.791276712705	1.20986938476563	1.20941162109375	1.619873046875E-06	1.95909319700149E-06	746608.875	4.61682320747059E-05
2	479	113.89198471245	1.21994018554688	1.2200927734375	1.6259765625E-06	1.98384213945246E-06	750375.375	4.63316719105933E-05
2	480	113.992692712196	1.23001098632813	1.23046875	1.63299560546875E-06	2.00935005523206E-06	753504	4.64957738586236E-05
2	481	114.093400711942	1.24008178710938	1.2396240234375	1.641845703125E-06	2.03527133635362E-06	755018.625	4.66606761619914E-05
2	482	114.194108711688	1.25015258789063	1.25	1.65069580078125E-06	2.06336972041754E-06	757256.4375	4.6826469770167E-05
2	483	114.294816711433	1.26022338867188	1.26007080078125	1.6607666015625E-06	2.09268341677671E-06	758728.4375	4.69932128908113E-05
2	484	114.395524711179	1.27029418945313	1.27044677734375	1.67266845703125E-06	2.12503618968185E-06	759532.9375	4.71610655949917E-05
2	485	114.496232710925	1.28036499023438	1.28021240234375	1.68487548828125E-06	2.15699833461258E-06	759826.125	4.73301297461148E-05
2	486	114.596940710671	1.29043579101563	1.2908935546875	1.69830322265625E-06	2.19232856579765E-06	760107.8125	4.75004890176933E-05
2	487	114.697648710416	1.30050659179688	1.30035400390625	1.71295166015625E-06	2.22744347411208E-06	759130.625	4.76722561870702E-05
2	488	114.798356710162	1.31057739257813	1.31072998046875	1.7291259765625E-06	2.26641736844613E-06	758030.375	4.78455804113764E-05
2	489	114.899064709908	1.32064819335938	1.32080078125	1.7462158203125E-06	2.3064030756359E-06	756378.9375	4.8020578105934E-05
2	490	114.999772709653	1.33071899414063	1.33026123046875	1.76422119140625E-06	2.34687490774377E-06	754021.8125	4.81973438581917E-05
2	491	115.100480709399	1.34078979492188	1.34033203125	1.78436279296875E-06	2.3916386453493E-06	751154.4375	4.83760268252809E-05
2	492	115.201188709145	1.35086059570313	1.35040283203125	1.80511474609375E-06	2.43763201979164E-06	748098.0625	4.85567725263536E-05
2	493	115.301896708891	1.36093139648438	1.36077880859375	1.826171875E-06	2.4850157842593E-06	745153.75	4.87396209791768E-05
2	494	115.402604708636	1.37100219726563	1.370849609375	1.84844970703125E-06	2.53394637184101E-06	741621.3125	4.89246522192843E-05
2	495	115.503312708382	1.38107299804688	1.3812255859375	1.87164306640625E-06	2.58516115536622E-06	737974.9375	4.91119753860403E-05
2	496	115.604020708128	1.39114379882813	1.3909912109375	1.89605712890625E-06	2.63739866568358E-06	733623.0625	4.93016959808301E-05
2	497	115.704728707874	1.40121459960938	1.4013671875	1.92169189453125E-06	2.69299584942928E-06	729236.1875	4.94939340569545E-05
2	498	115.805436707619	1.41128540039063	1.41082763671875	1.95098876953125E-06	2.75250886261347E-06	723134.6875	4.96889369969722E-05
2	499	115.906144707365	1.42135620117188	1.4215087890625	1.98486328125E-06	2.82150062957953E-06	716174.6875	4.98871231684461E-05
2	500	116.006852707111	1.43142700195313	1.43157958984375	2.02423095703125E-06	2.89784770757251E-06	707221.4375	5.00889982504304E-05
2	501	116.107560706857	1.44149780273438	1.44134521484375	2.0703125E-06	2.98403483611764E-06	696197	5.02951734233648E-05
2	502	116.208268706602	1.45156860351563	1.4520263671875	2.12554931640625E-06	3.08635367218812E-06	683129.9375	5.05064526805654E-05
2	503	116.308976706348	1.46163940429688	1.461181640625	2.1923828125E-06	3.20346930493542E-06	666481.125	5.07238764839713E-05
2	504	116.409684706094	1.47171020507813	1.4715576171875	2.2723388671875E-06	3.34387755174248E-06	647596	5.09486962982919E-05
2	505	116.51039270584	1.48178100585938	1.48162841796875	2.3699951171875E-06	3.51145195054414E-06	625161	5.11824546265416E-05
2	506	116.611100705585	1.49185180664063	1.49169921875	2.48565673828125E-06	3.70785232917115E-06	600122.75	5.14269559062086E-05
2	507	116.711808705331	1.50192260742188	1.50146484375	2.61566162109375E-06	3.92732363252435E-06	574028.75	5.16838263138197E-05
2	508	116.812516705077	1.49185180664063	1.49139404296875	2.31170654296875E-06	3.44766544913E-06	645148.5	5.19319401064422E-05
2	509	116.913224704822	1.48178100585938	1.48223876953125	2.09014892578125E-06	3.09809979626152E-06	709154.625	5.21535912412219E-05
2	510	117.013932704568	1.47171020507813	1.4715576171875	1.917724609375E-06	2.82204223367444E-06	767345.625	5.23554044775665E-05
2	511	117.114640704314	1.46163940429688	1.4617919921875	1.77764892578125E-06	2.59855301010248E-06	822317.625	5.25414798175916E-05
2	512	117.21534870406	1.45156860351563	1.45172119140625	1.66290283203125E-06	2.41407133216853E-06	873004.25	5.27147276443429E-05
2	513	117.316056703805	1.44149780273438	1.44195556640625	1.5667724609375E-06	2.25921621677116E-06	920335.0625	5.28773525729775E-05
2	514	117.416764703551	1.43142700195313	1.4312744140625	1.48712158203125E-06	2.12847885450174E-06	962446.1875	5.30311299371533E-05
2	515	117.517472703297	1.42135620117188	1.4215087890625	1.41998291015625E-06	2.01851798919961E-06	1001074.625	5.31775149283931E-05
2	516	117.618180703043	1.41128540039063	1.41143798828125	1.3629150390625E-06	1.92366996998317E-06	1035602.375	5.33176425960846E-05
2	517	117.718888702788	1.40121459960938	1.4013671875	1.314697265625E-06	1.84237353550998E-06	1065923.875	5.34524733666331E-05
2	518	117.819596702534	1.39114379882813	1.39068603515625	1.27349853515625E-06	1.77103652276855E-06	1092020.125	5.35827966814395E-05
2	519	117.92030470228	1.38107299804688	1.38092041015625	1.23748779296875E-06	1.70887199146819E-06	1115906.375	5.37092382728588E-05
2	520	118.021012702026	1.37100219726563	1.370849609375	1.20635986328125E-06	1.65373785421252E-06	1136352.25	5.38322929060087E-05
2	521	118.121720701771	1.36093139648438	1.361083984375	1.17950439453125E-06	1.60540446358937E-06	1153945.75	5.39524335181341E-05
2	522	118.222428701517	1.35086059570313	1.3507080078125	1.15509033203125E-06	1.56018973029859E-06	1169352.75	5.40699875273276E-05
2	523	118.323136701263	1.34078979492188	1.34124755859375	1.13311767578125E-06	1.51979122620105E-06	1183679	5.41852095921058E-05
2	524	118.423844701009	1.33071899414063	1.3311767578125	1.11328125E-06	1.48197409544082E-06	1195723.75	5.42983252671547E-05
2	525	118.524552700754	1.32064819335938	1.32110595703125	1.094970703125E-06	1.44657224154798E-06	1206521.75	5.44095164514147E-05
2	526	118.6252607005	1.31057739257813	1.31072998046875	1.07818603515625E-06	1.4132106116449E-06	1215680.75	5.45189432159532E-05
2	527	118.725968700246	1.30050659179688	1.3006591796875	1.06231689453125E-06	1.38171219532524E-06	1224360.875	5.46267292520497E-05
2	528	118.826676699991	1.29043579101563	1.29058837890625	1.04736328125E-06	1.35171490001085E-06	1232226.125	5.47329582332168E-05
2	529	118.927384699737	1.28036499023438	1.280517578125	1.03363037109375E-06	1.32358184146142E-06	1238854.375	5.48377465747762E-05
2	530	119.028092699483	1.27029418945313	1.27044677734375	1.0205078125E-06	1.29650072722143E-06	1244916.375	5.49411779502407E-05
2	531	119.128800699229	1.26022338867188	1.2603759765625	1.00860595703125E-06	1.27122279991454E-06	1249621.75	5.50433542230166E-05
2	532	119.229508698974	1.25015258789063	1.25	9.967041015625E-07	1.24588018479699E-06	1254133.5	5.51443299627863E-05
2	533	119.33021669872	1.24008178710938	1.240234375	9.844970703125E-07	1.22100709631923E-06	1259764.375	5.52440906176344E-05
2	534	119.430924698466	1.23001098632813	1.23016357421875	9.7320556640625E-07	1.19720198199502E-06	1264032.75	5.53426689293701E-05
2	535	119.531632698212	1.21994018554688	1.21978759765625	9.625244140625E-07	1.17407535071834E-06	1267279.625	5.54401412955485E-05
2	536	119.632340697957	1.20986938476563	1.20941162109375	9.5184326171875E-07	1.15117029508838E-06	1270599.625	5.553653682E-05
2	537	119.733048697703	1.19979858398438	1.20025634765625	9.4207763671875E-07	1.13073463126057E-06	1274052.5	5.56319027964491E-05
2	538	119.833756697449	1.18972778320313	1.1895751953125	9.320068359375E-07	1.1086921176684E-06	1276358.875	5.57262683287263E-05
2	539	119.934464697195	1.17965698242188	1.1785888671875	9.22241210937499E-07	1.08694325717806E-06	1277961.625	5.58196370548103E-05
2	540	120.03517269694	1.16958618164063	1.16943359375	9.124755859375E-07	1.06707955183083E-06	1281605.375	5.59120235266164E-05
2	541	120.135880696686	1.15951538085938	1.1590576171875	9.0301513671875E-07	1.04664650280029E-06	1283541.75	5.60034422960598E-05
2	542	120.236588696432	1.14944458007813	1.1492919921875	8.929443359375E-07	1.0262536989103E-06	1287081.375	5.60938751732465E-05
2	543	120.337296696178	1.13937377929688	1.1395263671875	8.82873535156251E-07	1.0060576869364E-06	1290701.75	5.6183293054346E-05
2	544	120.438004695923	1.12930297851563	1.12945556640625	8.72192382812501E-07	9.85102474260202E-07	1294961.625	5.62716704735067E-05
2	545	120.538712695669	1.11923217773438	1.11968994140625	8.6212158203125E-07	9.65308800005005E-07	1298761.125	5.63590001547709E-05
2	546	120.639420695415	1.10916137695313	1.1090087890625	8.50830078125001E-07	9.43578015721869E-07	1303443.375	5.64452529943082E-05
2	547	120.74012869516	1.09909057617188	1.0992431640625	8.39843749999999E-07	9.23192487789493E-07	1308866.375	5.6530385336373E-05
2	548	120.840836694906	1.08901977539063	1.0888671875	8.2733154296875E-07	9.00854161045572E-07	1316119.5	5.66143353353254E-05
2	549	120.941544694652	1.07894897460938	1.0791015625	8.148193359375E-07	8.79272818110621E-07	1324344.625	5.66970229556318E-05
2	550	121.042252694398	1.06887817382813	1.06903076171875	7.9986572265625E-07	8.55080998007907E-07	1336512.875	5.67783281439915E-05
2	551	121.142960694143	1.05880737304688	1.05926513671875	7.843017578125E-07	8.3078350598953E-07	1350583.75	5.68580981052946E-05
2	552	121.243668693889	1.04873657226563	1.04888916015625	7.67822265625E-07	8.0536045743429E-07	1366057.25	5.69362528040074E-05
2	553	121.344376693635	1.03866577148438	1.0394287109375	7.4981689453125E-07	7.79381196025497E-07	1386243.375	5.70126721868291E-05
2	554	121.445084693381	1.02859497070313	1.02874755859375	7.31811523437501E-07	7.52849302898539E-07	1405754.875	5.7087279856205E-05
2	555	121.545792693126	1.01852416992188	1.01837158203125	7.14721679687499E-07	7.27852182080824E-07	1424850.625	5.71601158299018E-05
2	556	121.646500692872	1.00845336914063	1.00830078125	6.988525390625E-07	7.04653587035864E-07	1442794.75	5.72312965232413E-05
2	557	121.747208692618	0.998382568359375	0.99822998046875	6.8511962890625E-07	6.83906932863465E-07	1457015.625	5.730098564527E-05
2	558	121.847916692364	0.988311767578125	0.98846435546875	6.73522949218749E-07	6.65753418616077E-07	1467603.125	5.73693978367373E-05
2	559	121.948624692109	0.978240966796875	0.977783203125	6.6497802734375E-07	6.50204356134054E-07	1470399.25	5.74367986700963E-05
2	560	122.049332691855	0.968170166015625	0.968017578125	6.5765380859375E-07	6.36620427485468E-07	1471925.75	5.75033955101389E-05
2	561	122.150040691601	0.958099365234375	0.95794677734375	6.5185546875E-07	6.24442805019498E-07	1469569.375	5.75693375139963E-05
2	562	122.250748691347	0.948028564453125	0.94818115234375	6.46362304687501E-07	6.12868575444736E-07	1466950	5.76347047172021E-05
2	563	122.351456691092	0.937957763671875	0.93841552734375	6.41479492187499E-07	6.01974306846387E-07	1462892.5	5.76995553274173E-05
2	564	122.452164690838	0.927886962890625	0.92803955078125	6.35986328125E-07	5.90220452068024E-07	1459213	5.77638784307055E-05
2	565	122.552872690584	0.917816162109375	0.91766357421875	6.317138671875E-07	5.79700838443387E-07	1452657	5.78277140448336E-05
2	566	122.653580690329	0.907745361328125	0.90789794921875	6.26525878906251E-07	5.68821576507617E-07	1449098.875	5.78910694457591E-05
2	567	122.754288690075	0.897674560546875	0.8978271484375	6.21337890625E-07	5.57853979898937E-07	1444990.25	5.79539046157151E-05
2	568	122.854996689821	0.887603759765625	0.88775634765625	6.15539550781249E-07	5.4644914371238E-07	1442241	5.80161868128926E-05
2	569	122.955704689567	0.877532958984375	0.87738037109375	6.0943603515625E-07	5.34707226051978E-07	1439659.5	5.80778687435668E-05
2	570	123.056412689312	0.867462158203125	0.867919921875	6.03332519531249E-07	5.23644303029869E-07	1438543.25	5.81389394938014E-05
2	571	123.157120689058	0.857391357421875	0.8575439453125	5.96923828125E-07	5.11888401888427E-07	1436605.375	5.81993772357237E-05
2	572	123.257828688804	0.847320556640625	0.8477783203125	5.89599609374999E-07	4.99849761581572E-07	1437888.25	5.82591201236937E-05
2	573	123.35853668855	0.837249755859375	0.83740234375	5.8319091796875E-07	4.88365458295448E-07	1435897.5	5.83181754336692E-05
2	574	123.459244688295	0.827178955078125	0.82733154296875	5.76171875000001E-07	4.76685187322801E-07	1435911	5.83765540795866E-05
2	575	123.559952688041	0.817108154296875	0.81787109375	5.68542480468751E-07	4.64994457161083E-07	1438540	5.84341942158062E-05
2	576	123.660660687787	0.807037353515625	0.80718994140625	5.60302734375E-07	4.52270739970118E-07	1440631.75	5.8491037634667E-05
2	577	123.761368687533	0.796966552734375	0.79742431640625	5.50537109375E-07	4.39011671460321E-07	1448447.875	5.8546971558826E-05
2	578	123.862076687278	0.786895751953125	0.7867431640625	5.3985595703125E-07	4.24727971903849E-07	1457320.625	5.86018795729615E-05
2	579	123.962784687024	0.776824951171875	0.77667236328125	5.2642822265625E-07	4.08862234735352E-07	1475362.375	5.86555688641965E-05
2	580	124.06349268677	0.766754150390625	0.76690673828125	5.108642578125E-07	3.9178524957606E-07	1501194.75	5.87078029639088E-05
2	581	124.164200686516	0.756683349609375	0.7568359375	4.913330078125E-07	3.7185844803389E-07	1540372.75	5.87582653679419E-05
2	582	124.264908686261	0.746612548828125	0.746551513671875	4.669189453125E-07	3.48579021647311E-07	1598889	5.88065195188392E-05
2	583	124.365616686007	0.736541748046875	0.7364501953125	4.35485839843749E-07	3.20713610335588E-07	1691100.25	5.88519578741398E-05
2	584	124.466324685753	0.726470947265625	0.72637939453125	3.9825439453125E-07	2.89283775600779E-07	1823908.125	5.88939401495736E-05
2	585	124.567032685498	0.716400146484375	0.716339111328125	3.5400390625E-07	2.53586847520637E-07	2023534.5	5.8931818784913E-05
2	586	124.667740685244	0.706329345703125	0.706207275390625	3.04565429687501E-07	2.15086316757152E-07	2318737.5	5.89649825997185E-05
2	587	124.76844868499	0.696258544921875	0.6961669921875	2.532958984375E-07	1.76336243384867E-07	2748433.75	5.89930714340881E-05
2	588	124.869156684736	0.686187744140625	0.686126708984375	2.056884765625E-07	1.41128353448039E-07	3335756.75	5.90161835134495E-05
2	589	124.969864684481	0.676116943359375	0.67608642578125	1.6754150390625E-07	1.13272534463249E-07	4035337	5.90349773119669E-05
2	590	125.070572684227	0.666046142578125	0.666046142578125	1.416015625E-07	9.43131723829538E-08	4703664	5.90505442232825E-05
2	591	125.171280683973	0.655975341796875	0.655914306640625	1.30615234375001E-07	8.56724042819224E-08	5021729	5.90642521274276E-05
2	592	125.271988683719	0.645904541015625	0.645904541015625	1.31835937499999E-07	8.51534238677232E-08	4899305.5	5.9077465266455E-05
2	593	125.372696683464	0.635833740234375	0.63580322265625	1.4007568359375E-07	8.90605704739755E-08	4538998	5.90911586186849E-05
2	594	125.47340468321	0.625762939453125	0.625701904296875	1.507568359375E-07	9.43288398502773E-08	4150405	5.91058014833834E-05
2	595	125.574112682956	0.615692138671875	0.615631103515625	1.617431640625E-07	9.95741231690772E-08	3806226.5	5.91215393797029E-05
2	596	125.674820682702	0.605621337890625	0.605621337890625	1.7364501953125E-07	1.05163131536301E-07	3487697.75	5.91384268773254E-05
2	597	125.775528682447	0.595550537109375	0.595550537109375	1.849365234375E-07	1.10139048103974E-07	3220297	5.9156482166145E-05
2	598	125.876236682193	0.585479736328125	0.585418701171875	1.9500732421875E-07	1.14160933151197E-07	3002034.5	5.91756142966915E-05
2	599	125.976944681939	0.575408935546875	0.57537841796875	2.0477294921875E-07	1.17821933542928E-07	2809836	5.91957432334311E-05
2	600	126.077652681685	0.565338134765625	0.5653076171875	2.12707519531249E-07	1.20245175594391E-07	2657675.75	5.92167671129573E-05
2	601	126.17836068143	0.555267333984375	0.555206298828125	2.2003173828125E-07	1.22163001492481E-07	2523301	5.9238554968033E-05
2	602	126.279068681176	0.545196533203125	0.545166015625	2.2705078125E-07	1.23780367289328E-07	2401075.25	5.92610704188701E-05
2	603	126.379776680922	0.535125732421875	0.53509521484375	2.33154296875E-07	1.2475975097459E-07	2295026.25	5.92842407058924E-05
2	604	126.480484680667	0.525054931640625	0.5250244140625	2.38037109375E-07	1.24975287008056E-07	2205641	5.93079676036723E-05
2	605	126.581192680413	0.514984130859375	0.51495361328125	2.4261474609375E-07	1.24935326084596E-07	2122515.75	5.93321710766759E-05
2	606	126.681900680159	0.504913330078125	0.5048828125	2.46276855468749E-07	1.24340942875278E-07	2050062.125	5.93567892792635E-05
2	607	126.782608679905	0.494842529296875	0.49481201171875	2.50244140625E-07	1.23823809872192E-07	1977317.125	5.93817894696258E-05
2	608	126.88331667965	0.484771728515625	0.484771728515625	2.5299072265625E-07	1.22642745736812E-07	1916164.25	5.9407131629996E-05
2	609	126.984024679396	0.474700927734375	0.4747314453125	2.55737304687501E-07	1.21406529274282E-07	1856324.625	5.94327466387767E-05
2	610	127.084732679142	0.464630126953125	0.464599609375	2.581787109375E-07	1.19949731924862E-07	1799527.125	5.94586235820316E-05
2	611	127.185440678888	0.454559326171875	0.454559326171875	2.60009765624999E-07	1.18189859676932E-07	1748239.5	5.94847188040148E-05
2	612	127.286148678633	0.444488525390625	0.4444580078125	2.61535644531249E-07	1.16241608338896E-07	1699416.625	5.95109813730232E-05
2	613	127.386856678379	0.434417724609375	0.43438720703125	2.63061523437499E-07	1.1427055568447E-07	1651276.25	5.95373967371415E-05
2	614	127.487564678125	0.424346923828125	0.424346923828125	2.63671875E-07	1.11888347475997E-07	1609375	5.95639176026452E-05
2	615	127.588272677871	0.414276123046875	0.414306640625	2.64892578125001E-07	1.09746750354134E-07	1564055.25	5.95905330555979E-05
2	616	127.688980677616	0.404205322265625	0.40423583984375	2.6519775390625E-07	1.07202431820497E-07	1524280.875	5.96172249061055E-05
2	617	127.789688677362	0.394134521484375	0.394134521484375	2.6580810546875E-07	1.04764147579317E-07	1482778.5	5.96439640503377E-05
2	618	127.890396677108	0.384063720703125	0.38409423828125	2.66418457031251E-07	1.02329792639466E-07	1441695.375	5.96707650402095E-05
2	619	127.991104676854	0.373992919921875	0.3740234375	2.667236328125E-07	9.97608822217444E-08	1402288.375	5.9697609685827E-05
2	620	128.091812676599	0.363922119140625	0.3638916015625	2.667236328125E-07	9.70584821402554E-08	1364302.125	5.97244725213386E-05
2	621	128.192520676345	0.353851318359375	0.35382080078125	2.67639160156249E-07	9.4696304131503E-08	1322006.875	5.97513790125959E-05
2	622	128.293228676091	0.343780517578125	0.34375	2.67333984375E-07	9.18960552098724E-08	1285844.75	5.97783146076836E-05
2	623	128.393936675836	0.333709716796875	0.333709716796875	2.67639160156249E-07	8.93137936941457E-08	1246864.25	5.98052538407501E-05
2	624	128.494644675582	0.323638916015625	0.323699951171875	2.67333984375E-07	8.65359908175378E-08	1210844.75	5.98321930738166E-05
2	625	128.595352675328	0.313568115234375	0.313629150390625	2.67639160156249E-07	8.39394473928223E-08	1171835.75	5.98591286689043E-05
2	626	128.696060675074	0.303497314453125	0.303436279296875	2.667236328125E-07	8.09336242468817E-08	1137643.125	5.98860387981404E-05
2	627	128.796768674819	0.293426513671875	0.293426513671875	2.6580810546875E-07	7.79951463414363E-08	1103903.625	5.99128543399274E-05
2	628	128.897476674565	0.283355712890625	0.283355712890625	2.64892578125001E-07	7.50588284859077E-08	1069700.5	5.99395752942655E-05
2	629	128.998184674311	0.273284912109375	0.273223876953125	2.63671875E-07	7.20414519150836E-08	1036226.875	5.99661907472182E-05
2	630	129.098892674057	0.263214111328125	0.26318359375	2.6214599609375E-07	6.89925201413644E-08	1003958.125	5.99926679569762E-05
2	631	129.199600673802	0.253143310546875	0.25311279296875	2.60009765624999E-07	6.58117969010164E-08	973474.1875	6.00189596298151E-05
2	632	129.300308673548	0.243072509765625	0.24310302734375	2.581787109375E-07	6.27640304173838E-08	941607.5625	6.00450548517983E-05
2	633	129.401016673294	0.233001708984375	0.233062744140625	2.55126953125E-07	5.94605822357153E-08	913516.8125	6.00708990532439E-05
2	634	129.50172467304	0.222930908203125	0.222900390625	2.520751953125E-07	5.61876554172613E-08	884261.5625	6.00964413024485E-05
2	635	129.602432672785	0.212860107421875	0.212860107421875	2.484130859375E-07	5.28772332586414E-08	856879.625	6.01216415816452E-05
2	636	129.703140672531	0.202789306640625	0.20281982421875	2.43530273437501E-07	4.93927672096106E-08	832832.0625	6.01464125793427E-05
2	637	129.803848672277	0.192718505859375	0.192718505859375	2.3773193359375E-07	4.58153408544604E-08	810654.6875	6.01706451561768E-05
2	638	129.904556672023	0.182647705078125	0.182647705078125	2.3040771484375E-07	4.20834389558422E-08	792715.25	6.01942192588467E-05
2	639	130.005264671768	0.172576904296875	0.172576904296875	2.20947265625E-07	3.81303948415734E-08	781077.375	6.02169457124546E-05
2	640	130.105972671514	0.162506103515625	0.162506103515625	2.08435058593751E-07	3.3871970117616E-08	779648.625	6.02385662205052E-05
2	641	130.20668067126	0.152435302734375	0.1524658203125	1.922607421875E-07	2.93131918738254E-08	793015.875	6.02587460889481E-05
2	642	130.307388671005	0.142364501953125	0.1424560546875	1.6937255859375E-07	2.41281465918064E-08	841081.125	6.02769541728776E-05
2	643	130.408096670751	0.132293701171875	0.13238525390625	1.385498046875E-07	1.83419519572681E-08	955506.5625	6.02924592385534E-05
2	644	130.508804670497	0.122222900390625	0.122283935546875	9.67407226562494E-08	1.18298357776325E-08	1264037.875	6.03043081355281E-05
2	645	130.609512670243	0.112152099609375	0.1121826171875	3.84521484374997E-08	4.31366231623542E-09	2917460.5	6.03111147938762E-05
2	646	130.710220669988	0.102081298828125	0.10211181640625	-4.33349609374994E-08	-4.42501146835639E-09	-2356338	6.03108674113173E-05
2	647	130.810928669734	0.092010498046875	0.092071533203125	-1.53198242187499E-07	-1.41051970103945E-08	-600996	6.0300972108962E-05
2	648	130.91163666948	0.081939697265625	0.082061767578125	-2.99682617187499E-07	-2.45924844932688E-08	-273828.9375	6.02781692577992E-05
2	649	131.012344669226	0.071868896484375	0.071929931640625	-4.8828125E-07	-3.51220350580661E-08	-147312.515625	6.02384898229502E-05
2	650	131.113052668971	0.061798095703125	0.061920166015625	-7.19604492187501E-07	-4.45580283781055E-08	-86047.5	6.01776700932533E-05
2	651	131.213760668717	0.051727294921875	0.051788330078125	-9.8846435546875E-07	-5.11909163947166E-08	-52392.71484375	6.0091660998296E-05
2	652	131.314468668463	0.041656494140625	0.0417144775390625	-1.27777099609375E-06	-5.33015480641552E-08	-32646.2890625	5.99775485170539E-05
2	653	131.415176668209	0.031585693359375	0.0316802978515625	-1.56402587890625E-06	-4.95488023943835E-08	-20255.609375	5.98344522586558E-05
2	654	131.515884667954	0.021514892578125	0.0216064453125	-1.81488037109375E-06	-3.92131127568973E-08	-11905.1630859375	5.96643112658057E-05
2	655	131.6165926677	0.011444091796875	0.0115142822265625	-2.0074462890625E-06	-2.31143015838597E-08	-5735.78564453125	5.94718403590377E-05
2	656	131.717300667446	0.001373291015625	0.00145568847656249	-2.12615966796875E-06	-3.09502623530022E-09	-684.65625	5.92636970395688E-05
2	657	131.818008667192	-0.008697509765625	-0.00859375	-2.1722412109375E-06	1.86676984981204E-08	3956.16748046875	5.90472554904409E-05
2	658	131.918716666937	-0.018768310546875	-0.0186553955078125	-2.159423828125E-06	4.02849025249452E-08	8639.0615234375	5.88291368330829E-05
2	659	132.019424666683	-0.028839111328125	-0.028704833984375	-2.10601806640625E-06	6.04528977987684E-08	13629.9091796875	5.86143578402698E-05
2	660	132.120132666429	-0.038909912109375	-0.03880615234375	-2.027587890625E-06	7.86828877608059E-08	19139.072265625	5.84062145208009E-05
2	661	132.220840666174	-0.048980712890625	-0.0488433837890625	-1.93939208984375E-06	9.4726466670636E-08	25184.896484375	5.82064603804611E-05
2	662	132.32154866592	-0.059051513671875	-0.058929443359375	-1.85028076171875E-06	1.09036008666408E-07	31848.921875	5.80156338401139E-05
2	663	132.422256665666	-0.069122314453125	-0.069091796875	-1.76544189453125E-06	1.21977549838448E-07	39135.6953125	5.78335675527342E-05
2	664	132.522964665412	-0.079193115234375	-0.0791015625	-1.688232421875E-06	1.33541817604055E-07	46854.6640625	5.76596612518188E-05
2	665	132.623672665157	-0.089263916015625	-0.089202880859375	-1.6192626953125E-06	1.44442893201813E-07	55088.58203125	5.74931145820301E-05
2	666	132.724380664903	-0.099334716796875	-0.099273681640625	-1.55792236328125E-06	1.54660682483154E-07	63721.83984375	5.73331308260094E-05
2	667	132.825088664649	-0.109405517578125	-0.109283447265625	-1.50482177734375E-06	1.64452103490476E-07	72622.1875	5.71789096284192E-05
2	668	132.925796664395	-0.119476318359375	-0.119354248046875	-1.45843505859375E-06	1.74070407865656E-07	81837.2109375	5.70296979276463E-05
2	669	133.02650466414	-0.129547119140625	-0.129486083984375	-1.4190673828125E-06	1.83749463644745E-07	91247.3203125	5.68848045077175E-05
2	670	133.127212663886	-0.139617919921875	-0.13958740234375	-1.38397216796875E-06	1.93185087482561E-07	100859.9765625	5.67436618439388E-05
2	671	133.227920663632	-0.149688720703125	-0.1495361328125	-1.35528564453125E-06	2.02664168114097E-07	110335.515625	5.66057278774679E-05
2	672	133.328628663378	-0.159759521484375	-0.15966796875	-1.33026123046875E-06	2.12400095733756E-07	120027.53125	5.64705005672295E-05
2	673	133.429336663123	-0.169830322265625	-0.169677734375	-1.309814453125E-06	2.22246328007714E-07	129543.34375	5.63375615456607E-05
2	674	133.530044662869	-0.179901123046875	-0.17974853515625	-1.29241943359375E-06	2.32310483738729E-07	139079.109375	5.62065288249869E-05
2	675	133.630752662615	-0.189971923828125	-0.189849853515625	-1.278076171875E-06	2.426425851354E-07	148543.453125	5.60770931770094E-05
2	676	133.731460662361	-0.200042724609375	-0.1998291015625	-1.26678466796875E-06	2.53140427730614E-07	157745.125	5.59489490115084E-05
2	677	133.832168662106	-0.189971923828125	-0.189788818359375	-1.11236572265625E-06	2.11114567605364E-07	170617.296875	5.58291503693908E-05
