Potential - Start -0.2 V, Upper Vertex 1.5 V, Lower Vertex -0.2 V, Stop -0.19 V; Scan - # end cross 5, Rate 0.1 Vps, Step 0.01 V 
Scan	Index	Time (s)	Potential applied (V)	WE(1).Potential (V)	WE(1).Current (A)	WE(1).Power (W)	WE(1).Resistance (Ω)	WE(1).Charge (C)
1	1	43.4081618904049	-0.189971923828125	-0.189910888671875	-2.1697998046875E-07	4.12068601463034E-08	875246.1875	0
1	2	43.5088698901507	-0.179901123046875	-0.1796875	-1.84020996093751E-07	3.30662714986829E-08	976451.125	-2.01920027365077E-08
1	3	43.6095778898964	-0.169830322265625	-0.169708251953125	-1.5838623046875E-07	2.68794497770841E-08	1071483.625	-3.74335762387545E-08
1	4	43.7102858896421	-0.159759521484375	-0.15966796875	-1.361083984375E-07	2.17321520779024E-08	1173094.125	-5.226255694879E-08
1	5	43.8109938893879	-0.149688720703125	-0.149566650390625	-1.1566162109375E-07	1.72991203584161E-08	1293139.875	-6.49401883379142E-08
1	6	43.9117018891336	-0.139617919921875	-0.139556884765625	-9.70458984375006E-08	1.35434232717557E-08	1438050.375	-7.56508597987704E-08
1	7	44.0124098888793	-0.129547119140625	-0.12945556640625	-7.90405273437503E-08	1.02322363915164E-08	1637837.875	-8.45175165409273E-08
1	8	44.1131178886251	-0.119476318359375	-0.119384765625	-6.103515625E-08	7.28666726956817E-09	1956000.125	-9.15708895377065E-08
1	9	44.2138258883708	-0.109405517578125	-0.109375	-4.21142578125006E-08	4.60624649534225E-09	2597101.5	-9.67648716709846E-08
1	10	44.3145338881166	-0.099334716796875	-0.09930419921875	-2.13623046875E-08	2.12136641586369E-09	4648571.5	-9.99611700081005E-08
1	11	44.4152418878623	-0.089263916015625	-0.0892333984375	2.44140625000056E-09	-2.17854970174791E-10	-36550000	-1.00913915446199E-07
1	12	44.515949887608	-0.079193115234375	-0.0791015625	3.14331054687506E-08	-2.48640752431584E-09	-2516505	-9.92081936601608E-08
1	13	44.6166578873538	-0.069122314453125	-0.069061279296875	6.89697265624997E-08	-4.76313744002255E-09	-1001327.4375	-9.41525115649711E-08
1	14	44.7173658870995	-0.059051513671875	-0.058990478515625	1.1627197265625E-07	-6.8589391943874E-09	-507349.09375	-8.4824854695853E-08
1	15	44.8180738868452	-0.048980712890625	-0.0488250732421875	1.788330078125E-07	-8.73153460645426E-09	-273020.5	-6.99651323543549E-08
1	16	44.918781886591	-0.038909912109375	-0.03873291015625	2.63366699218751E-07	-1.02009583002882E-08	-147068.359375	-4.76986130593104E-08
1	17	45.0194898863367	-0.028839111328125	-0.0287109375	3.741455078125E-07	-1.07420676798142E-08	-76737.359375	-1.5597322544636E-08
1	18	45.1201978860825	-0.018768310546875	-0.018658447265625	5.16357421875E-07	-9.63442836621198E-09	-36134.75390625	2.92430613058059E-08
1	19	45.2209058858282	-0.008697509765625	-0.0085906982421875	6.9122314453125E-07	-5.93808957560782E-09	-12428.255859375	9.004957490788E-08
1	20	45.3216138855739	0.001373291015625	0.0014617919921875	8.96606445312501E-07	1.31065214237225E-09	1630.36083984375	1.70003147559328E-07
1	21	45.4223218853197	0.011444091796875	0.0115386962890625	1.11968994140625E-06	1.29197621490107E-08	10305.2607421875	2.71531717999096E-07
1	22	45.5230298850654	0.021514892578125	0.021612548828125	1.34124755859375E-06	2.8987777511702E-08	16113.7666015625	3.9544977425976E-07
1	23	45.6237378848111	0.031585693359375	0.0317230224609375	1.5399169921875E-06	4.88508220541917E-08	20600.4765625	5.40527935299906E-07
1	24	45.7244458845569	0.041656494140625	0.0417816162109375	1.69586181640625E-06	7.08558474116217E-08	24637.39453125	7.03462319506798E-07
1	25	45.8251538843026	0.051727294921875	0.051727294921875	1.79718017578125E-06	9.2963269082702E-08	28782.4765625	8.79350977811555E-07
1	26	45.9258618840483	0.061798095703125	0.061920166015625	1.84356689453125E-06	1.14153962726959E-07	33587.15625	1.0626771427269E-06
1	27	46.0265698837941	0.071868896484375	0.071929931640625	1.84234619140625E-06	1.32519829776356E-07	39042.5703125	1.24827761283086E-06
1	28	46.1272778835398	0.081939697265625	0.08197021484375	1.80999755859375E-06	1.48365884911072E-07	45287.4765625	1.43218767334474E-06
1	29	46.2279858832856	0.092010498046875	0.09210205078125	1.7572021484375E-06	1.61841910539806E-07	52414.03515625	1.6118104895213E-06
1	30	46.3286938830313	0.102081298828125	0.10211181640625	1.6937255859375E-06	1.72949384591448E-07	60288.29296875	1.7855784335552E-06
1	31	46.429401882777	0.112152099609375	0.112152099609375	1.62933349609375E-06	1.82733174369787E-07	68833.1171875	1.95290772353474E-06
1	32	46.5301098825228	0.122222900390625	0.122344970703125	1.56585693359375E-06	1.91574713426235E-07	78132.921875	2.11379847314674E-06
1	33	46.6308178822685	0.132293701171875	0.132354736328125	1.5069580078125E-06	1.99453012328377E-07	87829.0859375	2.26852694140689E-06
1	34	46.7315258820142	0.142364501953125	0.142425537109375	1.45294189453125E-06	2.06936022095761E-07	98025.625	2.4175697035389E-06
1	35	46.83223388176	0.152435302734375	0.152496337890625	1.40472412109375E-06	2.14215276628238E-07	108559.6328125	2.56146472565888E-06
1	36	46.9329418815057	0.162506103515625	0.16253662109375	1.36138916015625E-06	2.21275584522118E-07	119390.28125	2.70074951913557E-06
1	37	47.0336498812514	0.172576904296875	0.172637939453125	1.3226318359375E-06	2.28336418217623E-07	130526.078125	2.8359006591927E-06
1	38	47.1343578809972	0.182647705078125	0.182647705078125	1.2884521484375E-06	2.35332834108704E-07	141757.453125	2.96737925964408E-06
1	39	47.2350658807429	0.192718505859375	0.192779541015625	1.25701904296875E-06	2.42327530486364E-07	153362.46875	3.09555389321758E-06
1	40	47.3357738804887	0.202789306640625	0.20281982421875	1.229248046875E-06	2.49315860401111E-07	164995.03125	3.22074743053236E-06
1	41	47.4364818802344	0.212860107421875	0.212860107421875	1.20391845703125E-06	2.56266190490351E-07	176806.09375	3.34326705342392E-06
1	42	47.5371898799801	0.222930908203125	0.222930908203125	1.181640625E-06	2.63424226432107E-07	188662.1875	3.46338947565528E-06
1	43	47.6378978797259	0.233001708984375	0.233001708984375	1.16180419921875E-06	2.70702372517917E-07	200551.609375	3.58139118361578E-06
1	44	47.7386058794716	0.243072509765625	0.24310302734375	1.1431884765625E-06	2.77912562296478E-07	212653.5	3.69745680472988E-06
1	45	47.8393138792173	0.253143310546875	0.253143310546875	1.12640380859375E-06	2.85141567246683E-07	224735.859375	3.81173981622851E-06
1	46	47.9400218789631	0.263214111328125	0.263153076171875	1.1114501953125E-06	2.92481530550504E-07	236765.515625	3.92442461816245E-06
1	47	48.0407298787088	0.273284912109375	0.273284912109375	1.097412109375E-06	2.99906162126717E-07	249026.703125	4.03564990847372E-06
1	48	48.1414378784546	0.283355712890625	0.2833251953125	1.085205078125E-06	3.07465938931273E-07	261079.859375	4.14555324823596E-06
1	49	48.2421458782003	0.293426513671875	0.29339599609375	1.0736083984375E-06	3.14992405492376E-07	273280.28125	4.25425832872861E-06
1	50	48.342853877946	0.303497314453125	0.303466796875	1.0638427734375E-06	3.22840946864744E-07	285255.3125	4.36188747698907E-06
1	51	48.4435618776918	0.313568115234375	0.313720703125	1.05438232421875E-06	3.30781574575667E-07	297539.8125	4.46854846813949E-06
1	52	48.5442698774375	0.323638916015625	0.323638916015625	1.046142578125E-06	3.38572448299601E-07	309364.0625	4.57431860922952E-06
1	53	48.6449778771832	0.333709716796875	0.333831787109375	1.0382080078125E-06	3.46586830346496E-07	321546.15625	4.67927384306677E-06
1	54	48.745685876929	0.343780517578125	0.343841552734375	1.0321044921875E-06	3.54880398845125E-07	333146.0625	4.78352239952073E-06
1	55	48.8463938766747	0.353851318359375	0.3538818359375	1.026611328125E-06	3.63299108130377E-07	344708.65625	4.88718706037616E-06
1	56	48.9471018764204	0.363922119140625	0.3638916015625	1.02142333984375E-06	3.71687349343119E-07	356259.375	4.99031375511549E-06
1	57	49.0478098761662	0.373992919921875	0.3740234375	1.01715087890625E-06	3.80438279989903E-07	367716.75	5.0929638746311E-06
1	58	49.1485178759119	0.384063720703125	0.384063720703125	1.01318359375E-06	3.89127052358162E-07	379066.28125	5.19519926456269E-06
1	59	49.2492258756577	0.394134521484375	0.3941650390625	1.01043701171875E-06	3.9827895648159E-07	390093.625	5.29709677721257E-06
1	60	49.3499338754034	0.404205322265625	0.404266357421875	1.00860595703125E-06	4.07745460506703E-07	400816.9375	5.39876373295556E-06
1	61	49.4506418751491	0.414276123046875	0.414337158203125	1.00677490234375E-06	4.17144207176534E-07	411549	5.50024606127408E-06
1	62	49.5513498748949	0.424346923828125	0.42437744140625	1.0052490234375E-06	4.26604998438052E-07	422161.5	5.60155967832543E-06
1	63	49.6520578746406	0.434417724609375	0.4344482421875	1.004638671875E-06	4.36463494679629E-07	432442.28125	5.70276552025462E-06
1	64	49.7527658743863	0.444488525390625	0.444549560546875	1.00341796875E-06	4.46069037707275E-07	443035.28125	5.80387904847157E-06
1	65	49.8534738741321	0.454559326171875	0.45458984375	1.0028076171875E-06	4.55866143056483E-07	453317.09375	5.90490071772365E-06
1	66	49.9541818738778	0.464630126953125	0.464630126953125	1.00341796875E-06	4.66218239125737E-07	463047.4375	6.00592238697573E-06
1	67	50.0548898736236	0.474700927734375	0.474700927734375	1.00311279296875E-06	4.76178541930494E-07	473227.90625	6.10695906289038E-06
1	68	50.1555978733693	0.484771728515625	0.484710693359375	1.00433349609375E-06	4.86811188693537E-07	482619.25	6.20804212303483E-06
1	69	50.256305873115	0.494842529296875	0.49481201171875	1.005859375E-06	4.9771125532061E-07	491929.65625	6.30926342637395E-06
1	70	50.3570138728608	0.504913330078125	0.5048828125	1.00799560546875E-06	5.08919640651584E-07	500878	6.41066890239017E-06
1	71	50.4577218726065	0.514984130859375	0.514984130859375	1.0113525390625E-06	5.2083049695284E-07	509203.375	6.51235131954309E-06
1	72	50.5584298723522	0.525054931640625	0.52508544921875	1.0150146484375E-06	5.32969409050565E-07	517318.125	6.61438707538764E-06
1	73	50.659137872098	0.535125732421875	0.53509521484375	1.02020263671875E-06	5.45905550097814E-07	524499	6.71686802888871E-06
1	74	50.7598458718437	0.545196533203125	0.545135498046875	1.0260009765625E-06	5.59309569325706E-07	531320.625	6.81990286466316E-06
1	75	50.8605538715894	0.555267333984375	0.55523681640625	1.033935546875E-06	5.74079081161472E-07	537013	6.92362891641096E-06
1	76	50.9612618713352	0.565338134765625	0.56536865234375	1.04461669921875E-06	5.90593515426008E-07	541221.1875	7.02829220244894E-06
1	77	51.0619698710809	0.575408935546875	0.575439453125	1.05926513671875E-06	6.09542894380866E-07	543244.0625	7.13423105480615E-06
1	78	51.1626778708267	0.585479736328125	0.585418701171875	1.07818603515625E-06	6.31190232525114E-07	542966.375	7.24186020306661E-06
1	79	51.2633858705724	0.595550537109375	0.595489501953125	1.104736328125E-06	6.57858834074432E-07	539033.1875	7.35177900423878E-06
1	80	51.3640938703181	0.605621337890625	0.6055908203125	1.141357421875E-06	6.91195566560054E-07	530588.25	7.4648787631304E-06
1	81	51.4648018700639	0.615692138671875	0.615631103515625	1.19110107421875E-06	7.33278852749208E-07	516858.8125	7.5823277256859E-06
1	82	51.5655098698096	0.625762939453125	0.625732421875	1.26007080078125E-06	7.88467161783046E-07	496585.125	7.70575388742145E-06
1	83	51.6662178695553	0.635833740234375	0.6357421875	1.3519287109375E-06	8.59478063830466E-07	470248.34375	7.83727864472894E-06
1	84	51.7669258693011	0.645904541015625	0.64581298828125	1.468505859375E-06	9.4838014774723E-07	439775.5625	7.97929897089489E-06
1	85	51.8676338690468	0.655975341796875	0.655975341796875	1.60797119140625E-06	1.05478943623893E-06	407952.1875	8.13421138445847E-06
1	86	51.9683418687925	0.666046142578125	0.665985107421875	1.76422119140625E-06	1.17494494134007E-06	377495.25	8.30401495477417E-06
1	87	52.0690498685383	0.676116943359375	0.676055908203125	1.92535400390625E-06	1.30164687561773E-06	351133.3125	8.48980016598944E-06
1	88	52.169757868284	0.686187744140625	0.68609619140625	2.07489013671875E-06	1.42357419008476E-06	330666.28125	8.69122777658049E-06
1	89	52.2704658680298	0.696258544921875	0.6961669921875	2.1978759765625E-06	1.5300887525882E-06	316745.34375	8.9063787527266E-06
1	90	52.3711738677755	0.706329345703125	0.706329345703125	2.28485107421875E-06	1.61385730734764E-06	309135.84375	9.13210169528611E-06
1	91	52.4718818675212	0.716400146484375	0.71636962890625	2.33245849609375E-06	1.67090240665857E-06	307130.71875	9.36460219236324E-06
1	92	52.572589867267	0.726470947265625	0.72637939453125	2.3455810546875E-06	1.7037816633092E-06	309679.96875	9.60016041062772E-06
1	93	52.6732978670127	0.736541748046875	0.7364501953125	2.33306884765625E-06	1.71818896887999E-06	315657.3125	9.83574864221737E-06
1	94	52.7740058667584	0.746612548828125	0.746551513671875	2.3052978515625E-06	1.7210235228049E-06	323841.6875	1.00693096101168E-05
1	95	52.8747138665042	0.756683349609375	0.75714111328125	2.2698974609375E-06	1.71863257492078E-06	333557.4375	1.02996882560547E-05
1	96	52.9754218662499	0.766754150390625	0.7666015625	2.23480224609375E-06	1.71320289155119E-06	343028.8125	1.05265180536662E-05
1	97	53.0761298659957	0.776824951171875	0.77667236328125	2.2039794921875E-06	1.71176986896171E-06	352395.46875	1.07500281956163E-05
1	98	53.1768378657414	0.786895751953125	0.7867431640625	2.1820068359375E-06	1.71667886661453E-06	360559.46875	1.09708807940478E-05
1	99	53.2775458654871	0.796966552734375	0.79742431640625	2.17071533203125E-06	1.7309812392341E-06	367355.53125	1.1190057193744E-05
1	100	53.3782538652329	0.807037353515625	0.806884765625	2.17071533203125E-06	1.75151717485278E-06	371713.75	1.14086660687462E-05
1	101	53.4789618649786	0.817108154296875	0.8172607421875	2.1832275390625E-06	1.78426614638738E-06	374336.03125	1.16279043140821E-05
1	102	53.5796698647243	0.827178955078125	0.8270263671875	2.2064208984375E-06	1.82476810550725E-06	374827.125	1.18489406304434E-05
1	103	53.6803778644701	0.837249755859375	0.83770751953125	2.23724365234375E-06	1.8741557141766E-06	374437.34375	1.20726972454577E-05
1	104	53.7810858642158	0.847320556640625	0.84747314453125	2.2711181640625E-06	1.92471156879037E-06	373152.375	1.2299710760999E-05
1	105	53.8817938639615	0.857391357421875	0.8575439453125	2.30133056640625E-06	1.97349208974629E-06	372629.625	1.25299520732369E-05
1	106	53.9825018637073	0.867462158203125	0.8673095703125	2.32391357421875E-06	2.01555258172448E-06	373210.78125	1.27628518384881E-05
1	107	54.083209863453	0.877532958984375	0.87738037109375	2.335205078125E-06	2.04886305255059E-06	375718.78125	1.29974569063052E-05
1	108	54.1839178631988	0.887603759765625	0.88775634765625	2.33642578125E-06	2.07417679121136E-06	379963.4375	1.32326922539505E-05
1	109	54.2846258629445	0.897674560546875	0.89752197265625	2.32818603515625E-06	2.08959795600094E-06	385502.71875	1.34675738081569E-05
1	110	54.3853338626902	0.907745361328125	0.90789794921875	2.315673828125E-06	2.10239545594959E-06	392066.4375	1.37014112624456E-05
1	111	54.486041862436	0.917816162109375	0.91796875	2.30194091796875E-06	2.11310975828383E-06	398780.34375	1.3933926311438E-05
1	112	54.5867498621817	0.927886962890625	0.9283447265625	2.291259765625E-06	2.12707891478203E-06	405167.8125	1.41652126330882E-05
1	113	54.6874578619274	0.937957763671875	0.93780517578125	2.2857666015625E-06	2.14360375139222E-06	410280.375	1.43956840474857E-05
1	114	54.7881658616732	0.948028564453125	0.9478759765625	2.2894287109375E-06	2.17009437619708E-06	414022.9375	1.46260636029183E-05
1	115	54.8888738614189	0.958099365234375	0.95794677734375	2.305908203125E-06	2.20893730329408E-06	415431.46875	1.48574572449434E-05
1	116	54.9895818611647	0.968170166015625	0.96832275390625	2.3370361328125E-06	2.26300517169875E-06	414337.96875	1.50912474055076E-05
1	117	55.0902898609104	0.978240966796875	0.97808837890625	2.38250732421875E-06	2.33030277740909E-06	410529	1.53288947331021E-05
1	118	55.1909978606561	0.988311767578125	0.9881591796875	2.44049072265625E-06	2.41159318647988E-06	404901.875	1.55717534653377E-05
1	119	55.2917058604019	0.998382568359375	0.99822998046875	2.5067138671875E-06	2.50227685683058E-06	398222.5625	1.58208640641533E-05
1	120	55.3924138601476	1.00845336914063	1.00830078125	2.5726318359375E-06	2.59398666457855E-06	391933.59375	1.60766303451965E-05
1	121	55.4931218598933	1.01852416992188	1.01837158203125	2.6300048828125E-06	2.67832228928455E-06	387212.8125	1.63386030180845E-05
1	122	55.5938298596391	1.02859497070313	1.0284423828125	2.67059326171875E-06	2.7465512175695E-06	385098.84375	1.6605508790235E-05
1	123	55.6945378593848	1.03866577148438	1.038818359375	2.6922607421875E-06	2.7967698770226E-06	385853.53125	1.68755505001172E-05
1	124	55.7952458591305	1.04873657226563	1.048583984375	2.6947021484375E-06	2.82562132269959E-06	389128	1.71468054759316E-05
1	125	55.8959538588763	1.05880737304688	1.05865478515625	2.68157958984375E-06	2.83886697616254E-06	394787.78125	1.74175238498719E-05
1	126	55.996661858622	1.06887817382813	1.06903076171875	2.65716552734375E-06	2.84059160549077E-06	402320	1.76863504748326E-05
1	127	56.0973698583678	1.07894897460938	1.0791015625	2.62664794921875E-06	2.83442000181822E-06	410828.375	1.79524122358998E-05
1	128	56.1980778581135	1.08901977539063	1.08917236328125	2.593994140625E-06	2.82530686490645E-06	419882.34375	1.82152907655109E-05
1	129	56.2987858578592	1.09909057617188	1.09893798828125	2.56072998046875E-06	2.81408324553922E-06	429150.3125	1.84748532774393E-05
1	130	56.399493857605	1.10916137695313	1.10870361328125	2.52899169921875E-06	2.8039021344739E-06	438397.5	1.87311397894518E-05
1	131	56.5002018573507	1.11923217773438	1.11907958984375	2.5E-06	2.79769892586046E-06	447631.84375	1.89843703992665E-05
1	132	56.6009098570964	1.12930297851563	1.12945556640625	2.47344970703125E-06	2.79365167443757E-06	456631.6875	1.92348034033785E-05
1	133	56.7016178568422	1.13937377929688	1.1395263671875	2.44964599609375E-06	2.79143614534405E-06	465180.03125	1.94827007362619E-05
1	134	56.8023258565879	1.14944458007813	1.14990234375	2.4285888671875E-06	2.79264008895552E-06	473485.78125	1.97283388843061E-05
1	135	56.9030338563336	1.15951538085938	1.15936279296875	2.40997314453125E-06	2.79403320746496E-06	481068.75	1.99719797819853E-05
1	136	57.0037418560794	1.16958618164063	1.1700439453125	2.3931884765625E-06	2.80013568954018E-06	488905.90625	2.0213838070049E-05
1	137	57.1044498558251	1.17965698242188	1.17950439453125	2.3797607421875E-06	2.80693802778842E-06	495639.9375	2.04541756829713E-05
1	138	57.2051578555709	1.18972778320313	1.1895751953125	2.3675537109375E-06	2.81638313026633E-06	502449.09375	2.0693221813417E-05
1	139	57.3058658553166	1.19979858398438	1.19903564453125	2.3577880859375E-06	2.82707173937524E-06	508542.625	2.09311619983055E-05
1	140	57.4065738550623	1.20986938476563	1.2103271484375	2.3486328125E-06	2.84261386696016E-06	515332.65625	2.11681490327464E-05
1	141	57.5072818548081	1.21994018554688	1.2200927734375	2.342529296875E-06	2.85810301647871E-06	520844.1875	2.14043684536591E-05
1	142	57.6079898545538	1.23001098632813	1.23016357421875	2.33612060546875E-06	2.87381044472568E-06	526583.9375	2.16399566852488E-05
1	143	57.7086978542995	1.24008178710938	1.2396240234375	2.33184814453125E-06	2.89061472358298E-06	531605.8125	2.18750083149644E-05
1	144	57.8094058540453	1.25015258789063	1.25030517578125	2.32879638671875E-06	2.91170613309077E-06	536889	2.21096888708416E-05
1	145	57.910113853791	1.26022338867188	1.2603759765625	2.32757568359375E-06	2.93362040792999E-06	541497.3125	2.23441566049587E-05
1	146	58.0108218535368	1.27029418945313	1.2701416015625	2.32757568359375E-06	2.95635072689038E-06	545692.9375	2.2578562493436E-05
1	147	58.1115298532825	1.28036499023438	1.280517578125	2.3284912109375E-06	2.98167378787184E-06	549934.5	2.28130138566485E-05
1	148	58.2122378530282	1.29043579101563	1.290283203125	2.33154296875E-06	3.00835063171689E-06	553403.1875	2.30476653086953E-05
1	149	58.312945852774	1.30050659179688	1.3006591796875	2.3358154296875E-06	3.03809974866454E-06	556833	2.3282686015591E-05
1	150	58.4136538525197	1.31057739257813	1.31072998046875	2.3419189453125E-06	3.06962328977534E-06	559682.0625	2.35182287724456E-05
1	151	58.5143618522654	1.32064819335938	1.32080078125	2.34893798828125E-06	3.10247901325056E-06	562297	2.37544318224536E-05
1	152	58.6150698520112	1.33071899414063	1.33056640625	2.3590087890625E-06	3.13881764668622E-06	564036.25	2.39914952544495E-05
1	153	58.7157778517569	1.34078979492188	1.34063720703125	2.3712158203125E-06	3.17894000545493E-06	565379.6875	2.42296810029075E-05
1	154	58.8164858515026	1.35086059570313	1.35101318359375	2.38555908203125E-06	3.22292180499062E-06	566329.8125	2.4469203708577E-05
1	155	58.9171938512484	1.36093139648438	1.36016845703125	2.40142822265625E-06	3.26634699376882E-06	566399.8125	2.47102470893878E-05
1	156	59.0179018509941	1.37100219726563	1.37054443359375	2.4200439453125E-06	3.3167777928611E-06	566330.375	2.49530276050791E-05
1	157	59.1186098507399	1.38107299804688	1.3812255859375	2.4407958984375E-06	3.37128972205392E-06	565891.4375	2.51977908192202E-05
1	158	59.2193178504856	1.39114379882813	1.39129638671875	2.4639892578125E-06	3.42813928000396E-06	564652	2.54447659244761E-05
1	159	59.3200258502313	1.40121459960938	1.40167236328125	2.48870849609375E-06	3.48835374097689E-06	563212.8125	2.56941548286704E-05
1	160	59.4207338499771	1.41128540039063	1.4117431640625	2.5146484375E-06	3.55003771801421E-06	561407.75	2.59460939560086E-05
1	161	59.5214418497228	1.42135620117188	1.42181396484375	2.54302978515625E-06	3.61571528628701E-06	559102.375	2.62007670244202E-05
1	162	59.6221498494685	1.43142700195313	1.43157958984375	2.5726318359375E-06	3.68292717212171E-06	556465	2.64583613898139E-05
1	163	59.7228578492143	1.44149780273438	1.44134521484375	2.60345458984375E-06	3.75247668671363E-06	553627.9375	2.67189989244798E-05
1	164	59.82356584896	1.45156860351563	1.4520263671875	2.63641357421875E-06	3.82814187105396E-06	550758.1875	2.6982846975443E-05
1	165	59.9242738487058	1.46163940429688	1.46148681640625	2.6727294921875E-06	3.90615878131939E-06	546814.375	2.72501838480821E-05
1	166	60.0249818484515	1.47171020507813	1.4715576171875	2.716064453125E-06	3.99684495278052E-06	541797.8125	2.75215297733666E-05
1	167	60.1256898481972	1.48178100585938	1.48193359375	2.767333984375E-06	4.10100483350107E-06	535509.5	2.77976414508885E-05
1	168	60.226397847943	1.49185180664063	1.49169921875	2.8326416015625E-06	4.22544917455525E-06	526610.6875	2.80796230072156E-05
1	169	60.3271058476887	1.50192260742188	1.5020751953125	2.9119873046875E-06	4.37402377428953E-06	515824.8125	2.83688877971144E-05
1	170	60.4278138474344	1.49185180664063	1.49200439453125	2.65869140625E-06	3.96677933167666E-06	561180	2.86493941530352E-05
1	171	60.5285218471802	1.48178100585938	1.48162841796875	2.47314453125E-06	3.66428093911964E-06	599086.9375	2.89078016066924E-05
1	172	60.6292298469259	1.47171020507813	1.47186279296875	2.32696533203125E-06	3.42497378369444E-06	632524.5625	2.91495070996461E-05
1	173	60.7299378466716	1.46163940429688	1.46148681640625	2.20794677734375E-06	3.22688492815359E-06	661921.25	2.93778575723991E-05
1	174	60.8306458464174	1.45156860351563	1.451416015625	2.1075439453125E-06	3.0589228572353E-06	688676.5625	2.95951595035149E-05
1	175	60.9313538461631	1.44149780273438	1.44134521484375	2.0233154296875E-06	2.91629589810327E-06	712368.0625	2.98031645797892E-05
1	176	61.0320618459089	1.43142700195313	1.431884765625	1.95098876953125E-06	2.79359096566623E-06	733927.75	3.00032879749779E-05
1	177	61.1327698456546	1.42135620117188	1.4215087890625	1.88812255859375E-06	2.68398275693471E-06	752868.9375	3.01966028928291E-05
1	178	61.2334778454003	1.41128540039063	1.4111328125	1.83349609375E-06	2.58730642599403E-06	769640.5	3.03840006381506E-05
1	179	61.3341858451461	1.40121459960938	1.40106201171875	1.78466796875E-06	2.5004303552123E-06	785054.75	3.05661887978204E-05
1	180	61.4348938448918	1.39114379882813	1.3909912109375	1.74163818359375E-06	2.42260330196586E-06	798668.3125	3.07437549054157E-05
1	181	61.5356018446375	1.38107299804688	1.3812255859375	1.70257568359375E-06	2.35164111472841E-06	811256.5	3.09171846311074E-05
1	182	61.6363098443833	1.37100219726563	1.37115478515625	1.66656494140625E-06	2.28511839850398E-06	822743.125	3.10868344968185E-05
1	183	61.737017844129	1.36093139648438	1.36077880859375	1.63360595703125E-06	2.22297626351065E-06	832990.875	3.12530100927688E-05
1	184	61.8377258438748	1.35086059570313	1.35101318359375	1.60430908203125E-06	2.16744274439407E-06	842115.25	3.14160533889662E-05
1	185	61.9384338436205	1.34078979492188	1.34124755859375	1.5771484375E-06	2.11534643312916E-06	850425.75	3.15762517857365E-05
1	186	62.0391418433662	1.33071899414063	1.3311767578125	1.55181884765625E-06	2.0657450932049E-06	857817.125	3.17338053719141E-05
1	187	62.139849843112	1.32064819335938	1.32049560546875	1.5277099609375E-06	2.01733428184525E-06	864362.75	3.18888742185663E-05
1	188	62.2405578428577	1.31057739257813	1.31072998046875	1.5057373046875E-06	1.97361487153103E-06	870490.5	3.20416183967609E-05
1	189	62.3412658426034	1.30050659179688	1.30096435546875	1.48468017578125E-06	1.93151595340169E-06	876259	3.21921979775652E-05
1	190	62.4419738423492	1.29043579101563	1.2908935546875	1.4642333984375E-06	1.89016941476439E-06	881617.375	3.23406893585343E-05
1	191	62.5426818420949	1.28036499023438	1.28021240234375	1.44622802734375E-06	1.85147905540362E-06	885207.875	3.24872416967992E-05
1	192	62.6433898418406	1.27029418945313	1.27044677734375	1.42822265625E-06	1.81448081093549E-06	889529.9375	3.26319823216181E-05
1	193	62.7440978415864	1.26022338867188	1.259765625	1.4105224609375E-06	1.77692754732561E-06	893119.9375	3.27749257849064E-05
1	194	62.8448058413321	1.25015258789063	1.25	1.3946533203125E-06	1.74331660218741E-06	896280.125	3.29161775880493E-05
1	195	62.9455138410779	1.24008178710938	1.23992919921875	1.37847900390625E-06	1.70921623521281E-06	899490.875	3.30558141286019E-05
1	196	63.0462218408236	1.23001098632813	1.2298583984375	1.363525390625E-06	1.67694315678091E-06	901969.5625	3.31938863382675E-05
1	197	63.1469298405693	1.21994018554688	1.219482421875	1.34857177734375E-06	1.64455957474274E-06	904277	3.33304487867281E-05
1	198	63.2476378403151	1.20986938476563	1.209716796875	1.33453369140625E-06	1.61440777901589E-06	906471.5625	3.34655560436659E-05
1	199	63.3483458400608	1.19979858398438	1.1993408203125	1.32080078125E-06	1.58409022787964E-06	908040.6875	3.35992626787629E-05
1	200	63.4490538398065	1.18972778320313	1.1895751953125	1.30706787109375E-06	1.55485543018585E-06	910109.8125	3.37315868819132E-05
1	201	63.5497618395523	1.17965698242188	1.17919921875	1.29364013671875E-06	1.52545942455617E-06	911535.75	3.38625432050321E-05
1	202	63.650469839298	1.16958618164063	1.16973876953125	1.280517578125E-06	1.49787092595943E-06	913489.125	3.399216075195E-05
1	203	63.7511778390437	1.15951538085938	1.15966796875	1.26739501953125E-06	1.46975730785925E-06	915001.25	3.41204577125609E-05
1	204	63.8518858387895	1.14944458007813	1.14959716796875	1.25396728515625E-06	1.44155728776241E-06	916768.0625	3.42474195349496E-05
1	205	63.9525938385352	1.13937377929688	1.13983154296875	1.23992919921875E-06	1.41331031500158E-06	919271.5	3.43729952874128E-05
1	206	64.053301838281	1.12930297851563	1.12884521484375	1.2249755859375E-06	1.38280779538036E-06	921524.6875	3.44971158483531E-05
1	207	64.1540098380267	1.11923217773438	1.11907958984375	1.20941162109375E-06	1.3534278195948E-06	925309.125	3.46196939062793E-05
1	208	64.2547178377724	1.10916137695313	1.1090087890625	1.19110107421875E-06	1.32094157834217E-06	931078.625	3.47405693901237E-05
1	209	64.3554258375182	1.09909057617188	1.09893798828125	1.17095947265625E-06	1.2868117664766E-06	938493.625	3.48595094692428E-05
1	210	64.4561338372639	1.08901977539063	1.08917236328125	1.146240234375E-06	1.2484531453083E-06	950213.0625	3.49761903635226E-05
1	211	64.5568418370096	1.07894897460938	1.0791015625	1.11480712890625E-06	1.20299011996394E-06	967971.5625	3.50900445482694E-05
1	212	64.6575498367554	1.06887817382813	1.06903076171875	1.07574462890625E-06	1.15000409550703E-06	993758.875	3.52003480657004E-05
1	213	64.7582578365011	1.05880737304688	1.0589599609375	1.02630615234375E-06	1.08681706478819E-06	1031816.875	3.53061914211139E-05
1	214	64.8589658362469	1.04873657226563	1.048583984375	9.6466064453125E-07	1.01152772913338E-06	1086997.75	3.54064468410797E-05
1	215	64.9596738359926	1.03866577148438	1.038818359375	8.9080810546875E-07	9.25387837469316E-07	1166152.75	3.54998774128035E-05
1	216	65.0603818357383	1.02859497070313	1.02874755859375	8.0535888671875E-07	8.28510962946893E-07	1277377.875	3.55852862412576E-05
1	217	65.1610898354841	1.01852416992188	1.0186767578125	7.14111328125E-07	7.27448593806912E-07	1426495.75	3.56617965735495E-05
1	218	65.2617978352298	1.00845336914063	1.00860595703125	6.23779296875E-07	6.29147507424932E-07	1616927.625	3.57291646650992E-05
1	219	65.3625058349755	0.998382568359375	0.99822998046875	5.45349121093749E-07	5.4438385177491E-07	1830442.125	3.57880344381556E-05
1	220	65.4632138347213	0.988311767578125	0.98846435546875	4.833984375E-07	4.77822084121726E-07	2044823.25	3.58398356183898E-05
1	221	65.563921834467	0.978240966796875	0.9783935546875	4.43420410156251E-07	4.33839659308433E-07	2206469.5	3.58865072485059E-05
1	222	65.6646298342127	0.968170166015625	0.96832275390625	4.2449951171875E-07	4.11052525350897E-07	2281092.75	3.59302102879155E-05
1	223	65.7653378339585	0.958099365234375	0.95855712890625	4.23278808593749E-07	4.05736926722966E-07	2264599.75	3.5972898331238E-05
1	224	65.8660458337042	0.948028564453125	0.9478759765625	4.30908203124999E-07	4.08447505151344E-07	2199716.75	3.60159101546742E-05
1	225	65.96675383345	0.937957763671875	0.93780517578125	4.412841796875E-07	4.13838563417812E-07	2125173	3.60598278348334E-05
1	226	66.0674618331957	0.927886962890625	0.92742919921875	4.49218749999999E-07	4.16618576082328E-07	2064538.125	3.61046695616096E-05
1	227	66.1681698329414	0.917816162109375	0.91796875	4.5135498046875E-07	4.14329747400188E-07	2033806.75	3.615001696744E-05
1	228	66.2688778326872	0.907745361328125	0.90789794921875	4.4586181640625E-07	4.04797020792103E-07	2036276.5	3.61951933882665E-05
1	229	66.3695858324329	0.897674560546875	0.8984375	4.302978515625E-07	3.86595701229453E-07	2087943.375	3.62393111572601E-05
1	230	66.4702938321786	0.887603759765625	0.8880615234375	4.03442382812499E-07	3.58281653234371E-07	2201210.25	3.62812934326939E-05
1	231	66.5710018319244	0.877532958984375	0.87799072265625	3.64074707031251E-07	3.19654219538279E-07	2411567.5	3.63199433195405E-05
1	232	66.6717098316701	0.867462158203125	0.86761474609375	3.13415527343749E-07	2.71923909167526E-07	2768257.25	3.63540566468146E-05
1	233	66.7724178314159	0.857391357421875	0.8575439453125	2.56958007812499E-07	2.20352774249477E-07	3337292.25	3.63827784894966E-05
1	234	66.8731258311616	0.847320556640625	0.8477783203125	1.9866943359375E-07	1.68427632729617E-07	4267281.5	3.64057195838541E-05
1	235	66.9738338309073	0.837249755859375	0.83709716796875	1.446533203125E-07	1.21088874038833E-07	5786920	3.64230072591454E-05
1	236	67.0745418306531	0.827178955078125	0.82733154296875	1.01318359374999E-07	8.38238705114236E-08	8165663	3.64353945769835E-05
1	237	67.1752498303988	0.817108154296875	0.81695556640625	7.23266601562494E-08	5.90876645389926E-08	11295359	3.6444136640057E-05
1	238	67.2759578301445	0.807037353515625	0.80718994140625	5.79833984375E-08	4.6803613429347E-08	13921053	3.6450699553825E-05
1	239	67.3766658298903	0.796966552734375	0.79742431640625	5.52368164062497E-08	4.40471801255171E-08	14436465	3.64564002666157E-05
1	240	67.477373829636	0.786895751953125	0.7867431640625	6.04248046875006E-08	4.7538801339897E-08	13020202	3.64622246706858E-05
1	241	67.5780818293817	0.776824951171875	0.77728271484375	6.68334960937503E-08	5.19485183758661E-08	11630137	3.64686311513651E-05
1	242	67.6787898291275	0.766754150390625	0.76690673828125	6.866455078125E-08	5.26593026961564E-08	11168889	3.64754559996072E-05
1	243	67.7794978288732	0.756683349609375	0.7568359375	5.950927734375E-08	4.50387567241251E-08	12717949	3.6481909774011E-05
1	244	67.880205828619	0.746612548828125	0.746490478515625	3.57055664062494E-08	2.66538648929782E-08	20906838	3.64867046300787E-05
1	245	67.9809138283647	0.736541748046875	0.7364501953125	-8.23974609374945E-09	-6.06816241699448E-09	-89377784	3.64880870620254E-05
1	246	68.0816218281104	0.726470947265625	0.72637939453125	-7.65991210937497E-08	-5.56400223672426E-08	-9482868	3.64838124369271E-05
1	247	68.1823298278562	0.716400146484375	0.716400146484375	-1.71508789062499E-07	-1.22868925700459E-07	-4177046.25	3.64713196177036E-05
1	248	68.2830378276019	0.706329345703125	0.706298828125	-2.94189453125E-07	-2.07785660677473E-07	-2400830	3.6447869206313E-05
1	249	68.3837458273476	0.696258544921875	0.696197509765625	-4.38537597656249E-07	-3.05308788028924E-07	-1587543.5	3.64109764632303E-05
1	250	68.4844538270934	0.686187744140625	0.686126708984375	-5.938720703125E-07	-4.07471503649504E-07	-1155344.25	3.6358989746077E-05
1	251	68.5851618268391	0.676116943359375	0.676025390625	-7.43713378906249E-07	-5.02769125887426E-07	-908986.4375	3.62916362064425E-05
1	252	68.6858698265848	0.666046142578125	0.66595458984375	-8.70361328124999E-07	-5.79621087126725E-07	-765147.3125	3.62103601219133E-05
1	253	68.7865778263306	0.655975341796875	0.655914306640625	-9.6160888671875E-07	-6.30732984063798E-07	-682100.9375	3.61181155312806E-05
1	254	68.8872858260763	0.645904541015625	0.64593505859375	-1.0101318359375E-06	-6.52479513973958E-07	-639456.25	3.60188278136775E-05
1	255	68.9879938258221	0.635833740234375	0.635772705078125	-1.019287109375E-06	-6.48034927053232E-07	-623742.5	3.59166406269651E-05
1	256	69.0887018255678	0.625762939453125	0.625701904296875	-9.9761962890625E-07	-6.24212475486274E-07	-627194.875	3.58150791726075E-05
1	257	69.1894098253135	0.615692138671875	0.61572265625	-9.54589843750001E-07	-5.87762599479902E-07	-645012.8125	3.57167773472611E-05
1	258	69.2901178250593	0.605621337890625	0.605560302734375	-8.99353027343749E-07	-5.44612476005568E-07	-673328.8125	3.56234268110711E-05
1	259	69.390825824805	0.595550537109375	0.5955810546875	-8.40148925781251E-07	-5.00376756917831E-07	-708899.375	3.55358351953328E-05
1	260	69.4915338245507	0.585479736328125	0.585418701171875	-7.80639648437501E-07	-4.57001050335748E-07	-749921.8125	3.54542207787745E-05
1	261	69.5922418242965	0.575408935546875	0.575439453125	-7.23876953125E-07	-4.16547351278496E-07	-794941	3.53784635080956E-05
1	262	69.6929498240422	0.565338134765625	0.5653076171875	-6.7138671875E-07	-3.79540011863355E-07	-842000	3.5308206861373E-05
1	263	69.793657823788	0.555267333984375	0.55517578125	-6.23779296875E-07	-3.46307132303991E-07	-890019.625	3.52429888152983E-05
1	264	69.8943658235337	0.545196533203125	0.545135498046875	-5.7952880859375E-07	-3.15921710125622E-07	-940653.0625	3.51823982782662E-05
1	265	69.9950738232794	0.535125732421875	0.535064697265625	-5.40771484374999E-07	-2.89347724446998E-07	-989447	3.51259877788834E-05
1	266	70.0957818230252	0.525054931640625	0.525054931640625	-5.0567626953125E-07	-2.6550782195045E-07	-1038322.25	3.50732952938415E-05
1	267	70.1964898227709	0.514984130859375	0.5150146484375	-4.73632812499999E-07	-2.43927843257552E-07	-1087371.125	3.50239824911114E-05
1	268	70.2971978225166	0.504913330078125	0.504913330078125	-4.4403076171875E-07	-2.24197037823615E-07	-1137113.5	3.49777728843037E-05
1	269	70.3979058222624	0.494842529296875	0.494842529296875	-4.18701171874999E-07	-2.07191135359608E-07	-1181851.375	3.49343317793682E-05
1	270	70.4986138220081	0.484771728515625	0.4847412109375	-3.948974609375E-07	-1.91423069395569E-07	-1227511.625	3.48933645000216E-05
1	271	70.5993218217538	0.474700927734375	0.4747314453125	-3.73229980468751E-07	-1.77184006133757E-07	-1271954.25	3.48546855093446E-05
1	272	70.7000298214996	0.464630126953125	0.464599609375	-3.53088378906249E-07	-1.64044720918355E-07	-1315816.75	3.48181129083969E-05
1	273	70.8007378212453	0.454559326171875	0.45452880859375	-3.34777832031249E-07	-1.52166165889867E-07	-1357702.75	3.47834757121745E-05
1	274	70.9014458209911	0.444488525390625	0.4444580078125	-3.17993164062499E-07	-1.41334609793375E-07	-1397696.75	3.47506065736525E-05
1	275	71.0021538207368	0.434417724609375	0.4344482421875	-3.0364990234375E-07	-1.31920160129084E-07	-1430753.75	3.47193017660175E-05
1	276	71.1028618204825	0.424346923828125	0.424346923828125	-2.89001464843749E-07	-1.22636876653814E-07	-1468321	3.46894594258629E-05
1	277	71.2035698202283	0.414276123046875	0.414306640625	-2.7618408203125E-07	-1.14424892672105E-07	-1500110.625	3.46610031556338E-05
1	278	71.304277819974	0.404205322265625	0.404205322265625	-2.6397705078125E-07	-1.06700930757597E-07	-1531213.875	3.46338019880932E-05
1	279	71.4049858197197	0.394134521484375	0.394134521484375	-2.52380371093749E-07	-9.94718192259825E-08	-1561668.625	3.46078013535589E-05
1	280	71.5056938194655	0.384063720703125	0.38409423828125	-2.410888671875E-07	-9.26008425494729E-08	-1593164.625	3.45829539583065E-05
1	281	71.6064018192112	0.373992919921875	0.37396240234375	-2.3040771484375E-07	-8.61638227434014E-08	-1623046.375	3.45592125086114E-05
1	282	71.707109818957	0.363922119140625	0.36395263671875	-2.197265625E-07	-7.99700572429174E-08	-1656388.875	3.45365442626644E-05
1	283	71.8078178187027	0.353851318359375	0.353912353515625	-2.08740234375E-07	-7.38757464091577E-08	-1695467.875	3.45149710483383E-05
1	284	71.9085258184484	0.343780517578125	0.34375	-1.9805908203125E-07	-6.80828122767707E-08	-1735593.25	3.44944855896756E-05
1	285	72.0092338181942	0.333709716796875	0.333709716796875	-1.87072753906251E-07	-6.24279934413607E-08	-1783850	3.44750951626338E-05
1	286	72.1099418179399	0.323638916015625	0.323699951171875	-1.77001953125E-07	-5.72955229927175E-08	-1828793.125	3.44567597494461E-05
1	287	72.2106498176856	0.313568115234375	0.31365966796875	-1.67236328125001E-07	-5.24552881131513E-08	-1875547.5	3.44394284184091E-05
1	288	72.3113578174314	0.303497314453125	0.303497314453125	-1.57470703125E-07	-4.77919321895115E-08	-1927325.75	3.44230757036712E-05
1	289	72.4120658171771	0.293426513671875	0.29345703125	-1.483154296875E-07	-4.35242029084293E-08	-1978600.875	3.44076797773596E-05
1	290	72.5127738169228	0.283355712890625	0.283355712890625	-1.40991210937499E-07	-3.99506632220437E-08	-2009740.375	3.4393113310216E-05
1	291	72.6134818166686	0.273284912109375	0.273284912109375	-1.3397216796875E-07	-3.66125725292932E-08	-2039863.375	3.43792671628762E-05
1	292	72.7141898164143	0.263214111328125	0.26324462890625	-1.27258300781249E-07	-3.35000649442918E-08	-2068585.125	3.43661122315098E-05
1	293	72.8148978161601	0.253143310546875	0.253173828125	-1.220703125E-07	-3.09050065538941E-08	-2074000.125	3.43535575666465E-05
1	294	72.9156058159058	0.243072509765625	0.24310302734375	-1.177978515625E-07	-2.86370127611235E-08	-2063730.625	3.43414794770069E-05
1	295	73.0163138156515	0.233001708984375	0.233001708984375	-1.13830566406251E-07	-2.65227164675252E-08	-2046916.875	3.43298161169514E-05
1	296	73.1170218153973	0.222930908203125	0.22296142578125	-1.10473632812499E-07	-2.46313582863422E-08	-2018232.125	3.43185201927554E-05
1	297	73.217729815143	0.212860107421875	0.212890625	-1.080322265625E-07	-2.29990479994058E-08	-1970621.5	3.43075189448427E-05
1	298	73.3184378148887	0.202789306640625	0.20281982421875	-1.06201171875001E-07	-2.15397033542786E-08	-1909770.125	3.42967323376797E-05
1	299	73.4191458146345	0.192718505859375	0.192779541015625	-1.0528564453125E-07	-2.02969179241563E-08	-1831014.5	3.42860803357325E-05
1	300	73.5198538143802	0.182647705078125	0.18267822265625	-1.055908203125E-07	-1.92891427275299E-08	-1730057.875	3.42754647135735E-05
1	301	73.6205618141259	0.172576904296875	0.172607421875	-1.0711669921875E-07	-1.84891373322671E-08	-1611396	3.42647545039654E-05
1	302	73.7212698138717	0.162506103515625	0.162506103515625	-1.1016845703125E-07	-1.79030461566754E-08	-1475069.25	3.42538114637136E-05
1	303	73.8219778136174	0.152435302734375	0.1524658203125	-1.1627197265625E-07	-1.77275012447353E-08	-1311286.125	3.42424100381322E-05
1	304	73.9226858133632	0.142364501953125	0.1424560546875	-1.251220703125E-07	-1.78243961812541E-08	-1138536.625	3.42302555509377E-05
1	305	74.0233938131089	0.132293701171875	0.13232421875	-1.3885498046875E-07	-1.83738748660289E-08	-952967.0625	3.42169623763766E-05
1	306	74.1241018128546	0.122222900390625	0.12225341796875	-1.5869140625E-07	-1.94005664866381E-08	-770384.625	3.4201981179649E-05
1	307	74.2248098126004	0.112152099609375	0.112213134765625	-1.86767578124999E-07	-2.09577759591184E-08	-600817	3.41845843649935E-05
1	308	74.3255178123461	0.102081298828125	0.102081298828125	-2.26745605468751E-07	-2.3146485617076E-08	-450201.90625	3.41637605743017E-05
1	309	74.4262258120918	0.092010498046875	0.09210205078125	-2.8350830078125E-07	-2.61116941402406E-08	-324865.46875	3.4138069167966E-05
1	310	74.5269338118376	0.081939697265625	0.082000732421875	-3.619384765625E-07	-2.96792208587249E-08	-226559.859375	3.41055674653035E-05
1	311	74.6276418115833	0.071868896484375	0.071929931640625	-4.6875E-07	-3.37171535136349E-08	-153450.53125	3.40637379849795E-05
1	312	74.7283498113291	0.061798095703125	0.0618896484375	-6.072998046875E-07	-3.75855719880747E-08	-101909.546875	3.40095575666055E-05
1	313	74.8290578110748	0.051727294921875	0.0517578125	-7.8094482421875E-07	-4.04199944625816E-08	-66275.890625	3.39396538038272E-05
1	314	74.9297658108205	0.041656494140625	0.04178466796875	-9.8419189453125E-07	-4.11241281028651E-08	-42455.81640625	3.38507707056124E-05
1	315	75.0304738105663	0.031585693359375	0.031683349609375	-1.207275390625E-06	-3.82505227491947E-08	-26243.681640625	3.37404198944569E-05
1	316	75.131181810312	0.021514892578125	0.021612548828125	-1.42974853515625E-06	-3.09005088183767E-08	-15116.3291015625	3.36076373059768E-05
1	317	75.2318898100577	0.011444091796875	0.0115509033203125	-1.62841796875E-06	-1.88096986875053E-08	-7093.328125	3.34536453010514E-05
1	318	75.3325978098035	0.001373291015625	0.00148925781250001	-1.78375244140625E-06	-2.65646704633582E-09	-834.901611328125	3.32818308379501E-05
1	319	75.4333058095492	-0.008697509765625	-0.00858154296874999	-1.8829345703125E-06	1.61584843283435E-08	4557.53662109375	3.30971961375326E-05
1	320	75.5340138092949	-0.018768310546875	-0.0186614990234375	-1.92657470703125E-06	3.59527696502937E-08	9686.361328125	3.29053727909923E-05
1	321	75.6347218090407	-0.028839111328125	-0.028729248046875	-1.922607421875E-06	5.52350662985646E-08	14942.857421875	3.27115521940868E-05
1	322	75.7354298087864	-0.038909912109375	-0.0387603759765625	-1.884765625E-06	7.30542168980719E-08	20565.091796875	3.25198343489319E-05
1	323	75.8361378085322	-0.048980712890625	-0.0488311767578125	-1.826171875E-06	8.917411520315E-08	26739.640625	3.23329732054844E-05
1	324	75.9368458082779	-0.059051513671875	-0.059051513671875	-1.75933837890625E-06	1.03891593994376E-07	33564.61328125	3.21524312312249E-05
1	325	76.0375538080236	-0.069122314453125	-0.06903076171875	-1.69097900390625E-06	1.16729566457252E-07	40822.95703125	3.19786922773346E-05
1	326	76.1382618077694	-0.079193115234375	-0.079132080078125	-1.62567138671875E-06	1.28642753338681E-07	48676.5546875	3.18116872222163E-05
1	327	76.2389698075151	-0.089263916015625	-0.08917236328125	-1.5655517578125E-06	1.39603955062739E-07	56959.0625	3.16509940603282E-05
1	328	76.3396778072608	-0.099334716796875	-0.0992431640625	-1.51153564453125E-06	1.50009583421706E-07	65657.1796875	3.14960525429342E-05
1	329	76.4403858070066	-0.109405517578125	-0.10931396484375	-1.4642333984375E-06	1.60061162546299E-07	74656.109375	3.13462078338489E-05
1	330	76.5410938067523	-0.119476318359375	-0.11944580078125	-1.42364501953125E-06	1.7004842334245E-07	83901.390625	3.12007941829506E-05
1	331	76.6418018064981	-0.129547119140625	-0.12945556640625	-1.38763427734375E-06	1.79636984398712E-07	93292.28125	3.10592331516091E-05
1	332	76.7425098062438	-0.139617919921875	-0.139495849609375	-1.35833740234375E-06	1.89482420864806E-07	102696.0234375	3.09209644910879E-05
1	333	76.8432178059895	-0.149688720703125	-0.14959716796875	-1.33331298828125E-06	1.99459847749495E-07	112199.5859375	3.07854279526509E-05
1	334	76.9439258057353	-0.159759521484375	-0.15960693359375	-1.312255859375E-06	2.09445119025986E-07	121627.9140625	3.06522124446929E-05
1	335	77.044633805481	-0.169830322265625	-0.169677734375	-1.2957763671875E-06	2.1986438980548E-07	130946.78125	3.05208886857145E-05
1	336	77.1453418052267	-0.179901123046875	-0.17974853515625	-1.28204345703125E-06	2.30445422744197E-07	140204.71875	3.0391083782888E-05
1	337	77.2460498049725	-0.189971923828125	-0.1898193359375	-1.2725830078125E-06	2.41560854874479E-07	149160.671875	3.02624484902481E-05
1	338	77.3467578047182	-0.200042724609375	-0.1998291015625	-1.2664794921875E-06	2.53079463163886E-07	157783.140625	3.0134597182041E-05
1	339	77.4474658044639	-0.189971923828125	-0.1898193359375	-1.12030029296875E-06	2.12654640563414E-07	169436.125	3.001441291417E-05
2	340	77.5481738042097	-0.179901123046875	-0.1798095703125	-1.01715087890625E-06	1.82893472810974E-07	176777.671875	2.99067833111621E-05
2	341	77.6488818039554	-0.169830322265625	-0.169708251953125	-9.3353271484375E-07	1.5842820744183E-07	181791.4375	2.98085597023601E-05
2	342	77.7495898037012	-0.159759521484375	-0.159637451171875	-8.624267578125E-07	1.3767561313216E-07	185102.625	2.9718125006184E-05
2	343	77.8502978034469	-0.149688720703125	-0.1495361328125	-8.00170898437499E-07	1.1965445878559E-07	186880.25	2.96344078378752E-05
2	344	77.9510058031926	-0.139617919921875	-0.139495849609375	-7.44018554687501E-07	1.03787499483587E-07	187489.75	2.95566514978418E-05
2	345	78.0517138029384	-0.129547119140625	-0.129425048828125	-6.927490234375E-07	8.96590677257336E-08	186828.203125	2.94843030133052E-05
2	346	78.1524218026841	-0.119476318359375	-0.119415283203125	-6.44836425781251E-07	7.70033210528709E-08	185186.9375	2.94169512926601E-05
2	347	78.2531298024298	-0.109405517578125	-0.109283447265625	-5.9783935546875E-07	6.5333942700363E-08	182797.34375	2.93543780571781E-05
2	348	78.3538378021756	-0.099334716796875	-0.099273681640625	-5.51757812500001E-07	5.47750289570104E-08	179922.5625	2.92964905383997E-05
2	349	78.4545458019213	-0.089263916015625	-0.089141845703125	-5.04150390624999E-07	4.49408936731288E-08	176815.984375	2.9243321478134E-05
2	350	78.555253801667	-0.079193115234375	-0.07916259765625	-4.52575683593751E-07	3.58270675349104E-08	174915.71875	2.91951455437811E-05
2	351	78.6559618014128	-0.069122314453125	-0.069061279296875	-3.9398193359375E-07	2.7208896469233E-08	175290.46875	2.91525193460984E-05
2	352	78.7566698011585	-0.059051513671875	-0.059051513671875	-3.253173828125E-07	1.92104838703244E-08	181519.703125	2.9116299629095E-05
2	353	78.8573778009043	-0.048980712890625	-0.04884033203125	-2.398681640625E-07	1.1715241221566E-08	203613.234375	2.90878397208871E-05
2	354	78.95808580065	-0.038909912109375	-0.0387451171875	-1.33666992187501E-07	5.17894305218647E-09	289863.03125	2.90690313704545E-05
2	355	79.0587938003957	-0.028839111328125	-0.0287017822265625	0	0	-∞	2.90623011096613E-05
2	356	79.1595018001415	-0.018768310546875	-0.0186553955078125	1.65405273437499E-07	-3.08570058393798E-09	-112785.9765625	2.90706284431508E-05
2	357	79.2602097998872	-0.008697509765625	-0.008563232421875	3.6346435546875E-07	-3.11242986938964E-09	-23560.03515625	2.90972602670081E-05
2	358	79.3609177996329	0.001373291015625	0.0014801025390625	5.89904785156251E-07	8.73119521127563E-10	2509.05346679688	2.91452652163571E-05
2	359	79.4616257993787	0.011444091796875	0.0115478515625	8.3160400390625E-07	9.60323909282579E-09	13886.23828125	2.9216844268376E-05
2	360	79.5623337991244	0.021514892578125	0.02159423828125	1.068115234375E-06	2.3065133802902E-08	20217.142578125	2.93125031021191E-05
2	361	79.6630417988702	0.031585693359375	0.0316925048828125	1.2762451171875E-06	4.04474000958999E-08	24832.6171875	2.9430550057441E-05
2	362	79.7637497986159	0.041656494140625	0.0417266845703125	1.4385986328125E-06	6.00279506102197E-08	29005.09375	2.95672543870751E-05
2	363	79.8644577983616	0.051727294921875	0.0517578125	1.5423583984375E-06	7.98290997749973E-08	33557.578125	2.97173573926557E-05
2	364	79.9651657981074	0.061798095703125	0.061798095703125	1.59027099609375E-06	9.8275712900886E-08	38860.10546875	2.98750983347418E-05
2	365	80.0658737978531	0.071868896484375	0.071929931640625	1.5911865234375E-06	1.14453932553715E-07	45205.21875	3.00352967315121E-05
2	366	80.1665817975988	0.081939697265625	0.08203125	1.56036376953125E-06	1.27998589505296E-07	52571.875	3.01939890050562E-05
2	367	80.2672897973446	0.092010498046875	0.092071533203125	1.5106201171875E-06	1.39085102546233E-07	60949.49609375	3.03486267512199E-05
2	368	80.3679977970903	0.102081298828125	0.1021728515625	1.451416015625E-06	1.48295313806557E-07	70395.2890625	3.0497776606353E-05
2	369	80.468705796836	0.112152099609375	0.112152099609375	1.390380859375E-06	1.55934131385038E-07	80662.8671875	3.06408728647511E-05
2	370	80.5694137965818	0.122222900390625	0.122314453125	1.33209228515625E-06	1.62934128411507E-07	91821.3125	3.077795918216E-05
2	371	80.6701217963275	0.132293701171875	0.13232421875	1.278076171875E-06	1.69120426107838E-07	103533.90625	3.09093920805026E-05
2	372	80.7708297960733	0.142364501953125	0.1424560546875	1.22955322265625E-06	1.75157296666839E-07	115860.0234375	3.10356626869179E-05
2	373	80.871537795819	0.152435302734375	0.1524658203125	1.18560791015625E-06	1.80764672563782E-07	128597.171875	3.11572730424814E-05
2	374	80.9722457955647	0.162506103515625	0.16253662109375	1.14715576171875E-06	1.86454826689442E-07	141686.609375	3.12747397401836E-05
2	375	81.0729537953105	0.172576904296875	0.172637939453125	1.11358642578125E-06	1.92247270547341E-07	155028.765625	3.13885757350363E-05
2	376	81.1736617950562	0.182647705078125	0.18267822265625	1.082763671875E-06	1.97797348278073E-07	168714.765625	3.14991702907719E-05
2	377	81.2743697948019	0.192718505859375	0.1927490234375	1.0565185546875E-06	2.03642912310897E-07	182437.90625	3.16068908432499E-05
2	378	81.3750777945477	0.202789306640625	0.20281982421875	1.03302001953125E-06	2.09516940685717E-07	196336.78125	3.17121084663086E-05
2	379	81.4757857942934	0.212860107421875	0.212860107421875	1.01226806640625E-06	2.15471487763352E-07	210280.375	3.18150960083585E-05
2	380	81.5764937940392	0.222930908203125	0.222930908203125	9.9365234375E-07	2.21515804810224E-07	224355.046875	3.19161044899374E-05
2	381	81.6772017937849	0.233001708984375	0.2330322265625	9.7686767578125E-07	2.27641649530597E-07	238550.453125	3.2015326723922E-05
2	382	81.7779097935306	0.243072509765625	0.24310302734375	9.625244140625E-07	2.33992594189658E-07	252568.171875	3.21129846270196E-05
2	383	81.8786177932764	0.253143310546875	0.253173828125	9.4879150390625E-07	2.40209175217387E-07	266838.21875	3.22092237183824E-05
2	384	81.9793257930221	0.263214111328125	0.263214111328125	9.3658447265625E-07	2.46522233737778E-07	281036.1875	3.23041604133323E-05
2	385	82.0800337927678	0.273284912109375	0.273345947265625	9.25292968749999E-07	2.5292507643826E-07	295415.5625	3.23979147651698E-05
2	386	82.1807417925136	0.283355712890625	0.2833251953125	9.1552734375E-07	2.59391953250088E-07	309466.6875	3.24906068271957E-05
2	387	82.2814497922593	0.293426513671875	0.2933349609375	9.0667724609375E-07	2.65960125034326E-07	323527.4375	3.25823639286682E-05
2	388	82.382157792005	0.303497314453125	0.303466796875	8.984375E-07	2.72645934273896E-07	337771.75	3.26732588291634E-05
2	389	82.4828657917508	0.313568115234375	0.313629150390625	8.9141845703125E-07	2.79574805972516E-07	351831.5625	3.27633824781515E-05
2	390	82.5835737914965	0.323638916015625	0.323638916015625	8.8470458984375E-07	2.86324819853689E-07	365815.8125	3.2852818549145E-05
2	391	82.6842817912423	0.333709716796875	0.333770751953125	8.7890625E-07	2.93353195957025E-07	379756.9375	3.29416252498049E-05
2	392	82.784989790988	0.343780517578125	0.343780517578125	8.7432861328125E-07	3.0057714184295E-07	393193.71875	3.30299044435378E-05
2	393	82.8856977907337	0.353851318359375	0.353851318359375	8.7005615234375E-07	3.07870493543305E-07	406699.4375	3.3117743441835E-05
2	394	82.9864057904795	0.363922119140625	0.3638916015625	8.6669921875E-07	3.15384568239097E-07	419859.15625	3.32051968143787E-05
2	395	83.0871137902252	0.373992919921875	0.373931884765625	8.636474609375E-07	3.22945311381773E-07	432968.21875	3.32923264068086E-05
2	396	83.1878217899709	0.384063720703125	0.384063720703125	8.6181640625E-07	3.30992406816222E-07	445644.5	3.33792086166795E-05
2	397	83.2885297897167	0.394134521484375	0.39422607421875	8.59985351562501E-07	3.39028645157669E-07	458410.21875	3.34659089276101E-05
2	398	83.3892377894624	0.404205322265625	0.4041748046875	8.58459472656251E-07	3.46967681252863E-07	470814.09375	3.35524382535368E-05
2	399	83.4899457892082	0.414276123046875	0.414276123046875	8.5723876953125E-07	3.55133551011022E-07	483268.0625	3.36388329742476E-05
2	400	83.5906537889539	0.424346923828125	0.424285888671875	8.56933593750001E-07	3.63584831575281E-07	495121.09375	3.37251476594247E-05
2	401	83.6913617886996	0.434417724609375	0.434478759765625	8.563232421875E-07	3.72054245190157E-07	507377.0625	3.38114150508773E-05
2	402	83.7920697884454	0.444488525390625	0.44451904296875	8.55712890625E-07	3.80380669184888E-07	519472.1875	3.38976242346689E-05
2	403	83.8927777881911	0.454559326171875	0.454559326171875	8.55102539062499E-07	3.88694843422854E-07	531584.5625	3.39837715728208E-05
2	404	83.9934857879368	0.464630126953125	0.46466064453125	8.55407714843751E-07	3.97474281044197E-07	543203.75	3.40699007210787E-05
2	405	84.0941937876826	0.474700927734375	0.474639892578125	8.5601806640625E-07	4.06300330269005E-07	554474.1875	3.41560771630611E-05
2	406	84.1949017874283	0.484771728515625	0.48480224609375	8.5662841796875E-07	4.15295374978086E-07	565942.3125	3.4242319088662E-05
2	407	84.295609787174	0.494842529296875	0.49481201171875	8.5784912109375E-07	4.24474052351798E-07	576805.4375	3.43286483257543E-05
2	408	84.3963177869198	0.504913330078125	0.50494384765625	8.59985351562501E-07	4.34244299185593E-07	587154	3.44151485478505E-05
2	409	84.4970257866655	0.514984130859375	0.514923095703125	8.6212158203125E-07	4.43926296611608E-07	597274.375	3.45018634106964E-05
2	410	84.5977337864113	0.525054931640625	0.525054931640625	8.65478515625E-07	4.54423769724599E-07	606664.3125	3.45888547599316E-05
2	411	84.698441786157	0.535125732421875	0.53509521484375	8.7005615234375E-07	4.65562862927982E-07	615012.3125	3.46762462868355E-05
2	412	84.7991497859027	0.545196533203125	0.54510498046875	8.75244140625001E-07	4.770998884851E-07	622803.375	3.47641289408784E-05
2	413	84.8998577856485	0.555267333984375	0.555267333984375	8.831787109375E-07	4.90400282160408E-07	628714.5625	3.48526737070642E-05
2	414	85.0005657853942	0.565338134765625	0.5653076171875	8.93554687500001E-07	5.05133243677847E-07	632650.3125	3.49421388818882E-05
2	415	85.1012737851399	0.575408935546875	0.57537841796875	9.0789794921875E-07	5.22384880241589E-07	633747.9375	3.50328482454643E-05
2	416	85.2019817848857	0.585479736328125	0.585479736328125	9.27124023437501E-07	5.42812301773665E-07	631501	3.51252492691856E-05
2	417	85.3026897846314	0.595550537109375	0.5955810546875	9.539794921875E-07	5.68172083603713E-07	624312.25	3.52199713233858E-05
2	418	85.4033977843771	0.605621337890625	0.605560302734375	9.918212890625E-07	6.00607563683297E-07	610553.875	3.53179493686184E-05
2	419	85.5041057841229	0.615692138671875	0.61572265625	1.044921875E-06	6.43382065845799E-07	589252.3125	3.54205076291692E-05
2	420	85.6048137838686	0.625762939453125	0.625701904296875	1.11785888671875E-06	6.9944644565112E-07	559732.4375	3.55294105247594E-05
2	421	85.7055217836144	0.635833740234375	0.635711669921875	1.21429443359375E-06	7.71941131461062E-07	523523.5	3.56468444806524E-05
2	422	85.8062297833601	0.645904541015625	0.64581298828125	1.336669921875E-06	8.63238824422297E-07	483150.6875	3.57752942363732E-05
2	423	85.9069377831058	0.655975341796875	0.65594482421875	1.48162841796875E-06	9.71866484178463E-07	442718.875	3.5917208151659E-05
2	424	86.0076457828516	0.666046142578125	0.665985107421875	1.641845703125E-06	1.09344478005369E-06	405632	3.6074488889426E-05
2	425	86.1083537825973	0.676116943359375	0.676116943359375	1.8035888671875E-06	1.21943696740345E-06	374873.09375	3.62479804607574E-05
2	426	86.209061782343	0.686187744140625	0.68609619140625	1.9512939453125E-06	1.33877529151505E-06	351610.90625	3.64370534953196E-05
2	427	86.3097697820888	0.696258544921875	0.69622802734375	2.0697021484375E-06	1.4409846471608E-06	336390.46875	3.66395252058282E-05
2	428	86.4104777818345	0.706329345703125	0.706329345703125	2.14996337890625E-06	1.51858228036872E-06	328530.875	3.68520013580564E-05
2	429	86.5111857815803	0.716400146484375	0.716339111328125	2.19085693359375E-06	1.5693964314778E-06	326967.5625	3.70705820387229E-05
2	430	86.611893781326	0.726470947265625	0.726409912109375	2.198486328125E-06	1.59700221047387E-06	330413.65625	3.72916001651902E-05
2	431	86.7126017810717	0.736541748046875	0.736480712890625	2.1826171875E-06	1.6074554878287E-06	337430.09375	3.75122072000522E-05
2	432	86.8133097808175	0.746612548828125	0.74652099609375	2.1533203125E-06	1.60749880251387E-06	346683.65625	3.77305404981598E-05
2	433	86.9140177805632	0.756683349609375	0.7568359375	2.1185302734375E-06	1.60337970100954E-06	357245.78125	3.79456432710867E-05
2	434	87.0147257803089	0.766754150390625	0.76690673828125	2.08526611328125E-06	1.59920455189422E-06	367774.0625	3.81573227059562E-05
2	435	87.1154337800547	0.776824951171875	0.77728271484375	2.0574951171875E-06	1.59925536991068E-06	377781.09375	3.83659280487336E-05
2	436	87.2161417798004	0.786895751953125	0.78765869140625	2.0379638671875E-06	1.60521994985174E-06	386492.96875	3.85721505153924E-05
2	437	87.3168497795461	0.796966552734375	0.79681396484375	2.02911376953125E-06	1.61682623911474E-06	392690.625	3.877694325638E-05
2	438	87.4175577792919	0.807037353515625	0.8074951171875	2.03277587890625E-06	1.64145660619397E-06	397237.65625	3.89814740628935E-05
2	439	87.5182657790376	0.817108154296875	0.816650390625	2.04620361328125E-06	1.67103280546144E-06	399105.1875	3.91868670703843E-05
2	440	87.6189737787834	0.827178955078125	0.82733154296875	2.0703125E-06	1.71283465988381E-06	399616.78125	3.93941518268548E-05
2	441	87.7196817785291	0.837249755859375	0.83770751953125	2.09991455078125E-06	1.75911418409669E-06	398924.5625	3.96041396015789E-05
2	442	87.8203897782748	0.847320556640625	0.84747314453125	2.13043212890625E-06	1.80548386197188E-06	397794.03125	3.98171541746706E-05
2	443	87.9210977780206	0.857391357421875	0.8575439453125	2.1563720703125E-06	1.84918371815002E-06	397679.0625	4.00330100092106E-05
2	444	88.0218057777663	0.867462158203125	0.8673095703125	2.174072265625E-06	1.88559374691977E-06	398933.1875	4.02510668209288E-05
2	445	88.122513777512	0.877532958984375	0.87738037109375	2.18017578125E-06	1.91284334505326E-06	402435.625	4.04703205276746E-05
2	446	88.2232217772578	0.887603759765625	0.88775634765625	2.1771240234375E-06	1.9327555946802E-06	407765.65625	4.06897270295303E-05
2	447	88.3239297770035	0.897674560546875	0.89813232421875	2.16796875E-06	1.94712265511043E-06	414273.65625	4.09085223509464E-05
2	448	88.4246377767493	0.907745361328125	0.90789794921875	2.154541015625E-06	1.95610323316942E-06	421388.125	4.11261753470171E-05
2	449	88.525345776495	0.917816162109375	0.91827392578125	2.14141845703125E-06	1.9664087176352E-06	428815.71875	4.13424968428444E-05
2	450	88.6260537762407	0.927886962890625	0.92803955078125	2.13165283203125E-06	1.97825806935725E-06	435361.5	4.1557661461411E-05
2	451	88.7267617759865	0.937957763671875	0.9375	2.1295166015625E-06	1.99642181542004E-06	440240.75	4.17722294514533E-05
2	452	88.8274697757322	0.948028564453125	0.94818115234375	2.13623046875E-06	2.02553337658173E-06	443857.15625	4.19870266341604E-05
2	453	88.9281777754779	0.958099365234375	0.95855712890625	2.15484619140625E-06	2.0655431853811E-06	444837.84375	4.220309710945E-05
2	454	89.0288857752237	0.968170166015625	0.968017578125	2.18841552734375E-06	2.11842461794731E-06	442337.21875	4.24217978434172E-05
2	455	89.1295937749694	0.978240966796875	0.97808837890625	2.236328125E-06	2.18732657231158E-06	437363.53125	4.26446022174787E-05
2	456	89.2303017747151	0.988311767578125	0.98846435546875	2.294921875E-06	2.26844849748886E-06	430718.09375	4.28727689723019E-05
2	457	89.3310097744609	0.998382568359375	0.9991455078125	2.3602294921875E-06	2.35821266869607E-06	423325.59375	4.31071748607792E-05
2	458	89.4317177742066	1.00845336914063	1.0089111328125	2.42340087890625E-06	2.44499619839189E-06	416320.34375	4.33480490755755E-05
2	459	89.5324257739524	1.01852416992188	1.01837158203125	2.4755859375E-06	2.52106633524818E-06	411365.875	4.35947331425268E-05
2	460	89.6331337736981	1.02859497070313	1.02813720703125	2.5115966796875E-06	2.5822660063568E-06	409356	4.38458591816016E-05
2	461	89.7338417734438	1.03866577148438	1.038818359375	2.52777099609375E-06	2.6258949219482E-06	410962.21875	4.4099611841375E-05
2	462	89.8345497731896	1.04873657226563	1.04827880859375	2.52593994140625E-06	2.64788923232118E-06	415005.4375	4.43540848209523E-05
2	463	89.9352577729353	1.05880737304688	1.0589599609375	2.50946044921875E-06	2.65741800831165E-06	421987.125	4.46076373918913E-05
2	464	90.035965772681	1.06887817382813	1.0687255859375	2.48321533203125E-06	2.65387552644825E-06	430379.78125	4.48590399173554E-05
2	465	90.1366737724268	1.07894897460938	1.0797119140625	2.452392578125E-06	2.64787740889005E-06	440268.8125	4.51075648015831E-05
2	466	90.2373817721725	1.08901977539063	1.08917236328125	2.418212890625E-06	2.63385049947829E-06	450403.875	4.53528191428632E-05
2	467	90.3380897719182	1.09909057617188	1.0992431640625	2.38555908203125E-06	2.62230946646014E-06	460790.5625	4.55947083537467E-05
2	468	90.438797771664	1.10916137695313	1.1090087890625	2.35443115234375E-06	2.61108471022453E-06	471030.5	4.58333888673224E-05
2	469	90.5395057714097	1.11923217773438	1.119384765625	2.32513427734375E-06	2.60271963270498E-06	481428.03125	4.60690207546577E-05
2	470	90.6402137711555	1.12930297851563	1.12884521484375	2.298583984375E-06	2.59474541053351E-06	491104.625	4.63018441223539E-05
2	471	90.7409217709012	1.13937377929688	1.1395263671875	2.2747802734375E-06	2.59217199527484E-06	500939.125	4.65321318188217E-05
2	472	90.8416297706469	1.14944458007813	1.14959716796875	2.25341796875E-06	2.59052285400685E-06	510157.09375	4.67601457785349E-05
2	473	90.9423377703927	1.15951538085938	1.15936279296875	2.2344970703125E-06	2.59059265772521E-06	518847.3125	4.69861297460739E-05
2	474	91.0430457701384	1.16958618164063	1.17034912109375	2.21710205078125E-06	2.5947833819373E-06	527873.375	4.72102838102728E-05
2	475	91.1437537698841	1.17965698242188	1.17950439453125	2.20245361328125E-06	2.59780358646822E-06	535541.125	4.74328262498602E-05
2	476	91.2444617696299	1.18972778320313	1.1895751953125	2.188720703125E-06	2.60364777204813E-06	543502.5625	4.76539389637765E-05
2	477	91.3451697693756	1.19979858398438	1.1993408203125	2.17803955078125E-06	2.61221157416003E-06	550651.5625	4.78738256788347E-05
2	478	91.4458777691214	1.20986938476563	1.2103271484375	2.16827392578125E-06	2.62432058661943E-06	558198.5	4.80926792079117E-05
2	479	91.5465857688671	1.21994018554688	1.21978759765625	2.1600341796875E-06	2.63478295892128E-06	564707.5625	4.83106268802658E-05
2	480	91.6472937686128	1.23001098632813	1.2298583984375	2.15301513671875E-06	2.64790355686273E-06	571226.125	4.85278069390915E-05
2	481	91.7480017683586	1.24008178710938	1.2396240234375	2.1478271484375E-06	2.6624979909684E-06	577152.625	4.87443685415201E-05
2	482	91.8487097681043	1.25015258789063	1.25	2.1435546875E-06	2.67944324150449E-06	583143.5	4.89604572067037E-05
2	483	91.94941776785	1.26022338867188	1.26007080078125	2.14080810546875E-06	2.6975696982845E-06	588595.875	4.91761929879431E-05
2	484	92.0501257675958	1.27029418945313	1.27044677734375	2.139892578125E-06	2.71861949840968E-06	593696.5	4.93917432322633E-05
2	485	92.1508337673415	1.28036499023438	1.280517578125	2.14019775390625E-06	2.74056083071628E-06	598317.4375	4.9607264372753E-05
2	486	92.2515417670872	1.29043579101563	1.28997802734375	2.142333984375E-06	2.76356354333984E-06	602136.8125	4.98229055665433E-05
2	487	92.352249766833	1.30050659179688	1.30096435546875	2.1453857421875E-06	2.79107030110026E-06	606401.125	5.00388086948078E-05
2	488	92.4529577665787	1.31057739257813	1.3104248046875	2.15118408203125E-06	2.81896473097731E-06	609164.4375	5.02551592944656E-05
2	489	92.5536657663245	1.32064819335938	1.3201904296875	2.159423828125E-06	2.8508504783531E-06	611362.375	5.04722156620119E-05
2	490	92.6543737660702	1.33071899414063	1.3311767578125	2.169189453125E-06	2.88757451016863E-06	613674.75	5.06901778862812E-05
2	491	92.7550817658159	1.34078979492188	1.34033203125	2.1820068359375E-06	2.92461345452466E-06	614265.75	5.09092787979171E-05
2	492	92.8557897655617	1.35086059570313	1.3507080078125	2.19635009765625E-06	2.96662778964674E-06	614978.4375	5.11297475895844E-05
2	493	92.9564977653074	1.36093139648438	1.361083984375	2.21405029296875E-06	3.01350837617065E-06	614748.4375	5.13518280058634E-05
2	494	93.0572057650531	1.37100219726563	1.37115478515625	2.23419189453125E-06	3.06342303701967E-06	613713.9375	5.15758147230372E-05
2	495	93.1579137647989	1.38107299804688	1.38092041015625	2.25677490234375E-06	3.1164265692496E-06	611899.9375	5.1801951485686E-05
2	496	93.2586217645446	1.39114379882813	1.3909912109375	2.2808837890625E-06	3.17268927574332E-06	609847.5	5.2030442020623E-05
2	497	93.3593297642904	1.40121459960938	1.40106201171875	2.30712890625E-06	3.23243057209766E-06	607275.125	5.22614682267886E-05
2	498	93.4600377640361	1.41128540039063	1.41143798828125	2.33551025390625E-06	3.29642762153526E-06	604338.1875	5.24952411069535E-05
2	499	93.5607457637818	1.42135620117188	1.42120361328125	2.36572265625E-06	3.3621734019107E-06	600748.1875	5.27319680259097E-05
2	500	93.6614537635276	1.43142700195313	1.4312744140625	2.3968505859375E-06	3.43055080520571E-06	597148	5.29717835888732E-05
2	501	93.7621617632733	1.44149780273438	1.44134521484375	2.43011474609375E-06	3.5026339446631E-06	593118.1875	5.32148405909538E-05
2	502	93.862869763019	1.45156860351563	1.4520263671875	2.46551513671875E-06	3.5799928355118E-06	588934.3125	5.34613536729012E-05
2	503	93.9635777627648	1.46163940429688	1.4617919921875	2.5048828125E-06	3.66161771125917E-06	583577	5.37116320629138E-05
2	504	94.0642857625105	1.47171020507813	1.4715576171875	2.55096435546875E-06	3.75389117834857E-06	576863.25	5.39662141818553E-05
2	505	94.1649937622562	1.48178100585938	1.48193359375	2.6068115234375E-06	3.8631214920315E-06	568485.125	5.42259294888936E-05
2	506	94.265701762002	1.49185180664063	1.49169921875	2.6763916015625E-06	3.9923711483425E-06	557354.625	5.4491960327141E-05
2	507	94.3664097617477	1.50192260742188	1.5020751953125	2.760009765625E-06	4.14574196838657E-06	544228.25	5.47657036804594E-05
2	508	94.4671177614935	1.49185180664063	1.49169921875	2.51708984375E-06	3.7547408737737E-06	592628.5	5.5031428928487E-05
2	509	94.5678257612392	1.48178100585938	1.48193359375	2.340087890625E-06	3.46785463989363E-06	633281.1875	5.5276006605709E-05
2	510	94.6685337609849	1.47171020507813	1.47186279296875	2.20184326171875E-06	3.24081111102714E-06	668468.5	5.55047117813956E-05
2	511	94.7692417607307	1.46163940429688	1.4617919921875	2.08831787109375E-06	3.05268622469157E-06	699985.375	5.57207386009395E-05
2	512	94.8699497604764	1.45156860351563	1.451416015625	1.99432373046875E-06	2.89459330815589E-06	727773.5625	5.59263135073707E-05
2	513	94.9706577602221	1.44149780273438	1.441650390625	1.91558837890625E-06	2.76160881185206E-06	752588.8125	5.61231936444528E-05
2	514	95.0713657599679	1.43142700195313	1.43096923828125	1.84844970703125E-06	2.64507457359286E-06	774145.625	5.63127287023235E-05
2	515	95.1720737597136	1.42135620117188	1.4208984375	1.79046630859375E-06	2.54407063948747E-06	793591.3125	5.64959627809003E-05
2	516	95.2727817594593	1.41128540039063	1.41143798828125	1.7401123046875E-06	2.45606042881263E-06	811118.9375	5.66737435292453E-05
2	517	95.3734897592051	1.40121459960938	1.4013671875	1.695556640625E-06	2.37609742725908E-06	826493.875	5.68467403354589E-05
2	518	95.4741977589508	1.39114379882813	1.39190673828125	1.65557861328125E-06	2.30441105486534E-06	840737.375	5.7015484344447E-05
2	519	95.5749057586966	1.38107299804688	1.3812255859375	1.62078857421875E-06	2.2386745968106E-06	852193.5625	5.71804630453698E-05
2	520	95.6756137584423	1.37100219726563	1.370849609375	1.58843994140625E-06	2.17751221498474E-06	863016.375	5.73420620639808E-05
2	521	95.776321758188	1.36093139648438	1.3604736328125	1.55914306640625E-06	2.12117288356239E-06	872577.8125	5.75005542486906E-05
2	522	95.8770297579338	1.35086059570313	1.3507080078125	1.53228759765625E-06	2.06967320082185E-06	881497.75	5.76562197238673E-05
2	523	95.9777377576795	1.34078979492188	1.34124755859375	1.50726318359375E-06	2.02161299966974E-06	889856.25	5.78092731302604E-05
2	524	96.0784457574252	1.33071899414063	1.33087158203125	1.48406982421875E-06	1.97510621546826E-06	896771.5625	5.79599000047892E-05
2	525	96.179153757171	1.32064819335938	1.32049560546875	1.4617919921875E-06	1.9302899545437E-06	903340.3125	5.81082349526696E-05
2	526	96.2798617569167	1.31057739257813	1.31072998046875	1.44195556640625E-06	1.89001434591773E-06	908994.75	5.82544489589054E-05
2	527	96.3805697566625	1.30050659179688	1.30126953125	1.42303466796875E-06	1.85175156275363E-06	914432.8125	5.83987130085006E-05
2	528	96.4812777564082	1.29043579101563	1.29058837890625	1.40472412109375E-06	1.8129205727746E-06	918748.625	5.85411034990102E-05
2	529	96.5819857561539	1.28036499023438	1.2799072265625	1.387939453125E-06	1.77643369170255E-06	922163.625	5.86817259318195E-05
2	530	96.6826937558997	1.27029418945313	1.270751953125	1.3720703125E-06	1.74356102888851E-06	926156.5625	5.88207003602292E-05
2	531	96.7834017556454	1.26022338867188	1.2603759765625	1.35650634765625E-06	1.70970804447279E-06	929133.875	5.89580959058367E-05
2	532	96.8841097553911	1.25015258789063	1.25030517578125	1.341552734375E-06	1.67735026934679E-06	931983.6875	5.90939562243875E-05
2	533	96.9848177551369	1.24008178710938	1.23992919921875	1.326904296875E-06	1.64526727530756E-06	934452.6875	5.92283213336486E-05
2	534	97.0855257548826	1.23001098632813	1.23016357421875	1.3134765625E-06	1.61579100677045E-06	936570.625	5.93612749071326E-05
2	535	97.1862337546283	1.21994018554688	1.21978759765625	1.30035400390625E-06	1.58615557666053E-06	938042.75	5.94928933423944E-05
2	536	97.2869417543741	1.20986938476563	1.2103271484375	1.28753662109375E-06	1.55834050019621E-06	940033.1875	5.96232021052856E-05
2	537	97.3876497541198	1.19979858398438	1.199951171875	1.27471923828125E-06	1.5296008086807E-06	941345.4375	5.97522230236791E-05
2	538	97.4883577538656	1.18972778320313	1.1895751953125	1.2628173828125E-06	1.50221626427083E-06	942001	5.98799997533206E-05
2	539	97.5890657536113	1.17965698242188	1.18011474609375	1.25091552734375E-06	1.47622381518886E-06	943400.875	6.00065759499557E-05
2	540	97.689773753357	1.16958618164063	1.16943359375	1.23931884765625E-06	1.44930106671382E-06	943609.9375	6.01319698034786E-05
2	541	97.7904817531028	1.15951538085938	1.1602783203125	1.22711181640625E-06	1.42379110457114E-06	945536	6.02561631239951E-05
2	542	97.8911897528485	1.14944458007813	1.14990234375	1.214599609375E-06	1.39667088205897E-06	946733.6875	6.03791122557595E-05
2	543	97.9918977525942	1.13937377929688	1.13983154296875	1.2017822265625E-06	1.36982930598606E-06	948451	6.05007880949415E-05
2	544	98.09260575234	1.12930297851563	1.12945556640625	1.1883544921875E-06	1.34219351366482E-06	950436.625	6.06211397098377E-05
2	545	98.1933137520857	1.11923217773438	1.11907958984375	1.17340087890625E-06	1.3131289051671E-06	953706.125	6.07400652370416E-05
2	546	98.2940217518315	1.10916137695313	1.109619140625	1.1566162109375E-06	1.28340354876855E-06	959366.75	6.08573900535703E-05
2	547	98.3947297515772	1.09909057617188	1.0992431640625	1.13677978515625E-06	1.24959728964313E-06	966979.9375	6.09728704148438E-05
2	548	98.4954377513229	1.08901977539063	1.0894775390625	1.11297607421875E-06	1.21256243801326E-06	978886.75	6.10861534369178E-05
2	549	98.5961457510687	1.07894897460938	1.0784912109375	1.08245849609375E-06	1.16742194222752E-06	996335	6.11967043369077E-05
2	550	98.6968537508144	1.06887817382813	1.06964111328125	1.04461669921875E-06	1.11736494545767E-06	1023955.6875	6.13038137089461E-05
2	551	98.7975617505601	1.05880737304688	1.0589599609375	9.9700927734375E-07	1.05579283626867E-06	1062136.5	6.14066157140769E-05
2	552	98.8982697503059	1.04873657226563	1.048583984375	9.3719482421875E-07	9.8272744253336E-07	1118853.875	6.15040116827004E-05
2	553	98.9989777500516	1.03866577148438	1.03851318359375	8.648681640625E-07	8.98176949704066E-07	1200776.375	6.15947501501068E-05
2	554	99.0996857497973	1.02859497070313	1.02874755859375	7.8125E-07	8.03708985586127E-07	1316796.875	6.16776378592476E-05
2	555	99.2003937495431	1.01852416992188	1.01806640625	6.90612792968751E-07	7.03089654052746E-07	1474149.5	6.17517507635057E-05
2	556	99.3011017492888	1.00845336914063	1.00830078125	6.00585937500001E-07	6.05571244705061E-07	1678861.875	6.1816768720746E-05
2	557	99.4018097490346	0.998382568359375	0.99853515625	5.20935058593749E-07	5.20171965945337E-07	1916813.25	6.18732447037473E-05
2	558	99.5025177487803	0.988311767578125	0.98846435546875	4.57763671875E-07	4.52483050139563E-07	2159333.5	6.19225247646682E-05
2	559	99.603225748526	0.978240966796875	0.9783935546875	4.16259765625E-07	4.07265872581775E-07	2350440	6.19665370322764E-05
2	560	99.7039337482718	0.968170166015625	0.9686279296875	3.96728515625E-07	3.84282287768656E-07	2441538.5	6.20074715698138E-05
2	561	99.8046417480175	0.958099365234375	0.958251953125	3.9398193359375E-07	3.77533950768338E-07	2432223	6.20472856098786E-05
2	562	99.9053497477632	0.948028564453125	0.94818115234375	4.010009765625E-07	3.80221564455496E-07	2364535.75	6.20873179286718E-05
2	563	100.006057747509	0.937957763671875	0.9381103515625	4.107666015625E-07	3.8534440705007E-07	2283803.75	6.21281942585483E-05
2	564	100.106765747255	0.927886962890625	0.9283447265625	4.180908203125E-07	3.88132406214936E-07	2220438	6.21699291514233E-05
2	565	100.207473747	0.917816162109375	0.91796875	4.20532226562501E-07	3.86035424071451E-07	2182873.75	6.2212158809416E-05
2	566	100.308181746746	0.907745361328125	0.90789794921875	4.1656494140625E-07	3.78198450334821E-07	2179487.25	6.2254308431875E-05
2	567	100.408889746492	0.897674560546875	0.89752197265625	4.02221679687501E-07	3.61002776116948E-07	2231411.25	6.22955412836745E-05
2	568	100.509597746238	0.887603759765625	0.887451171875	3.77197265625E-07	3.34744157726163E-07	2352750.75	6.23347877990454E-05
2	569	100.610305745983	0.877532958984375	0.87799072265625	3.40576171875E-07	2.99022701710783E-07	2577957.25	6.23709274805151E-05
2	570	100.711013745729	0.867462158203125	0.8673095703125	2.9266357421875E-07	2.53829909979686E-07	2963503.75	6.24028180027381E-05
2	571	100.811721745475	0.857391357421875	0.85784912109375	2.3651123046875E-07	2.02890944933642E-07	3627096.75	6.24294625595212E-05
2	572	100.912429745221	0.847320556640625	0.84716796875	1.79138183593749E-07	1.51760133348944E-07	4729131	6.24503882136196E-05
2	573	101.013137744966	0.837249755859375	0.83740234375	1.25732421874999E-07	1.05288620488864E-07	6660194.5	6.24657404841855E-05
2	574	101.113845744712	0.827178955078125	0.82763671875	8.27026367187497E-08	6.84477399204297E-08	10007380	6.24762396910228E-05
2	575	101.214553744458	0.817108154296875	0.8172607421875	5.21850585937497E-08	4.26488000471181E-08	15660819	6.24830281594768E-05
2	576	101.315261744204	0.807037353515625	0.8074951171875	3.63159179687503E-08	2.93249264871065E-08	22235294	6.24874883214943E-05
2	577	101.415969743949	0.796966552734375	0.79681396484375	3.17382812500003E-08	2.52895056007674E-08	25105770	6.24909152975306E-05
2	578	101.516677743695	0.786895751953125	0.7867431640625	3.509521484375E-08	2.7610921549126E-08	22417390	6.24942767899483E-05
2	579	101.617385743441	0.776824951171875	0.7769775390625	3.99780273437497E-08	3.10620293930697E-08	19435116	6.24980602879077E-05
2	580	101.718093743187	0.766754150390625	0.76690673828125	4.02832031249994E-08	3.08934566817243E-08	19037880	6.25020984443836E-05
2	581	101.818801742932	0.756683349609375	0.75653076171875	3.08227539062497E-08	2.33183623521427E-08	24544554	6.25056782155298E-05
2	582	101.919509742678	0.746612548828125	0.746490478515625	6.103515625E-09	4.55621629313896E-09	122305000	6.2507540860679E-05
2	583	102.020217742424	0.736541748046875	0.73651123046875	-3.84521484374997E-08	-2.8320437550633E-08	-19153970	6.25059110461734E-05
2	584	102.120925742169	0.726470947265625	0.7264404296875	-1.05895996093749E-07	-7.69271295553153E-08	-6859942.5	6.24986423645169E-05
2	585	102.221633741915	0.716400146484375	0.716400146484375	-2.0111083984375E-07	-1.44075826824519E-07	-3562215.5	6.24831809545867E-05
2	586	102.322341741661	0.706329345703125	0.706268310546875	-3.2379150390625E-07	-2.28683660452589E-07	-2181244.25	6.2456754676532E-05
2	587	102.423049741407	0.696258544921875	0.696197509765625	-4.6875E-07	-3.26342586731698E-07	-1485221.375	6.24168460490182E-05
2	588	102.523757741152	0.686187744140625	0.686187744140625	-6.243896484375E-07	-4.28448515776836E-07	-1098973.625	6.23618034296669E-05
2	589	102.624465740898	0.676116943359375	0.67608642578125	-7.7545166015625E-07	-5.24272365964862E-07	-871861.4375	6.22913139523007E-05
2	590	102.725173740644	0.666046142578125	0.66595458984375	-9.033203125E-07	-6.01570320668543E-07	-737229.75	6.22067818767391E-05
2	591	102.82588174039	0.655975341796875	0.655914306640625	-9.9609375E-07	-6.5335211729689E-07	-658486.5625	6.21111394139007E-05
2	592	102.926589740135	0.645904541015625	0.645904541015625	-1.046142578125E-06	-6.75708236030914E-07	-617415.4375	6.20083010289818E-05
2	593	103.027297739881	0.635833740234375	0.635772705078125	-1.05743408203125E-06	-6.72287683300965E-07	-601241	6.19023776380345E-05
2	594	103.128005739627	0.625762939453125	0.625701904296875	-1.036376953125E-06	-6.48463014840672E-07	-603739.6875	6.1796949012205E-05
2	595	103.228713739373	0.615692138671875	0.615631103515625	-9.93957519531249E-07	-6.11911161740863E-07	-619373.625	6.16947145317681E-05
2	596	103.329421739118	0.605621337890625	0.605560302734375	-9.40551757812499E-07	-5.69560768326483E-07	-643835.1875	6.15973040112294E-05
2	597	103.430129738864	0.595550537109375	0.59552001953125	-8.819580078125E-07	-5.25223640579497E-07	-675224.9375	6.15055323578417E-05
2	598	103.53083773861	0.585479736328125	0.585479736328125	-8.23364257812501E-07	-4.82063057916093E-07	-711082.3125	6.14196615060791E-05
2	599	103.631545738355	0.575408935546875	0.575408935546875	-7.672119140625E-07	-4.41460571209973E-07	-750000.0625	6.13395677646622E-05
2	600	103.732253738101	0.565338134765625	0.56524658203125	-7.15026855468751E-07	-4.04166485168389E-07	-790525	6.12649309914559E-05
2	601	103.832961737847	0.555267333984375	0.555267333984375	-6.67419433593749E-07	-3.70596211496377E-07	-831961.5625	6.1195321904961E-05
2	602	103.933669737593	0.545196533203125	0.545196533203125	-6.2408447265625E-07	-3.40248675456678E-07	-873594.125	6.11302893958054E-05
2	603	104.034377737338	0.535125732421875	0.53515625	-5.841064453125E-07	-3.12588213091658E-07	-916196.5	6.10694551141933E-05
2	604	104.135085737084	0.525054931640625	0.5250244140625	-5.4962158203125E-07	-2.885647347739E-07	-955247.125	6.10123643127736E-05
2	605	104.23579373683	0.514984130859375	0.514984130859375	-5.17578125E-07	-2.66544503801924E-07	-994988.25	6.0958627727814E-05
2	606	104.336501736576	0.504913330078125	0.5048828125	-4.8858642578125E-07	-2.46678894200159E-07	-1033354.1875	6.09079615969677E-05
2	607	104.437209736321	0.494842529296875	0.494903564453125	-4.6234130859375E-07	-2.28814357683405E-07	-1070429.125	6.08600785199087E-05
2	608	104.537917736067	0.484771728515625	0.484771728515625	-4.3792724609375E-07	-2.12294750667752E-07	-1106968.625	6.08147456659935E-05
2	609	104.638625735813	0.474700927734375	0.474639892578125	-4.1534423828125E-07	-1.97138945168263E-07	-1142762.75	6.07717811362818E-05
2	610	104.739333735559	0.464630126953125	0.46466064453125	-3.955078125E-07	-1.83776919016054E-07	-1174845.625	6.07309521001298E-05
2	611	104.840041735304	0.454559326171875	0.45458984375	-3.765869140625E-07	-1.71192581888135E-07	-1207131.25	6.06920730206184E-05
2	612	104.94074973505	0.444488525390625	0.444549560546875	-3.5888671875E-07	-1.595429353074E-07	-1238690.5	6.06550383963622E-05
2	613	105.041457734796	0.434417724609375	0.43438720703125	-3.4210205078125E-07	-1.4860475516798E-07	-1269759.125	6.06197427259758E-05
2	614	105.142165734542	0.424346923828125	0.424346923828125	-3.2623291015625E-07	-1.38435936491987E-07	-1300748.375	6.05860877840314E-05
2	615	105.242873734287	0.414276123046875	0.414215087890625	-3.1158447265625E-07	-1.29062982523465E-07	-1329383	6.05539717071224E-05
2	616	105.343581734033	0.404205322265625	0.40423583984375	-2.960205078125E-07	-1.19662090014572E-07	-1365567.125	6.05233763053548E-05
2	617	105.444289733779	0.394134521484375	0.394134521484375	-2.8228759765625E-07	-1.11259289781174E-07	-1396216.25	6.04942579229828E-05
2	618	105.544997733524	0.384063720703125	0.384063720703125	-2.67944335937501E-07	-1.02907698362742E-07	-1433371.375	6.0466551076388E-05
2	619	105.64570573327	0.373992919921875	0.3740234375	-2.5360107421875E-07	-9.48527372202079E-08	-1474849.625	6.04402885073796E-05
2	620	105.746413733016	0.363922119140625	0.36395263671875	-2.40173339843749E-07	-8.74117205285074E-08	-1515374.875	6.04154229222331E-05
2	621	105.847121732762	0.353851318359375	0.3538818359375	-2.26440429687499E-07	-8.01331481170564E-08	-1562803.25	6.03919288550969E-05
2	622	105.947829732507	0.343780517578125	0.34381103515625	-2.14538574218751E-07	-7.37607308565202E-08	-1602560.5	6.03697226324584E-05
2	623	106.048537732253	0.333709716796875	0.333740234375	-2.0294189453125E-07	-6.7729871489064E-08	-1644511.25	6.03487023909111E-05
2	624	106.149245731999	0.323638916015625	0.323638916015625	-1.9195556640625E-07	-6.21242932652422E-08	-1686009.5	6.03288171987515E-05
2	625	106.249953731745	0.313568115234375	0.313568115234375	-1.82189941406249E-07	-5.71289540118869E-08	-1721105.625	6.03099761065096E-05
2	626	106.35066173149	0.303497314453125	0.303497314453125	-1.739501953125E-07	-5.27934140848174E-08	-1744737	6.02920445089694E-05
2	627	106.451369731236	0.293426513671875	0.29345703125	-1.666259765625E-07	-4.889756155535E-08	-1761172.25	6.02748950768728E-05
2	628	106.552077730982	0.283355712890625	0.28338623046875	-1.59912109375E-07	-4.53168880198973E-08	-1772137.5	6.02584514126647E-05
2	629	106.652785730728	0.273284912109375	0.273345947265625	-1.5411376953125E-07	-4.21263735006505E-08	-1773663.375	6.02426407567691E-05
2	630	106.753493730473	0.263214111328125	0.26324462890625	-1.48925781250001E-07	-3.92039112284692E-08	-1767623	6.02273794356734E-05
2	631	106.854201730219	0.253143310546875	0.253265380859375	-1.44042968749999E-07	-3.64810972541818E-08	-1758262.625	6.02126274316106E-05
2	632	106.954909729965	0.243072509765625	0.243072509765625	-1.40380859375E-07	-3.41227277544931E-08	-1731521.75	6.01983083470259E-05
2	633	107.055617729711	0.233001708984375	0.233062744140625	-1.373291015625E-07	-3.2006294503617E-08	-1697111.125	6.01843239564914E-05
2	634	107.156325729456	0.222930908203125	0.222930908203125	-1.35192871093751E-07	-3.01386684498084E-08	-1648984.25	6.01706015004311E-05
2	635	107.257033729202	0.212860107421875	0.212921142578125	-1.33361816406249E-07	-2.83955490232302E-08	-1596567.625	6.01570791332051E-05
2	636	107.357741728948	0.202789306640625	0.202880859375	-1.324462890625E-07	-2.68708166828446E-08	-1531797.25	6.0143691371195E-05
2	637	107.458449728693	0.192718505859375	0.19281005859375	-1.3275146484375E-07	-2.55958187977967E-08	-1452413.75	6.0130339988973E-05
2	638	107.559157728439	0.182647705078125	0.18267822265625	-1.3397216796875E-07	-2.44737972110443E-08	-1363553.5	6.01169085712172E-05
2	639	107.659865728185	0.172576904296875	0.172607421875	-1.36718750000001E-07	-2.35986714614E-08	-1262500	6.0103277064627E-05
2	640	107.760573727931	0.162506103515625	0.16253662109375	-1.40991210937499E-07	-2.29162342435529E-08	-1152813.875	6.00892963120714E-05
2	641	107.861281727676	0.152435302734375	0.1524658203125	-1.483154296875E-07	-2.26130332237062E-08	-1027983.5625	6.0074726206949E-05
2	642	107.961989727422	0.142364501953125	0.142364501953125	-1.58081054687501E-07	-2.25051302038537E-08	-900579.1875	6.00592975388281E-05
2	643	108.062697727168	0.132293701171875	0.132293701171875	-1.727294921875E-07	-2.28510224076217E-08	-765901.0625	6.00426392338704E-05
2	644	108.163405726914	0.122222900390625	0.12225341796875	-1.9378662109375E-07	-2.36910757678288E-08	-630866.125	6.00241837673821E-05
2	645	108.264113726659	0.112152099609375	0.11224365234375	-2.23388671874999E-07	-2.50739606855177E-08	-502459.03125	6.00031780777499E-05
2	646	108.364821726405	0.102081298828125	0.102142333984375	-2.64892578125001E-07	-2.70567461768678E-08	-385599.09375	5.99785926169716E-05
2	647	108.465529726151	0.092010498046875	0.092071533203125	-3.23486328125E-07	-2.97838820273455E-08	-284622.65625	5.99489649175666E-05
2	648	108.566237725897	0.081939697265625	0.082000732421875	-4.0435791015625E-07	-3.3157643741788E-08	-202792.453125	5.9912315919064E-05
2	649	108.666945725642	0.071868896484375	0.07196044921875	-5.126953125E-07	-3.68937840278249E-08	-140357.140625	5.98661390540656E-05
2	650	108.767653725388	0.061798095703125	0.061859130859375	-6.53991699218751E-07	-4.04553546218267E-08	-94587.03125	5.98073893343098E-05
2	651	108.868361725134	0.051727294921875	0.051727294921875	-8.3038330078125E-07	-4.29534807722121E-08	-62293.27734375	5.97326470597181E-05
2	652	108.96906972488	0.041656494140625	0.0417938232421875	-1.03546142578125E-06	-4.32758930912769E-08	-40362.51171875	5.96386926190462E-05
2	653	109.069777724625	0.031585693359375	0.0317047119140625	-1.26068115234375E-06	-3.99695316843918E-08	-25148.876953125	5.9523074014578E-05
2	654	109.170485724371	0.021514892578125	0.021636962890625	-1.48345947265625E-06	-3.20975566125981E-08	-14585.4765625	5.93848963035271E-05
2	655	109.271193724117	0.011444091796875	0.0115570068359375	-1.683349609375E-06	-1.94544824694276E-08	-6865.48291015625	5.92254327784758E-05
2	656	109.371901723862	0.001373291015625	0.00150146484374999	-1.83868408203125E-06	-2.76071943083878E-09	-816.597534179688	5.90480849496089E-05
2	657	109.472609723608	-0.008697509765625	-0.0085723876953125	-1.93756103515625E-06	1.66095226461493E-08	4424.31884765625	5.88579350733198E-05
2	658	109.573317723354	-0.018768310546875	-0.0186676025390625	-1.98028564453125E-06	3.6967183092429E-08	9426.72265625	5.86606583965477E-05
2	659	109.6740257231	-0.028839111328125	-0.0286834716796875	-1.97540283203125E-06	5.66614097863294E-08	14520.31640625	5.84614717809018E-05
2	660	109.774733722845	-0.038909912109375	-0.038751220703125	-1.9378662109375E-06	7.50946895777815E-08	19996.849609375	5.82644242967945E-05
2	661	109.875441722591	-0.048980712890625	-0.0488433837890625	-1.88079833984375E-06	9.18645568503962E-08	25969.49609375	5.80721389269456E-05
2	662	109.976149722337	-0.059051513671875	-0.058990478515625	-1.8145751953125E-06	1.07042659180934E-07	32509.25	5.78860599489417E-05
2	663	110.076857722083	-0.069122314453125	-0.069061279296875	-1.746826171875E-06	1.20638048883848E-07	39535.29296875	5.77067294216249E-05
2	664	110.177565721828	-0.079193115234375	-0.079132080078125	-1.6827392578125E-06	1.33158650328369E-07	47025.75390625	5.75340382056311E-05
2	665	110.278273721574	-0.089263916015625	-0.089202880859375	-1.62445068359375E-06	1.44905683896468E-07	54912.64453125	5.73675097257365E-05
2	666	110.37898172132	-0.099334716796875	-0.099212646484375	-1.57196044921875E-06	1.55958346681473E-07	63113.9609375	5.72065546293743E-05
2	667	110.479689721066	-0.109405517578125	-0.109283447265625	-1.52557373046875E-06	1.66719956951056E-07	71634.328125	5.70505835639779E-05
2	668	110.580397720811	-0.119476318359375	-0.119384765625	-1.48681640625E-06	1.77503224563225E-07	80295.5703125	5.68988980376162E-05
2	669	110.681105720557	-0.129547119140625	-0.129486083984375	-1.45263671875E-06	1.88096223041612E-07	89138.6640625	5.67508832318708E-05
2	670	110.781813720303	-0.139617919921875	-0.139495849609375	-1.424560546875E-06	1.98720286448406E-07	97922.0234375	5.66060043638572E-05
2	671	110.882521720049	-0.149688720703125	-0.149627685546875	-1.4007568359375E-06	2.09592002420322E-07	106819.1796875	5.64637375646271E-05
2	672	110.983229719794	-0.159759521484375	-0.15966796875	-1.38214111328125E-06	2.20683645579811E-07	115522.1953125	5.63236098969355E-05
2	673	111.08393771954	-0.169830322265625	-0.169708251953125	-1.36688232421875E-06	2.31971213793258E-07	124157.1796875	5.61851848033257E-05
2	674	111.184645719286	-0.179901123046875	-0.1798095703125	-1.3555908203125E-06	2.43748189632242E-07	132642.953125	5.60480984859169E-05
2	675	111.285353719031	-0.189971923828125	-0.189788818359375	-1.3470458984375E-06	2.55654242664605E-07	140892.609375	5.59120089747012E-05
2	676	111.386061718777	-0.200042724609375	-0.199859619140625	-1.3427734375E-06	2.68366193267866E-07	148840.90625	5.57765670237131E-05
2	677	111.486769718523	-0.189971923828125	-0.18988037109375	-1.19171142578125E-06	2.26282594439908E-07	159334.203125	5.56489430891816E-05
