Potential - Start -0.2 V, Upper Vertex 1.5 V, Lower Vertex -0.2 V, Stop -0.19 V; Scan - # end cross 5, Rate 0.1 Vps, Step 0.01 V 
Scan	Index	Time (s)	Potential applied (V)	WE(1).Potential (V)	WE(1).Current (A)	WE(1).Power (W)	WE(1).Resistance (Ω)	WE(1).Charge (C)
1	1	66.2325798327788	-0.189971923828125	-0.189849853515625	-2.62451171875E-07	4.9826311965262E-08	723372.125	0
1	2	66.3332878325245	-0.179901123046875	-0.17974853515625	-2.3193359375E-07	4.16897201205302E-08	775000.0625	-2.48942484404324E-08
1	3	66.4339958322703	-0.169830322265625	-0.169708251953125	-2.0721435546875E-07	3.51659856789865E-08	818998.5	-4.70071057634414E-08
1	4	66.534703832016	-0.159759521484375	-0.159637451171875	-1.861572265625E-07	2.97176647734432E-08	857541	-6.68149340299351E-08
1	5	66.6354118317618	-0.149688720703125	-0.149566650390625	-1.67236328125001E-07	2.50129765788643E-08	894343.125	-8.46097165663195E-08
1	6	66.7361198315075	-0.139617919921875	-0.139556884765625	-1.495361328125E-07	2.0868796468676E-08	933265.3125	-1.00560477278577E-07
1	7	66.8368278312532	-0.129547119140625	-0.12945556640625	-1.32141113281251E-07	1.71064016285527E-08	979676.6875	-1.14744054258153E-07
1	8	66.937535830999	-0.119476318359375	-0.119384765625	-1.15051269531249E-07	1.37353683982155E-08	1037665.8125	-1.27191171372942E-07
1	9	67.0382438307447	-0.109405517578125	-0.109283447265625	-9.79614257812497E-08	1.07055626585861E-08	1115576.375	-1.37917211873173E-07
1	10	67.1389518304904	-0.099334716796875	-0.0992431640625	-7.87353515625006E-08	7.81394504656419E-09	1260465.125	-1.46814613799506E-07
1	11	67.2396598302362	-0.089263916015625	-0.0892333984375	-5.73730468750006E-08	5.11959186155764E-09	1555319.125	-1.53668210600699E-07
1	12	67.3403678299819	-0.079193115234375	-0.0791015625	-3.14331054687506E-08	2.48640752431584E-09	2516505	-1.58139954464787E-07
1	13	67.4410758297277	-0.069122314453125	-0.06903076171875	9.15527343750555E-10	-6.31995497601956E-11	-75400000	-1.5967663102856E-07
1	14	67.5417838294734	-0.059051513671875	-0.05902099609375	4.36401367187506E-08	-2.57568433248423E-09	-1352447.625	-1.57433078129543E-07
1	15	67.6424918292191	-0.048980712890625	-0.0488372802734375	9.85717773437506E-08	-4.8139776609446E-09	-495448.9375	-1.50272143173424E-07
1	16	67.7431998289649	-0.038909912109375	-0.0387542724609375	1.73034667968749E-07	-6.70583277795345E-09	-223968.265625	-1.36595673438933E-07
1	17	67.8439078287106	-0.028839111328125	-0.02872314453125	2.728271484375E-07	-7.83645415225465E-09	-105279.640625	-1.14144746987677E-07
1	18	67.9446158284563	-0.018768310546875	-0.01866455078125	4.03747558593751E-07	-7.53576667733569E-09	-46228.26953125	-8.00765036501616E-08
1	19	68.0453238282021	-0.008697509765625	-0.00863037109375001	5.7098388671875E-07	-4.92780261041048E-09	-15114.9111328125	-3.0994875999113E-08
1	20	68.1460318279478	0.001373291015625	0.00145874023437501	7.7545166015625E-07	1.13118248101785E-09	1881.14904785156	3.68035415476697E-08
1	21	68.2467398276935	0.011444091796875	0.0115203857421875	1.01104736328125E-06	1.16476543965405E-08	11394.5078125	1.2676090932473E-07
1	22	68.3474478274393	0.021514892578125	0.021600341796875	1.26190185546875E-06	2.72575100268568E-08	17117.291015625	2.4121300157276E-07
1	23	68.448155827185	0.031585693359375	0.0316619873046875	1.505126953125E-06	4.76553090322795E-08	21036.091796875	3.80543951905565E-07
1	24	68.5488638269308	0.041656494140625	0.041717529296875	1.7156982421875E-06	7.15746892865354E-08	24315.19140625	5.42725388186227E-07
1	25	68.6495718266765	0.051727294921875	0.05181884765625	1.87408447265625E-06	9.71128955029599E-08	27650.220703125	7.2348530011368E-07
1	26	68.7502798264222	0.061798095703125	0.061859130859375	1.968994140625E-06	1.21800269425876E-07	31416.615234375	9.16999681521702E-07
1	27	68.850987826168	0.071868896484375	0.0718994140625	2.00469970703125E-06	1.44136720336974E-07	35865.4296875	1.11709107386559E-06
1	28	68.9516958259137	0.081939697265625	0.081939697265625	1.99310302734375E-06	1.63314268775139E-07	41111.62109375	1.31839635741926E-06
1	29	69.0524038256594	0.092010498046875	0.092041015625	1.9482421875E-06	1.79318192294886E-07	47243.10546875	1.5168589015957E-06
1	30	69.1531118254052	0.102081298828125	0.10211181640625	1.8841552734375E-06	1.923945234239E-07	54195.01171875	1.70983548741788E-06
1	31	69.2538198251509	0.112152099609375	0.1121826171875	1.8115234375E-06	2.03221432570899E-07	61927.2265625	1.89592765309499E-06
1	32	69.3545278248966	0.122222900390625	0.122283935546875	1.73858642578125E-06	2.12601193538831E-07	70335.265625	2.07468997359683E-06
1	33	69.4552358246424	0.132293701171875	0.13238525390625	1.66778564453125E-06	2.2079021277932E-07	79377.859375	2.24621430788829E-06
1	34	69.5559438243881	0.142364501953125	0.14239501953125	1.6021728515625E-06	2.28141431080076E-07	88876.1953125	2.41086991081829E-06
1	35	69.6566518241339	0.152435302734375	0.1524658203125	1.54266357421875E-06	2.35203458487376E-07	98832.84375	2.56922498920176E-06
1	36	69.7573598238796	0.162506103515625	0.16259765625	1.48956298828125E-06	2.42199433841961E-07	109157.9609375	2.72190959549334E-06
1	37	69.8580678236253	0.172576904296875	0.172576904296875	1.44195556640625E-06	2.48848209594144E-07	119682.5390625	2.8695233140752E-06
1	38	69.9587758233711	0.182647705078125	0.1827392578125	1.39892578125E-06	2.55638639146127E-07	130628.2734375	3.01257296086987E-06
1	39	70.0594838231168	0.192718505859375	0.192718505859375	1.36138916015625E-06	2.62364864056508E-07	141560.203125	3.15156603392097E-06
1	40	70.1601918228625	0.202789306640625	0.202728271484375	1.3275146484375E-06	2.69124740270854E-07	152712.640625	3.28696296492126E-06
1	41	70.2608998226083	0.212860107421875	0.212890625	1.2969970703125E-06	2.76118527153812E-07	164141.171875	3.4191177746834E-06
1	42	70.361607822354	0.222930908203125	0.222991943359375	1.26983642578125E-06	2.8316327416178E-07	175606.828125	3.54836811311543E-06
1	43	70.4623158220998	0.233001708984375	0.233062744140625	1.24542236328125E-06	2.90261567670314E-07	187135.5	3.67502138942655E-06
1	44	70.5630238218455	0.243072509765625	0.24310302734375	1.2237548828125E-06	2.97498530699158E-07	198653.359375	3.79935431737977E-06
1	45	70.6637318215912	0.253143310546875	0.253143310546875	1.2042236328125E-06	3.04841165643666E-07	210212.875	3.92161291529192E-06
1	46	70.764439821337	0.263214111328125	0.26324462890625	1.1859130859375E-06	3.12185250095354E-07	221976.328125	4.04196589443018E-06
1	47	70.8651478210827	0.273284912109375	0.273223876953125	1.17034912109375E-06	3.19767309520103E-07	233455.03125	4.16061311625526E-06
1	48	70.9658558208284	0.283355712890625	0.28338623046875	1.1553955078125E-06	3.27423180124242E-07	245272.0625	4.27772329203435E-06
1	49	71.0665638205742	0.293426513671875	0.29345703125	1.141357421875E-06	3.34939358026531E-07	257112.296875	4.39337418356445E-06
1	50	71.1672718203199	0.303497314453125	0.303466796875	1.13006591796875E-06	3.42937482855632E-07	268539.03125	4.50774950877531E-06
1	51	71.2679798200656	0.313568115234375	0.3135986328125	1.11907958984375E-06	3.50941832039098E-07	280229.0625	4.62100297227153E-06
1	52	71.3686878198114	0.323638916015625	0.32366943359375	1.1090087890625E-06	3.58952235046672E-07	291854.71875	4.73319596494548E-06
1	53	71.4693958195571	0.333709716796875	0.333740234375	1.10076904296875E-06	3.67370915910215E-07	303188.25	4.84446718473919E-06
1	54	71.5701038193029	0.343780517578125	0.34375	1.09283447265625E-06	3.75661812768158E-07	314549.03125	4.95492395202746E-06
1	55	71.6708118190486	0.353851318359375	0.35394287109375	1.08642578125E-06	3.84532654607028E-07	325786.53125	5.06465812577517E-06
1	56	71.7715198187943	0.363922119140625	0.363983154296875	1.08123779296875E-06	3.93552340938186E-07	336635.625	5.17380885867169E-06
1	57	71.8722278185401	0.373992919921875	0.373992919921875	1.07666015625E-06	4.02663289378324E-07	347363.9375	5.28246755493456E-06
1	58	71.9729358182858	0.384063720703125	0.384063720703125	1.07330322265625E-06	4.12216820677713E-07	357833.375	5.39072698302334E-06
1	59	72.0736438180315	0.394134521484375	0.3941650390625	1.06964111328125E-06	4.21615084178484E-07	368502.15625	5.49863261767314E-06
1	60	72.1743518177773	0.404205322265625	0.4041748046875	1.068115234375E-06	4.31705274195338E-07	378400	5.60627722734353E-06
1	61	72.275059817523	0.414276123046875	0.41424560546875	1.06689453125E-06	4.41956359509277E-07	388272.34375	5.71378359381924E-06
1	62	72.3757678172688	0.424346923828125	0.424346923828125	1.0662841796875E-06	4.52474409939896E-07	397967.9375	5.82119764658273E-06
1	63	72.4764758170145	0.434417724609375	0.434417724609375	1.06658935546875E-06	4.63345315893093E-07	407296.15625	5.92859623793629E-06
1	64	72.5771838167602	0.444488525390625	0.444488525390625	1.0675048828125E-06	4.74493646152041E-07	416380.8125	6.03605667492957E-06
1	65	72.677891816506	0.454559326171875	0.454559326171875	1.0687255859375E-06	4.85799148464139E-07	425328.40625	6.14362443229766E-06
1	66	72.7785998162517	0.464630126953125	0.46466064453125	1.07086181640625E-06	4.97587336667493E-07	433912.8125	6.25136090093292E-06
1	67	72.8793078159974	0.474700927734375	0.47467041015625	1.072998046875E-06	5.09320386754553E-07	442377.71875	6.35931291981251E-06
1	68	72.9800158157432	0.484771728515625	0.4847412109375	1.0760498046875E-06	5.21605670655845E-07	450482.15625	6.46752596367151E-06
1	69	73.0807238154889	0.494842529296875	0.494781494140625	1.080322265625E-06	5.34523451278801E-07	457994.34375	6.57610826237942E-06
1	70	73.1814318152346	0.504913330078125	0.50494384765625	1.085205078125E-06	5.47967658803827E-07	465298.09375	6.68515122015378E-06
1	71	73.2821398149804	0.514984130859375	0.51495361328125	1.09100341796875E-06	5.61816136723792E-07	472000.03125	6.7947316892969E-06
1	72	73.3828478147261	0.525054931640625	0.524993896484375	1.09832763671875E-06	5.76615320824203E-07	477993.875	6.9049733610882E-06
1	73	73.4835558144719	0.535125732421875	0.535064697265625	1.10626220703125E-06	5.91921832437947E-07	483668.96875	7.01598355590249E-06
1	74	73.5842638142176	0.545196533203125	0.545166015625	1.1163330078125E-06	6.08586844919046E-07	488354.28125	7.12790006218711E-06
1	75	73.6849718139633	0.555267333984375	0.555267333984375	1.12823486328125E-06	6.26472001385991E-07	492155.78125	7.24092296877643E-06
1	76	73.7856798137091	0.565338134765625	0.565277099609375	1.14410400390625E-06	6.46735770715168E-07	494078.4375	7.35534422346973E-06
1	77	73.8863878134548	0.575408935546875	0.575408935546875	1.16424560546875E-06	6.6991725589105E-07	494233.3125	7.47157901059836E-06
1	78	73.9870958132005	0.585479736328125	0.58544921875	1.1907958984375E-06	6.97150483119913E-07	491645.34375	7.59016484153108E-06
1	79	74.0878038129463	0.595550537109375	0.595550537109375	1.2261962890625E-06	7.30261831449752E-07	485689.4375	7.71187023929087E-06
1	80	74.188511812692	0.605621337890625	0.6055908203125	1.2750244140625E-06	7.72143039284856E-07	474964.125	7.83781615609769E-06
1	81	74.2892198124378	0.615692138671875	0.615631103515625	1.3427734375E-06	8.26653092644847E-07	458477.28125	7.96963286120445E-06
1	82	74.3899278121835	0.625762939453125	0.625732421875	1.43524169921875E-06	8.98077246347384E-07	435977.0625	8.10951678431593E-06
1	83	74.4906358119292	0.635833740234375	0.635833740234375	1.5606689453125E-06	9.92325908555358E-07	407411.03125	8.2603728515096E-06
1	84	74.591343811675	0.645904541015625	0.645843505859375	1.7230224609375E-06	1.11280280634674E-06	374831.75	8.42571989778662E-06
1	85	74.6920518114207	0.655975341796875	0.65594482421875	1.9232177734375E-06	1.2615247442227E-06	341066.34375	8.60932323121233E-06
1	86	74.7927598111664	0.666046142578125	0.66595458984375	2.158203125E-06	1.43726515489107E-06	308569.03125	8.81483902048785E-06
1	87	74.8934678109122	0.676116943359375	0.676055908203125	2.415771484375E-06	1.63319657531247E-06	279850.9375	9.04515673028072E-06
1	88	74.9941758106579	0.686187744140625	0.686126708984375	2.67608642578125E-06	1.83613428816898E-06	256391.84375	9.30155238165753E-06
1	89	75.0948838104036	0.696258544921875	0.696197509765625	2.91412353515625E-06	2.02880551114504E-06	238904.59375	9.58304190135095E-06
1	90	75.1955918101494	0.706329345703125	0.70623779296875	3.10821533203125E-06	2.19513913179981E-06	227216.5	9.88629017228959E-06
1	91	75.2962998098951	0.716400146484375	0.71630859375	3.2403564453125E-06	2.32109505304834E-06	221058.578125	1.02059666460264E-05
1	92	75.3970078096409	0.726470947265625	0.726348876953125	3.3087158203125E-06	2.4032819965214E-06	219525.921875	1.05357385109528E-05
1	93	75.4977158093866	0.736541748046875	0.736419677734375	3.3233642578125E-06	2.44739067056798E-06	221588.625	1.08696904135286E-05
1	94	75.5984238091323	0.746612548828125	0.74652099609375	3.29803466796875E-06	2.46205195253424E-06	226353.296875	1.12031038952409E-05
1	95	75.6991318088781	0.756683349609375	0.7568359375	3.25042724609375E-06	2.46004015025392E-06	232841.984375	1.15328448373475E-05
1	96	75.7998398086238	0.766754150390625	0.76751708984375	3.1964111328125E-06	2.45330011239275E-06	240118.40625	1.18574689622619E-05
1	97	75.9005478083695	0.776824951171875	0.777587890625	3.14697265625E-06	2.44704779106542E-06	247090.765625	1.21768844110193E-05
1	98	76.0012558081153	0.786895751953125	0.78765869140625	3.11279296875E-06	2.45181831814989E-06	253039.21875	1.24920879898127E-05
1	99	76.101963807861	0.796966552734375	0.79681396484375	3.101806640625E-06	2.47156276600435E-06	256887.046875	1.28050178318517E-05
1	100	76.2026718076067	0.807037353515625	0.80718994140625	3.121337890625E-06	2.5195124635502E-06	258603.84375	1.31183787743794E-05
1	101	76.3033798073525	0.817108154296875	0.8172607421875	3.17352294921875E-06	2.59359558185679E-06	257524.765625	1.34353495013784E-05
1	102	76.4040878070982	0.827178955078125	0.82733154296875	3.26141357421875E-06	2.69827023657854E-06	253672.703125	1.37593742692843E-05
1	103	76.504795806844	0.837249755859375	0.83709716796875	3.37738037109375E-06	2.82719565802836E-06	247853.984375	1.40936645038892E-05
1	104	76.6055038065897	0.847320556640625	0.8477783203125	3.511962890625E-06	2.97736596621689E-06	241397.296875	1.44405703395023E-05
1	105	76.7062118063354	0.857391357421875	0.85723876953125	3.6468505859375E-06	3.12622159981402E-06	235062.765625	1.48010449265712E-05
1	106	76.8069198060812	0.867462158203125	0.86761474609375	3.7640380859375E-06	3.26573490383453E-06	230501.0625	1.51742133311927E-05
1	107	76.9076278058269	0.877532958984375	0.87738037109375	3.84735107421875E-06	3.37559004037757E-06	228047.921875	1.55574762175092E-05
1	108	77.0083358055726	0.887603759765625	0.88775634765625	3.88885498046875E-06	3.45235548593337E-06	228282.203125	1.59470255312044E-05
1	109	77.1090438053184	0.897674560546875	0.8978271484375	3.89007568359375E-06	3.4926156331494E-06	230799.40625	1.6338726709364E-05
1	110	77.2097518050641	0.907745361328125	0.9075927734375	3.85955810546875E-06	3.50290702044731E-06	235154.578125	1.67289508681279E-05
1	111	77.3104598048099	0.917816162109375	0.91827392578125	3.8055419921875E-06	3.49452989212296E-06	241299.125	1.71149204106769E-05
1	112	77.4111678045556	0.927886962890625	0.927734375	3.73870849609375E-06	3.46852812072029E-06	248143.015625	1.74948036146816E-05
1	113	77.5118758043013	0.937957763671875	0.9381103515625	3.66729736328125E-06	3.4403294648655E-06	255804.28125	1.78677255462389E-05
1	114	77.6125838040471	0.948028564453125	0.94818115234375	3.59466552734375E-06	3.40839415002847E-06	263774.53125	1.8233393348055E-05
1	115	77.7132918037928	0.958099365234375	0.9576416015625	3.525390625E-06	3.37606070388574E-06	271641.28125	1.85919179784833E-05
1	116	77.8139998035385	0.968170166015625	0.968017578125	3.46099853515625E-06	3.35030722453666E-06	279693.15625	1.8943710529129E-05
1	117	77.9147078032843	0.978240966796875	0.9783935546875	3.4014892578125E-06	3.32799527313909E-06	287636.8125	1.92892639461206E-05
1	118	78.01541580303	0.988311767578125	0.9881591796875	3.34716796875E-06	3.30753459820698E-06	295222.46875	1.96290857275017E-05
1	119	78.1161238027757	0.998382568359375	0.99853515625	3.2977294921875E-06	3.29289878209238E-06	302794.75	1.99636815523263E-05
1	120	78.2168318025215	1.00845336914063	1.00860595703125	3.2525634765625E-06	3.28055489262624E-06	310095.71875	2.02935152628925E-05
1	121	78.3175398022672	1.01852416992188	1.01837158203125	3.21197509765625E-06	3.27098427987949E-06	317054.625	2.06190306926146E-05
1	122	78.418247802013	1.02859497070313	1.0284423828125	3.17413330078125E-06	3.26441318065918E-06	324007.3125	2.09405970963417E-05
1	123	78.5189558017587	1.03866577148438	1.0382080078125	3.14056396484375E-06	3.26055851473939E-06	330580.125	2.12585673580179E-05
1	124	78.6196638015044	1.04873657226563	1.04888916015625	3.1097412109375E-06	3.26177382703463E-06	337291.46875	2.1573296180577E-05
1	125	78.7203718012502	1.05880737304688	1.05865478515625	3.0816650390625E-06	3.26241934089921E-06	343533.375	2.1885058231419E-05
1	126	78.8210798009959	1.06887817382813	1.06903076171875	3.05572509765625E-06	3.26666418004606E-06	349845.21875	2.21940990741132E-05
1	127	78.9217878007416	1.07894897460938	1.07879638671875	3.0322265625E-06	3.27115503750974E-06	355777	2.25006515393034E-05
1	128	79.0224958004874	1.08901977539063	1.08917236328125	3.01116943359375E-06	3.27968245983357E-06	361710.75	2.2804961190559E-05
1	129	79.1232038002331	1.09909057617188	1.0992431640625	2.99102783203125E-06	3.28786677528115E-06	367513.53125	2.31071953749051E-05
1	130	79.2239117999789	1.10916137695313	1.1090087890625	2.9736328125E-06	3.29778481500398E-06	372947.46875	2.34075414482504E-05
1	131	79.3246197997246	1.11923217773438	1.11907958984375	2.95654296875E-06	3.3086066650867E-06	378509.5	2.37061485677259E-05
1	132	79.4253277994703	1.12930297851563	1.12945556640625	2.94219970703125E-06	3.32308377437585E-06	383881.34375	2.40031731664203E-05
1	133	79.5260357992161	1.13937377929688	1.1395263671875	2.92877197265625E-06	3.33741286340228E-06	389079.9375	2.42988007812528E-05
1	134	79.6267437989618	1.14944458007813	1.14990234375	2.916259765625E-06	3.35341383106424E-06	394307.25	2.45931223616935E-05
1	135	79.7274517987075	1.15951538085938	1.15997314453125	2.9052734375E-06	3.3700389394653E-06	399264.71875	2.48862597800326E-05
1	136	79.8281597984533	1.16958618164063	1.1700439453125	2.8955078125E-06	3.38787140208296E-06	404089.375	2.51783512794646E-05
1	137	79.928867798199	1.17965698242188	1.1798095703125	2.8875732421875E-06	3.40678639076941E-06	408581.71875	2.54695532930782E-05
1	138	80.0295757979447	1.18972778320313	1.1895751953125	2.87933349609375E-06	3.4251834222232E-06	413142.5625	2.57599403994391E-05
1	139	80.1302837976905	1.19979858398438	1.19964599609375	2.87353515625E-06	3.44722479894699E-06	417480.90625	2.6049619918922E-05
1	140	80.2309917974362	1.20986938476563	1.209716796875	2.8680419921875E-06	3.46951856045052E-06	421791.875	2.63387319137109E-05
1	141	80.331699797182	1.21994018554688	1.22039794921875	2.86407470703125E-06	3.49531069332443E-06	426105.5	2.66273655142868E-05
1	142	80.4324077969277	1.23001098632813	1.22955322265625	2.86041259765625E-06	3.51702942680276E-06	429851.71875	2.69156171270879E-05
1	143	80.5331157966734	1.24008178710938	1.23992919921875	2.85797119140625E-06	3.54368194166454E-06	433849.4375	2.72035595116904E-05
1	144	80.6338237964192	1.25015258789063	1.25030517578125	2.85675048828125E-06	3.57180988430628E-06	437666.9375	2.74913199973525E-05
1	145	80.7345317961649	1.26022338867188	1.25946044921875	2.85552978515625E-06	3.59642649527814E-06	441060.1875	2.77789549727459E-05
1	146	80.8352397959106	1.27029418945313	1.2701416015625	2.8546142578125E-06	3.6257642932469E-06	444943.34375	2.80664844467537E-05
1	147	80.9359477956564	1.28036499023438	1.28021240234375	2.85491943359375E-06	3.65490313924965E-06	448423.3125	2.83539811789524E-05
1	148	81.0366557954021	1.29043579101563	1.290283203125	2.8564453125E-06	3.68562336916511E-06	451709.40625	2.86415724986E-05
1	149	81.1373637951478	1.30050659179688	1.30035400390625	2.8582763671875E-06	3.71677106159041E-06	454943.4375	2.89293311652727E-05
1	150	81.2380717948936	1.31057739257813	1.31072998046875	2.86041259765625E-06	3.74922842638625E-06	458231.125	2.92172899207799E-05
1	151	81.3387797946393	1.32064819335938	1.32049560546875	2.86346435546875E-06	3.78119193555904E-06	461153.15625	2.95055106107611E-05
1	152	81.4394877943851	1.33071899414063	1.33056640625	2.86834716796875E-06	3.81652625947027E-06	463879.15625	2.97941296594217E-05
1	153	81.5401957941308	1.34078979492188	1.34063720703125	2.87322998046875E-06	3.85195880880929E-06	466595.875	3.00832416542107E-05
1	154	81.6409037938765	1.35086059570313	1.35040283203125	2.87933349609375E-06	3.8882599255885E-06	468998.4375	3.0372904802789E-05
1	155	81.7416117936223	1.36093139648438	1.361083984375	2.88604736328125E-06	3.92815263694501E-06	471608.34375	3.06632173305843E-05
1	156	81.842319793368	1.37100219726563	1.37115478515625	2.894287109375E-06	3.96851555706235E-06	473745.28125	3.09542774630245E-05
1	157	81.9430277931137	1.38107299804688	1.3812255859375	2.9022216796875E-06	4.00862290916848E-06	475920.09375	3.12461561406963E-05
1	158	82.0437357928595	1.39114379882813	1.39129638671875	2.91259765625E-06	4.05228638555855E-06	477682.3125	3.15389552270062E-05
1	159	82.1444437926052	1.40121459960938	1.40167236328125	2.92327880859375E-06	4.09747917728964E-06	479486.375	3.18328166031279E-05
1	160	82.245151792351	1.41128540039063	1.41082763671875	2.93731689453125E-06	4.14404757975717E-06	480311.6875	3.21279185300227E-05
1	161	82.3458597920967	1.42135620117188	1.42120361328125	2.952880859375E-06	4.19664502260275E-06	481293.9375	3.24245156662073E-05
1	162	82.4465677918424	1.43142700195313	1.43157958984375	2.97119140625E-06	4.25349708166323E-06	481820.0625	3.27228153764736E-05
1	163	82.5472757915882	1.44149780273438	1.44134521484375	2.9931640625E-06	4.31418266089167E-06	481545.71875	3.30231450789142E-05
1	164	82.6479837913339	1.45156860351563	1.4520263671875	3.01971435546875E-06	4.38470488006715E-06	480848.90625	3.33259158651344E-05
1	165	82.7486917910796	1.46163940429688	1.46209716796875	3.05145263671875E-06	4.46151989308419E-06	479147.9375	3.36316261382308E-05
1	166	82.8493997908254	1.47171020507813	1.4715576171875	3.0889892578125E-06	4.54562541563064E-06	476388.09375	3.39408215950243E-05
1	167	82.9501077905711	1.48178100585938	1.4813232421875	3.135986328125E-06	4.6454092625936E-06	472362.8125	3.42542734870221E-05
1	168	83.0508157903168	1.49185180664063	1.49169921875	3.19122314453125E-06	4.76034483654075E-06	467438.09375	3.4572873119032E-05
1	169	83.1515237900626	1.50192260742188	1.50177001953125	3.25531005859375E-06	4.88872683490627E-06	461329.34375	3.48974826920312E-05
1	170	83.2522317898083	1.49185180664063	1.49169921875	3.01605224609375E-06	4.49904291599523E-06	494586.65625	3.52132701664232E-05
1	171	83.3529397895541	1.48178100585938	1.48193359375	2.84423828125E-06	4.21497225033818E-06	521030.0625	3.55083575414028E-05
1	172	83.4536477892998	1.47171020507813	1.47186279296875	2.7099609375E-06	3.98869042328442E-06	543130.625	3.57880344381556E-05
1	173	83.5543557890455	1.46163940429688	1.46148681640625	2.59918212890625E-06	3.79867037736403E-06	562287.1875	3.60553713107947E-05
1	174	83.6550637887913	1.45156860351563	1.451416015625	2.50701904296875E-06	3.63872754860495E-06	578941	3.63124891009647E-05
1	175	83.755771788537	1.44149780273438	1.441650390625	2.4285888671875E-06	3.50117625202984E-06	593616.5	3.65610176231712E-05
1	176	83.8564797882827	1.43142700195313	1.43096923828125	2.3614501953125E-06	3.37916276293981E-06	605970.5	3.68022156180814E-05
1	177	83.9571877880285	1.42135620117188	1.4215087890625	2.3028564453125E-06	3.2735304102971E-06	617280.75	3.70370798918884E-05
1	178	84.0578957877742	1.41128540039063	1.41082763671875	2.2509765625E-06	3.17573972097307E-06	626762.5	3.72663853340782E-05
1	179	84.15860378752	1.40121459960938	1.40106201171875	2.20550537109375E-06	3.09004963128245E-06	635256.6875	3.74907867808361E-05
1	180	84.2593117872657	1.39114379882813	1.39129638671875	2.16461181640625E-06	3.01161639981729E-06	642746.375	3.77108408429194E-05
1	181	84.3600197870114	1.38107299804688	1.3812255859375	2.12799072265625E-06	2.93923517347139E-06	649075	3.7926987715764E-05
1	182	84.4607277867572	1.37100219726563	1.370849609375	2.0941162109375E-06	2.87071816273965E-06	654619.6875	3.81395875592716E-05
1	183	84.5614357865029	1.36093139648438	1.36077880859375	2.06329345703125E-06	2.80768585980695E-06	659517.875	3.83489314117469E-05
1	184	84.6621437862486	1.35086059570313	1.35101318359375	2.03521728515625E-06	2.74960530077806E-06	663817.6875	3.85553066735156E-05
1	185	84.7628517859944	1.34078979492188	1.34063720703125	2.00958251953125E-06	2.69412089437537E-06	667122.25	3.87589789170306E-05
1	186	84.8635597857401	1.33071899414063	1.33087158203125	1.98516845703125E-06	2.64200411947968E-06	670407.375	3.89601300412323E-05
1	187	84.9642677854858	1.32064819335938	1.32080078125	1.96258544921875E-06	2.59218427345331E-06	672990.1875	3.91589164792094E-05
1	188	85.0649757852316	1.31057739257813	1.31072998046875	1.9415283203125E-06	2.54481938100071E-06	675102.1875	3.93555055779871E-05
1	189	85.1656837849773	1.30050659179688	1.3006591796875	1.92108154296875E-06	2.49867230195377E-06	677045.25	3.95500028389506E-05
1	190	85.2663917847231	1.29043579101563	1.290283203125	1.90216064453125E-06	2.45432602241635E-06	678325.0625	3.97425174014643E-05
1	191	85.3670997844688	1.28036499023438	1.280517578125	1.88385009765625E-06	2.41230304709461E-06	679734.375	3.99331584048923E-05
1	192	85.4678077842145	1.27029418945313	1.27105712890625	1.866455078125E-06	2.37237100009224E-06	681000.6875	4.01220022467896E-05
1	193	85.5685157839603	1.26022338867188	1.26007080078125	1.84906005859375E-06	2.32994648285967E-06	681465.625	4.03090925829019E-05
1	194	85.669223783706	1.25015258789063	1.25030517578125	1.83258056640625E-06	2.29128499995568E-06	682264.8125	4.04944767069537E-05
1	195	85.7699317834517	1.24008178710938	1.23992919921875	1.8170166015625E-06	2.25297185352247E-06	682398.375	4.0678249206394E-05
1	196	85.8706397831975	1.23001098632813	1.2298583984375	1.8017578125E-06	2.21590698856744E-06	682588.0625	4.08604682888836E-05
1	197	85.9713477829432	1.21994018554688	1.22039794921875	1.7864990234375E-06	2.18023956222169E-06	683122.6875	4.10411521443166E-05
1	198	86.0720557826889	1.20986938476563	1.21002197265625	1.7724609375E-06	2.14471674553351E-06	682679.0625	4.12203589803539E-05
1	199	86.1727637824347	1.19979858398438	1.199951171875	1.75872802734375E-06	2.11038764064142E-06	682283.5625	4.13981688325293E-05
1	200	86.2734717821804	1.18972778320313	1.1895751953125	1.7449951171875E-06	2.07580296773813E-06	681706.9375	4.15745962527581E-05
1	201	86.3741797819262	1.17965698242188	1.17919921875	1.73187255859375E-06	2.04222283173294E-06	680881.0625	4.17496703448705E-05
1	202	86.4748877816719	1.16958618164063	1.16943359375	1.71844482421875E-06	2.00960698748531E-06	680518.5625	4.1923405660782E-05
1	203	86.5755957814176	1.15951538085938	1.15997314453125	1.70654296875E-06	1.97954386749188E-06	679721.0625	4.2095867684111E-05
1	204	86.6763037811634	1.14944458007813	1.1492919921875	1.69281005859375E-06	1.94553285837173E-06	678925.5625	4.22670418629423E-05
1	205	86.7770117809091	1.13937377929688	1.13983154296875	1.6802978515625E-06	1.91525646187074E-06	678350.875	4.2436888179509E-05
1	206	86.8777197806548	1.12930297851563	1.129150390625	1.66748046875E-06	1.88283615898399E-06	677159.625	4.2605464841472E-05
1	207	86.9784277804006	1.11923217773438	1.11907958984375	1.6552734375E-06	1.85238275207666E-06	676069.3125	4.27727791247889E-05
1	208	87.0791357801463	1.10916137695313	1.109619140625	1.6424560546875E-06	1.82250062152889E-06	675585.3125	4.29388310294598E-05
1	209	87.1798437798921	1.09909057617188	1.0992431640625	1.6302490234375E-06	1.79204005235079E-06	674279.3125	4.31036241934635E-05
1	210	87.2805517796378	1.08901977539063	1.0888671875	1.61773681640625E-06	1.76150047082047E-06	673080.5625	4.32671731687151E-05
1	211	87.3812597793835	1.07894897460938	1.0791015625	1.6058349609375E-06	1.73285889104591E-06	671987.875	4.34294925071299E-05
1	212	87.4819677791293	1.06887817382813	1.06903076171875	1.593017578125E-06	1.70298471857677E-06	671072.8125	4.35905676567927E-05
1	213	87.582675778875	1.05880737304688	1.058349609375	1.5802001953125E-06	1.67240432347171E-06	669756.6875	4.37503549619578E-05
1	214	87.6833837786207	1.04873657226563	1.048583984375	1.56768798828125E-06	1.64385244261211E-06	668872.875	4.39088616985828E-05
1	215	87.7840917783665	1.03866577148438	1.03851318359375	1.5545654296875E-06	1.61443665547267E-06	668040.8125	4.406608059071E-05
1	216	87.8847997781122	1.02859497070313	1.02874755859375	1.54144287109375E-06	1.58575562636543E-06	667392.5625	4.42219752585515E-05
1	217	87.9855077778579	1.01852416992188	1.01837158203125	1.52801513671875E-06	1.55608711338573E-06	666466.9375	4.43765347881708E-05
1	218	88.0862157776037	1.00845336914063	1.00860595703125	1.5130615234375E-06	1.52608288317424E-06	666599.4375	4.45296645921189E-05
1	219	88.1869237773494	0.998382568359375	0.99853515625	1.49810791015625E-06	1.4959133523007E-06	666530.875	4.46812919108197E-05
1	220	88.2876317770952	0.988311767578125	0.9881591796875	1.4813232421875E-06	1.46378317822382E-06	667078.6875	4.48313185188454E-05
1	221	88.3883397768409	0.978240966796875	0.97808837890625	1.46270751953125E-06	1.43065722113533E-06	668683.5	4.49795625172555E-05
1	222	88.4890477765866	0.968170166015625	0.96832275390625	1.44012451171875E-06	1.39450526148721E-06	672388.25	4.51257292297669E-05
1	223	88.5897557763324	0.958099365234375	0.958251953125	1.41387939453125E-06	1.35485265673196E-06	677746.625	4.52694403065834E-05
1	224	88.6904637760781	0.948028564453125	0.948486328125	1.3812255859375E-06	1.3100734577165E-06	686699.125	4.54101864306722E-05
1	225	88.7911717758238	0.937957763671875	0.9381103515625	1.337890625E-06	1.25508904602611E-06	701186.125	4.55471017630771E-05
1	226	88.8918797755696	0.927886962890625	0.92864990234375	1.28265380859375E-06	1.19113633445522E-06	724006.6875	4.56790585303679E-05
1	227	88.9925877753153	0.917816162109375	0.91796875	1.2109375E-06	1.11160284177458E-06	758064.5	4.58046197309159E-05
1	228	89.0932957750611	0.907745361328125	0.908203125	1.11724853515625E-06	1.01468856428255E-06	812892.625	4.59218535979744E-05
1	229	89.1940037748068	0.897674560546875	0.89813232421875	9.9639892578125E-07	8.94897993930499E-07	901378.3125	4.60282863059547E-05
1	230	89.2947117745525	0.887603759765625	0.8880615234375	8.4808349609375E-07	7.53150288801407E-07	1047139.3125	4.61211602669209E-05
1	231	89.3954197742983	0.877532958984375	0.87799072265625	6.732177734375E-07	5.91078958223079E-07	1304170.5	4.61977651866619E-05
1	232	89.496127774044	0.867462158203125	0.86700439453125	4.7943115234375E-07	4.1566892150513E-07	1808402.25	4.62558055005502E-05
1	233	89.5968357737897	0.857391357421875	0.8575439453125	2.8106689453125E-07	2.41027208858213E-07	3051031.5	4.62940988654736E-05
1	234	89.6975437735355	0.847320556640625	0.8477783203125	9.765625E-08	8.27908479550388E-08	8681250	4.63131691503804E-05
1	235	89.7982517732812	0.837249755859375	0.8380126953125	-5.55419921874995E-08	-4.65448941611157E-08	-15087912	4.6315290092025E-05
1	236	89.8989597730269	0.827178955078125	0.8270263671875	-1.65710449218751E-07	-1.37046910708705E-07	-4990792	4.63041506009176E-05
1	237	89.9996677727727	0.817108154296875	0.8172607421875	-2.3162841796875E-07	-1.89300806141546E-07	-3528327	4.62841417174786E-05
1	238	90.1003757725184	0.807037353515625	0.80718994140625	-2.57263183593751E-07	-2.07660235673757E-07	-3137604	4.6259523514891E-05
1	239	90.2010837722642	0.796966552734375	0.797119140625	-2.5665283203125E-07	-2.04582889296034E-07	-3105826.25	4.62336465716362E-05
1	240	90.3017917720099	0.786895751953125	0.78643798828125	-2.410888671875E-07	-1.89601436773046E-07	-3262025.5	4.62085845356341E-05
1	241	90.4024997717556	0.776824951171875	0.77606201171875	-2.2247314453125E-07	-1.72652946162088E-07	-3488340.25	4.61852432636078E-05
1	242	90.5032077715014	0.766754150390625	0.7666015625	-2.13623046875E-07	-1.63763758109781E-07	-3588571.5	4.61632807855494E-05
1	243	90.6039157712471	0.756683349609375	0.7568359375	-2.2430419921875E-07	-1.69761463553186E-07	-3374149.75	4.61412309959996E-05
1	244	90.7046237709928	0.746612548828125	0.74652099609375	-2.6519775390625E-07	-1.97975680293894E-07	-2814959.75	4.61165836895816E-05
1	245	90.8053317707386	0.736541748046875	0.736480712890625	-3.4637451171875E-07	-2.55098143497889E-07	-2126255.75	4.60857881989796E-05
1	246	90.9060397704843	0.726470947265625	0.72637939453125	-4.72106933593749E-07	-3.42928757390837E-07	-1538590.875	4.6044573537074E-05
1	247	91.00674777023	0.716400146484375	0.716339111328125	-6.44531249999999E-07	-4.61702910570239E-07	-1111411	4.59883449366316E-05
1	248	91.1074557699758	0.706329345703125	0.706298828125	-8.575439453125E-07	-6.05682259902096E-07	-823629.9375	4.59127113572322E-05
1	249	91.2081637697215	0.696258544921875	0.6961669921875	-1.09619140625E-06	-7.63132220527041E-07	-635078	4.58143331343308E-05
1	250	91.3088717694673	0.686187744140625	0.686126708984375	-1.3330078125E-06	-9.14612201086129E-07	-514720.71875	4.56920133729E-05
1	251	91.409579769213	0.676116943359375	0.6761474609375	-1.544189453125E-06	-1.04409980394848E-06	-437865.625	4.55471345048863E-05
1	252	91.5102877689587	0.666046142578125	0.666046142578125	-1.70501708984375E-06	-1.13562009573798E-06	-390638.96875	4.5383523683995E-05
1	253	91.6109957687045	0.655975341796875	0.655975341796875	-1.80206298828125E-06	-1.18210880373226E-06	-364013.5625	4.52069289167412E-05
1	254	91.7117037684502	0.645904541015625	0.645843505859375	-1.83258056640625E-06	-1.18356024358945E-06	-352422.96875	4.5023909478914E-05
1	255	91.8124117681959	0.635833740234375	0.635833740234375	-1.80908203125E-06	-1.15027535230183E-06	-351467.625	4.48405371571425E-05
1	256	91.9131197679417	0.625762939453125	0.625762939453125	-1.7462158203125E-06	-1.09271707060543E-06	-358353.75	4.46615122200456E-05
1	257	92.0138277676874	0.615692138671875	0.61566162109375	-1.65924072265625E-06	-1.02153080661083E-06	-371050.21875	4.44900360889733E-05
1	258	92.1145357674332	0.605621337890625	0.605560302734375	-1.56158447265625E-06	-9.45633530591294E-07	-387785.8125	4.43278549937531E-05
1	259	92.2152437671789	0.595550537109375	0.59552001953125	-1.46209716796875E-06	-8.70708106504026E-07	-407305.375	4.41755983047187E-05
1	260	92.3159517669246	0.585479736328125	0.585418701171875	-1.36505126953125E-06	-7.99126553374663E-07	-428862.0625	4.40332405560184E-05
1	261	92.4166597666704	0.575408935546875	0.57537841796875	-1.27471923828125E-06	-7.3344591555724E-07	-451376.59375	4.39003197243437E-05
1	262	92.5173677664161	0.565338134765625	0.565277099609375	-1.19140625E-06	-6.73474630730198E-07	-474462.09375	4.37761373177636E-05
1	263	92.6180757661618	0.555267333984375	0.5552978515625	-1.11572265625E-06	-6.19558363723627E-07	-497702.40625	4.36599657405168E-05
1	264	92.7187837659076	0.545196533203125	0.545166015625	-1.04736328125E-06	-5.70986856018862E-07	-520512.8125	4.35510446550325E-05
1	265	92.8194917656533	0.535125732421875	0.53515625	-9.86328124999999E-07	-5.2783968840231E-07	-542574.25	4.34486428275704E-05
1	266	92.920199765399	0.525054931640625	0.525054931640625	-9.3048095703125E-07	-4.88553610011877E-07	-564283.375	4.33521236118395E-05
1	267	93.0209077651448	0.514984130859375	0.51495361328125	-8.80126953125E-07	-4.53224544116893E-07	-585090.1875	4.3260952224955E-05
1	268	93.1216157648905	0.504913330078125	0.504913330078125	-8.343505859375E-07	-4.21274705786345E-07	-605157.3125	4.31746193498839E-05
1	269	93.2223237646363	0.494842529296875	0.494903564453125	-7.9315185546875E-07	-3.92533678450491E-07	-623970.75	4.30926702392753E-05
1	270	93.323031764382	0.484771728515625	0.48480224609375	-7.550048828125E-07	-3.66028046983047E-07	-642118.0625	4.30147119914182E-05
1	271	93.4237397641277	0.474700927734375	0.474639892578125	-7.19299316406249E-07	-3.41408139092891E-07	-659864.25	4.29404753958806E-05
1	272	93.5244477638735	0.464630126953125	0.464630126953125	-6.87255859375E-07	-3.19319781283411E-07	-676065.6875	4.28696512244642E-05
1	273	93.6251557636192	0.454559326171875	0.45458984375	-6.57958984375E-07	-2.99101486689324E-07	-690909.0625	4.28019120590761E-05
1	274	93.7258637633649	0.444488525390625	0.444488525390625	-6.30798339843749E-07	-2.80382607797947E-07	-704644.4375	4.27370177931152E-05
1	275	93.8265717631107	0.434417724609375	0.434478759765625	-6.04858398437499E-07	-2.62798124595065E-07	-718314.875	4.26747974415775E-05
1	276	93.9272797628564	0.424346923828125	0.424407958984375	-5.816650390625E-07	-2.46863265829234E-07	-729643.25	4.26150509156287E-05
1	277	94.0279877626022	0.414276123046875	0.414276123046875	-5.596923828125E-07	-2.31867176125888E-07	-740185.4375	4.2557581764413E-05
1	278	94.1286957623479	0.404205322265625	0.404205322265625	-5.389404296875E-07	-2.17842583083439E-07	-750000	4.25022590206936E-05
1	279	94.2294037620936	0.394134521484375	0.394195556640625	-5.2001953125E-07	-2.04989376584308E-07	-758039.9375	4.24489371653181E-05
1	280	94.3301117618394	0.384063720703125	0.384063720703125	-5.01708984375E-07	-1.92688219158299E-07	-765510.9375	4.23974888690282E-05
1	281	94.4308197615851	0.373992919921875	0.37396240234375	-4.8370361328125E-07	-1.80886971179461E-07	-773123	4.23478704760782E-05
1	282	94.5315277613308	0.363922119140625	0.36395263671875	-4.6722412109375E-07	-1.70047442793475E-07	-778968	4.22999873990193E-05
1	283	94.6322357610766	0.353851318359375	0.353851318359375	-4.5135498046875E-07	-1.5971255606928E-07	-783975.6875	4.22537341364659E-05
1	284	94.7329437608223	0.343780517578125	0.343719482421875	-4.3670654296875E-07	-1.50104540352913E-07	-787072	4.22090161009692E-05
1	285	94.833651760568	0.333709716796875	0.333709716796875	-4.2236328125E-07	-1.40946724513924E-07	-790101.1875	4.2165756894974E-05
1	286	94.9343597603138	0.323638916015625	0.323638916015625	-4.08935546875E-07	-1.32347452108661E-07	-791417.9375	4.21238983108196E-05
1	287	95.0350677600595	0.313568115234375	0.31353759765625	-3.9642333984375E-07	-1.24293620729077E-07	-790916.125	4.2083345761057E-05
1	288	95.1357757598053	0.303497314453125	0.303497314453125	-3.84521484375E-07	-1.16701237118377E-07	-789285.6875	4.20440228481311E-05
1	289	95.236483759551	0.293426513671875	0.29339599609375	-3.7353515625E-07	-1.09593720765133E-07	-785457.5	4.20058495365083E-05
1	290	95.3371917592967	0.283355712890625	0.283355712890625	-3.631591796875E-07	-1.02903221943507E-07	-780252.125	4.19687530666124E-05
1	291	95.4378997590425	0.273284912109375	0.27325439453125	-3.53088378906249E-07	-9.6482949629717E-08	-773898	4.19326897826977E-05
1	292	95.5386077587882	0.263214111328125	0.263214111328125	-3.436279296875E-07	-9.04477204244358E-08	-765985.8125	4.18976051150821E-05
1	293	95.6393157585339	0.253143310546875	0.253143310546875	-3.34777832031249E-07	-8.47467731546203E-08	-756153.125	4.18634444940835E-05
1	294	95.7400237582797	0.243072509765625	0.2431640625	-3.27148437499999E-07	-7.95507375528359E-08	-743283.625	4.18301169702318E-05
1	295	95.8407317580254	0.233001708984375	0.232940673828125	-3.19519042968749E-07	-7.44289820886479E-08	-729035.3125	4.17975534219295E-05
1	296	95.9414397577711	0.222930908203125	0.22296142578125	-3.1280517578125E-07	-6.97434856533619E-08	-712780.5625	4.17657138314098E-05
1	297	96.0421477575169	0.212860107421875	0.212860107421875	-3.05786132812499E-07	-6.5089665213236E-08	-696107.8125	4.17345654568635E-05
1	298	96.1428557572626	0.202789306640625	0.202789306640625	-3.0059814453125E-07	-6.09580865784665E-08	-674619.3125	4.17040319007356E-05
1	299	96.2435637570084	0.192718505859375	0.192840576171875	-2.960205078125E-07	-5.70847618064363E-08	-651443.3125	4.16739894717466E-05
1	300	96.3442717567541	0.182647705078125	0.182647705078125	-2.9296875E-07	-5.35100674881051E-08	-623437.5	4.16443290305324E-05
1	301	96.4449797564998	0.172576904296875	0.17254638671875	-2.91748046875E-07	-5.0340073443067E-08	-591422.5625	4.16148868680466E-05
1	302	96.5456877562456	0.162506103515625	0.16259765625	-2.9266357421875E-07	-4.75864112559066E-08	-555578.75	4.1585459257476E-05
1	303	96.6463957559913	0.152435302734375	0.15252685546875	-2.96936035156251E-07	-4.52907187309393E-08	-513669.0625	4.15557733504102E-05
1	304	96.747103755737	0.142364501953125	0.1424560546875	-3.0517578125E-07	-4.34741380672676E-08	-466800	4.15254544350319E-05
1	305	96.8478117554828	0.132293701171875	0.132354736328125	-3.19824218750001E-07	-4.23302495278222E-08	-413835.875	4.14939822803717E-05
1	306	96.9485197552285	0.122222900390625	0.12225341796875	-3.42712402343751E-07	-4.18977599281334E-08	-356723.09375	4.14606183767319E-05
1	307	97.0492277549743	0.112152099609375	0.1121826171875	-3.7841796875E-07	-4.24519157604664E-08	-296451.625	4.14243077102583E-05
1	308	97.14993575472	0.102081298828125	0.10211181640625	-4.30908203124999E-07	-4.40008172120088E-08	-236968.84375	4.13835550716612E-05
1	309	97.2506437544657	0.092010498046875	0.092041015625	-5.05981445312501E-07	-4.65710421337917E-08	-181905.921875	4.13363777624909E-05
1	310	97.3513517542115	0.081939697265625	0.08203125	-6.103515625E-07	-5.00679000481341E-08	-134400	4.12801673519425E-05
1	311	97.4520597539572	0.071868896484375	0.0718994140625	-7.4951171875E-07	-5.38894511237231E-08	-95928.34375	4.12116933148354E-05
1	312	97.5527677537029	0.061798095703125	0.06182861328125	-9.26513671875E-07	-5.7285053145506E-08	-66732.546875	4.11272994824685E-05
1	313	97.6534757534487	0.051727294921875	0.051788330078125	-1.13983154296875E-06	-5.90299720215626E-08	-45435.07421875	4.10232496506069E-05
1	314	97.7541837531944	0.041656494140625	0.0417572021484375	-1.37786865234375E-06	-5.75359422327892E-08	-30305.6484375	4.08964733651374E-05
1	315	97.8548917529401	0.031585693359375	0.031689453125	-1.622314453125E-06	-5.14102573845321E-08	-19533.486328125	4.07454026571941E-05
1	316	97.9555997526859	0.021514892578125	0.021636962890625	-1.846923828125E-06	-3.99618187429951E-08	-11715.1357421875	4.05707105528563E-05
1	317	98.0563077524316	0.011444091796875	0.0115509033203125	-2.02880859375E-06	-2.34345698402194E-08	-5693.44189453125	4.03755548177287E-05
1	318	98.1570157521774	0.001373291015625	0.00145568847656249	-2.152099609375E-06	-3.13278669672457E-09	-676.403869628906	4.01650286221411E-05
1	319	98.2577237519231	-0.008697509765625	-0.0086212158203125	-2.2125244140625E-06	1.90746494155292E-08	3896.5517578125	3.99452510464471E-05
1	320	98.3584317516688	-0.018768310546875	-0.0186370849609375	-2.216796875E-06	4.13146352684635E-08	8407.2138671875	3.97222174797207E-05
1	321	98.4591397514146	-0.028839111328125	-0.028704833984375	-2.18048095703125E-06	6.25903382456272E-08	13164.451171875	3.95007955376059E-05
1	322	98.5598477511603	-0.038909912109375	-0.0387786865234375	-2.11883544921875E-06	8.21656556126982E-08	18301.88671875	3.92843103327323E-05
1	323	98.660555750906	-0.048980712890625	-0.0488433837890625	-2.044677734375E-06	9.98689841935629E-08	23888.05859375	3.90746608900372E-05
1	324	98.7612637506518	-0.059051513671875	-0.058990478515625	-1.96685791015625E-06	1.16025880458892E-07	29992.244140625	3.88726621167734E-05
1	325	98.8619717503975	-0.069122314453125	-0.069091796875	-1.890869140625E-06	1.30643542206599E-07	36539.703125	3.86784122383688E-05
1	326	98.9626797501433	-0.079193115234375	-0.079132080078125	-1.820068359375E-06	1.44025790405067E-07	43477.53515625	3.84915510949213E-05
1	327	99.063387749889	-0.089263916015625	-0.089202880859375	-1.7559814453125E-06	1.56638606085835E-07	50799.4453125	3.83114820579067E-05
1	328	99.1640957496347	-0.099334716796875	-0.099273681640625	-1.69921875E-06	1.6868770558176E-07	58423.1328125	3.81374993594363E-05
1	329	99.2648037493805	-0.109405517578125	-0.109344482421875	-1.6485595703125E-06	1.80260883553274E-07	66327.2890625	3.79689263354521E-05
1	330	99.3655117491262	-0.119476318359375	-0.119415283203125	-1.605224609375E-06	1.91688357631392E-07	74391.6328125	3.78050826839171E-05
1	331	99.4662197488719	-0.129547119140625	-0.12945556640625	-1.56707763671875E-06	2.02866914378319E-07	82609.546875	3.76453463104554E-05
1	332	99.5669277486177	-0.139617919921875	-0.139495849609375	-1.53350830078125E-06	2.1391802818016E-07	90965.1796875	3.74892188119702E-05
1	333	99.6676357483634	-0.149688720703125	-0.14959716796875	-1.50543212890625E-06	2.25208381721131E-07	99371.578125	3.73361945094075E-05
1	334	99.7683437481091	-0.159759521484375	-0.159637451171875	-1.480712890625E-06	2.36377232454288E-07	107811.2109375	3.71858332073316E-05
1	335	99.8690517478549	-0.169830322265625	-0.169708251953125	-1.46026611328125E-06	2.47819201604216E-07	116217.3515625	3.70377420040313E-05
1	336	99.9697597476006	-0.179901123046875	-0.17974853515625	-1.44256591796875E-06	2.59299099525379E-07	124603.34375	3.68915716535412E-05
1	337	100.070467747346	-0.189971923828125	-0.189849853515625	-1.42852783203125E-06	2.71205777835348E-07	132898.953125	3.67470020137262E-05
1	338	100.171175747092	-0.200042724609375	-0.19989013671875	-1.41693115234375E-06	2.83230548348001E-07	141072.578125	3.66037202184089E-05
1	339	100.271883746838	-0.189971923828125	-0.18988037109375	-1.27044677734375E-06	2.41232896769361E-07	149459.53125	3.64684019587003E-05
2	340	100.372591746584	-0.179901123046875	-0.179779052734375	-1.1669921875E-06	2.09800759876089E-07	154053.34375	3.63456674676854E-05
2	341	100.473299746329	-0.169830322265625	-0.169769287109375	-1.08367919921875E-06	1.83975444656426E-07	156660.09375	3.62323371518869E-05
2	342	100.574007746075	-0.159759521484375	-0.15966796875	-1.01226806640625E-06	1.61626786621127E-07	157732.890625	3.61267957487144E-05
2	343	100.674715745821	-0.149688720703125	-0.1495361328125	-9.4970703125E-07	1.420155086862E-07	157455.015625	3.6028002796229E-05
2	344	100.775423745567	-0.139617919921875	-0.139495849609375	-8.9263916015625E-07	1.24519459632211E-07	156273.5	3.59352343366481E-05
2	345	100.876131745312	-0.129547119140625	-0.129486083984375	-8.404541015625E-07	1.08827109102094E-07	154066.8125	3.58479665010236E-05
2	346	100.976839745058	-0.119476318359375	-0.119415283203125	-7.9193115234375E-07	9.45686835507331E-08	150789.984375	3.57657700078562E-05
2	347	101.077547744804	-0.109405517578125	-0.109283447265625	-7.44018554687501E-07	8.13089116036281E-08	146882.6875	3.56884265784174E-05
2	348	101.178255744549	-0.099334716796875	-0.099212646484375	-6.9732666015625E-07	6.9183620610147E-08	142275.71875	3.56158489012159E-05
2	349	101.278963744295	-0.089263916015625	-0.08917236328125	-6.5032958984375E-07	5.79914249954072E-08	137118.71875	3.55479896825273E-05
2	350	101.379671744041	-0.079193115234375	-0.079071044921875	-5.999755859375E-07	4.74406967043706E-08	131790.4375	3.54850308212917E-05
2	351	101.480379743787	-0.069122314453125	-0.069091796875	-5.43212890625E-07	3.75315529765885E-08	127191.015625	3.54274670826271E-05
2	352	101.581087743532	-0.059051513671875	-0.05902099609375	-4.78515625000001E-07	2.8242469696238E-08	123341.8359375	3.53760187863372E-05
2	353	101.681795743278	-0.048980712890625	-0.04884033203125	-3.99169921875001E-07	1.9495590919405E-08	122354.7421875	3.53318246197887E-05
2	354	101.782503743024	-0.038909912109375	-0.0387939453125	-3.0181884765625E-07	1.1708742420069E-08	128533.875	3.52965289494023E-05
2	355	101.88321174277	-0.028839111328125	-0.028704833984375	-1.77917480468751E-07	5.10709119438957E-09	161337.90625	3.52723691321444E-05
2	356	101.983919742515	-0.018768310546875	-0.0186492919921875	-2.13623046875E-08	3.98391819533828E-10	873000	3.52623355865944E-05
2	357	102.084627742261	-0.008697509765625	-0.00858459472656251	1.71813964843751E-07	-1.47495315960811E-09	-49964.47265625	3.52699134964496E-05
2	358	102.185335742007	0.001373291015625	0.00145568847656249	4.0130615234375E-07	5.84176762519206E-10	3627.37646484375	3.52987699443474E-05
2	359	102.286043741753	0.011444091796875	0.011541748046875	6.591796875E-07	7.60808571698135E-09	17509.26171875	3.53521718352567E-05
2	360	102.386751741498	0.021514892578125	0.02161865234375	9.28344726562499E-07	2.00695620122815E-08	23287.3125	3.5432109143585E-05
2	361	102.487459741244	0.031585693359375	0.0316802978515625	1.18408203125E-06	3.75120663420603E-08	26755.15625	3.55384763679467E-05
2	362	102.58816774099	0.041656494140625	0.041729736328125	1.4031982421875E-06	5.85550914422583E-08	29739.017578125	3.56687560270075E-05
2	363	102.688875740736	0.051727294921875	0.0517578125	1.56494140625E-06	8.09979425753227E-08	33073.32421875	3.58182151103392E-05
2	364	102.789583740481	0.061798095703125	0.061920166015625	1.66107177734375E-06	1.02853839223371E-07	37277.23828125	3.59806581400335E-05
2	365	102.890291740227	0.071868896484375	0.0718994140625	1.6973876953125E-06	1.22041186045863E-07	42358.86328125	3.61497695848811E-05
2	366	102.990999739973	0.081939697265625	0.08197021484375	1.68853759765625E-06	1.38409788519311E-07	48545.09375	3.63202634616755E-05
2	367	103.091707739718	0.092010498046875	0.092041015625	1.646728515625E-06	1.51566567296868E-07	55893.25390625	3.64882071153261E-05
2	368	103.192415739464	0.102081298828125	0.1021728515625	1.58721923828125E-06	1.62170721296206E-07	64372.23828125	3.66510503226891E-05
2	369	103.29312373921	0.112152099609375	0.112213134765625	1.52069091796875E-06	1.7064148494228E-07	73790.890625	3.68075452570338E-05
2	370	103.393831738956	0.122222900390625	0.12225341796875	1.4532470703125E-06	1.77664418288259E-07	84124.3203125	3.69572953786701E-05
2	371	103.494539738701	0.132293701171875	0.13232421875	1.38946533203125E-06	1.83859910407591E-07	95233.9140625	3.71004389307927E-05
2	372	103.595247738447	0.142364501953125	0.142364501953125	1.33056640625E-06	1.89425421126543E-07	106995.4140625	3.72374015569221E-05
2	373	103.695955738193	0.152435302734375	0.152496337890625	1.278076171875E-06	1.94901943473269E-07	119317.09375	3.73687580577098E-05
2	374	103.796663737939	0.162506103515625	0.162506103515625	1.23077392578125E-06	2.00008273054664E-07	132035.703125	3.74950905097649E-05
2	375	103.897371737684	0.172576904296875	0.172576904296875	1.18927001953125E-06	2.0524052501969E-07	145111.640625	3.76169482478872E-05
2	376	103.99807973743	0.182647705078125	0.182647705078125	1.15264892578125E-06	2.10528682487165E-07	158459.09375	3.77348733309191E-05
2	377	104.098787737176	0.192718505859375	0.1927490234375	1.1212158203125E-06	2.16113235751436E-07	171910.734375	3.78493714379147E-05
2	378	104.199495736922	0.202789306640625	0.202728271484375	1.0931396484375E-06	2.2161030699408E-07	185455.046875	3.79608718503732E-05
2	379	104.300203736667	0.212860107421875	0.21282958984375	1.068115234375E-06	2.27326523827287E-07	199257.140625	3.80697019863874E-05
2	380	104.400911736413	0.222930908203125	0.222869873046875	1.0455322265625E-06	2.33017615869358E-07	213164.0625	3.81761310563888E-05
2	381	104.501619736159	0.233001708984375	0.2330322265625	1.0260009765625E-06	2.39091292542071E-07	227126.71875	3.82804428227246E-05
2	382	104.602327735905	0.243072509765625	0.243072509765625	1.0089111328125E-06	2.45238567231354E-07	240925.59375	3.83829064958263E-05
2	383	104.70303573565	0.253143310546875	0.253204345703125	9.9334716796875E-07	2.51519821858892E-07	254900.15625	3.84837294404861E-05
2	384	104.803743735396	0.263214111328125	0.26318359375	9.796142578125E-07	2.57818385307473E-07	268660.4375	3.85830753657501E-05
2	385	104.904451735142	0.273284912109375	0.273284912109375	9.6710205078125E-07	2.64294385488029E-07	282581.28125	3.86811007047072E-05
2	386	105.005159734887	0.283355712890625	0.2833251953125	9.55810546875E-07	2.70805202262636E-07	296424.03125	3.8777925510658E-05
2	387	105.105867734633	0.293426513671875	0.29339599609375	9.4635009765625E-07	2.77655317404424E-07	310029.03125	3.88737098546699E-05
2	388	105.206575734379	0.303497314453125	0.303466796875	9.381103515625E-07	2.84685341966906E-07	323487.34375	3.89685992558952E-05
2	389	105.307283734125	0.313568115234375	0.3135986328125	9.307861328125E-07	2.91893258008713E-07	336918.0625	3.90627028536983E-05
2	390	105.40799173387	0.323638916015625	0.3236083984375	9.24072265625001E-07	2.99037537843105E-07	350198.15625	3.91561043215916E-05
2	391	105.508699733616	0.333709716796875	0.333709716796875	9.1827392578125E-07	3.06436930941345E-07	363409.78125	3.92488727811724E-05
2	392	105.609407733362	0.343780517578125	0.343780517578125	9.130859375E-07	3.13901153958795E-07	376504.03125	3.93410882679746E-05
2	393	105.710115733108	0.353851318359375	0.35382080078125	9.09423828125E-07	3.21773057976316E-07	389060.40625	3.94328599213623E-05
2	394	105.810823732853	0.363922119140625	0.36395263671875	9.05761718750001E-07	3.29654341157948E-07	401819.4375	3.95242641388904E-05
2	395	105.911531732599	0.373992919921875	0.373992919921875	9.03930664062499E-07	3.38063671279087E-07	413740.71875	3.96153882320505E-05
2	396	106.012239732345	0.384063720703125	0.384033203125	9.02099609375E-07	3.46436195286515E-07	425710.4375	3.97063267882913E-05
2	397	106.112947732091	0.394134521484375	0.394195556640625	9.0087890625E-07	3.55122466544344E-07	437567.75	3.97971161874011E-05
2	398	106.213655731836	0.404205322265625	0.40423583984375	9.0087890625E-07	3.64167533462023E-07	448712.75	3.98878401028924E-05
2	399	106.314363731582	0.414276123046875	0.414337158203125	9.0087890625E-07	3.7326759638745E-07	459925.46875	3.99785676563624E-05
2	400	106.415071731328	0.424346923828125	0.424346923828125	9.01184082031251E-07	3.82414697241984E-07	470877.0625	4.00693097617477E-05
2	401	106.515779731074	0.434417724609375	0.434417724609375	9.014892578125E-07	3.91622904771793E-07	481889	4.01600809709635E-05
2	402	106.616487730819	0.444488525390625	0.444488525390625	9.02099609375E-07	4.00972908209951E-07	492726.65625	4.02508994739037E-05
2	403	106.717195730565	0.454559326171875	0.454559326171875	9.04541015625E-07	4.11167519587252E-07	502530.40625	4.03418707719538E-05
2	404	106.817903730311	0.464630126953125	0.464599609375	9.0545654296875E-07	4.20674751921979E-07	513110.875	4.04330094170291E-05
2	405	106.918611730056	0.474700927734375	0.47467041015625	9.0789794921875E-07	4.30952269425688E-07	522823.5625	4.05243190471083E-05
2	406	107.019319729802	0.484771728515625	0.48480224609375	9.10339355468751E-07	4.41334549350358E-07	532551.125	4.06158760597464E-05
2	407	107.120027729548	0.494842529296875	0.4947509765625	9.13391113281251E-07	4.51901144060685E-07	541663.875	4.0707705920795E-05
2	408	107.220735729294	0.504913330078125	0.5048828125	9.17663574218749E-07	4.6331254566212E-07	550182.9375	4.07999068556819E-05
2	409	107.321443729039	0.514984130859375	0.514984130859375	9.22546386718751E-07	4.75096726404445E-07	558220.3125	4.08925698138773E-05
2	410	107.422151728785	0.525054931640625	0.525054931640625	9.28955078125E-07	4.87752402023034E-07	565210.25	4.09858002967667E-05
2	411	107.522859728531	0.535125732421875	0.53509521484375	9.36279296875001E-07	5.00998567076749E-07	571512.375	4.10797219956294E-05
2	412	107.623567728277	0.545196533203125	0.54522705078125	9.46044921875E-07	5.15809290391189E-07	576322.5625	4.11745058954693E-05
2	413	107.724275728022	0.555267333984375	0.5552978515625	9.5794677734375E-07	5.3194577276372E-07	579675.0625	4.12703775509726E-05
2	414	107.824983727768	0.565338134765625	0.565277099609375	9.735107421875E-07	5.50303298041399E-07	580658.3125	4.13676352764014E-05
2	415	107.925691727514	0.575408935546875	0.57537841796875	9.9456787109375E-07	5.7225287264373E-07	578521.0625	4.14667374570854E-05
2	416	108.02639972726	0.585479736328125	0.585418701171875	1.02203369140625E-06	5.9831762655449E-07	572797.875	4.15682807215489E-05
2	417	108.127107727005	0.595550537109375	0.595489501953125	1.060791015625E-06	6.316898861769E-07	561363.6875	4.16731600125786E-05
2	418	108.227815726751	0.605621337890625	0.605621337890625	1.1138916015625E-06	6.74596492444834E-07	543698.625	4.17826631746721E-05
2	419	108.328523726497	0.615692138671875	0.6156005859375	1.187744140625E-06	7.31175987311872E-07	518293.9375	4.18985582655296E-05
2	420	108.429231726243	0.625762939453125	0.625732421875	1.2890625E-06	8.06608170478285E-07	485416.6875	4.20232754549943E-05
2	421	108.529939725988	0.635833740234375	0.6357421875	1.42425537109375E-06	9.05459160094324E-07	446368.15625	4.21599033870734E-05
2	422	108.630647725734	0.645904541015625	0.645843505859375	1.5985107421875E-06	1.0323877859264E-06	404028.25	4.23121127823833E-05
2	423	108.73135572548	0.655975341796875	0.655914306640625	1.8121337890625E-06	1.18860441489232E-06	361956.90625	4.24838508479297E-05
2	424	108.832063725225	0.666046142578125	0.66595458984375	2.059326171875E-06	1.37141762479587E-06	323384.71875	4.26787955802865E-05
2	425	108.932771724971	0.676116943359375	0.676055908203125	2.32696533203125E-06	1.57315866999852E-06	290531.15625	4.28996609116439E-05
2	426	109.033479724717	0.686187744140625	0.686126708984375	2.5921630859375E-06	1.77855235961033E-06	264692.71875	4.31473599746823E-05
2	427	109.134187724463	0.696258544921875	0.6961669921875	2.83111572265625E-06	1.97092913367669E-06	245898.46875	4.34204448538367E-05
2	428	109.234895724208	0.706329345703125	0.70623779296875	3.021240234375E-06	2.13371413337882E-06	233757.578125	4.37151320511475E-05
2	429	109.335603723954	0.716400146484375	0.716339111328125	3.148193359375E-06	2.25517396756914E-06	227539.75	4.40257899754215E-05
2	430	109.4363117237	0.726470947265625	0.72637939453125	3.2110595703125E-06	2.33244736591587E-06	226211.75	4.43460012320429E-05
2	431	109.537019723446	0.736541748046875	0.7364501953125	3.22021484375E-06	2.37152767113002E-06	228696	4.46698431915138E-05
2	432	109.637727723191	0.746612548828125	0.746551513671875	3.193359375E-06	2.3840073026804E-06	233782.5	4.49927902081981E-05
2	433	109.738435722937	0.756683349609375	0.75653076171875	3.1463623046875E-06	2.38031975641206E-06	240446.1875	4.53120228485204E-05
2	434	109.839143722683	0.766754150390625	0.7666015625	3.09478759765625E-06	2.37246877077268E-06	247707.34375	4.5626289647771E-05
2	435	109.939851722429	0.776824951171875	0.77667236328125	3.04962158203125E-06	2.36855680668668E-06	254678.28125	4.5935685193399E-05
2	436	110.040559722174	0.786895751953125	0.7867431640625	3.021240234375E-06	2.37694007410028E-06	260404.046875	4.62413772766013E-05
2	437	110.14126772192	0.796966552734375	0.79742431640625	3.016357421875E-06	2.40531676354294E-06	264366.65625	4.65453922515735E-05
2	438	110.241975721666	0.807037353515625	0.8074951171875	3.04107666015625E-06	2.45565433942829E-06	265529.375	4.68504113086965E-05
2	439	110.342683721412	0.817108154296875	0.81756591796875	3.09722900390625E-06	2.53218877332984E-06	263966.90625	4.71594976261258E-05
2	440	110.443391721157	0.827178955078125	0.82763671875	3.18634033203125E-06	2.63713218373596E-06	259745.234375	4.74758999189362E-05
2	441	110.544099720903	0.837249755859375	0.8367919921875	3.302001953125E-06	2.76308878710552E-06	253419.59375	4.78026158816647E-05
2	442	110.644807720649	0.847320556640625	0.8477783203125	3.4320068359375E-06	2.90958087134641E-06	247021.171875	4.81416973343585E-05
2	443	110.745515720394	0.857391357421875	0.8575439453125	3.558349609375E-06	3.05144112644484E-06	240994.859375	4.84936899738386E-05
2	444	110.84622372014	0.867462158203125	0.8673095703125	3.6651611328125E-06	3.17882927447499E-06	236636.140625	4.88574223709293E-05
2	445	110.946931719886	0.877532958984375	0.87738037109375	3.7371826171875E-06	3.27893076246255E-06	234770.53125	4.92301624035463E-05
2	446	111.047639719632	0.887603759765625	0.88775634765625	3.76861572265625E-06	3.34561241288611E-06	235565.640625	4.96081083838362E-05
2	447	111.148347719377	0.897674560546875	0.8978271484375	3.7628173828125E-06	3.37835945174447E-06	238605.046875	4.99873458466027E-05
2	448	111.249055719123	0.907745361328125	0.90789794921875	3.72711181640625E-06	3.38383711095958E-06	243592.890625	5.03644951095339E-05
2	449	111.349763718869	0.917816162109375	0.91827392578125	3.67095947265625E-06	3.37094616043032E-06	250145.484375	5.07370168634225E-05
2	450	111.450471718615	0.927886962890625	0.9283447265625	3.604736328125E-06	3.34643800670165E-06	257534.71875	5.11033758812118E-05
2	451	111.55117971836	0.937957763671875	0.9381103515625	3.533935546875E-06	3.31522164742637E-06	265457.6875	5.1462837291183E-05
2	452	111.651887718106	0.948028564453125	0.948486328125	3.46405029296875E-06	3.28560417983681E-06	273808.46875	5.18152155564167E-05
2	453	111.752595717852	0.958099365234375	0.95794677734375	3.39752197265625E-06	3.25464498018846E-06	281954.5625	5.21607216796838E-05
2	454	111.853303717598	0.968170166015625	0.96832275390625	3.3349609375E-06	3.22931850860186E-06	290355.0625	5.24997303728014E-05
2	455	111.954011717343	0.978240966796875	0.9783935546875	3.27789306640625E-06	3.20706931233872E-06	298482.46875	5.28327145730145E-05
2	456	112.054719717089	0.988311767578125	0.9881591796875	3.22601318359375E-06	3.18781462738116E-06	306309.71875	5.31602090632077E-05
2	457	112.155427716835	0.998382568359375	0.99853515625	3.17901611328125E-06	3.17435910801578E-06	314101.96875	5.34827304363716E-05
2	458	112.256135716581	1.00845336914063	1.0089111328125	3.135986328125E-06	3.1639312965126E-06	321720.53125	5.38007152499631E-05
2	459	112.356843716326	1.01852416992188	1.01837158203125	3.09661865234375E-06	3.15350848723028E-06	328865.65625	5.41145527677145E-05
2	460	112.457551716072	1.02859497070313	1.02813720703125	3.06060791015625E-06	3.14672479362343E-06	335925.8125	5.44245922355913E-05
2	461	112.558259715818	1.03866577148438	1.038818359375	3.02764892578125E-06	3.14517706101469E-06	343110.59375	5.47311610716861E-05
2	462	112.658967715563	1.04873657226563	1.048583984375	2.998046875E-06	3.1437039069715E-06	349755.71875	5.50345794181339E-05
2	463	112.759675715309	1.05880737304688	1.058349609375	2.969970703125E-06	3.14326734951464E-06	356350.1875	5.53350910195149E-05
2	464	112.860383715055	1.06887817382813	1.06903076171875	2.94525146484375E-06	3.14856447403145E-06	362967.5625	5.56329468963668E-05
2	465	112.961091714801	1.07894897460938	1.07879638671875	2.92144775390625E-06	3.1516472063231E-06	369267.75	5.59283580514602E-05
2	466	113.061799714546	1.08901977539063	1.08917236328125	2.89947509765625E-06	3.15802799377707E-06	375644.6875	5.62214663659688E-05
2	467	113.162507714292	1.09909057617188	1.09893798828125	2.87933349609375E-06	3.16420869239664E-06	381664.03125	5.65124537388328E-05
2	468	113.263215714038	1.10916137695313	1.10870361328125	2.86041259765625E-06	3.17134959004761E-06	387602.71875	5.68014729651622E-05
2	469	113.363923713784	1.11923217773438	1.1187744140625	2.843017578125E-06	3.18069510285568E-06	393516.5625	5.70886622881517E-05
2	470	113.464631713529	1.12930297851563	1.12945556640625	2.8271484375E-06	3.19313835461799E-06	399503.46875	5.73741781408899E-05
2	471	113.565339713275	1.13937377929688	1.13922119140625	2.81219482421875E-06	3.20371168527345E-06	405100.40625	5.76581405766774E-05
2	472	113.666047713021	1.14944458007813	1.14990234375	2.79876708984375E-06	3.21830884786323E-06	410860.3125	5.79406732867938E-05
2	473	113.766755712767	1.15951538085938	1.15936279296875	2.7862548828125E-06	3.23028007187531E-06	416100.78125	5.82219036004972E-05
2	474	113.867463712512	1.16958618164063	1.17034912109375	2.7752685546875E-06	3.24803295370657E-06	421706.625	5.85019479331095E-05
2	475	113.968171712258	1.17965698242188	1.17950439453125	2.76458740234375E-06	3.26084295920737E-06	426647.53125	5.87809008720797E-05
2	476	114.068879712004	1.18972778320313	1.1895751953125	2.7557373046875E-06	3.27815678247134E-06	431672.1875	5.90588715567719E-05
2	477	114.16958771175	1.19979858398438	1.199951171875	2.7484130859375E-06	3.29796125697612E-06	436597.84375	5.93360273342114E-05
2	478	114.270295711495	1.20986938476563	1.209716796875	2.74169921875E-06	3.31667934005964E-06	441228.875	5.96124773437623E-05
2	479	114.371003711241	1.21994018554688	1.21978759765625	2.73681640625E-06	3.3383348636562E-06	445695.8125	5.98883416387253E-05
2	480	114.471711710987	1.23001098632813	1.229248046875	2.73223876953125E-06	3.35859908773273E-06	449905.0625	6.01637329964433E-05
2	481	114.572419710732	1.24008178710938	1.23992919921875	2.72918701171875E-06	3.38399854626914E-06	454321.84375	6.0438735090429E-05
2	482	114.673127710478	1.25015258789063	1.2506103515625	2.72705078125E-06	3.41047780239023E-06	458594.46875	6.07134788879193E-05
2	483	114.773835710224	1.26022338867188	1.259765625	2.7252197265625E-06	3.43313809025858E-06	462262.03125	6.09880225965753E-05
2	484	114.87454370997	1.27029418945313	1.2701416015625	2.7252197265625E-06	3.46141496265773E-06	466069.4375	6.12624717177823E-05
2	485	114.975251709715	1.28036499023438	1.28021240234375	2.72552490234375E-06	3.48925073012651E-06	469712.25	6.15369426668622E-05
2	486	115.075959709461	1.29043579101563	1.28997802734375	2.7276611328125E-06	3.51862286152027E-06	472924.625	6.18115300312638E-05
2	487	115.176667709207	1.30050659179688	1.3006591796875	2.7301025390625E-06	3.55093288817443E-06	476414.03125	6.20863502263092E-05
2	488	115.277375708953	1.31057739257813	1.31134033203125	2.73406982421875E-06	3.58529587174417E-06	479629.4375	6.23614978394471E-05
2	489	115.378083708698	1.32064819335938	1.3201904296875	2.73956298828125E-06	3.61674460691574E-06	481898.1875	6.26371111138724E-05
2	490	115.478791708444	1.33071899414063	1.33056640625	2.7459716796875E-06	3.65369760402245E-06	484552.125	6.29133355687372E-05
2	491	115.57949970819	1.34078979492188	1.34033203125	2.7532958984375E-06	3.69033045899414E-06	486810.03125	6.31902439636178E-05
2	492	115.680207707936	1.35086059570313	1.3507080078125	2.762451171875E-06	3.73126476915786E-06	488952.75	6.34679818176664E-05
2	493	115.780915707681	1.36093139648438	1.361083984375	2.7716064453125E-06	3.77238916371425E-06	491081.25	6.37466437183321E-05
2	494	115.881623707427	1.37100219726563	1.37115478515625	2.781982421875E-06	3.81452855435782E-06	492869.6875	6.40262878732756E-05
2	495	115.982331707173	1.38107299804688	1.3812255859375	2.794189453125E-06	3.8594057514274E-06	494320.65625	6.43070743535645E-05
2	496	116.083039706918	1.39114379882813	1.39129638671875	2.80609130859375E-06	3.90410468753544E-06	495812.9375	6.45890686428174E-05
2	497	116.183747706664	1.40121459960938	1.4007568359375	2.81951904296875E-06	3.9494607335655E-06	496807	6.48723435006104E-05
2	498	116.28445570641	1.41128540039063	1.41143798828125	2.83477783203125E-06	4.00111275666859E-06	497900.78125	6.51570589980111E-05
2	499	116.385163706156	1.42135620117188	1.42120361328125	2.8521728515625E-06	4.0535182961321E-06	498288.03125	6.54434188618325E-05
2	500	116.485871705901	1.43142700195313	1.431884765625	2.872314453125E-06	4.11282326240325E-06	498512.5625	6.57316704746336E-05
2	501	116.586579705647	1.44149780273438	1.44195556640625	2.8961181640625E-06	4.1760736166907E-06	497892.53125	6.60221339785494E-05
2	502	116.687287705393	1.45156860351563	1.451416015625	2.92449951171875E-06	4.24466543336166E-06	496295.53125	6.63152241031639E-05
2	503	116.787995705139	1.46163940429688	1.4617919921875	2.95806884765625E-06	4.32408114647842E-06	494171.0625	6.66114356135949E-05
2	504	116.888703704884	1.47171020507813	1.4715576171875	2.99713134765625E-06	4.41045131083229E-06	490988.6875	6.69112996547483E-05
2	505	116.98941170463	1.48178100585938	1.48162841796875	3.04290771484375E-06	4.50845845989534E-06	486912.0625	6.72154419589788E-05
2	506	117.090119704376	1.49185180664063	1.49200439453125	3.0987548828125E-06	4.62335583506501E-06	481485.125	6.7524699261412E-05
2	507	117.190827704122	1.50192260742188	1.5020751953125	3.16314697265625E-06	4.75128445032169E-06	474867.34375	6.78400101605803E-05
2	508	117.291535703867	1.49185180664063	1.49169921875	2.93487548828125E-06	4.37795142715913E-06	508266.59375	6.8147070123814E-05
2	509	117.392243703613	1.48178100585938	1.48193359375	2.7728271484375E-06	4.10914526582928E-06	534448.625	6.84344777255319E-05
2	510	117.492951703359	1.47171020507813	1.4715576171875	2.6458740234375E-06	3.89355591323692E-06	556170.6875	6.87073334120214E-05
2	511	117.593659703105	1.46163940429688	1.461181640625	2.54180908203125E-06	3.71404462384817E-06	574858.9375	6.89685548422858E-05
2	512	117.69436770285	1.45156860351563	1.451416015625	2.45574951171875E-06	3.56431405634794E-06	591027.75	6.922020111233E-05
2	513	117.795075702596	1.44149780273438	1.44134521484375	2.38250732421875E-06	3.43401552527212E-06	604969.875	6.94638220011257E-05
2	514	117.895783702342	1.43142700195313	1.43157958984375	2.3199462890625E-06	3.32118747792265E-06	617074.5	6.97006107657216E-05
2	515	117.996491702087	1.42135620117188	1.42120361328125	2.26470947265625E-06	3.21861307384097E-06	627543.5	6.99314696248621E-05
2	516	118.097199701833	1.41128540039063	1.4111328125	2.21649169921875E-06	3.12776387545455E-06	636651.5625	7.01571116223931E-05
2	517	118.197907701579	1.40121459960938	1.4013671875	2.174072265625E-06	3.04667355521815E-06	644581.6875	7.03781988704577E-05
2	518	118.298615701325	1.39114379882813	1.39129638671875	2.13531494140625E-06	2.9708558031416E-06	651565	7.05951897543855E-05
2	519	118.39932370107	1.38107299804688	1.38092041015625	2.10052490234375E-06	2.90065759145364E-06	657416.8125	7.08084844518453E-05
2	520	118.500031700816	1.37100219726563	1.37115478515625	2.06787109375E-06	2.83537133327627E-06	663075.5625	7.10183740011416E-05
2	521	118.600739700562	1.36093139648438	1.36077880859375	2.0391845703125E-06	2.77487902167195E-06	667315.1875	7.12251858203672E-05
2	522	118.701447700308	1.35086059570313	1.35101318359375	2.0123291015625E-06	2.7186831630388E-06	671367.9375	7.14291963959113E-05
2	523	118.802155700053	1.34078979492188	1.34063720703125	1.98699951171875E-06	2.66384540736908E-06	674704.375	7.1630573074799E-05
2	524	118.902863699799	1.33071899414063	1.33087158203125	1.964111328125E-06	2.61397985923395E-06	677594.75	7.18295341357589E-05
2	525	119.003571699545	1.32064819335938	1.32110595703125	1.94183349609375E-06	2.56536782217154E-06	680339.4375	7.20262105460279E-05
2	526	119.104279699291	1.31057739257813	1.3104248046875	1.92138671875E-06	2.5178328542097E-06	682020.3125	7.22207405488007E-05
2	527	119.204987699036	1.30050659179688	1.3006591796875	1.90216064453125E-06	2.47406273956585E-06	683779.875	7.24132696632296E-05
2	528	119.305695698782	1.29043579101563	1.29058837890625	1.88323974609375E-06	2.43048725678818E-06	685302.25	7.26038779248483E-05
2	529	119.406403698528	1.28036499023438	1.28021240234375	1.86492919921875E-06	2.3875054466771E-06	686467.0625	7.27926162653603E-05
2	530	119.507111698274	1.27029418945313	1.26983642578125	1.84814453125E-06	2.3468412564398E-06	687087.1875	7.29795865481719E-05
2	531	119.607819698019	1.26022338867188	1.26068115234375	1.83135986328125E-06	2.30876071327657E-06	688385.3125	7.31648615328595E-05
2	532	119.708527697765	1.25015258789063	1.24969482421875	1.81488037109375E-06	2.26804650083068E-06	688582.5	7.33484630472958E-05
2	533	119.809235697511	1.24008178710938	1.24053955078125	1.79931640625E-06	2.23212305172638E-06	689450.5	7.35304565750994E-05
2	534	119.909943697256	1.23001098632813	1.23016357421875	1.783447265625E-06	2.1939317775832E-06	689767.3125	7.37108566681854E-05
2	535	120.010651697002	1.21994018554688	1.22039794921875	1.76910400390625E-06	2.15901081901393E-06	689839.5625	7.38897433620878E-05
2	536	120.111359696748	1.20986938476563	1.209716796875	1.75384521484375E-06	2.12165582524904E-06	689751.1875	7.40671384846792E-05
2	537	120.212067696494	1.19979858398438	1.19964599609375	1.7388916015625E-06	2.08605433726916E-06	689891.1875	7.42430129321292E-05
2	538	120.312775696239	1.18972778320313	1.1895751953125	1.72454833984375E-06	2.05147989618126E-06	689789.4375	7.44174103601836E-05
2	539	120.413483695985	1.17965698242188	1.1798095703125	1.70989990234375E-06	2.01735610971809E-06	689987.5625	7.45903453207575E-05
2	540	120.514191695731	1.16958618164063	1.16973876953125	1.695556640625E-06	1.98335828827112E-06	689884.8125	7.47618250898086E-05
2	541	120.614899695477	1.15951538085938	1.15966796875	1.680908203125E-06	1.94929543795297E-06	689905.5625	7.49318423913792E-05
2	542	120.715607695222	1.14944458007813	1.14898681640625	1.666259765625E-06	1.91451044884161E-06	689560.4375	7.51003899495117E-05
2	543	120.816315694968	1.13937377929688	1.13922119140625	1.651611328125E-06	1.88155058822304E-06	689763.5	7.52674604882486E-05
2	544	120.917023694714	1.12930297851563	1.12945556640625	1.63726806640625E-06	1.84922146218014E-06	689841.5625	7.5433068559505E-05
2	545	121.01773169446	1.11923217773438	1.11907958984375	1.6229248046875E-06	1.81618190708832E-06	689544.9375	7.55972287151963E-05
2	546	121.118439694205	1.10916137695313	1.1090087890625	1.60858154296875E-06	1.78393111127662E-06	689432.75	7.57599482312799E-05
2	547	121.219147693951	1.09909057617188	1.09954833984375	1.59423828125E-06	1.75294201198994E-06	689701.375	7.59212198317982E-05
2	548	121.319855693697	1.08901977539063	1.0888671875	1.57958984375E-06	1.71996350672998E-06	689335.375	7.60810362407938E-05
2	549	121.420563693443	1.07894897460938	1.0791015625	1.56463623046875E-06	1.68840131209436E-06	689682.125	7.62393610784784E-05
2	550	121.521271693188	1.06887817382813	1.0687255859375	1.55059814453125E-06	1.65716380706726E-06	689234.4375	7.63962234486826E-05
2	551	121.621979692934	1.05880737304688	1.058349609375	1.5362548828125E-06	1.62589481078612E-06	688915.375	7.65516597311944E-05
2	552	121.72268769268	1.04873657226563	1.04888916015625	1.5216064453125E-06	1.59599642302055E-06	689330.1875	7.67056408221833E-05
2	553	121.823395692425	1.03866577148438	1.03851318359375	1.50726318359375E-06	1.56531268658E-06	689005.875	7.68581521697342E-05
2	554	121.924103692171	1.02859497070313	1.02874755859375	1.49200439453125E-06	1.53489577314758E-06	689507.0625	7.70091792219318E-05
2	555	122.024811691917	1.01852416992188	1.01837158203125	1.47705078125E-06	1.50418657085538E-06	689462.8125	7.71586855989881E-05
2	556	122.125519691663	1.00845336914063	1.00830078125	1.46148681640625E-06	1.47361834024196E-06	689914.375	7.73066494730301E-05
2	557	122.226227691408	0.998382568359375	0.99853515625	1.44561767578125E-06	1.44349996844539E-06	690732.5625	7.74530344642699E-05
2	558	122.326935691154	0.988311767578125	0.98846435546875	1.42822265625E-06	1.41174712098291E-06	692094.0625	7.75977459852584E-05
2	559	122.4276436909	0.978240966796875	0.9783935546875	1.40899658203125E-06	1.37855317916546E-06	694390.3125	7.77406094130129E-05
2	560	122.528351690646	0.968170166015625	0.96832275390625	1.38671875E-06	1.34279127905756E-06	698283.4375	7.78813846409321E-05
2	561	122.629059690391	0.958099365234375	0.9588623046875	1.36077880859375E-06	1.30479952531459E-06	704642.3125	7.80197296990082E-05
2	562	122.729767690137	0.948028564453125	0.948486328125	1.3287353515625E-06	1.2602872629941E-06	713826.4375	7.8155157098081E-05
2	563	122.830475689883	0.937957763671875	0.9381103515625	1.287841796875E-06	1.20813774628914E-06	728436.0625	7.82869174145162E-05
2	564	122.931183689629	0.927886962890625	0.927734375	1.23504638671875E-06	1.14579495402722E-06	751173.6875	7.84139556344599E-05
2	565	123.031891689374	0.917816162109375	0.91796875	1.1669921875E-06	1.07126243165112E-06	786610.875	7.85349038778804E-05
2	566	123.13259968912	0.907745361328125	0.90789794921875	1.0784912109375E-06	9.79159949565656E-07	841822.3125	7.86479722592048E-05
2	567	123.233307688866	0.897674560546875	0.89813232421875	9.6405029296875E-07	8.65844697273133E-07	931623.9375	7.87508251960389E-05
2	568	123.334015688612	0.887603759765625	0.8880615234375	8.23364257812501E-07	7.31198099401809E-07	1078576.75	7.88408287917264E-05
2	569	123.434723688357	0.877532958984375	0.877685546875	6.55212402343749E-07	5.75070430386404E-07	1339543.625	7.89152763900347E-05
2	570	123.535431688103	0.867462158203125	0.867919921875	4.681396484375E-07	4.06307719913457E-07	1853976.625	7.8971846960485E-05
2	571	123.636139687849	0.857391357421875	0.85784912109375	2.74047851562501E-07	2.35091690115041E-07	3130289.75	7.90092162787914E-05
2	572	123.736847687594	0.847320556640625	0.84716796875	9.06372070312494E-08	7.67849428484624E-08	9346801	7.90275807958096E-05
2	573	123.83755568734	0.837249755859375	0.83740234375	-6.561279296875E-08	-5.49443015529505E-08	-12762792	7.90288395364769E-05
2	574	123.938263687086	0.827178955078125	0.8270263671875	-1.82495117187501E-07	-1.5092827254648E-07	-4531772.5	7.90163467172533E-05
2	575	124.038971686832	0.817108154296875	0.81695556640625	-2.5665283203125E-07	-2.0967397063032E-07	-3183115.25	7.89942350820638E-05
2	576	124.139679686577	0.807037353515625	0.806884765625	-2.92053222656249E-07	-2.35653288882531E-07	-2762800.5	7.89666009950452E-05
2	577	124.240387686323	0.796966552734375	0.79742431640625	-2.99072265625E-07	-2.38487501746931E-07	-2666326.5	7.89368423284031E-05
2	578	124.341095686069	0.786895751953125	0.787353515625	-2.886962890625E-07	-2.27306017563933E-07	-2727273	7.89072437328286E-05
2	579	124.441803685815	0.776824951171875	0.77728271484375	-2.75268554687499E-07	-2.13961484973879E-07	-2823725.25	7.88788456702605E-05
2	580	124.54251168556	0.766754150390625	0.76690673828125	-2.67639160156249E-07	-2.05254281127054E-07	-2865450.25	7.8851509897504E-05
2	581	124.643219685306	0.756683349609375	0.7568359375	-2.78320312499999E-07	-2.10642809861383E-07	-2719298.25	7.882401405368E-05
2	582	124.743927685052	0.746612548828125	0.746551513671875	-3.192138671875E-07	-2.38309581845897E-07	-2338719	7.87939279689454E-05
2	583	124.844635684798	0.736541748046875	0.7364501953125	-3.96728515625E-07	-2.92170767579591E-07	-1856307.75	7.87578755989671E-05
2	584	124.945343684543	0.726470947265625	0.72637939453125	-5.18798828125E-07	-3.76844752736361E-07	-1400117.75	7.87117751315236E-05
2	585	125.046051684289	0.716400146484375	0.716339111328125	-6.87561035156251E-07	-4.9252685130341E-07	-1041855.375	7.86510281614028E-05
2	586	125.146759684035	0.706329345703125	0.706298828125	-8.97216796875E-07	-6.33703166386113E-07	-787210.9375	7.8571232734248E-05
2	587	125.247467683781	0.696258544921875	0.6961669921875	-1.13525390625E-06	-7.90326282640308E-07	-613225.8125	7.84688891144469E-05
2	588	125.348175683526	0.686187744140625	0.686126708984375	-1.375732421875E-06	-9.4392675009658E-07	-498735.59375	7.83424475230277E-05
2	589	125.448883683272	0.676116943359375	0.676055908203125	-1.5936279296875E-06	-1.07738151200465E-06	-424224.4375	7.81929338700138E-05
2	590	125.549591683018	0.666046142578125	0.666046142578125	-1.76361083984375E-06	-1.17464617233054E-06	-377660.5	7.80238842708059E-05
2	591	125.650299682763	0.655975341796875	0.65594482421875	-1.8707275390625E-06	-1.22709400329768E-06	-350636.21875	7.78408793848939E-05
2	592	125.751007682509	0.645904541015625	0.6458740234375	-1.91314697265625E-06	-1.23565189369401E-06	-337597.71875	7.76503438828513E-05
2	593	125.851715682255	0.635833740234375	0.63580322265625	-1.898193359375E-06	-1.20687741400616E-06	-334951.78125	7.7458425948862E-05
2	594	125.952423682001	0.625762939453125	0.625732421875	-1.8414306640625E-06	-1.15224281671544E-06	-339807.75	7.72701241658069E-05
2	595	126.053131681746	0.615692138671875	0.61566162109375	-1.75811767578125E-06	-1.08240556073724E-06	-350182.28125	7.708887278568E-05
2	596	126.153839681492	0.605621337890625	0.605560302734375	-1.66259765625E-06	-1.00680313153134E-06	-364225.40625	7.69166217651218E-05
2	597	126.254547681238	0.595550537109375	0.59552001953125	-1.56219482421875E-06	-9.30318265091046E-07	-381207.28125	7.67542442190461E-05
2	598	126.355255680984	0.585479736328125	0.58544921875	-1.46514892578125E-06	-8.57770260154211E-07	-399583.4375	7.66018056310713E-05
2	599	126.455963680729	0.575408935546875	0.575439453125	-1.3720703125E-06	-7.89543378232338E-07	-419395.03125	7.64589422033168E-05
2	600	126.556671680475	0.565338134765625	0.565338134765625	-1.28753662109375E-06	-7.27893564089754E-07	-439085.09375	7.63250136515126E-05
2	601	126.657379680221	0.555267333984375	0.555206298828125	-1.20849609375E-06	-6.7096465272698E-07	-459419.1875	7.61993287596852E-05
2	602	126.758087679967	0.545196533203125	0.54510498046875	-1.13800048828125E-06	-6.20329728917568E-07	-479002.40625	7.60811744839884E-05
2	603	126.858795679712	0.535125732421875	0.53509521484375	-1.07391357421875E-06	-5.7464598057777E-07	-498266.59375	7.59697941248305E-05
2	604	126.959503679458	0.525054931640625	0.52508544921875	-1.01593017578125E-06	-5.33450133843871E-07	-516851.9375	7.58645692258142E-05
2	605	127.060211679204	0.514984130859375	0.51495361328125	-9.63439941406249E-07	-4.96126858706702E-07	-534494.8125	7.57648958824575E-05
2	606	127.16091967895	0.504913330078125	0.50494384765625	-9.161376953125E-07	-4.62598080730459E-07	-551165.9375	7.56702502258122E-05
2	607	127.261627678695	0.494842529296875	0.49481201171875	-8.72192382812501E-07	-4.31571237413664E-07	-567319.8125	7.55802029743791E-05
2	608	127.362335678441	0.484771728515625	0.48480224609375	-8.32519531250001E-07	-4.03607316457055E-07	-582331.375	7.54943612264469E-05
2	609	127.463043678187	0.474700927734375	0.47467041015625	-7.95898437500001E-07	-3.77789433514408E-07	-596395.75	7.54123684600927E-05
2	610	127.563751677932	0.464630126953125	0.46466064453125	-7.62023925781249E-07	-3.54082516196286E-07	-609771.75	7.53339190850966E-05
2	611	127.664459677678	0.454559326171875	0.45458984375	-7.31201171875E-07	-3.3239663821405E-07	-621702.8125	7.52587293391116E-05
2	612	127.765167677424	0.444488525390625	0.444488525390625	-7.02819824218751E-07	-3.12395343371463E-07	-632435.9375	7.51865227357484E-05
2	613	127.86587567717	0.434417724609375	0.43438720703125	-6.7626953125E-07	-2.93762809633336E-07	-642328.5625	7.51170809962787E-05
2	614	127.966583676915	0.424346923828125	0.42431640625	-6.5155029296875E-07	-2.76463481441169E-07	-651241.1875	7.50502149458043E-05
2	615	128.067291676661	0.414276123046875	0.414276123046875	-6.2896728515625E-07	-2.60566110910077E-07	-658660.875	7.49857354094274E-05
2	616	128.167999676407	0.404205322265625	0.404205322265625	-6.0760498046875E-07	-2.45597163939237E-07	-665243.5625	7.49234677641653E-05
2	617	128.268707676153	0.394134521484375	0.394134521484375	-5.8746337890625E-07	-2.31539601713848E-07	-670909.125	7.4863295594696E-05
2	618	128.369415675898	0.384063720703125	0.3841552734375	-5.682373046875E-07	-2.1829134766449E-07	-676047.3125	7.48051024856977E-05
2	619	128.470123675644	0.373992919921875	0.3740234375	-5.499267578125E-07	-2.05685495302532E-07	-680133.1875	7.47487938497216E-05
2	620	128.57083167539	0.363922119140625	0.36395263671875	-5.3253173828125E-07	-1.93816319438156E-07	-683438.4375	7.46942896512337E-05
2	621	128.671539675136	0.353851318359375	0.35382080078125	-5.1544189453125E-07	-1.82374051860279E-07	-686441.75	7.4641517130658E-05
2	622	128.772247674881	0.343780517578125	0.343841552734375	-4.99267578125E-07	-1.71668943949044E-07	-688691.9375	7.45904253562912E-05
2	623	128.872955674627	0.333709716796875	0.333770751953125	-4.84313964843749E-07	-1.61649822416621E-07	-689162	7.45408979128115E-05
2	624	128.973663674373	0.323638916015625	0.323699951171875	-4.69970703125E-07	-1.52129487673847E-07	-688766.25	7.44928474887274E-05
2	625	129.074371674119	0.313568115234375	0.3135986328125	-4.5654296875E-07	-1.43171249078478E-07	-686898.4375	7.44461940485053E-05
2	626	129.175079673864	0.303497314453125	0.303497314453125	-4.43115234374999E-07	-1.34484281488767E-07	-684917.375	7.44008939363994E-05
2	627	129.27578767361	0.293426513671875	0.293426513671875	-4.3060302734375E-07	-1.26350343521153E-07	-681431.625	7.43568962207064E-05
2	628	129.376495673356	0.283355712890625	0.28338623046875	-4.18701171874999E-07	-1.18654142511332E-07	-676822.1875	7.43141281418502E-05
2	629	129.477203673101	0.273284912109375	0.27325439453125	-4.0740966796875E-07	-1.11326478702267E-07	-670711.625	7.42725314921699E-05
2	630	129.577911672847	0.263214111328125	0.26324462890625	-3.9642333984375E-07	-1.04356310259845E-07	-664049.3125	7.42320553399622E-05
2	631	129.678619672593	0.253143310546875	0.253143310546875	-3.86657714843749E-07	-9.78798126993752E-08	-654696.125	7.4192626925651E-05
2	632	129.779327672339	0.243072509765625	0.24310302734375	-3.77197265625E-07	-9.16977995757406E-08	-644498.375	7.41541589377448E-05
2	633	129.880035672084	0.233001708984375	0.2330322265625	-3.68347167968749E-07	-8.58367528167037E-08	-632642.9375	7.41166222724132E-05
2	634	129.98074367183	0.222930908203125	0.22296142578125	-3.59497070312501E-07	-8.01539741246415E-08	-620203.75	7.40799732739106E-05
2	635	130.081451671576	0.212860107421875	0.212921142578125	-3.51562499999999E-07	-7.48550874618559E-08	-605642.375	7.40441682864912E-05
2	636	130.182159671322	0.202789306640625	0.20281982421875	-3.460693359375E-07	-7.01897207022739E-08	-586067.0625	7.40090399631299E-05
2	637	130.282867671067	0.192718505859375	0.192718505859375	-3.4027099609375E-07	-6.55765148849241E-08	-566367.75	7.39744791644625E-05
2	638	130.383575670813	0.182647705078125	0.182647705078125	-3.36303710937499E-07	-6.14251050023995E-08	-543103.4375	7.39404058549553E-05
2	639	130.484283670559	0.172576904296875	0.172576904296875	-3.33251953124999E-07	-5.75115883805211E-08	-517857.1875	7.39066963433288E-05
2	640	130.584991670305	0.162506103515625	0.162567138671875	-3.33251953124999E-07	-5.41758140570892E-08	-487820.53125	7.38731323508546E-05
2	641	130.68569967005	0.152435302734375	0.152435302734375	-3.35693359375E-07	-5.11715185780304E-08	-454090.90625	7.38394519430585E-05
2	642	130.786407669796	0.142364501953125	0.14239501953125	-3.43017578125E-07	-4.8843993738501E-08	-415124.5625	7.38052767701447E-05
2	643	130.887115669542	0.132293701171875	0.132293701171875	-3.56140136718749E-07	-4.71150976011359E-08	-371465.3125	7.37700684112497E-05
2	644	130.987823669288	0.122222900390625	0.12225341796875	-3.77807617187501E-07	-4.61882692093241E-08	-323586.4375	7.37331138225272E-05
2	645	131.088531669033	0.112152099609375	0.1121826171875	-4.12597656249999E-07	-4.62862850270085E-08	-271893.5	7.36933143343776E-05
2	646	131.189239668779	0.102081298828125	0.102142333984375	-4.6417236328125E-07	-4.74116497173327E-08	-220052.59375	7.36491638235748E-05
2	647	131.289947668525	0.092010498046875	0.092041015625	-5.389404296875E-07	-4.96046226317048E-08	-170781.4375	7.35986541258171E-05
2	648	131.39065566827	0.081939697265625	0.082000732421875	-6.41784667968751E-07	-5.26268131295637E-08	-127769.859375	7.3539195000194E-05
2	649	131.491363668016	0.071868896484375	0.07196044921875	-7.8125E-07	-5.62191004860324E-08	-92109.375	7.34675413696095E-05
2	650	131.592071667762	0.061798095703125	0.06182861328125	-9.5794677734375E-07	-5.92285225309297E-08	-64542.84765625	7.33799679437652E-05
2	651	131.692779667508	0.051727294921875	0.051788330078125	-1.171875E-06	-6.06894445809303E-08	-44192.7109375	7.32727203285322E-05
2	652	131.793487667253	0.041656494140625	0.0417327880859375	-1.41265869140625E-06	-5.89541855333664E-08	-29542.017578125	7.31425825506449E-05
2	653	131.894195666999	0.031585693359375	0.031671142578125	-1.66168212890625E-06	-5.26273709056113E-08	-19059.689453125	7.29877720004879E-05
2	654	131.994903666745	0.021514892578125	0.021588134765625	-1.89208984375E-06	-4.08466895862603E-08	-11409.677734375	7.28088270989247E-05
2	655	132.095611666491	0.011444091796875	0.0115142822265625	-2.08160400390625E-06	-2.39681750002774E-08	-5531.44677734375	7.26087382645346E-05
2	656	132.196319666236	0.001373291015625	0.00147399902343751	-2.21221923828125E-06	-3.26080895618475E-09	-666.298767089844	7.23925259080715E-05
2	657	132.297027665982	-0.008697509765625	-0.008575439453125	-2.27874755859375E-06	1.9541261053746E-08	3763.22509765625	7.21663891454227E-05
2	658	132.397735665728	-0.018768310546875	-0.01865234375	-2.28790283203125E-06	4.26747490678281E-08	8152.5947265625	7.19364397809841E-05
2	659	132.498443665474	-0.028839111328125	-0.0287322998046875	-2.2552490234375E-06	6.47984919055489E-08	12740.189453125	7.17076691216789E-05
2	660	132.599151665219	-0.038909912109375	-0.0388031005859375	-2.19573974609375E-06	8.52015062946521E-08	17671.99609375	7.14835477992892E-05
2	661	132.699859664965	-0.048980712890625	-0.0488555908203125	-2.12249755859375E-06	1.03695874997811E-07	23017.97265625	7.12661058059894E-05
2	662	132.800567664711	-0.059051513671875	-0.05902099609375	-2.04498291015625E-06	1.20696924454933E-07	28861.36328125	7.10562599124387E-05
2	663	132.901275664457	-0.069122314453125	-0.069061279296875	-1.96868896484375E-06	1.35960164016069E-07	35079.8359375	7.08541556377895E-05
2	664	133.001983664202	-0.079193115234375	-0.079132080078125	-1.8988037109375E-06	1.50256283859562E-07	41674.703125	7.06594073562883E-05
2	665	133.102691663948	-0.089263916015625	-0.089111328125	-1.83441162109375E-06	1.63466850722216E-07	48577.609375	7.04714257153682E-05
2	666	133.203399663694	-0.099334716796875	-0.099273681640625	-1.7779541015625E-06	1.76504045157344E-07	55835.91015625	7.02895267750137E-05
2	667	133.304107663439	-0.109405517578125	-0.10931396484375	-1.72821044921875E-06	1.88917525179022E-07	63252.6953125	7.01129829394631E-05
2	668	133.404815663185	-0.119476318359375	-0.11944580078125	-1.68426513671875E-06	2.01178380621059E-07	70918.6484375	6.99411466484889E-05
2	669	133.505523662931	-0.129547119140625	-0.129425048828125	-1.6473388671875E-06	2.13206917010211E-07	78566.1328125	6.97733848937787E-05
2	670	133.606231662677	-0.139617919921875	-0.1395263671875	-1.6156005859375E-06	2.25418872901173E-07	86361.921875	6.96090864948928E-05
2	671	133.706939662422	-0.149688720703125	-0.14959716796875	-1.58905029296875E-06	2.37717415529914E-07	94142.5	6.94477203069255E-05
2	672	133.807647662168	-0.159759521484375	-0.15972900390625	-1.566162109375E-06	2.50161491521794E-07	101987.53125	6.92888424964622E-05
2	673	133.908355661914	-0.169830322265625	-0.16973876953125	-1.5472412109375E-06	2.62626798530619E-07	109704.1484375	6.91320674377494E-05
2	674	134.00906366166	-0.179901123046875	-0.17974853515625	-1.53167724609375E-06	2.75316722309071E-07	117354.0625	6.89770313329063E-05
2	675	134.109771661405	-0.189971923828125	-0.189788818359375	-1.519775390625E-06	2.88436353912402E-07	124879.5234375	6.882337766001E-05
2	676	134.210479661151	-0.200042724609375	-0.19989013671875	-1.5106201171875E-06	3.01958067439045E-07	132323.234375	6.86707862769254E-05
2	677	134.311187660897	-0.189971923828125	-0.189849853515625	-1.35498046875E-06	2.57242845691508E-07	140112.609375	6.85264967614785E-05
