Potential,Current,Normalized_Potential,Normalized_Current
-0.204925537109375,7.38525390625e-07,-0.226593017578125,0.10232558139534884
-0.19989013671875,9.3505859375e-07,-0.2215576171875,0.12955602536997887
-0.194854736328125,9.43908691406251e-07,-0.216522216796875,0.1307822410147993
-0.1898193359375,9.45434570312501e-07,-0.21148681640625,0.13099365750528555
-0.184783935546875,9.4635009765625e-07,-0.206451416015625,0.13112050739957717
-0.17974853515625,9.4879150390625e-07,-0.201416015625,0.1314587737843552
-0.174713134765625,9.5062255859375e-07,-0.196380615234375,0.1317124735729387
-0.169677734375,9.54284667968751e-07,-0.19134521484375,0.13221987315010586
-0.164642333984375,9.58862304687499e-07,-0.186309814453125,0.13285412262156435
-0.15960693359375,9.65270996093751e-07,-0.1812744140625,0.13374207188160692
-0.154571533203125,9.71679687499999e-07,-0.176239013671875,0.1346300211416489
-0.1495361328125,9.7991943359375e-07,-0.17120361328125,0.13577167019027483
-0.144500732421875,9.906005859375e-07,-0.166168212890625,0.13725158562367867
-0.13946533203125,1.00341796875e-06,-0.1611328125,0.13902748414376323
-0.134429931640625,1.01837158203125e-06,-0.156097412109375,0.14109936575052853
-0.12939453125,1.03729248046875e-06,-0.15106201171875,0.14372093023255814
-0.124359130859375,1.060791015625e-06,-0.146026611328125,0.1469767441860465
-0.11932373046875,1.0870361328125e-06,-0.1409912109375,0.15061310782241016
-0.114288330078125,1.12030029296875e-06,-0.135955810546875,0.15522198731501058
-0.1092529296875,1.1602783203125e-06,-0.13092041015625,0.16076109936575053
-0.104217529296875,1.20819091796875e-06,-0.125885009765625,0.16739957716701903
-0.09918212890625,1.26312255859375e-06,-0.120849609375,0.17501057082452434
-0.094146728515625,1.33392333984375e-06,-0.115814208984375,0.1848202959830867
-0.089111328125,1.41632080078125e-06,-0.11077880859375,0.19623678646934462
-0.084075927734375,1.513671875e-06,-0.105743408203125,0.20972515856236787
-0.07904052734375,1.63116455078125e-06,-0.1007080078125,0.22600422832980974
-0.074005126953125,1.76727294921875e-06,-0.095672607421875,0.24486257928118396
-0.0689697265625,1.92718505859375e-06,-0.09063720703125,0.26701902748414374
-0.063934326171875,2.11273193359375e-06,-0.085601806640625,0.2927272727272727
-0.05889892578125,2.32666015625e-06,-0.08056640625,0.32236786469344614
-0.053863525390625,2.57049560546875e-06,-0.075531005859375,0.3561522198731501
-0.048828125,2.84332275390625e-06,-0.07049560546875,0.39395348837209304
-0.043792724609375,3.15216064453125e-06,-0.065460205078125,0.43674418604651166
-0.03875732421875,3.48907470703125e-06,-0.0604248046875,0.4834249471458774
-0.033721923828125,3.853759765625e-06,-0.055389404296875,0.5339534883720931
-0.0286865234375,4.24041748046875e-06,-0.05035400390625,0.5875264270613108
-0.023651123046875,4.6441650390625e-06,-0.045318603515625,0.6434672304439747
-0.01861572265625,5.05615234375e-06,-0.040283203125,0.7005496828752643
-0.013580322265625,5.4656982421875e-06,-0.035247802734375,0.757293868921776
-0.008544921875,5.86090087890625e-06,-0.03021240234375,0.8120507399577167
-0.003509521484375,6.22955322265625e-06,-0.025177001953125,0.8631289640591967
0.00152587890625,6.56097412109375e-06,-0.0201416015625,0.9090486257928119
0.006561279296875,6.82952880859375e-06,-0.015106201171875,0.9462579281183933
0.0115966796875,7.0391845703125e-06,-0.01007080078125,0.9753065539112051
0.016632080078125,7.166748046875e-06,-0.005035400390625,0.9929809725158563
0.02166748046875,7.2174072265625e-06,0.0,1.0
0.026702880859375,7.176513671875e-06,0.005035400390625,0.9943340380549683
0.03173828125,7.05657958984375e-06,0.01007080078125,0.9777167019027484
0.036773681640625,6.85272216796875e-06,0.015106201171875,0.9494714587737844
0.04180908203125,6.57318115234375e-06,0.0201416015625,0.9107399577167019
0.046844482421875,6.23443603515625e-06,0.025177001953125,0.8638054968287527
0.0518798828125,5.85296630859375e-06,0.03021240234375,0.8109513742071881
0.056915283203125,5.4339599609375e-06,0.035247802734375,0.7528964059196618
0.06195068359375,4.99847412109375e-06,0.040283203125,0.6925581395348838
0.066986083984375,4.561767578125e-06,0.045318603515625,0.6320507399577168
0.072021484375,4.13726806640625e-06,0.05035400390625,0.5732346723044398
0.077056884765625,3.73138427734375e-06,0.055389404296875,0.5169978858350952
0.08209228515625,3.34747314453125e-06,0.0604248046875,0.46380549682875266
0.087127685546875,2.99652099609375e-06,0.065460205078125,0.41517970401691334
0.0921630859375,2.67974853515625e-06,0.07049560546875,0.3712896405919662
0.097198486328125,2.39776611328125e-06,0.075531005859375,0.3322198731501057
0.10223388671875,2.14813232421875e-06,0.08056640625,0.2976321353065539
0.107269287109375,1.93145751953125e-06,0.085601806640625,0.2676109936575053
0.1123046875,1.7437744140625e-06,0.09063720703125,0.2416067653276956
0.117340087890625,1.5826416015625e-06,0.095672607421875,0.21928118393234675
0.12237548828125,1.44561767578125e-06,0.1007080078125,0.20029598308668078
0.127410888671875,1.32843017578125e-06,0.105743408203125,0.18405919661733616
0.1324462890625,1.23077392578125e-06,0.11077880859375,0.17052854122621564
0.137481689453125,1.14776611328125e-06,0.115814208984375,0.15902748414376322
0.14251708984375,1.077880859375e-06,0.120849609375,0.1493446088794926
0.147552490234375,1.019287109375e-06,0.125885009765625,0.1412262156448203
0.152587890625,9.69543457031251e-07,0.13092041015625,0.13433403805496844
0.157623291015625,9.2803955078125e-07,0.135955810546875,0.1285835095137421
0.16265869140625,8.92333984375e-07,0.1409912109375,0.12363636363636364
0.167694091796875,8.624267578125e-07,0.146026611328125,0.119492600422833
0.1727294921875,8.3709716796875e-07,0.15106201171875,0.1159830866807611
0.177764892578125,8.15734863281249e-07,0.156097412109375,0.11302325581395335
0.18280029296875,7.97729492187501e-07,0.1611328125,0.11052854122621578
0.187835693359375,7.81860351562499e-07,0.166168212890625,0.10832980972515842
0.19287109375,7.6812744140625e-07,0.17120361328125,0.10642706131078225
0.197906494140625,7.568359375e-07,0.176239013671875,0.10486257928118393
0.20294189453125,7.46765136718751e-07,0.1812744140625,0.10346723044397478
0.207977294921875,7.373046875e-07,0.186309814453125,0.10215644820295984
0.2130126953125,7.29980468749999e-07,0.19134521484375,0.10114164904862566
0.218048095703125,7.22351074218751e-07,0.196380615234375,0.10008456659619464
0.22308349609375,7.16552734375001e-07,0.201416015625,0.09928118393234686
0.228118896484375,7.11669921875001e-07,0.206451416015625,0.09860465116279084
0.233154296875,7.06787109375e-07,0.21148681640625,0.09792811839323468
0.238189697265625,7.0159912109375e-07,0.216522216796875,0.0972093023255814
0.24322509765625,6.976318359375e-07,0.2215576171875,0.09665961945031712
0.248260498046875,6.9427490234375e-07,0.226593017578125,0.09619450317124736
0.2532958984375,6.91833496093749e-07,0.23162841796875,0.09585623678646922
0.258331298828125,6.884765625e-07,0.236663818359375,0.09539112050739958
0.26336669921875,6.8695068359375e-07,0.24169921875,0.09517970401691332
0.268402099609375,6.84509277343749e-07,0.246734619140625,0.09484143763213518
0.2734375,6.8206787109375e-07,0.25177001953125,0.0945031712473573
0.278472900390625,6.8084716796875e-07,0.256805419921875,0.09433403805496829
0.28350830078125,6.79931640625001e-07,0.2618408203125,0.09420718816067668
0.288543701171875,6.78710937499999e-07,0.266876220703125,0.09403805496828739
0.2935791015625,6.78405761718751e-07,0.27191162109375,0.09399577167019042
0.298614501953125,6.77490234375e-07,0.276947021484375,0.09386892177589853
0.30364990234375,6.7779541015625e-07,0.281982421875,0.09391120507399578
0.308685302734375,6.78100585937499e-07,0.287017822265625,0.0939534883720929
0.313720703125,6.78100585937501e-07,0.29205322265625,0.09395348837209316
0.318756103515625,6.78405761718749e-07,0.297088623046875,0.09399577167019015
0.32379150390625,6.787109375e-07,0.3021240234375,0.09403805496828753
0.328826904296875,6.79931640625001e-07,0.307159423828125,0.09420718816067668
0.3338623046875,6.81152343749999e-07,0.31219482421875,0.09437632135306541
0.338897705078125,6.82678222656251e-07,0.317230224609375,0.09458773784355194
0.34393310546875,6.84509277343751e-07,0.322265625,0.09484143763213546
0.348968505859375,6.8634033203125e-07,0.327301025390625,0.09509513742071882
0.35400390625,6.884765625e-07,0.33233642578125,0.09539112050739958
0.359039306640625,6.90612792968749e-07,0.337371826171875,0.0956871035940802
0.36407470703125,6.93359375000001e-07,0.3424072265625,0.09606765327695574
0.369110107421875,6.96411132812501e-07,0.347442626953125,0.09649048625792825
0.3741455078125,6.9915771484375e-07,0.35247802734375,0.09687103594080339
0.379180908203125,7.0220947265625e-07,0.357513427734375,0.0972938689217759
0.38421630859375,7.049560546875e-07,0.362548828125,0.09767441860465116
0.389251708984375,7.08923339843751e-07,0.367584228515625,0.09822410147991557
0.394287109375,7.1136474609375e-07,0.37261962890625,0.09856236786469345
0.399322509765625,7.1441650390625e-07,0.377655029296875,0.09898520084566596
0.40435791015625,7.171630859375e-07,0.3826904296875,0.09936575052854123
0.409393310546875,7.19299316406251e-07,0.387725830078125,0.09966173361522213
0.4144287109375,7.22656250000001e-07,0.39276123046875,0.10012684989429191
0.419464111328125,7.2479248046875e-07,0.397796630859375,0.10042283298097253
0.42449951171875,7.26928710937499e-07,0.40283203125,0.10071881606765314
0.429534912109375,7.30285644531249e-07,0.407867431640625,0.10118393234672292
0.4345703125,7.32421875e-07,0.41290283203125,0.10147991543340382
0.439605712890625,7.354736328125e-07,0.417938232421875,0.10190274841437633
0.44464111328125,7.37609863281249e-07,0.4229736328125,0.10219873150105695
0.449676513671875,7.4005126953125e-07,0.428009033203125,0.1025369978858351
0.4547119140625,7.43713378906249e-07,0.43304443359375,0.10304439746300198
0.459747314453125,7.464599609375e-07,0.438079833984375,0.10342494714587738
0.46478271484375,7.4951171875e-07,0.443115234375,0.10384778012684989
0.469818115234375,7.53173828125001e-07,0.448150634765625,0.10435517970401706
0.474853515625,7.568359375e-07,0.45318603515625,0.10486257928118393
0.479888916015625,7.6019287109375e-07,0.458221435546875,0.10532769556025372
0.48492431640625,7.63854980468749e-07,0.4632568359375,0.10583509513742059
0.489959716796875,7.67822265625e-07,0.468292236328125,0.10638477801268499
0.4949951171875,7.71179199218749e-07,0.47332763671875,0.10684989429175462
0.500030517578125,7.74536132812501e-07,0.478363037109375,0.10731501057082468
0.50506591796875,7.79113769531249e-07,0.4833984375,0.10794926004228315
0.510101318359375,7.82165527343751e-07,0.488433837890625,0.10837209302325596
0.51513671875,7.8643798828125e-07,0.49346923828125,0.10896405919661735
0.520172119140625,7.904052734375e-07,0.498504638671875,0.10951374207188161
0.52520751953125,7.94067382812501e-07,0.5035400390625,0.11002114164904878
0.530242919921875,7.97424316406249e-07,0.508575439453125,0.11048625792811825
0.5352783203125,8.0078125e-07,0.51361083984375,0.11095137420718816
0.540313720703125,8.0535888671875e-07,0.518646240234375,0.11158562367864694
0.54534912109375,8.0902099609375e-07,0.523681640625,0.11209302325581395
0.550384521484375,8.1298828125e-07,0.528717041015625,0.11264270613107823
0.555419921875,8.1634521484375e-07,0.53375244140625,0.113107822410148
0.560455322265625,8.197021484375e-07,0.538787841796875,0.11357293868921776
0.56549072265625,8.2366943359375e-07,0.5438232421875,0.11412262156448204
0.570526123046875,8.27636718750001e-07,0.548858642578125,0.11467230443974645
0.5755615234375,8.319091796875e-07,0.55389404296875,0.11526427061310783
0.580596923828125,8.3587646484375e-07,0.558929443359375,0.1158139534883721
0.58563232421875,8.40148925781251e-07,0.56396484375,0.11640591966173376
0.590667724609375,8.4381103515625e-07,0.569000244140625,0.11691331923890065
0.595703125,8.4808349609375e-07,0.57403564453125,0.11750528541226216
0.600738525390625,8.526611328125e-07,0.579071044921875,0.11813953488372093
0.60577392578125,8.56628417968751e-07,0.5841064453125,0.11868921775898535
0.610809326171875,8.61206054687501e-07,0.589141845703125,0.11932346723044412
0.6158447265625,8.65478515625e-07,0.59417724609375,0.1199154334038055
0.620880126953125,8.709716796875e-07,0.599212646484375,0.12067653276955603
0.62591552734375,8.76464843750001e-07,0.604248046875,0.1214376321353067
0.630950927734375,8.807373046875e-07,0.609283447265625,0.12202959830866808
0.635986328125,8.8470458984375e-07,0.61431884765625,0.12257928118393234
0.641021728515625,8.8958740234375e-07,0.619354248046875,0.12325581395348838
0.64605712890625,8.9385986328125e-07,0.6243896484375,0.1238477801268499
0.651092529296875,8.97827148437499e-07,0.629425048828125,0.12439746300211403
0.6561279296875,9.0087890625e-07,0.63446044921875,0.1248202959830867
0.661163330078125,9.03015136718749e-07,0.639495849609375,0.1251162790697673
0.66619873046875,9.04541015624999e-07,0.64453125,0.12532769556025358
0.671234130859375,9.0484619140625e-07,0.649566650390625,0.12536997885835097
0.67626953125,9.0362548828125e-07,0.65460205078125,0.12520084566596196
0.681304931640625,9.02099609375e-07,0.659637451171875,0.12498942917547569
0.68634033203125,8.9874267578125e-07,0.6646728515625,0.12452431289640593
0.691375732421875,8.93554687499999e-07,0.669708251953125,0.1238054968287525
0.6964111328125,8.88977050781251e-07,0.67474365234375,0.12317124735729403
0.701446533203125,8.819580078125e-07,0.679779052734375,0.12219873150105709
0.70648193359375,8.75244140625001e-07,0.684814453125,0.12126849894291769
0.711517333984375,8.6822509765625e-07,0.689849853515625,0.12029598308668077
0.716552734375,8.60900878906251e-07,0.69488525390625,0.11928118393234687
0.721588134765625,8.53271484375e-07,0.699920654296875,0.11822410147991544
0.72662353515625,8.4503173828125e-07,0.7049560546875,0.11708245243128965
0.731658935546875,8.3740234375e-07,0.709991455078125,0.11602536997885836
0.7366943359375,8.3038330078125e-07,0.71502685546875,0.11505285412262158
0.741729736328125,8.2366943359375e-07,0.720062255859375,0.11412262156448204
0.74676513671875,8.1756591796875e-07,0.72509765625,0.113276955602537
0.751800537109375,8.11157226562499e-07,0.730133056640625,0.11238900634249459
0.7568359375,8.0718994140625e-07,0.73516845703125,0.11183932346723045
0.761871337890625,8.026123046875e-07,0.740203857421875,0.11120507399577167
0.76690673828125,7.97424316406249e-07,0.7452392578125,0.11048625792811825
0.771942138671875,7.94677734375e-07,0.750274658203125,0.11010570824524314
0.7769775390625,7.91320800781251e-07,0.75531005859375,0.10964059196617351
0.782012939453125,7.89489746093749e-07,0.760345458984375,0.10938689217758972
0.78704833984375,7.87353515625e-07,0.765380859375,0.1090909090909091
0.792083740234375,7.84912109375001e-07,0.770416259765625,0.10875264270613123
0.797119140625,7.843017578125e-07,0.77545166015625,0.10866807610993659
0.802154541015625,7.843017578125e-07,0.780487060546875,0.10866807610993659
0.80718994140625,7.83691406250001e-07,0.7855224609375,0.10858350951374221
0.812225341796875,7.83691406249999e-07,0.790557861328125,0.10858350951374193
0.8172607421875,7.8399658203125e-07,0.79559326171875,0.10862579281183933
0.822296142578125,7.8399658203125e-07,0.800628662109375,0.10862579281183933
0.82733154296875,7.855224609375e-07,0.8056640625,0.10883720930232559
0.832366943359375,7.861328125e-07,0.810699462890625,0.10892177589852009
0.83740234375,7.86743164062499e-07,0.81573486328125,0.10900634249471446
0.842437744140625,7.879638671875e-07,0.820770263671875,0.10917547568710359
0.84747314453125,7.904052734375e-07,0.8258056640625,0.10951374207188161
0.852508544921875,7.9193115234375e-07,0.830841064453125,0.10972515856236788
0.8575439453125,7.9376220703125e-07,0.83587646484375,0.10997885835095138
0.862579345703125,7.952880859375e-07,0.840911865234375,0.11019027484143763
0.86761474609375,7.9681396484375e-07,0.845947265625,0.1104016913319239
0.872650146484375,7.98950195312501e-07,0.850982666015625,0.1106976744186048
0.877685546875,8.0108642578125e-07,0.85601806640625,0.11099365750528542
0.882720947265625,8.03222656249999e-07,0.861053466796875,0.11128964059196604
0.88775634765625,8.056640625e-07,0.8660888671875,0.11162790697674418
0.892791748046875,8.08105468750001e-07,0.871124267578125,0.11196617336152234
0.8978271484375,8.09326171875001e-07,0.87615966796875,0.11213530655391135
0.902862548828125,8.11767578125e-07,0.881195068359375,0.11247357293868922
0.90789794921875,8.13598632812501e-07,0.88623046875,0.11272727272727288
0.912933349609375,8.15734863281251e-07,0.891265869140625,0.11302325581395363
0.91796875,8.16650390625001e-07,0.89630126953125,0.1131501057082454
0.923004150390625,8.19091796875e-07,0.901336669921875,0.11348837209302326
0.92803955078125,8.2061767578125e-07,0.9063720703125,0.11369978858350953
0.933074951171875,8.21838378906251e-07,0.911407470703125,0.11386892177589866
0.9381103515625,8.23059082031249e-07,0.91644287109375,0.1140380549682874
0.943145751953125,8.2366943359375e-07,0.921478271484375,0.11412262156448204
0.94818115234375,8.251953125e-07,0.926513671875,0.1143340380549683
0.953216552734375,8.2550048828125e-07,0.931549072265625,0.11437632135306555
0.958251953125,8.25805664062501e-07,0.93658447265625,0.11441860465116294
0.963287353515625,8.2672119140625e-07,0.941619873046875,0.11454545454545455
0.96832275390625,8.26110839843749e-07,0.9466552734375,0.1144608879492599
0.973358154296875,8.26721191406249e-07,0.951690673828125,0.11454545454545442
0.9783935546875,8.26416015625001e-07,0.95672607421875,0.11450317124735743
0.983428955078125,8.2550048828125e-07,0.961761474609375,0.11437632135306555
0.98846435546875,8.2427978515625e-07,0.966796875,0.11420718816067653
0.993499755859375,8.2366943359375e-07,0.971832275390625,0.11412262156448204
0.99853515625,8.22143554687499e-07,0.97686767578125,0.11391120507399564
1.00357055664063,8.20312500000001e-07,0.9819030761718801,0.11365750528541241
1.00860595703125,8.18481445312499e-07,0.9869384765625,0.11340380549682863
1.01364135742188,8.160400390625e-07,0.9919738769531301,0.11306553911205075
1.0186767578125,8.12683105468751e-07,0.99700927734375,0.11260042283298112
1.02371215820313,8.1024169921875e-07,1.00204467773438,0.11226215644820296
1.02874755859375,8.06884765625e-07,1.007080078125,0.11179704016913321
1.03378295898438,8.03527832031251e-07,1.01211547851563,0.11133192389006358
1.038818359375,7.9986572265625e-07,1.01715087890625,0.11082452431289641
1.04385375976563,7.965087890625e-07,1.02218627929688,0.11035940803382666
1.04888916015625,7.92236328125e-07,1.0272216796875,0.10976744186046512
1.05392456054688,7.8857421875e-07,1.03225708007813,0.1092600422832981
1.0589599609375,7.8399658203125e-07,1.03729248046875,0.10862579281183933
1.06399536132813,7.8094482421875e-07,1.04232788085938,0.10820295983086682
1.06903076171875,7.7667236328125e-07,1.04736328125,0.10761099365750529
1.07406616210938,7.73010253906249e-07,1.05239868164063,0.10710359408033814
1.0791015625,7.6904296875e-07,1.05743408203125,0.106553911205074
1.08413696289063,7.6568603515625e-07,1.06246948242188,0.10608879492600425
1.08917236328125,7.62023925781251e-07,1.0675048828125,0.10558139534883736
1.09420776367188,7.5897216796875e-07,1.07254028320313,0.1051585623678647
1.0992431640625,7.5531005859375e-07,1.07757568359375,0.10465116279069768
1.10427856445313,7.5225830078125e-07,1.08261108398438,0.10422832980972516
1.10931396484375,7.4920654296875e-07,1.087646484375,0.10380549682875265
1.11434936523438,7.464599609375e-07,1.09268188476563,0.10342494714587738
1.119384765625,7.44018554687499e-07,1.09771728515625,0.10308668076109924
1.12442016601563,7.41882324218751e-07,1.10275268554688,0.10279069767441874
1.12945556640625,7.38525390625e-07,1.1077880859375,0.10232558139534884
1.13449096679688,7.373046875e-07,1.11282348632813,0.10215644820295984
1.1395263671875,7.34863281250001e-07,1.11785888671875,0.10181818181818196
1.14456176757813,7.3394775390625e-07,1.12289428710938,0.10169133192389006
1.14959716796875,7.3211669921875e-07,1.1279296875,0.10143763213530656
