Potential - Start -0.2 V, Upper Vertex 1.5 V, Lower Vertex -0.2 V, Stop -0.19 V; Scan - # end cross 5, Rate 0.1 Vps, Step 0.01 V 
Scan	Index	Time (s)	Potential applied (V)	WE(1).Potential (V)	WE(1).Current (A)	WE(1).Power (W)	WE(1).Resistance (Ω)	WE(1).Charge (C)
1	1	52.415322867664	-0.189971923828125	-0.189849853515625	-2.48107910156251E-07	4.71032493010171E-08	765190.625	0
1	2	52.5160308674098	-0.179901123046875	-0.179718017578125	-2.15759277343749E-07	3.87758269937422E-08	832956.1875	-2.33575683239451E-08
1	3	52.6167388671555	-0.169830322265625	-0.169677734375	-1.88598632812501E-07	3.20009903020946E-08	899676.375	-4.37186074009333E-08
1	4	52.7174468669012	-0.159759521484375	-0.15960693359375	-1.6448974609375E-07	2.62537049877665E-08	970315.375	-6.14980208979432E-08
1	5	52.818154866647	-0.149688720703125	-0.149627685546875	-1.416015625E-07	2.11875139655149E-08	1056681	-7.69109433917947E-08
1	6	52.9188628663927	-0.139617919921875	-0.1395263671875	-1.18408203125001E-07	1.65210671809746E-08	1178350.5	-9.00034748951839E-08
1	7	53.0195708661385	-0.129547119140625	-0.12945556640625	-9.64355468749997E-08	1.24841177395751E-08	1342405.125	-1.00821715420807E-07
1	8	53.1202788658842	-0.119476318359375	-0.11944580078125	-7.41577148437506E-08	8.85782736048668E-09	1610699.625	-1.0941176498136E-07
1	9	53.2209868656299	-0.109405517578125	-0.10931396484375	-5.15747070312503E-08	5.63783553175767E-09	2119526.75	-1.15742899708948E-07
1	10	53.3216948653757	-0.099334716796875	-0.099212646484375	-2.65502929687494E-08	2.63412469614366E-09	3736781.75	-1.19676798249202E-07
1	11	53.4224028651214	-0.089263916015625	-0.0892333984375	3.35693359374972E-09	-2.99550578786167E-10	-26581820	-1.20844674711407E-07
1	12	53.5231108648671	-0.079193115234375	-0.0791015625	4.08935546875003E-08	-3.23474402819102E-09	-1934328.375	-1.18616490851764E-07
1	13	53.6238188646129	-0.069122314453125	-0.069061279296875	8.81958007812503E-08	-6.09091443948273E-09	-783045	-1.12116325112765E-07
1	14	53.7245268643586	-0.059051513671875	-0.058929443359375	1.50146484374999E-07	-8.84804851608578E-09	-392479.6875	-1.00114839085563E-07
1	15	53.8252348641043	-0.048980712890625	-0.0488311767578125	2.31323242187501E-07	-1.12957856401863E-08	-211094.984375	-8.0906310984119E-08
1	16	53.9259428638501	-0.038909912109375	-0.0388031005859375	3.369140625E-07	-1.307330954603E-08	-115172.109375	-5.2293295027539E-08
1	17	54.0266508635958	-0.028839111328125	-0.02869873046875	4.70886230468751E-07	-1.35138371604171E-08	-60946.2109375	-1.1617319550794E-08
1	18	54.1273588633416	-0.018768310546875	-0.01864013671875	6.34765625E-07	-1.18321175079927E-08	-29365.384765625	4.40566729764669E-08
1	19	54.2280668630873	-0.008697509765625	-0.00858459472656251	8.2550048828125E-07	-7.08658687287311E-09	-10399.2607421875	1.17586914427648E-07
1	20	54.328774862833	0.001373291015625	0.0014984130859375	1.03240966796875E-06	1.5469759917508E-09	1451.37451171875	2.11140118722142E-07
1	21	54.4294828625788	0.011444091796875	0.0115447998046875	1.2384033203125E-06	1.4297118156037E-08	9322.326171875	3.25484620589123E-07
1	22	54.5301908623245	0.021514892578125	0.021636962890625	1.422119140625E-06	3.07703373891854E-08	15214.5927734375	4.59452593304377E-07
1	23	54.6308988620702	0.031585693359375	0.0317047119140625	1.56494140625E-06	4.96160161844728E-08	20259.361328125	6.0986303651589E-07
1	24	54.731606861816	0.041656494140625	0.0417510986328125	1.65679931640625E-06	6.91731898427861E-08	25199.8515625	7.72090572809248E-07
1	25	54.8323148615617	0.051727294921875	0.0517578125	1.697998046875E-06	8.78846577734294E-08	30481.669921875	9.41018015510053E-07
1	26	54.9330228613074	0.061798095703125	0.061859130859375	1.69647216796875E-06	1.04942294854027E-07	36463.39453125	1.11194322016672E-06
1	27	55.0337308610532	0.071868896484375	0.0718994140625	1.66595458984375E-06	1.19781148555376E-07	43158.08984375	1.28125475384877E-06
1	28	55.1344388607989	0.081939697265625	0.082000732421875	1.61895751953125E-06	1.32755701542919E-07	50650.328125	1.446663304705E-06
1	29	55.2351468605447	0.092010498046875	0.092071533203125	1.56219482421875E-06	1.43833673860172E-07	58937.29296875	1.60684703587322E-06
1	30	55.3358548602904	0.102081298828125	0.102142333984375	1.50299072265625E-06	1.53518982415335E-07	67959.390625	1.7611913563087E-06
1	31	55.4365628600361	0.112152099609375	0.112152099609375	1.44500732421875E-06	1.62060601383018E-07	77613.515625	1.90963487511908E-06
1	32	55.5372708597819	0.122222900390625	0.122222900390625	1.390380859375E-06	1.69936370753021E-07	87906.0625	2.05240803552442E-06
1	33	55.6379788595276	0.132293701171875	0.13238525390625	1.3409423828125E-06	1.77521002342473E-07	98725.53125	2.1899411422055E-06
1	34	55.7386868592733	0.142364501953125	0.142425537109375	1.2957763671875E-06	1.84551637971708E-07	109915.21875	2.32271031563869E-06
1	35	55.8393948590191	0.152435302734375	0.1524658203125	1.256103515625E-06	1.91512853575659E-07	121379.984375	2.45120781983132E-06
1	36	55.9401028587648	0.162506103515625	0.16253662109375	1.220703125E-06	1.98408955043305E-07	133150	2.57592478192237E-06
1	37	56.0408108585106	0.172576904296875	0.172607421875	1.18896484375E-06	2.05224154115058E-07	145174.546875	2.69726115220692E-06
1	38	56.1415188582563	0.182647705078125	0.18267822265625	1.16058349609375E-06	2.12013318900972E-07	157402.0625	2.8155704967503E-06
1	39	56.242226858002	0.192718505859375	0.192718505859375	1.13433837890625E-06	2.18607993929254E-07	169895.078125	2.93112884719449E-06
1	40	56.3429348577478	0.202789306640625	0.202850341796875	1.109619140625E-06	2.25086623117932E-07	182810.78125	3.04412105833762E-06
1	41	56.4436428574935	0.212860107421875	0.212890625	1.087646484375E-06	2.31549719842405E-07	195735.140625	3.15476222567668E-06
1	42	56.5443508572392	0.222930908203125	0.222930908203125	1.0687255859375E-06	2.38251942619172E-07	208595.109375	3.26334429701092E-06
1	43	56.645058856985	0.233001708984375	0.233001708984375	1.05194091796875E-06	2.4510401885891E-07	221496.953125	3.37012829731975E-06
1	44	56.7457668567307	0.243072509765625	0.24310302734375	1.03668212890625E-06	2.52020555535637E-07	234501.046875	3.47529885402764E-06
1	45	56.8464748564764	0.253143310546875	0.253173828125	1.02294921875E-06	2.58983959611214E-07	247494.046875	3.57900944436551E-06
1	46	56.9471828562222	0.263214111328125	0.263214111328125	1.0107421875E-06	2.66041610075263E-07	260416.671875	3.68141400031163E-06
1	47	57.0478908559679	0.273284912109375	0.2733154296875	9.9822998046875E-07	2.72831670145024E-07	273800.0625	3.7825736853847E-06
1	48	57.1485988557137	0.283355712890625	0.283416748046875	9.88159179687501E-07	2.80060845625485E-07	286812.84375	3.88259650208056E-06
1	49	57.2493068554594	0.293426513671875	0.29339599609375	9.78698730468749E-07	2.87146292521356E-07	299781.71875	3.98163547288277E-06
1	50	57.3500148552051	0.303497314453125	0.3035888671875	9.71069335937499E-07	2.94805829526013E-07	312633.5625	4.07981406169711E-06
1	51	57.4507228549509	0.313568115234375	0.313568115234375	9.65270996093751E-07	3.02678188290884E-07	324849.84375	4.17731644120067E-06
1	52	57.5514308546966	0.323638916015625	0.32366943359375	9.600830078125E-07	3.10749499021767E-07	337126.53125	4.27426584792556E-06
1	53	57.6521388544423	0.333709716796875	0.333740234375	9.552001953125E-07	3.18788750064414E-07	349392.96875	4.37070821135421E-06
1	54	57.7528468541881	0.343780517578125	0.34381103515625	9.503173828125E-07	3.26729605149012E-07	361785.5	4.4666585381492E-06
1	55	57.8535548539338	0.353851318359375	0.353973388671875	9.46044921875E-07	3.34874727059287E-07	374161.28125	4.5621477511304E-06
1	56	57.9542628536796	0.363922119140625	0.36395263671875	9.4207763671875E-07	3.42871629754882E-07	386329.78125	4.65722223452758E-06
1	57	58.0549708534253	0.373992919921875	0.3740234375	9.39331054687501E-07	3.51331806314192E-07	398180.65625	4.75195884064306E-06
1	58	58.155678853171	0.384063720703125	0.384002685546875	9.37499999999999E-07	3.60002502475254E-07	409602.875	4.84646488985163E-06
1	59	58.2563868529168	0.394134521484375	0.394134521484375	9.36279296875001E-07	3.69019971913076E-07	420958.28125	4.94081723445561E-06
1	60	58.3570948526625	0.404205322265625	0.404205322265625	9.3505859375E-07	3.77955643671157E-07	432278.09375	5.03504634252749E-06
1	61	58.4578028524082	0.414276123046875	0.414276123046875	9.3414306640625E-07	3.86993150414128E-07	443482.53125	5.12916813022457E-06
1	62	58.558510852154	0.424346923828125	0.42431640625	9.3231201171875E-07	3.95595264990334E-07	455122.75	5.22315167472698E-06
1	63	58.6592188518997	0.434417724609375	0.4344482421875	9.31396484375E-07	4.04643571982888E-07	466448.25	5.31699697603472E-06
1	64	58.7599268516454	0.444488525390625	0.444488525390625	9.3048095703125E-07	4.13588111314311E-07	477697.59375	5.41074996363022E-06
1	65	58.8606348513912	0.454559326171875	0.454559326171875	9.307861328125E-07	4.23097503698955E-07	488360.6875	5.50447202840587E-06
1	66	58.9613428511369	0.464630126953125	0.464630126953125	9.320068359375E-07	4.3303845131959E-07	498526.53125	5.59827140023117E-06
1	67	59.0620508508827	0.474700927734375	0.47467041015625	9.344482421875E-07	4.4355491013448E-07	507968.65625	5.69225448998623E-06
1	68	59.1627588506284	0.484771728515625	0.48480224609375	9.381103515625E-07	4.5479796995096E-07	516785.96875	5.78654544369783E-06
1	69	59.2634668503741	0.494842529296875	0.494781494140625	9.417724609375E-07	4.65971567109591E-07	525372.6875	5.88120519751101E-06
1	70	59.3641748501199	0.504913330078125	0.504974365234375	9.4635009765625E-07	4.77882565519394E-07	533602.0625	5.97627968090819E-06
1	71	59.4648828498656	0.514984130859375	0.515045166015625	9.527587890625E-07	4.90713773615425E-07	540583	6.07190713708405E-06
1	72	59.5655908496113	0.525054931640625	0.52508544921875	9.6160888671875E-07	5.04926845223963E-07	546048.875	6.16830357103026E-06
1	73	59.6662988493571	0.535125732421875	0.53515625	9.7381591796875E-07	5.21143647347344E-07	549545.625	6.26575956630404E-06
1	74	59.7670068491028	0.545196533203125	0.545196533203125	9.91210937500001E-07	5.40404755611235E-07	550030.8125	6.36470667814137E-06
1	75	59.8677148488485	0.555267333984375	0.55523681640625	1.01348876953125E-06	5.62726256703172E-07	547847.0625	6.46565149509115E-06
1	76	59.9684228485943	0.565338134765625	0.565338134765625	1.0418701171875E-06	5.89008891438425E-07	542618.6875	6.56914698993205E-06
1	77	60.06913084834	0.575408935546875	0.57537841796875	1.08154296875E-06	6.22296454366733E-07	531997.75	6.67606946080923E-06
1	78	60.1698388480858	0.585479736328125	0.58551025390625	1.13616943359375E-06	6.65238871988549E-07	515337.09375	6.78773994877702E-06
1	79	60.2705468478315	0.595550537109375	0.59552001953125	1.2127685546875E-06	7.22227923688479E-07	491041.78125	6.90601837050053E-06
1	80	60.3712548475772	0.605621337890625	0.6055908203125	1.3189697265625E-06	7.9875593428369E-07	459139.3125	7.03350133335334E-06
1	81	60.471962847323	0.615692138671875	0.615692138671875	1.46209716796875E-06	9.00201655440469E-07	421102.09375	7.17353941581678E-06
1	82	60.5726708470687	0.625762939453125	0.625762939453125	1.64794921875E-06	1.03122545169754E-06	379722.25	7.33014258003095E-06
1	83	60.6733788468144	0.635833740234375	0.635772705078125	1.87896728515625E-06	1.1945961659876E-06	338362.84375	7.50773688196205E-06
1	84	60.7740868465602	0.645904541015625	0.64593505859375	2.1502685546875E-06	1.38893381063099E-06	300397.40625	7.71062514104415E-06
1	85	60.8747948463059	0.655975341796875	0.655853271484375	2.44964599609375E-06	1.606608293514E-06	267733.90625	7.94224888522876E-06
1	86	60.9755028460517	0.666046142578125	0.665985107421875	2.75909423828125E-06	1.8375155832473E-06	241378.1875	8.20452987682074E-06
1	87	61.0762108457974	0.676116943359375	0.67608642578125	3.0517578125E-06	2.06325194085366E-06	221540.015625	8.49712978379102E-06
1	88	61.1769188455431	0.686187744140625	0.68609619140625	3.30322265625E-06	2.26632846533903E-06	207705.09375	8.81712821865221E-06
1	89	61.2776268452889	0.696258544921875	0.6962890625	3.4918212890625E-06	2.43131694332988E-06	199405.703125	9.1592855824274E-06
1	90	61.3783348450346	0.706329345703125	0.70623779296875	3.61053466796875E-06	2.54989595305233E-06	195604.765625	9.51691799855325E-06
1	91	61.4790428447803	0.716400146484375	0.71630859375	3.65966796875E-06	2.62145158558269E-06	195730.484375	9.88300143944798E-06
1	92	61.5797508445261	0.726470947265625	0.72637939453125	3.65631103515625E-06	2.65586891146086E-06	198664.546875	1.02513904494117E-05
1	93	61.6804588442718	0.736541748046875	0.736419677734375	3.62213134765625E-06	2.66740880761063E-06	203311.140625	1.06178895293851E-05
1	94	61.7811668440175	0.746612548828125	0.746490478515625	3.57757568359375E-06	2.67062614511815E-06	208658.203125	1.09804232124588E-05
1	95	61.8818748437633	0.756683349609375	0.75714111328125	3.54278564453125E-06	2.68238864009618E-06	213713.5	1.13389623948024E-05
1	96	61.982582843509	0.766754150390625	0.76751708984375	3.5321044921875E-06	2.71095041171066E-06	217297.40625	1.16952114694868E-05
1	97	62.0832908432548	0.776824951171875	0.77728271484375	3.55743408203125E-06	2.76513196695305E-06	218495.328125	1.20521972348797E-05
1	98	62.1839988430005	0.786895751953125	0.7867431640625	3.6297607421875E-06	2.85568944491388E-06	216747.953125	1.24141015476198E-05
1	99	62.2847068427462	0.796966552734375	0.797119140625	3.75518798828125E-06	2.99333214570652E-06	212271.4375	1.27859630083549E-05
1	100	62.385414842492	0.807037353515625	0.80657958984375	3.9373779296875E-06	3.17580838782305E-06	204851.96875	1.31733149828506E-05
1	101	62.4861228422377	0.817108154296875	0.81695556640625	4.16717529296875E-06	3.40439692081418E-06	196045.40625	1.3581411621999E-05
1	102	62.5868308419834	0.827178955078125	0.8270263671875	4.4329833984375E-06	3.66619383385114E-06	186562.03125	1.40144638862694E-05
1	103	62.6875388417292	0.837249755859375	0.83709716796875	4.70855712890625E-06	3.94151948057697E-06	177782.109375	1.44747773447307E-05
1	104	62.7882468414749	0.847320556640625	0.8477783203125	4.96826171875E-06	4.21198456024285E-06	170638.828125	1.4962043678679E-05
1	105	62.8889548412207	0.857391357421875	0.8575439453125	5.181884765625E-06	4.44369379692944E-06	165488.8125	1.54731442307821E-05
1	106	62.9896628409664	0.867462158203125	0.86761474609375	5.33447265625E-06	4.62826710645459E-06	162643.03125	1.60026847879635E-05
1	107	63.0903708407121	0.877532958984375	0.87738037109375	5.413818359375E-06	4.74997796118259E-06	162063.140625	1.65439032571157E-05
1	108	63.1910788404579	0.887603759765625	0.88775634765625	5.43212890625E-06	4.82240648125298E-06	163426.984375	1.70900402736152E-05
1	109	63.2917868402036	0.897674560546875	0.89752197265625	5.4107666015625E-06	4.85628152091522E-06	165877.046875	1.76360244950047E-05
1	110	63.3924948399493	0.907745361328125	0.90789794921875	5.3741455078125E-06	4.8791757762956E-06	168938.109375	1.81790874194121E-05
1	111	63.4932028396951	0.917816162109375	0.91796875	5.3466796875E-06	4.90808497488615E-06	171689.5	1.87189234566176E-05
1	112	63.5939108394408	0.927886962890625	0.9283447265625	5.352783203125E-06	4.96922757520224E-06	173432.171875	1.92576844710857E-05
1	113	63.6946188391865	0.937957763671875	0.93841552734375	5.4168701171875E-06	5.08327502757311E-06	173239.4375	1.97999797819648E-05
1	114	63.7953268389323	0.948028564453125	0.948486328125	5.5511474609375E-06	5.26518715560087E-06	170863.109375	2.03522631636588E-05
1	115	63.896034838678	0.958099365234375	0.958251953125	5.7708740234375E-06	5.52995106772869E-06	166049.71875	2.09223726415075E-05
1	116	63.9967428384238	0.968170166015625	0.96771240234375	6.0791015625E-06	5.88282182434341E-06	159186.75	2.15190666494891E-05
1	117	64.0974508381695	0.978240966796875	0.9783935546875	6.475830078125E-06	6.33591025689384E-06	151083.875	2.21512564166915E-05
1	118	64.1981588379152	0.988311767578125	0.9881591796875	6.9305419921875E-06	6.84847873344552E-06	142580.359375	2.28263215831248E-05
1	119	64.298866837661	0.998382568359375	0.99853515625	7.4249267578125E-06	7.41405028747977E-06	134484.1875	2.35491770581575E-05
1	120	64.3995748374067	1.00845336914063	1.00830078125	7.916259765625E-06	7.981970156834E-06	127370.8671875	2.43216672970448E-05
1	121	64.5002828371524	1.01852416992188	1.01806640625	8.3648681640625E-06	8.51599179441109E-06	121707.40625	2.51414858212229E-05
1	122	64.6009908368982	1.02859497070313	1.0284423828125	8.7249755859375E-06	8.97313475434203E-06	117873.3828125	2.60020278801676E-05
1	123	64.7016988366439	1.03866577148438	1.03851318359375	8.9691162109375E-06	9.31454451347236E-06	115787.6875	2.68929961748654E-05
1	124	64.8024068363897	1.04873657226563	1.04888916015625	9.075927734375E-06	9.51964193518506E-06	115568.2578125	2.78016377706081E-05
1	125	64.9031148361354	1.05880737304688	1.0589599609375	9.0545654296875E-06	9.58842247200664E-06	116953.1484375	2.87145794573007E-05
1	126	65.0038228358811	1.06887817382813	1.0687255859375	8.9263916015625E-06	9.53986273088958E-06	119726.5	2.96199923468521E-05
1	127	65.1045308356269	1.07894897460938	1.0791015625	8.734130859375E-06	9.4250135589391E-06	123549.96875	3.0509270800394E-05
1	128	65.2052388353726	1.08901977539063	1.08917236328125	8.50830078125E-06	9.26700522541068E-06	128012.921875	3.13774944515899E-05
1	129	65.3059468351183	1.09909057617188	1.09893798828125	8.2763671875E-06	9.0952144091716E-06	132780.234375	3.22226696880534E-05
1	130	65.4066548348641	1.10916137695313	1.10870361328125	8.0535888671875E-06	8.92904245120008E-06	137665.796875	3.30449511238839E-05
1	131	65.5073628346098	1.11923217773438	1.11907958984375	7.843017578125E-06	8.77696129464312E-06	142684.828125	3.38454083248507E-05
1	132	65.6080708343555	1.12930297851563	1.129150390625	7.65380859375E-06	8.64230059960391E-06	147527.921875	3.46257329510991E-05
1	133	65.7087788341013	1.13937377929688	1.13922119140625	7.48291015625E-06	8.52468929224415E-06	152243.078125	3.53879295289516E-05
1	134	65.809486833847	1.14944458007813	1.14990234375	7.3333740234375E-06	8.43266388983466E-06	156804	3.6133988032816E-05
1	135	65.9101948335928	1.15951538085938	1.15936279296875	7.1990966796875E-06	8.34636466606753E-06	161042.8125	3.68657565559261E-05
1	136	66.0109028333385	1.16958618164063	1.16973876953125	7.080078125E-06	8.28184147394495E-06	165215.515625	3.75847703253385E-05
1	137	66.1116108330842	1.17965698242188	1.1798095703125	6.976318359375E-06	8.23072696221061E-06	169116.359375	3.82925645681098E-05
1	138	66.21231883283	1.18972778320313	1.18988037109375	6.878662109375E-06	8.18478474684525E-06	172981.359375	3.89902197639458E-05
1	139	66.3130268325757	1.19979858398438	1.19964599609375	6.793212890625E-06	8.14945087768137E-06	176594.796875	3.96786526835058E-05
1	140	66.4137348323214	1.20986938476563	1.2103271484375	6.7169189453125E-06	8.12966936791781E-06	180190.828125	4.03589438064955E-05
1	141	66.5144428320672	1.21994018554688	1.21978759765625	6.6497802734375E-06	8.11131940281484E-06	183432.765625	4.10320099035744E-05
1	142	66.6151508318129	1.23001098632813	1.2298583984375	6.5887451171875E-06	8.10322308097966E-06	186660.5	4.16986222262494E-05
1	143	66.7158588315586	1.24008178710938	1.24053955078125	6.5338134765625E-06	8.10545316198841E-06	189864.5625	4.23593955929391E-05
1	144	66.8165668313044	1.25015258789063	1.25	6.48193359375E-06	8.10241635917919E-06	192843.703125	4.30147883889731E-05
1	145	66.9172748310501	1.26022338867188	1.26007080078125	6.4361572265625E-06	8.1100133684231E-06	195780	4.36652662756387E-05
1	146	67.0179828307959	1.27029418945313	1.27044677734375	6.3934326171875E-06	8.12251619208837E-06	198711.21875	4.43112876382656E-05
1	147	67.1186908305416	1.28036499023438	1.28021240234375	6.3507080078125E-06	8.13025508250576E-06	201585.78125	4.49530052719638E-05
1	148	67.2193988302873	1.29043579101563	1.28997802734375	6.31103515625E-06	8.14109625935089E-06	204400.390625	4.55905756098218E-05
1	149	67.3201068300331	1.30050659179688	1.30035400390625	6.2744140625E-06	8.15895873529371E-06	207247.09375	4.62243042420596E-05
1	150	67.4208148297788	1.31057739257813	1.31103515625	6.2408447265625E-06	8.18196622276446E-06	210073.359375	4.68544967588969E-05
1	151	67.5215228295245	1.32064819335938	1.32110595703125	6.207275390625E-06	8.20046898297733E-06	212831.859375	4.74813095934223E-05
1	152	67.6222308292703	1.33071899414063	1.33056640625	6.1767578125E-06	8.21858611743664E-06	215415.015625	4.81048955407459E-05
1	153	67.722938829016	1.34078979492188	1.3409423828125	6.146240234375E-06	8.24175367597491E-06	218172.796875	4.87254073959775E-05
1	154	67.8236468287618	1.35086059570313	1.3507080078125	6.11572265625E-06	8.26055565994466E-06	220858.296875	4.93428451591171E-05
1	155	67.9243548285075	1.36093139648438	1.3604736328125	6.09130859375E-06	8.28706470201723E-06	223346.703125	4.99575180583633E-05
1	156	68.0250628282532	1.37100219726563	1.37115478515625	6.06689453125E-06	8.31865145300981E-06	226006.03125	5.0569731683936E-05
1	157	68.125770827999	1.38107299804688	1.3812255859375	6.04248046875E-06	8.34602815302787E-06	228585.859375	5.11794896738138E-05
1	158	68.2264788277447	1.39114379882813	1.3909912109375	6.024169921875E-06	8.37956667965045E-06	230901.734375	5.17870939802378E-05
1	159	68.3271868274904	1.40121459960938	1.40167236328125	6.005859375E-06	8.41824657982215E-06	233384.15625	5.23928538314067E-05
1	160	68.4278948272362	1.41128540039063	1.4111328125	5.987548828125E-06	8.44922669784864E-06	235677.875	5.29967692273203E-05
1	161	68.5286028269819	1.42135620117188	1.42181396484375	5.96923828125E-06	8.48714626044966E-06	238190.203125	5.35988401679788E-05
1	162	68.6293108267276	1.43142700195313	1.4312744140625	5.9539794921875E-06	8.52177799970377E-06	240389.546875	5.41992230864707E-05
1	163	68.7300188264734	1.44149780273438	1.44195556640625	5.9417724609375E-06	8.56777114677243E-06	242681.0625	5.47982199350372E-05
1	164	68.8307268262191	1.45156860351563	1.451416015625	5.9295654296875E-06	8.60626641951967E-06	244776.125	5.53959907847457E-05
1	165	68.9314348259649	1.46163940429688	1.4617919921875	5.92041015625E-06	8.65440779307391E-06	246907.234375	5.59926847927272E-05
1	166	69.0321428257106	1.47171020507813	1.47125244140625	5.914306640625E-06	8.70143776410259E-06	248761.609375	5.65886111871805E-05
1	167	69.1328508254563	1.48178100585938	1.48223876953125	5.9112548828125E-06	8.76189096743474E-06	250748.578125	5.71840755583253E-05
1	168	69.2335588252021	1.49185180664063	1.49200439453125	5.9112548828125E-06	8.81961841514567E-06	252400.625	5.77793834963813E-05
1	169	69.3342668249478	1.50192260742188	1.50177001953125	5.9112548828125E-06	8.8773449533619E-06	254052.65625	5.83746950724162E-05
1	170	69.4349748246935	1.49185180664063	1.4923095703125	5.74951171875E-06	8.58005114423577E-06	259554.140625	5.8961861213902E-05
1	171	69.5356828244393	1.48178100585938	1.4813232421875	5.6304931640625E-06	8.34058027976425E-06	263089.4375	5.95348901697434E-05
1	172	69.636390824185	1.47171020507813	1.4715576171875	5.52978515625E-06	8.13739734439878E-06	266114.78125	6.00968560320325E-05
1	173	69.7370988239308	1.46163940429688	1.46148681640625	5.4473876953125E-06	7.96128551883157E-06	268291.3125	6.06495996180456E-05
1	174	69.8378068236765	1.45156860351563	1.4520263671875	5.37109375E-06	7.79896981839556E-06	270340.90625	6.11943542025983E-05
1	175	69.9385148234222	1.44149780273438	1.4410400390625	5.303955078125E-06	7.64321157475933E-06	271691.625	6.1731887399219E-05
1	176	70.039222823168	1.43142700195313	1.43218994140625	5.242919921875E-06	7.50885737943463E-06	273166.46875	6.22629595454782E-05
1	177	70.1399308229137	1.42135620117188	1.4215087890625	5.1849365234375E-06	7.37043274057214E-06	274161.28125	6.2788043578621E-05
1	178	70.2406388226594	1.41128540039063	1.41143798828125	5.1300048828125E-06	7.24068377166986E-06	275133.84375	6.33074450888671E-05
1	179	70.3413468224052	1.40121459960938	1.40106201171875	5.0811767578125E-06	7.1190438575286E-06	275735.71875	6.38216224615462E-05
1	180	70.4420548221509	1.39114379882813	1.3909912109375	5.035400390625E-06	7.00419741406222E-06	276242.4375	6.43310268060304E-05
1	181	70.5427628218966	1.38107299804688	1.38092041015625	4.9896240234375E-06	6.89027365297079E-06	276758.40625	6.48358254693449E-05
1	182	70.6434708216424	1.37100219726563	1.37115478515625	4.949951171875E-06	6.78714877722086E-06	277003.71875	6.53363240417093E-05
1	183	70.7441788213881	1.36093139648438	1.36077880859375	4.9102783203125E-06	6.68180246066186E-06	277128.65625	6.58328281133436E-05
1	184	70.8448868211339	1.35086059570313	1.3507080078125	4.873046875E-06	6.58206317893928E-06	277179.375	6.63254613755271E-05
1	185	70.9455948208796	1.34078979492188	1.34063720703125	4.8382568359375E-06	6.48634704702999E-06	277090.96875	6.68144639348611E-05
1	186	71.0463028206253	1.33071899414063	1.33087158203125	4.8046875E-06	6.3944216890377E-06	276994.4375	6.73000249662437E-05
1	187	71.1470108203711	1.32064819335938	1.32049560546875	4.7735595703125E-06	6.30346403340809E-06	276627.03125	6.7782326368615E-05
1	188	71.2477188201168	1.31057739257813	1.31072998046875	4.74578857421875E-06	6.22044717601966E-06	276188.03125	6.82616591802798E-05
1	189	71.3484268198625	1.30050659179688	1.3006591796875	4.7186279296875E-06	6.13732618148788E-06	275643.53125	6.87382344040088E-05
1	190	71.4491348196083	1.29043579101563	1.2908935546875	4.69268798828125E-06	6.05776085649268E-06	275086.15625	6.92121320753358E-05
1	191	71.549842819354	1.28036499023438	1.28021240234375	4.666748046875E-06	5.97442840444273E-06	274326.46875	6.96834176778793E-05
1	192	71.6505508190997	1.27029418945313	1.26983642578125	4.6417236328125E-06	5.89422961638775E-06	273570.03125	7.0152134867385E-05
1	193	71.7512588188455	1.26022338867188	1.25946044921875	4.6173095703125E-06	5.81531867283047E-06	272769.34375	7.06183636793867E-05
1	194	71.8519668185912	1.25015258789063	1.25	4.59381103515625E-06	5.74226351091056E-06	272105.25	7.10821768734604E-05
1	195	71.952674818337	1.24008178710938	1.23992919921875	4.57183837890625E-06	5.66875587537652E-06	271210.1875	7.15437054168433E-05
1	196	72.0533828180827	1.23001098632813	1.23016357421875	4.54986572265625E-06	5.59707859792979E-06	270373.625	7.20030220691115E-05
1	197	72.1540908178284	1.21994018554688	1.21978759765625	4.52850341796875E-06	5.52381197849172E-06	269357.78125	7.24601559340954E-05
1	198	72.2547988175742	1.20986938476563	1.20941162109375	4.50592041015625E-06	5.44951262781979E-06	268405	7.2915070632007E-05
1	199	72.3555068173199	1.19979858398438	1.19964599609375	4.482421875E-06	5.37731966687716E-06	267633.4375	7.33676715753973E-05
1	200	72.4562148170656	1.18972778320313	1.18988037109375	4.45770263671875E-06	5.30413308297284E-06	266926.8125	7.38178423489444E-05
1	201	72.5569228168114	1.17965698242188	1.17919921875	4.432373046875E-06	5.2266505008447E-06	266042.4375	7.4265495641157E-05
1	202	72.6576308165571	1.16958618164063	1.16943359375	4.405517578125E-06	5.151960067451E-06	265447.5	7.47105150367133E-05
1	203	72.7583388163029	1.15951538085938	1.15936279296875	4.37744140625E-06	5.07504228153266E-06	264849.4375	7.51527768443339E-05
1	204	72.8590468160486	1.14944458007813	1.14959716796875	4.34539794921875E-06	4.99545694765402E-06	264555.09375	7.55920045776293E-05
1	205	72.9597548157943	1.13937377929688	1.138916015625	4.30908203125E-06	4.90768206873327E-06	264305.96875	7.60277907829732E-05
1	206	73.0604628155401	1.12930297851563	1.1297607421875	4.263916015625E-06	4.81720462630619E-06	264958.5	7.64594733482227E-05
1	207	73.1611708152858	1.11923217773438	1.119384765625	4.207763671875E-06	4.71010662295157E-06	266028.4375	7.68860627431422E-05
1	208	73.2618788150315	1.10916137695313	1.10931396484375	4.1357421875E-06	4.58783642898197E-06	268226.09375	7.73061910877004E-05
1	209	73.3625868147773	1.09909057617188	1.09893798828125	4.04296875E-06	4.44297165813623E-06	271814.625	7.77180175646208E-05
1	210	73.463294814523	1.08901977539063	1.0888671875	3.9202880859375E-06	4.26867291025701E-06	277751.84375	7.81190028646961E-05
1	211	73.5640028142687	1.07894897460938	1.07879638671875	3.7579345703125E-06	4.05404625780648E-06	287071.625	7.85056327003986E-05
1	212	73.6647108140145	1.06887817382813	1.06842041015625	3.54248046875E-06	3.78485833607556E-06	301602.375	7.887323590694E-05
1	213	73.7654188137602	1.05880737304688	1.0589599609375	3.26324462890625E-06	3.45564535564336E-06	324511.375	7.9215933510568E-05
1	214	73.866126813506	1.04873657226563	1.04888916015625	2.9095458984375E-06	3.05179105453135E-06	360499.28125	7.95267551438883E-05
1	215	73.9668348132517	1.03866577148438	1.038818359375	2.48260498046875E-06	2.57897568189946E-06	418438.84375	7.97982720541768E-05
1	216	74.0675428129974	1.02859497070313	1.02935791015625	1.990966796875E-06	2.04941738957132E-06	517014.125	8.00235357019119E-05
1	217	74.1682508127432	1.01852416992188	1.0186767578125	1.453857421875E-06	1.48101071317797E-06	700671.6875	8.0196994531434E-05
1	218	74.2689588124889	1.00845336914063	1.00830078125	8.9996337890625E-07	9.07433786778711E-07	1120379.75	8.03155198809691E-05
1	219	74.3696668122346	0.998382568359375	0.99853515625	3.680419921875E-07	3.6750284948539E-07	2713101.25	8.03793664090335E-05
1	220	74.4703748119804	0.988311767578125	0.98846435546875	-1.08642578125E-07	-1.07389311665429E-07	-9098315	8.0392426752951E-05
1	221	74.5710828117261	0.978240966796875	0.9783935546875	-4.913330078125E-07	-4.80717005757469E-07	-1991304.5	8.03622169769369E-05
1	222	74.6717908114719	0.968170166015625	0.9686279296875	-7.5958251953125E-07	-7.35752848868287E-07	-1275210.875	8.02992290118709E-05
1	223	74.7724988112176	0.958099365234375	0.958251953125	-9.0087890625E-07	-8.63268951434293E-07	-1063685.625	8.02156209829263E-05
1	224	74.8732068109633	0.948028564453125	0.94818115234375	-9.2803955078125E-07	-8.79949595855578E-07	-1021703.4375	8.01235291874036E-05
1	225	74.9739148107091	0.937957763671875	0.938720703125	-8.7005615234375E-07	-8.1673971408236E-07	-1078919.75	8.00329871708527E-05
1	226	75.0746228104548	0.927886962890625	0.927734375	-7.6446533203125E-07	-7.09220728367654E-07	-1213572.875	7.99506815383211E-05
1	227	75.1753308102005	0.917816162109375	0.91796875	-6.41479492187499E-07	-5.88858085848187E-07	-1431018.125	7.98798864707351E-05
1	228	75.2760388099463	0.907745361328125	0.9075927734375	-5.31921386718751E-07	-4.82768029996805E-07	-1706253.625	7.98207984189503E-05
1	229	75.376746809692	0.897674560546875	0.8978271484375	-4.57153320312501E-07	-4.10444641829599E-07	-1963952	7.97709944890812E-05
1	230	75.4774548094377	0.887603759765625	0.88775634765625	-4.30908203124999E-07	-3.82541486487753E-07	-2060198.375	7.97262764535844E-05
1	231	75.5781628091835	0.877532958984375	0.877685546875	-4.6234130859375E-07	-4.05790274271567E-07	-1898349.875	7.96812964836136E-05
1	232	75.6788708089292	0.867462158203125	0.86700439453125	-5.51757812500001E-07	-4.78376421142457E-07	-1571349.625	7.96302338130772E-05
1	233	75.779578808675	0.857391357421875	0.8575439453125	-6.9244384765625E-07	-5.93801019022067E-07	-1238431	7.95675878180191E-05
1	234	75.8802868084207	0.847320556640625	0.84747314453125	-8.6517333984375E-07	-7.33211152237345E-07	-979541.5	7.94891529949382E-05
1	235	75.9809948081664	0.837249755859375	0.83770751953125	-1.0516357421875E-06	-8.80963170857285E-07	-796575.75	7.93926374171861E-05
1	236	76.0817028079122	0.827178955078125	0.82763671875	-1.22528076171875E-06	-1.01408727459784E-06	-675467.0625	7.92779828771017E-05
1	237	76.1824108076579	0.817108154296875	0.8172607421875	-1.36474609375E-06	-1.11535337055102E-06	-598837.25	7.91475613368675E-05
1	238	76.2831188074036	0.807037353515625	0.8074951171875	-1.45416259765625E-06	-1.17422916900978E-06	-555299.0625	7.900562195573E-05
1	239	76.3838268071494	0.796966552734375	0.797119140625	-1.49169921875E-06	-1.18906200441415E-06	-534369.875	7.88572870078497E-05
1	240	76.4845348068951	0.786895751953125	0.78704833984375	-1.48193359375E-06	-1.16635328595294E-06	-531095.5625	7.87075478001498E-05
1	241	76.5852428066408	0.776824951171875	0.7769775390625	-1.43890380859375E-06	-1.11799590740702E-06	-539978.8125	7.85604715929367E-05
1	242	76.6859508063866	0.766754150390625	0.76690673828125	-1.38092041015625E-06	-1.05903711755673E-06	-555359.125	7.84184885560535E-05
1	243	76.7866588061323	0.756683349609375	0.7574462890625	-1.32354736328125E-06	-1.00251600088086E-06	-572285	7.82823044573888E-05
1	244	76.8873668058781	0.746612548828125	0.74658203125	-1.280517578125E-06	-9.56011376729293E-07	-583031.5	7.8151177149266E-05
1	245	76.9880748056238	0.736541748046875	0.736419677734375	-1.2646484375E-06	-9.31311944896152E-07	-582311.8125	7.80230184318498E-05
1	246	77.0887828053695	0.726470947265625	0.726348876953125	-1.28265380859375E-06	-9.31654142277694E-07	-566286	7.78947505750693E-05
1	247	77.1894908051153	0.716400146484375	0.716339111328125	-1.3421630859375E-06	-9.61443902269821E-07	-533719.875	7.77625828050077E-05
1	248	77.290198804861	0.706329345703125	0.706298828125	-1.446533203125E-06	-1.02168462490226E-06	-488270.0625	7.76221640990116E-05
1	249	77.3909068046067	0.696258544921875	0.696197509765625	-1.59423828125E-06	-1.10990470147954E-06	-436696.03125	7.74690488469787E-05
1	250	77.4916148043525	0.686187744140625	0.68609619140625	-1.77734375E-06	-1.21942878195114E-06	-386023.34375	7.72992716520093E-05
1	251	77.5923228040982	0.676116943359375	0.67608642578125	-1.9805908203125E-06	-1.33905052734917E-06	-341355.96875	7.71100458223373E-05
1	252	77.693030803844	0.666046142578125	0.666015625	-2.1807861328125E-06	-1.45243768656655E-06	-305401.625	7.69005055190064E-05
1	253	77.7937388035897	0.655975341796875	0.655914306640625	-2.35504150390625E-06	-1.54470535562723E-06	-278514.96875	7.66721059335396E-05
1	254	77.8944468033354	0.645904541015625	0.64593505859375	-2.47802734375E-06	-1.60064462306764E-06	-260665.03125	7.64287397032604E-05
1	255	77.9951548030812	0.635833740234375	0.635833740234375	-2.5390625E-06	-1.61442164881009E-06	-250420.671875	7.61761111789383E-05
1	256	78.0958628028269	0.625762939453125	0.625732421875	-2.53753662109375E-06	-1.58781892878324E-06	-246590.5	7.59204849600792E-05
1	257	78.1965708025726	0.615692138671875	0.61572265625	-2.48260498046875E-06	-1.52859615809575E-06	-248014.75	7.56677036406472E-05
1	258	78.2972788023184	0.605621337890625	0.60565185546875	-2.393798828125E-06	-1.4498085647574E-06	-253008.6875	7.54221546230838E-05
1	259	78.3979868020641	0.595550537109375	0.595489501953125	-2.283935546875E-06	-1.36005962758645E-06	-260729.546875	7.51866100472398E-05
1	260	78.4986948018098	0.585479736328125	0.585418701171875	-2.16644287109375E-06	-1.26827615076763E-06	-270221.1875	7.49625178286806E-05
1	261	78.5994028015556	0.575408935546875	0.575347900390625	-2.049560546875E-06	-1.17921024411771E-06	-280717.71875	7.47502272133715E-05
1	262	78.7001108013013	0.565338134765625	0.56536865234375	-1.93756103515625E-06	-1.09543623239006E-06	-291794	7.45494544389658E-05
1	263	78.8008188010471	0.555267333984375	0.55523681640625	-1.8328857421875E-06	-1.01768557669857E-06	-302930.40625	7.43596028769389E-05
1	264	78.9015268007928	0.545196533203125	0.545074462890625	-1.73583984375E-06	-9.46161947013024E-07	-314011.96875	7.41799012757838E-05
1	265	79.0022348005385	0.535125732421875	0.535186767578125	-1.64825439453125E-06	-8.82123970313842E-07	-324699.125	7.40094983484596E-05
1	266	79.1029428002843	0.525054931640625	0.525054931640625	-1.568603515625E-06	-8.23602988475614E-07	-334727.625	7.3847513704095E-05
1	267	79.20365080003	0.514984130859375	0.514984130859375	-1.497802734375E-06	-7.71344616623537E-07	-343826.40625	7.36931106075644E-05
1	268	79.3043587997757	0.504913330078125	0.504852294921875	-1.4349365234375E-06	-7.24431004073267E-07	-351829	7.3545437771827E-05
1	269	79.4050667995215	0.494842529296875	0.494842529296875	-1.37786865234375E-06	-6.81827998505469E-07	-359136.21875	7.34037967049517E-05
1	270	79.5057747992672	0.484771728515625	0.4847412109375	-1.3262939453125E-06	-6.42909355974552E-07	-365485.5	7.32676344341598E-05
1	271	79.606482799013	0.474700927734375	0.4747314453125	-1.278076171875E-06	-6.06742958098039E-07	-371442.21875	7.31364925741218E-05
1	272	79.7071907987587	0.464630126953125	0.464630126953125	-1.23382568359375E-06	-5.73272586734674E-07	-376576.8125	7.30100073269568E-05
1	273	79.8078987985044	0.454559326171875	0.454559326171875	-1.192626953125E-06	-5.42119664714846E-07	-381141.28125	7.28878294466995E-05
1	274	79.9086067982502	0.444488525390625	0.444549560546875	-1.15447998046875E-06	-5.1322354011063E-07	-385064.78125	7.27696387912147E-05
1	275	80.0093147979959	0.434417724609375	0.434417724609375	-1.12060546875E-06	-4.86810904476442E-07	-387663.40625	7.26550788385794E-05
1	276	80.1100227977416	0.424346923828125	0.42437744140625	-1.0888671875E-06	-4.62090667951998E-07	-389742.15625	7.25438294466585E-05
1	277	80.2107307974874	0.414276123046875	0.414276123046875	-1.05926513671875E-06	-4.38828209325948E-07	-391097.6875	7.24356577848084E-05
1	278	80.3114387972331	0.404205322265625	0.40423583984375	-1.0308837890625E-06	-4.16720155271832E-07	-392125.5625	7.23304110579193E-05
1	279	80.4121467969788	0.394134521484375	0.3941650390625	-1.0040283203125E-06	-3.95752834947416E-07	-392583.59375	7.22279437468387E-05
1	280	80.5128547967246	0.384063720703125	0.384063720703125	-9.7808837890625E-07	-3.75648255612759E-07	-392667.71875	7.2128139436245E-05
1	281	80.6135627964703	0.373992919921875	0.373992919921875	-9.53369140625E-07	-3.56553300662199E-07	-392285.53125	7.20308817108162E-05
1	282	80.7142707962161	0.363922119140625	0.3638916015625	-9.31701660156251E-07	-3.39038422225713E-07	-390566.65625	7.19359595677815E-05
1	283	80.8149787959618	0.353851318359375	0.353851318359375	-9.112548828125E-07	-3.22448727274605E-07	-388312.125	7.18431620043702E-05
1	284	80.9156867957075	0.343780517578125	0.343780517578125	-8.91723632812499E-07	-3.06557211615655E-07	-385523.625	7.17523726052605E-05
1	285	81.0163947954533	0.333709716796875	0.33367919921875	-8.73413085937499E-07	-2.91439761213041E-07	-382040.53125	7.16634895070456E-05
1	286	81.117102795199	0.323638916015625	0.32366943359375	-8.55407714843751E-07	-2.76869315030126E-07	-378380.3125	7.15764399501495E-05
1	287	81.2178107949447	0.313568115234375	0.313690185546875	-8.380126953125E-07	-2.62876341139417E-07	-374326.3125	7.14911657269113E-05
1	288	81.3185187946905	0.303497314453125	0.303436279296875	-8.2244873046875E-07	-2.49560770271273E-07	-368942.5	7.14075576979667E-05
1	289	81.4192267944362	0.293426513671875	0.29345703125	-8.07800292968749E-07	-2.37054678109416E-07	-363279.1875	7.13254703441635E-05
1	290	81.5199347941819	0.283355712890625	0.28338623046875	-7.9498291015625E-07	-2.25287209332237E-07	-356468.34375	7.12447581463493E-05
1	291	81.6206427939277	0.273284912109375	0.273223876953125	-7.8338623046875E-07	-2.14039815205069E-07	-348772.90625	7.11652828613296E-05
1	292	81.7213507936734	0.263214111328125	0.26324462890625	-7.72705078124999E-07	-2.03410451149466E-07	-340679.3125	7.10869280737825E-05
1	293	81.8220587934192	0.253143310546875	0.253143310546875	-7.62329101562501E-07	-1.92978504287566E-07	-332065.65625	7.1009635576047E-05
1	294	81.9227667931649	0.243072509765625	0.243133544921875	-7.51953125E-07	-1.82825019123811E-07	-323336.03125	7.09333835402504E-05
1	295	82.0234747929106	0.233001708984375	0.2330322265625	-7.427978515625E-07	-1.73095841660142E-07	-313722.28125	7.08581137587316E-05
1	296	82.1241827926564	0.222930908203125	0.22296142578125	-7.33032226562499E-07	-1.63437903211161E-07	-304163.21875	7.0783804403618E-05
1	297	82.2248907924021	0.212860107421875	0.212890625	-7.2601318359375E-07	-1.54561405452114E-07	-293232.4375	7.071033178363E-05
1	298	82.3255987921478	0.202789306640625	0.202880859375	-7.2052001953125E-07	-1.46179715443395E-07	-281575.59375	7.06374921719544E-05
1	299	82.4263067918936	0.192718505859375	0.192657470703125	-7.159423828125E-07	-1.37931635890709E-07	-269096.34375	7.05651618773118E-05
1	300	82.5270147916393	0.182647705078125	0.182647705078125	-7.11975097656251E-07	-1.30040618273597E-07	-256536.65625	7.04932608641684E-05
1	301	82.6277227913851	0.172576904296875	0.172607421875	-7.098388671875E-07	-1.22523459822332E-07	-243164.234375	7.04216654412448E-05
1	302	82.7284307911308	0.162506103515625	0.16253662109375	-7.0831298828125E-07	-1.15126802313625E-07	-229470.046875	7.03502591932192E-05
1	303	82.8291387908765	0.152435302734375	0.152496337890625	-7.10144042968749E-07	-1.08294365475103E-07	-214740.015625	7.02788311173208E-05
1	304	82.9298467906223	0.142364501953125	0.14239501953125	-7.15026855468751E-07	-1.0181626208805E-07	-199146.40625	7.02070683473721E-05
1	305	83.030554790368	0.132293701171875	0.13238525390625	-7.24182128906251E-07	-9.58710302256804E-08	-182806.578125	7.01345998095348E-05
1	306	83.1312627901137	0.122222900390625	0.12225341796875	-7.4005126953125E-07	-9.04737902374109E-08	-165195.890625	7.00608725310303E-05
1	307	83.2319707898595	0.112152099609375	0.1121826171875	-7.6324462890625E-07	-8.56227799772569E-08	-146981.21875	6.99851734680124E-05
1	308	83.3326787896052	0.102081298828125	0.1021728515625	-7.952880859375E-07	-8.12568501373789E-08	-128472.7578125	6.99066949891858E-05
1	309	83.4333867893509	0.092010498046875	0.092041015625	-8.380126953125E-07	-7.71315384895388E-08	-109832.484375	6.98244548402727E-05
1	310	83.5340947890967	0.081939697265625	0.08203125	-8.9599609375E-07	-7.3499677455402E-08	-91553.1328125	6.97371360729448E-05
1	311	83.6348027888424	0.071868896484375	0.07196044921875	-9.74426269531251E-07	-7.01201514630156E-08	-73849.046875	6.96429560775869E-05
1	312	83.7355107885882	0.061798095703125	0.061767578125	-1.075439453125E-06	-6.64272903350138E-08	-57434.734375	6.95397393428721E-05
1	313	83.8362187883339	0.051727294921875	0.051849365234375	-1.20452880859375E-06	-6.24540490434811E-08	-43045.3515625	6.94249320076779E-05
1	314	83.9369267880796	0.041656494140625	0.041754150390625	-1.36383056640625E-06	-5.69455806953556E-08	-30615.349609375	6.92956018610857E-05
1	315	84.0376347878254	0.031585693359375	0.031646728515625	-1.54998779296875E-06	-4.90520406515316E-08	-20417.40625	6.91488821757957E-05
1	316	84.1383427875711	0.021514892578125	0.0216033935546875	-1.75140380859375E-06	-3.78362656761055E-08	-12334.90234375	6.89826410962269E-05
1	317	84.2390507873168	0.011444091796875	0.0115264892578125	-1.95220947265625E-06	-2.25021228317246E-08	-5904.33056640625	6.87961510266177E-05
1	318	84.3397587870626	0.001373291015625	0.00145263671875	-2.1337890625E-06	-3.09962011613152E-09	-680.778076171875	6.85904014972039E-05
1	319	84.4404667868083	-0.008697509765625	-0.00859375	-2.27691650390625E-06	1.95672509306632E-08	3774.29321289063	6.83683101669885E-05
1	320	84.5411747865541	-0.018768310546875	-0.01866455078125	-2.37213134765625E-06	4.42747634110674E-08	7868.26171875	6.81342062307522E-05
1	321	84.6418827862998	-0.028839111328125	-0.02872314453125	-2.4169921875E-06	6.94236135245774E-08	11883.8388671875	6.78930591675453E-05
1	322	84.7425907860455	-0.038909912109375	-0.03878173828125	-2.418212890625E-06	9.3782496435324E-08	16037.3564453125	6.76495837979019E-05
1	323	84.8432987857913	-0.048980712890625	-0.0488128662109375	-2.38739013671875E-06	1.16535353811287E-07	20446.12109375	6.7407607275527E-05
1	324	84.944006785537	-0.059051513671875	-0.058990478515625	-2.3370361328125E-06	1.37862869564742E-07	25241.578125	6.71697125653736E-05
1	325	85.0447147852827	-0.069122314453125	-0.069061279296875	-2.27447509765625E-06	1.57078162033031E-07	30363.61328125	6.6937500378117E-05
1	326	85.1454227850285	-0.079193115234375	-0.0791015625	-2.20977783203125E-06	1.74796866758697E-07	35796.1640625	6.6711705585476E-05
1	327	85.2461307847742	-0.089263916015625	-0.0892333984375	-2.14630126953125E-06	1.91521763781566E-07	41575.4296875	6.64923572912812E-05
1	328	85.3468387845199	-0.099334716796875	-0.09930419921875	-2.0880126953125E-06	2.0734843531045E-07	47559.19140625	6.62791426293552E-05
1	329	85.4475467842657	-0.109405517578125	-0.109222412109375	-2.03582763671875E-06	2.22357982693211E-07	53650.1328125	6.6071494075004E-05
1	330	85.5482547840114	-0.119476318359375	-0.119354248046875	-1.9903564453125E-06	2.3755748657095E-07	59966.26953125	6.58687567920424E-05
1	331	85.6489627837572	-0.129547119140625	-0.12939453125	-1.95037841796875E-06	2.52368295150518E-07	66343.296875	6.56703268759884E-05
1	332	85.7496707835029	-0.139617919921875	-0.139495849609375	-1.91497802734375E-06	2.67131468945081E-07	72844.625	6.54756877338514E-05
1	333	85.8503787832486	-0.149688720703125	-0.149566650390625	-1.884765625E-06	2.81898081766485E-07	79355.5703125	6.52843591524288E-05
1	334	85.9510867829944	-0.159759521484375	-0.15960693359375	-1.8597412109375E-06	2.96827579404635E-07	85822.125	6.50958027108572E-05
1	335	86.0517947827401	-0.169830322265625	-0.169647216796875	-1.84051513671875E-06	3.12238256583441E-07	92173.7734375	6.49094799882732E-05
1	336	86.1525027824858	-0.179901123046875	-0.179840087890625	-1.82708740234375E-06	3.28583553255157E-07	98429.9375	6.472480163211E-05
1	337	86.2532107822316	-0.189971923828125	-0.189788818359375	-1.81793212890625E-06	3.45023181580473E-07	104398.1875	6.45412656012923E-05
1	338	86.3539187819773	-0.200042724609375	-0.19989013671875	-1.81488037109375E-06	3.62776660267627E-07	110139.5703125	6.43583334749565E-05
1	339	86.4546267817231	-0.189971923828125	-0.189788818359375	-1.60064697265625E-06	3.03784872812685E-07	118570.0703125	6.418635166483E-05
2	340	86.5553347814688	-0.179901123046875	-0.17974853515625	-1.4471435546875E-06	2.60121936435098E-07	124209.1953125	6.4032879890874E-05
2	341	86.6560427812145	-0.169830322265625	-0.169677734375	-1.322021484375E-06	2.24317616925873E-07	128347.1796875	6.38934434391558E-05
2	342	86.7567507809603	-0.159759521484375	-0.159637451171875	-1.2152099609375E-06	1.93993017205685E-07	131366.140625	6.37656848994084E-05
2	343	86.857458780706	-0.149688720703125	-0.149566650390625	-1.12152099609375E-06	1.6774214373072E-07	133360.546875	6.36480181128718E-05
2	344	86.9581667804517	-0.139617919921875	-0.1395263671875	-1.038818359375E-06	1.44942546853599E-07	134312.578125	6.35392352705821E-05
2	345	87.0588747801975	-0.129547119140625	-0.129425048828125	-9.63439941406249E-07	1.24693258385378E-07	134336.40625	6.343841960188E-05
2	346	87.1595827799432	-0.119476318359375	-0.119415283203125	-8.92333984375E-07	1.06558310619675E-07	133823.53125	6.33449672022834E-05
2	347	87.2602907796889	-0.109405517578125	-0.109375	-8.2366943359375E-07	9.00888466048855E-08	132789.921875	6.3258565205615E-05
2	348	87.3609987794347	-0.099334716796875	-0.099212646484375	-7.54699707031251E-07	7.48757500446118E-08	131459.765625	6.31790826446377E-05
2	349	87.4617067791804	-0.089263916015625	-0.089202880859375	-6.84509277343751E-07	6.10601986750225E-08	130316.546875	6.31066141068004E-05
2	350	87.5624147789262	-0.079193115234375	-0.079193115234375	-6.103515625E-07	4.83356394909151E-08	129750	6.30414142506197E-05
2	351	87.6631227786719	-0.069122314453125	-0.069061279296875	-5.2825927734375E-07	3.64822589915548E-08	130733.6875	6.29840797046199E-05
2	352	87.7638307784176	-0.059051513671875	-0.058990478515625	-4.33959960937499E-07	2.55995047382385E-08	135935.3125	6.29356291028671E-05
2	353	87.8645387781634	-0.048980712890625	-0.048846435546875	-3.23486328125E-07	1.58011541628866E-08	151000	6.28974885330535E-05
2	354	87.9652467779091	-0.038909912109375	-0.0387298583984375	-1.88598632812501E-07	7.30439841944985E-09	205355.984375	6.28717025392689E-05
2	355	88.0659547776548	-0.028839111328125	-0.02867431640625	-2.62451171874997E-08	7.52560735950425E-10	1092558.125	6.28608831902966E-05
2	356	88.1666627774006	-0.018768310546875	-0.0186492919921875	1.65710449218751E-07	-3.09038239443282E-09	-112541.4375	6.28679044893943E-05
2	357	88.2673707771463	-0.008697509765625	-0.008587646484375	3.8177490234375E-07	-3.2785478776276E-09	-22494.00390625	6.28954730927944E-05
2	358	88.368078776892	0.001373291015625	0.0014617919921875	6.09741210937501E-07	8.91314855255843E-10	2397.3974609375	6.29454007139429E-05
2	359	88.4687867766378	0.011444091796875	0.011505126953125	8.33740234374999E-07	9.59228696473247E-09	13799.4150390625	6.30180875305086E-05
2	360	88.5694947763835	0.021514892578125	0.0216033935546875	1.03057861328125E-06	2.22639950919756E-08	20962.39453125	6.31119619356468E-05
2	361	88.6702027761293	0.031585693359375	0.031689453125	1.185302734375E-06	3.75615947234564E-08	26735.326171875	6.32235387456603E-05
2	362	88.770910775875	0.041656494140625	0.0417510986328125	1.28875732421875E-06	5.38070317190886E-08	32396.400390625	6.33481176919304E-05
2	363	88.8716187756207	0.051727294921875	0.051788330078125	1.34124755859375E-06	6.94609667561963E-08	38612.05859375	6.34805546724238E-05
2	364	88.9723267753665	0.061798095703125	0.0618896484375	1.35101318359375E-06	8.36137274973225E-08	45809.8046875	6.36161203146912E-05
2	365	89.0730347751122	0.071868896484375	0.071868896484375	1.3311767578125E-06	9.56702024268452E-08	53989	6.37511766399257E-05
2	366	89.1737427748579	0.081939697265625	0.082061767578125	1.292724609375E-06	1.06083270168256E-07	63479.69921875	6.38833007542416E-05
2	367	89.2744507746037	0.092010498046875	0.092071533203125	1.24420166015625E-06	1.14555547270356E-07	74000.4921875	6.40110447420739E-05
2	368	89.3751587743494	0.102081298828125	0.102081298828125	1.1944580078125E-06	1.21931819307974E-07	85462.4453125	6.41338410787284E-05
2	369	89.4758667740952	0.112152099609375	0.112213134765625	1.146240234375E-06	1.28623199202593E-07	97896.703125	6.42517043161206E-05
2	370	89.5765747738409	0.122222900390625	0.12225341796875	1.1029052734375E-06	1.34833939569035E-07	110846.7109375	6.4364961872343E-05
2	371	89.6772827735866	0.132293701171875	0.132415771484375	1.064453125E-06	1.40950376703586E-07	124397.9453125	6.44740939605981E-05
2	372	89.7779907733324	0.142364501953125	0.142425537109375	1.0308837890625E-06	1.46824163493875E-07	138158.6875	6.45796026219614E-05
2	373	89.8786987730781	0.152435302734375	0.1524658203125	1.0015869140625E-06	1.52707755773918E-07	152224.265625	6.46819462417625E-05
2	374	89.9794067728238	0.162506103515625	0.162506103515625	9.7564697265625E-07	1.58548573381267E-07	166562.40625	6.4781510445755E-05
2	375	90.0801147725696	0.172576904296875	0.172637939453125	9.5245361328125E-07	1.64429621918316E-07	181256.015625	6.4878593548201E-05
2	376	90.1808227723153	0.182647705078125	0.182647705078125	9.320068359375E-07	1.70228901197333E-07	195972.5	6.49734865874052E-05
2	377	90.281530772061	0.192718505859375	0.19268798828125	9.1400146484375E-07	1.76117097794304E-07	210818.046875	6.50664369459264E-05
2	378	90.3822387718068	0.202789306640625	0.202850341796875	8.99658203125001E-07	1.82495966782881E-07	225474.90625	6.51577647658996E-05
2	379	90.4829467715525	0.212860107421875	0.212890625	8.8714599609375E-07	1.88865058703414E-07	239972.484375	6.52477392577566E-05
2	380	90.5836547712983	0.222930908203125	0.222930908203125	8.7615966796875E-07	1.95323053731045E-07	254440.96875	6.53365277685225E-05
2	381	90.684362771044	0.233001708984375	0.23297119140625	8.65783691406249E-07	2.01702647473212E-07	269087.0625	6.54242394375615E-05
2	382	90.7850707707897	0.243072509765625	0.2431640625	8.5662841796875E-07	2.08301244697395E-07	283861.78125	6.55109688523225E-05
2	383	90.8857787705355	0.253143310546875	0.253143310546875	8.46252441406251E-07	2.14223135230895E-07	299134.53125	6.55967160128057E-05
2	384	90.9864867702812	0.263214111328125	0.263275146484375	8.38623046875001E-07	2.20788592741883E-07	313937.4375	6.56815609545447E-05
2	385	91.0871947700269	0.273284912109375	0.27325439453125	8.319091796875E-07	2.27322843215916E-07	328466.625	6.57656783005223E-05
2	386	91.1879027697727	0.283355712890625	0.2833251953125	8.26110839843749E-07	2.34058006753912E-07	342962.71875	6.58491626381874E-05
2	387	91.2886107695184	0.293426513671875	0.29345703125	8.21533203124999E-07	2.41084705976391E-07	357206.53125	6.59321303828619E-05
2	388	91.3893187692642	0.303497314453125	0.30352783203125	8.1756591796875E-07	2.48154009341306E-07	371257.9375	6.60146615700796E-05
2	389	91.4900267690099	0.313568115234375	0.313629150390625	8.15734863281251E-07	2.55838216389748E-07	384474.375	6.60969089949504E-05
2	390	91.5907347687556	0.323638916015625	0.323638916015625	8.1207275390625E-07	2.6281833243047E-07	398534.375	6.61788726574741E-05
2	391	91.6914427685014	0.333709716796875	0.333709716796875	8.09326171875E-07	2.7007999392481E-07	412330.34375	6.62605161778629E-05
2	392	91.7921507682471	0.343780517578125	0.343719482421875	8.0841064453125E-07	2.77866490705492E-07	425179.3125	6.63419777993113E-05
2	393	91.8928587679928	0.353851318359375	0.353851318359375	8.07800292968749E-07	2.85841196046022E-07	438043.0625	6.64233593852259E-05
2	394	91.9935667677386	0.363922119140625	0.36395263671875	8.09326171875E-07	2.94556372182342E-07	449698.375	6.65047919028439E-05
2	395	92.0942747674843	0.373992919921875	0.374053955078125	8.10546875E-07	3.03188244288322E-07	461483.4375	6.65863553876989E-05
2	396	92.19498276723	0.384063720703125	0.384002685546875	8.12683105468751E-07	3.12072472752334E-07	472512.21875	6.66680934955366E-05
2	397	92.2956907669758	0.394134521484375	0.39410400390625	8.1451416015625E-07	3.21003284398103E-07	483851.65625	6.67500280542299E-05
2	398	92.3963987667215	0.404205322265625	0.404296875	8.15734863281251E-07	3.29799036080658E-07	495622.90625	6.68321154080331E-05
2	399	92.4971067664673	0.414276123046875	0.41424560546875	8.1756591796875E-07	3.38673061150985E-07	506681.625	6.69143628329039E-05
2	400	92.597814766213	0.424346923828125	0.424346923828125	8.18786621093751E-07	3.47449571336256E-07	518263.15625	6.69967557769269E-05
2	401	92.6985227659587	0.434417724609375	0.4344482421875	8.21533203124999E-07	3.56913659516067E-07	528826.125	6.70793524477631E-05
2	402	92.7992307657045	0.444488525390625	0.444580078125	8.2427978515625E-07	3.66458351663823E-07	539355.8125	6.71622256049886E-05
2	403	92.8999387654502	0.454559326171875	0.45458984375	8.27941894531251E-07	3.76373947119646E-07	549060.125	6.72454261803068E-05
2	404	93.0006467651959	0.464630126953125	0.464630126953125	8.306884765625E-07	3.85962891868985E-07	559331.375	6.73289396218024E-05
2	405	93.1013547649417	0.474700927734375	0.47467041015625	8.3343505859375E-07	3.9560694631291E-07	569535	6.7412736825645E-05
2	406	93.2020627646874	0.484771728515625	0.484771728515625	8.3587646484375E-07	4.05209277687391E-07	579956.1875	6.74967959639616E-05
2	407	93.3027707644331	0.494842529296875	0.49481201171875	8.3953857421875E-07	4.15413751397864E-07	589385.6875	6.75811606924981E-05
2	408	93.4034787641789	0.504913330078125	0.5048828125	8.441162109375E-07	4.26179752821554E-07	598120.0625	6.76659328746609E-05
2	409	93.5041867639246	0.514984130859375	0.514984130859375	8.514404296875E-07	4.3847830966115E-07	604838.75	6.77513162372634E-05
2	410	93.6048947636704	0.525054931640625	0.525054931640625	8.612060546875E-07	4.52180472620967E-07	609674	6.78375508869067E-05
2	411	93.7056027634161	0.535125732421875	0.53515625	8.72802734375E-07	4.6708584022781E-07	613146.875	6.79248696542345E-05
2	412	93.8063107631618	0.545196533203125	0.545196533203125	8.8775634765625E-07	4.84001645872922E-07	614128.625	6.80135199218057E-05
2	413	93.9070187629076	0.555267333984375	0.55523681640625	9.0850830078125E-07	5.04437252857315E-07	611152.1875	6.81039673509076E-05
2	414	94.0077267626533	0.565338134765625	0.5653076171875	9.36279296875001E-07	5.29285784978129E-07	603781	6.81968595017679E-05
2	415	94.108434762399	0.575408935546875	0.575408935546875	9.765625E-07	5.61922774977575E-07	589218.8125	6.82931786286645E-05
2	416	94.2091427621448	0.585479736328125	0.585418701171875	1.0333251953125E-06	6.04927834046975E-07	566538.75	6.83943871990778E-05
2	417	94.3098507618905	0.595550537109375	0.595489501953125	1.114501953125E-06	6.63674200040987E-07	534309.9375	6.8502537033055E-05
2	418	94.4105587616363	0.605621337890625	0.6055908203125	1.22589111328125E-06	7.42388408525585E-07	494000.5	6.86203857185319E-05
2	419	94.511266761382	0.615692138671875	0.615631103515625	1.3751220703125E-06	8.46567900225637E-07	447692	6.87513529555872E-05
2	420	94.6119747611277	0.625762939453125	0.625732421875	1.5679931640625E-06	9.81144125944411E-07	399065.8125	6.88995569362305E-05
2	421	94.7126827608735	0.635833740234375	0.63580322265625	1.8048095703125E-06	1.14750366719818E-06	352282.75	6.90693850629032E-05
2	422	94.8133907606192	0.645904541015625	0.64581298828125	2.08221435546875E-06	1.34472099944105E-06	310156.84375	6.92651155986823E-05
2	423	94.9140987603649	0.655975341796875	0.655914306640625	2.38861083984375E-06	1.56672388129664E-06	274600.75	6.94902410032228E-05
2	424	95.0148067601107	0.666046142578125	0.665985107421875	2.70477294921875E-06	1.80133849880804E-06	246225.890625	6.97467112331651E-05
2	425	95.1155147598564	0.676116943359375	0.675994873046875	3.001708984375E-06	2.02913975044794E-06	225203.34375	7.00340533512644E-05
2	426	95.2162227596021	0.686187744140625	0.68609619140625	3.255615234375E-06	2.23366509999323E-06	210742.40625	7.03491386957467E-05
2	427	95.3169307593479	0.696258544921875	0.6961669921875	3.4442138671875E-06	2.39774794863479E-06	202126.53125	7.06865030224435E-05
2	428	95.4176387590936	0.706329345703125	0.706268310546875	3.56048583984375E-06	2.51465826295316E-06	198362.90625	7.10392123437487E-05
2	429	95.5183467588394	0.716400146484375	0.716339111328125	3.6090087890625E-06	2.58527416008292E-06	198486.390625	7.14002308086492E-05
2	430	95.6190547585851	0.726470947265625	0.726348876953125	3.6083984375E-06	2.6209561383439E-06	201293.984375	7.17636503395624E-05
2	431	95.7197627583308	0.736541748046875	0.736480712890625	3.5797119140625E-06	2.63638867181726E-06	205737.4375	7.21256001270376E-05
2	432	95.8204707580766	0.746612548828125	0.74658203125	3.54400634765625E-06	2.64589129983506E-06	210660.484375	7.24843121133745E-05
2	433	95.9211787578223	0.756683349609375	0.7568359375	3.5174560546875E-06	2.66213714894548E-06	215165.71875	7.2839880886022E-05
2	434	96.021886757568	0.766754150390625	0.76690673828125	3.51593017578125E-06	2.69639053840365E-06	218123.4375	7.319404539885E-05
2	435	96.1225947573138	0.776824951171875	0.7769775390625	3.54736328125E-06	2.7562214199861E-06	219029.609375	7.35497087589465E-05
2	436	96.2233027570595	0.786895751953125	0.78704833984375	3.623046875E-06	2.85151281786966E-06	217233.84375	7.39107636036351E-05
2	437	96.3240107568053	0.796966552734375	0.797119140625	3.751220703125E-06	2.99016983262845E-06	212495.9375	7.4282092100475E-05
2	438	96.424718756551	0.807037353515625	0.8074951171875	3.9324951171875E-06	3.17547051054134E-06	205339.140625	7.46689984225668E-05
2	439	96.5254267562967	0.817108154296875	0.8172607421875	4.1595458984375E-06	3.39943358085293E-06	196478.359375	7.50764593249187E-05
2	440	96.6261347560425	0.827178955078125	0.82763671875	4.42047119140625E-06	3.6585443012882E-06	187228.171875	7.55084984120913E-05
2	441	96.7268427557882	0.837249755859375	0.83740234375	4.6868896484375E-06	3.9248120629054E-06	178669.109375	7.59670947445557E-05
2	442	96.8275507555339	0.847320556640625	0.84716796875	4.9346923828125E-06	4.18051331507741E-06	171675.953125	7.64515789342113E-05
2	443	96.9282587552797	0.857391357421875	0.85784912109375	5.1361083984375E-06	4.40600615547737E-06	167023.171875	7.69586840760894E-05
2	444	97.0289667550254	0.867462158203125	0.8673095703125	5.2764892578125E-06	4.57634951089858E-06	164372.484375	7.74829968577251E-05
2	445	97.1296747547711	0.877532958984375	0.87738037109375	5.3497314453125E-06	4.69374936074018E-06	164004.5625	7.80180707806721E-05
2	446	97.2303827545169	0.887603759765625	0.88775634765625	5.3680419921875E-06	4.76551349493093E-06	165378.0625	7.85577576607466E-05
2	447	97.3310907542626	0.897674560546875	0.8978271484375	5.352783203125E-06	4.80587368656415E-06	167730.90625	7.90975900599733E-05
2	448	97.4317987540084	0.907745361328125	0.9088134765625	5.328369140625E-06	4.84249358123634E-06	170561.296875	7.96354288468137E-05
2	449	97.5325067537541	0.917816162109375	0.91827392578125	5.316162109375E-06	4.88169280288275E-06	172732.5	8.01714268163778E-05
2	450	97.6332147534998	0.927886962890625	0.92803955078125	5.3436279296875E-06	4.95909807796124E-06	173672.1875	8.07081887614913E-05
2	451	97.7339227532456	0.937957763671875	0.9381103515625	5.426025390625E-06	5.09021037942148E-06	172890.890625	8.12504804343916E-05
2	452	97.8346307529913	0.948028564453125	0.948486328125	5.584716796875E-06	5.29702765561524E-06	169836.0625	8.180491568055E-05
2	453	97.935338752737	0.958099365234375	0.95855712890625	5.8319091796875E-06	5.59021827939432E-06	164364.203125	8.23797890916467E-05
2	454	98.0360467524828	0.968170166015625	0.96893310546875	6.1676025390625E-06	5.97599409957184E-06	157100.453125	8.29840137157589E-05
2	455	98.1367547522285	0.978240966796875	0.9783935546875	6.585693359375E-06	6.44339934297022E-06	148563.5	8.36261897347867E-05
2	456	98.2374627519742	0.988311767578125	0.98785400390625	7.0648193359375E-06	6.97900986779132E-06	139827.21875	8.43135494505987E-05
2	457	98.33817075172	0.998382568359375	0.99884033203125	7.5714111328125E-06	7.5626307989296E-06	131922.609375	8.50505457492545E-05
2	458	98.4388787514657	1.00845336914063	1.00860595703125	8.06884765625E-06	8.13828773971181E-06	125000	8.58380954014137E-05
2	459	98.5395867512115	1.01852416992188	1.01837158203125	8.5174560546875E-06	8.67393555381568E-06	119562.8828125	8.6673280748073E-05
2	460	98.6402947509572	1.02859497070313	1.02813720703125	8.8714599609375E-06	9.12107771000592E-06	115892.6796875	8.75488840392791E-05
2	461	98.7410027507029	1.03866577148438	1.03912353515625	9.1064453125E-06	9.4627212092746E-06	114108.5859375	8.84541441337205E-05
2	462	98.8417107504487	1.04873657226563	1.048583984375	9.2041015625E-06	9.65127310337266E-06	113925.734375	8.93761534825899E-05
2	463	98.9424187501944	1.05880737304688	1.0589599609375	9.173583984375E-06	9.71445751929423E-06	115435.796875	9.03015388757922E-05
2	464	99.0431267499401	1.06887817382813	1.06903076171875	9.0423583984375E-06	9.66655898082536E-06	118224.7734375	9.12187824724242E-05
2	465	99.1438347496859	1.07894897460938	1.07879638671875	8.8409423828125E-06	9.53757717070403E-06	122022.78125	9.2119284090586E-05
2	466	99.2445427494316	1.08901977539063	1.08856201171875	8.612060546875E-06	9.37476124818204E-06	126399.7265625	9.29981106310152E-05
2	467	99.3452507491774	1.09909057617188	1.0986328125	8.3770751953125E-06	9.20332877285546E-06	131147.546875	9.38535813475028E-05
2	468	99.4459587489231	1.10916137695313	1.1090087890625	8.1512451171875E-06	9.03980253497139E-06	136053.90625	9.46858490351588E-05
2	469	99.5466667486688	1.11923217773438	1.1187744140625	7.940673828125E-06	8.88382237462793E-06	140891.625	9.54961433308199E-05
2	470	99.6473747484146	1.12930297851563	1.12945556640625	7.7484130859375E-06	8.75148816703586E-06	145766.046875	9.62861449806951E-05
2	471	99.7480827481603	1.13937377929688	1.13922119140625	7.5775146484375E-06	8.63246532389894E-06	150342.328125	9.70578694250435E-05
2	472	99.848790747906	1.14944458007813	1.1492919921875	7.4249267578125E-06	8.53340861795004E-06	154788.328125	9.78133030002937E-05
2	473	99.9494987476518	1.15951538085938	1.15936279296875	7.28759765625E-06	8.44896931084804E-06	159087.109375	9.85541410045698E-05
2	474	100.050206747398	1.16958618164063	1.16912841796875	7.16552734375E-06	8.37742118164897E-06	163160.140625	9.92819113889709E-05
2	475	100.150914747143	1.17965698242188	1.17950439453125	7.0526123046875E-06	8.31858687888598E-06	167243.625	9.99978510662913E-05
2	476	100.251622746889	1.18972778320313	1.1895751953125	6.9549560546875E-06	8.27344319986878E-06	171039.9375	0.000100703189673368
2	477	100.352330746635	1.19979858398438	1.19964599609375	6.866455078125E-06	8.23731534183025E-06	174711.109375	0.00010139914957108
2	478	100.45303874638	1.20986938476563	1.21002197265625	6.787109375E-06	8.21255162009038E-06	178282.375	0.000102086662082002
2	479	100.553746746126	1.21994018554688	1.2200927734375	6.7169189453125E-06	8.19526394479908E-06	181644.703125	0.000102766643976793
2	480	100.654454745872	1.23001098632813	1.2298583984375	6.65283203125E-06	8.18204080133E-06	184862.390625	0.00010343986650696
2	481	100.755162745618	1.24008178710938	1.2396240234375	6.591796875E-06	8.17134969111066E-06	188055.5625	0.000104106788057834
2	482	100.855870745363	1.25015258789063	1.25030517578125	6.5399169921875E-06	8.17689215182327E-06	191180.59375	0.000104768019809853
2	483	100.956578745109	1.26022338867188	1.259765625	6.488037109375E-06	8.17340605863137E-06	194167.453125	0.000105424027424306
2	484	101.057286744855	1.27029418945313	1.27044677734375	6.4453125E-06	8.18842636363115E-06	197111.75	0.000106075276562478
2	485	101.157994744601	1.28036499023438	1.28021240234375	6.402587890625E-06	8.19667184259742E-06	199952.34375	0.000106722218333744
2	486	101.258702744346	1.29043579101563	1.2908935546875	6.365966796875E-06	8.21778576209908E-06	202780.4375	0.000107365165604278
2	487	101.359410744092	1.30050659179688	1.30035400390625	6.3323974609375E-06	8.23435857455479E-06	205349.40625	0.000108004576759413
2	488	101.460118743838	1.31057739257813	1.31011962890625	6.298828125E-06	8.2522183220135E-06	207994.1875	0.000108640611870214
2	489	101.560826743584	1.32064819335938	1.32080078125	6.268310546875E-06	8.27918938739458E-06	210710.8125	0.000109273416455835
2	490	101.661534743329	1.33071899414063	1.33087158203125	6.23779296875E-06	8.30170120025286E-06	213356.171875	0.000109903150587343
2	491	101.762242743075	1.34078979492188	1.34063720703125	6.207275390625E-06	8.32170462672366E-06	215978.359375	0.000110529806988779
2	492	101.862950742821	1.35086059570313	1.3507080078125	6.182861328125E-06	8.35124046716373E-06	218460.015625	0.000111153698526323
2	493	101.963658742567	1.36093139648438	1.36077880859375	6.158447265625E-06	8.38028427097015E-06	220961.359375	0.00011177513806615
2	494	102.064366742312	1.37100219726563	1.370849609375	6.1370849609375E-06	8.41302062326577E-06	223371.46875	0.000112394263851456
2	495	102.165074742058	1.38107299804688	1.38153076171875	6.1187744140625E-06	8.45327485876624E-06	225785.546875	0.000113011396024376
2	496	102.265782741804	1.39114379882813	1.39129638671875	6.097412109375E-06	8.48330728331348E-06	228178.171875	0.000113626527308952
2	497	102.366490741549	1.40121459960938	1.4007568359375	6.0791015625E-06	8.51534241519403E-06	230421.703125	0.000114239664981142
2	498	102.467198741295	1.41128540039063	1.4105224609375	6.060791015625E-06	8.54888185131131E-06	232729.109375	0.000114850961836055
2	499	102.567906741041	1.42135620117188	1.42120361328125	6.0455322265625E-06	8.59193187352503E-06	235083.296875	0.000115460563392844
2	500	102.668614740787	1.43142700195313	1.4312744140625	6.0302734375E-06	8.63097557157744E-06	237348.1875	0.000116068622446619
2	501	102.769322740532	1.44149780273438	1.44134521484375	6.0150146484375E-06	8.66971276991535E-06	239624.5625	0.000116675153549295
2	502	102.870030740278	1.45156860351563	1.451416015625	6.005859375E-06	8.71700012794463E-06	241666.671875	0.000117280455015134
2	503	102.970738740024	1.46163940429688	1.4617919921875	5.99365234375E-06	8.76147350936662E-06	243890.015625	0.000117884679639246
2	504	103.07144673977	1.47171020507813	1.47186279296875	5.9844970703125E-06	8.80835887073772E-06	245945.953125	0.000118487827421632
2	505	103.172154739515	1.48178100585938	1.48162841796875	5.975341796875E-06	8.8532360678073E-06	247957.109375	0.0001190900511574
2	506	103.272862739261	1.49185180664063	1.4923095703125	5.96923828125E-06	8.90795126906596E-06	250000.015625	0.000119691503641661
2	507	103.373570739007	1.50192260742188	1.50146484375	5.9661865234375E-06	8.95801895239856E-06	251662.40625	0.00012029250501655
2	508	103.474278738753	1.49185180664063	1.49200439453125	5.828857421875E-06	8.69668110681232E-06	255968.59375	0.000120886434160639
2	509	103.574986738498	1.48178100585938	1.4813232421875	5.72509765625E-06	8.48072068038164E-06	258742	0.000121468219731469
2	510	103.675694738244	1.47171020507813	1.47216796875	5.6427001953125E-06	8.3070026448695E-06	260897.78125	0.000122040633868892
2	511	103.77640273799	1.46163940429688	1.46148681640625	5.5694580078125E-06	8.13968927104725E-06	262410.96875	0.000122605211799964
2	512	103.877110737736	1.45156860351563	1.45172119140625	5.5023193359375E-06	7.98783366917633E-06	263838.0625	0.000123162724776193
2	513	103.977818737481	1.44149780273438	1.44134521484375	5.4443359375E-06	7.84716758062132E-06	264742.15625	0.000123713922221214
2	514	104.078526737227	1.43142700195313	1.431884765625	5.389404296875E-06	7.71700524637708E-06	265685.1875	0.000124259444419295
2	515	104.179234736973	1.42135620117188	1.42120361328125	5.3375244140625E-06	7.58570877223974E-06	266266.4375	0.000124799596960656
2	516	104.279942736718	1.41128540039063	1.41082763671875	5.291748046875E-06	7.46574460208649E-06	266609	0.000125334816402756
2	517	104.380650736464	1.40121459960938	1.4007568359375	5.2490234375E-06	7.35260528017534E-06	266860.46875	0.000125865582958795
2	518	104.48135873621	1.39114379882813	1.39129638671875	5.2093505859375E-06	7.24775054550264E-06	267076.75	0.000126392202218994
2	519	104.582066735956	1.38107299804688	1.38092041015625	5.169677734375E-06	7.13891313353088E-06	267119.25	0.000126914834254421
2	520	104.682774735701	1.37100219726563	1.370849609375	5.1300048828125E-06	7.03246496414067E-06	267221.90625	0.00012743346451316
2	521	104.783482735447	1.36093139648438	1.361083984375	5.0933837890625E-06	6.9325228650996E-06	267225.90625	0.000127948253066279
2	522	104.884190735193	1.35086059570313	1.35101318359375	5.0567626953125E-06	6.83175267113256E-06	267169.59375	0.000128459359984845
2	523	104.984898734939	1.34078979492188	1.3409423828125	5.023193359375E-06	6.73581280352664E-06	266950.1875	0.000128966916236095
2	524	105.085606734684	1.33071899414063	1.33056640625	4.9896240234375E-06	6.63902574160602E-06	266666.6875	0.000129471110994928
2	525	105.18631473443	1.32064819335938	1.3201904296875	4.9591064453125E-06	6.54696441415581E-06	266215.40625	0.000129972060676664
2	526	105.287022734176	1.31057739257813	1.31072998046875	4.931640625E-06	6.46404896542663E-06	265779.71875	0.000130470099975355
2	527	105.387730733922	1.30050659179688	1.3006591796875	4.90325927734375E-06	6.377469162544E-06	265264.21875	0.000130965330754407
2	528	105.488438733667	1.29043579101563	1.290283203125	4.87640380859375E-06	6.29194164503133E-06	264597.28125	0.000131457767565735
2	529	105.589146733413	1.28036499023438	1.28021240234375	4.8504638671875E-06	6.20962418906856E-06	263936.0625	0.000131947555928491
2	530	105.689854733159	1.27029418945313	1.270751953125	4.8272705078125E-06	6.13426345807966E-06	263244.40625	0.000132434870465659
2	531	105.790562732905	1.26022338867188	1.2603759765625	4.8052978515625E-06	6.05648165219463E-06	262288.84375	0.000132919914904051
2	532	105.89127073265	1.25015258789063	1.25030517578125	4.7857666015625E-06	5.98366887061275E-06	261254.9375	0.00013340286386665
2	533	105.991978732396	1.24008178710938	1.23992919921875	4.766845703125E-06	5.91055095355841E-06	260115.25	0.000133883877424523
2	534	106.092686732142	1.23001098632813	1.2298583984375	4.74822998046875E-06	5.839650384587E-06	259014.078125	0.000134362999233417
2	535	106.193394731887	1.21994018554688	1.2200927734375	4.72900390625E-06	5.76982301936368E-06	258002.078125	0.000134840214741416
2	536	106.294102731633	1.20986938476563	1.20941162109375	4.7088623046875E-06	5.69495250601904E-06	256837.34375	0.000135315451188944
2	537	106.394810731379	1.19979858398438	1.19964599609375	4.68841552734375E-06	5.62443892704323E-06	255874.5	0.000135788635816425
2	538	106.495518731125	1.18972778320313	1.1895751953125	4.66766357421875E-06	5.55253654965782E-06	254854.546875	0.000136259754071943
2	539	106.59622673087	1.17965698242188	1.17919921875	4.6466064453125E-06	5.47927447769325E-06	253776.453125	0.000136728762299754
2	540	106.696934730616	1.16958618164063	1.16943359375	4.6234130859375E-06	5.40677456228877E-06	252937.296875	0.000137195544084534
2	541	106.797642730362	1.15951538085938	1.15966796875	4.59808349609375E-06	5.3322496569308E-06	252206.828125	0.000137659881147556
2	542	106.898350730108	1.14944458007813	1.1492919921875	4.56756591796875E-06	5.24946653968072E-06	251620.25	0.000138121409690939
2	543	106.999058729853	1.13937377929688	1.138916015625	4.53125E-06	5.16071304446086E-06	251346.984375	0.000138579576741904
2	544	107.099766729599	1.12930297851563	1.129150390625	4.48577880859375E-06	5.06511878484162E-06	251717.796875	0.000139033611048944
2	545	107.200474729345	1.11923217773438	1.11907958984375	4.42962646484375E-06	4.95710446557496E-06	252635.21875	0.000139482537633739
2	546	107.301182729091	1.10916137695313	1.10931396484375	4.35882568359375E-06	4.83530629935558E-06	254498.359375	0.000139925075927749
2	547	107.401890728836	1.09909057617188	1.09893798828125	4.26605224609375E-06	4.68812686449382E-06	257600.6875	0.00014035937783774
2	548	107.502598728582	1.08901977539063	1.08856201171875	4.14398193359375E-06	4.5109809434507E-06	262685.0625	0.000140782853122801
2	549	107.603306728328	1.07894897460938	1.0784912109375	3.9813232421875E-06	4.29382180300308E-06	270887.65625	0.000141191994771361
2	550	107.704014728074	1.06887817382813	1.0687255859375	3.76495361328125E-06	4.02370233132388E-06	283861.5625	0.000141582044307142
2	551	107.804722727819	1.05880737304688	1.058349609375	3.4820556640625E-06	3.68523205906968E-06	303943.9375	0.000141946962685324
2	552	107.905430727565	1.04873657226563	1.048583984375	3.1243896484375E-06	3.2761849979579E-06	335612.4375	0.00014227963401936
2	553	108.006138727311	1.03866577148438	1.03851318359375	2.6922607421875E-06	2.79594837593322E-06	385740.1875	0.000142572520417161
2	554	108.106846727056	1.02859497070313	1.02813720703125	2.191162109375E-06	2.25281542043376E-06	469220.0625	0.00014281841868069
2	555	108.207554726802	1.01852416992188	1.0186767578125	1.641845703125E-06	1.67251005223079E-06	620446.125	0.000143011420732364
2	556	108.308262726548	1.00845336914063	1.00830078125	1.0711669921875E-06	1.08005849597248E-06	941310.5625	0.000143148034112528
2	557	108.408970726294	0.998382568359375	0.99853515625	5.169677734375E-07	5.16210491241509E-07	1931523.125	0.000143228011438623
2	558	108.509678726039	0.988311767578125	0.9881591796875	1.55639648437497E-08	1.53796744228885E-08	63490200	0.000143254816066474
2	559	108.610386725785	0.978240966796875	0.9783935546875	-3.95812988281249E-07	-3.87260854495253E-07	-2471858.25	0.000143235680297948
2	560	108.711094725531	0.968170166015625	0.9686279296875	-6.88781738281249E-07	-6.67173196688964E-07	-1406291.625	0.000143181066960096
2	561	108.811802725277	0.958099365234375	0.95794677734375	-8.50830078125001E-07	-8.15049929769884E-07	-1125896.75	0.00014310353435576
2	562	108.912510725022	0.948028564453125	0.948486328125	-8.9111328125E-07	-8.45208717237256E-07	-1064383.625	0.000143015815410763
2	563	109.013218724768	0.937957763671875	0.93780517578125	-8.3831787109375E-07	-7.86178816269967E-07	-1118674.875	0.000142928736750036
2	564	109.113926724514	0.927886962890625	0.927734375	-7.31201171875E-07	-6.78360436268122E-07	-1268781.25	0.000142849705298431
2	565	109.21463472426	0.917816162109375	0.91766357421875	-6.0302734375E-07	-5.53376196421596E-07	-1521761.125	0.000142782519105822
2	566	109.315342724005	0.907745361328125	0.908203125	-4.87060546875E-07	-4.4234991491976E-07	-1864661.625	0.00014272762928158
2	567	109.416050723751	0.897674560546875	0.8978271484375	-4.04968261718749E-07	-3.63591510676997E-07	-2217031	0.00014268270751927
2	568	109.516758723497	0.887603759765625	0.887451171875	-3.7109375E-07	-3.29327576764626E-07	-2391447.5	0.000142643635626882
2	569	109.617466723243	0.877532958984375	0.87738037109375	-3.9703369140625E-07	-3.48349573187079E-07	-2209838.5	0.000142604956636205
2	570	109.718174722988	0.867462158203125	0.867919921875	-4.833984375E-07	-4.19551128061357E-07	-1795454.625	0.00014256063150242
2	571	109.818882722734	0.857391357421875	0.85723876953125	-6.26525878906251E-07	-5.3708225777882E-07	-1368241.625	0.000142504737596028
2	572	109.91959072248	0.847320556640625	0.84747314453125	-8.06884765625E-07	-6.83813198065764E-07	-1050302.625	0.000142432560096495
2	573	110.020298722225	0.837249755859375	0.8380126953125	-1.00616455078125E-06	-8.4317866821948E-07	-832878.375	0.000142341261380352
2	574	110.121006721971	0.827178955078125	0.82763671875	-1.1962890625E-06	-9.90092758001992E-07	-691836.75	0.000142230361234397
2	575	110.221714721717	0.817108154296875	0.81756591796875	-1.353759765625E-06	-1.10678786313656E-06	-603922.4375	0.000142101955134422
2	576	110.322422721463	0.807037353515625	0.80780029296875	-1.46026611328125E-06	-1.17960337320255E-06	-553187.0625	0.000141960263135843
2	577	110.423130721208	0.796966552734375	0.797119140625	-1.5106201171875E-06	-1.20414415505365E-06	-527676.75	0.000141810669447295
2	578	110.523838720954	0.786895751953125	0.78704833984375	-1.5081787109375E-06	-1.18700950224593E-06	-521853.5	0.00014165866014082
2	579	110.6245467207	0.776824951171875	0.77728271484375	-1.46881103515625E-06	-1.14168142317794E-06	-529191.8125	0.000141508746310137
2	580	110.725254720446	0.766754150390625	0.76690673828125	-1.409912109375E-06	-1.08127107978362E-06	-543939.375	0.000141363794682547
2	581	110.825962720191	0.756683349609375	0.7568359375	-1.3494873046875E-06	-1.02134049484448E-06	-560832.1875	0.000141224852995947
2	582	110.926670719937	0.746612548828125	0.746551513671875	-1.30096435546875E-06	-9.71236886471161E-07	-573844.75	0.000141091382829472
2	583	111.027378719683	0.736541748046875	0.73638916015625	-1.27777099609375E-06	-9.40936672577664E-07	-576307.625	0.00014096153608989
2	584	111.128086719429	0.726470947265625	0.72637939453125	-1.28875732421875E-06	-9.36126753003919E-07	-563627.75	0.000140832300530747
2	585	111.228794719174	0.716400146484375	0.71630859375	-1.341552734375E-06	-9.60965735430364E-07	-533940	0.000140699863550253
2	586	111.32950271892	0.706329345703125	0.706298828125	-1.4385986328125E-06	-1.01608054592361E-06	-490963.09375	0.000140559859573841
2	587	111.430210718666	0.696258544921875	0.696197509765625	-1.583251953125E-06	-1.1022560784113E-06	-439726.3125	0.000140407704748213
2	588	111.530918718411	0.686187744140625	0.686126708984375	-1.76513671875E-06	-1.21110736017727E-06	-388710.25	0.000140239091706462
2	589	111.631626718157	0.676116943359375	0.676055908203125	-1.9720458984375E-06	-1.33321316297952E-06	-342819.59375	0.000140050920890644
2	590	111.732334717903	0.666046142578125	0.665985107421875	-2.1807861328125E-06	-1.45237106607965E-06	-305387.625	0.000139841809868813
2	591	111.833042717649	0.655975341796875	0.65594482421875	-2.364501953125E-06	-1.55098268805887E-06	-277413.53125	0.000139612937346101
2	592	111.933750717394	0.645904541015625	0.6458740234375	-2.49908447265625E-06	-1.61409366228327E-06	-258444.265625	0.000139368028612807
2	593	112.03445871714	0.635833740234375	0.635833740234375	-2.5714111328125E-06	-1.63498987149069E-06	-247270.375	0.000139112715260126
2	594	112.135166716886	0.625762939453125	0.62567138671875	-2.57965087890625E-06	-1.61401362674951E-06	-242541.125	0.00013885332737118
2	595	112.235874716632	0.615692138671875	0.61572265625	-2.53265380859375E-06	-1.55941233970225E-06	-243113.640625	0.00013859590399079
2	596	112.336582716377	0.605621337890625	0.60565185546875	-2.44659423828125E-06	-1.48178435210866E-06	-247548.96875	0.000138345189043321
2	597	112.437290716123	0.595550537109375	0.59552001953125	-2.337646484375E-06	-1.39211533678463E-06	-254751.953125	0.000138104282086715
2	598	112.537998715869	0.585479736328125	0.585540771484375	-2.21893310546875E-06	-1.29927582293021E-06	-263883.9375	0.000137874842039309
2	599	112.638706715615	0.575408935546875	0.57537841796875	-2.09716796875E-06	-1.20666516068013E-06	-274359.71875	0.000137657509185374
2	600	112.73941471536	0.565338134765625	0.56536865234375	-1.97967529296875E-06	-1.11924634893512E-06	-285586.5625	0.000137452210765332
2	601	112.840122715106	0.555267333984375	0.555267333984375	-1.86737060546875E-06	-1.03688989838702E-06	-297352.53125	0.000137258510221727
2	602	112.940830714852	0.545196533203125	0.545196533203125	-1.76300048828125E-06	-9.61181740422035E-07	-309243.5625	0.000137075694510713
2	603	113.041538714598	0.535125732421875	0.53509521484375	-1.6680908203125E-06	-8.92587422640645E-07	-320783.03125	0.000136902934173122
2	604	113.142246714343	0.525054931640625	0.525054931640625	-1.58294677734375E-06	-8.31134002510225E-07	-331694.625	0.000136739225126803
2	605	113.242954714089	0.514984130859375	0.5150146484375	-1.50543212890625E-06	-7.75319620061055E-07	-342104.1875	0.000136583708808757
2	606	113.343662713835	0.504913330078125	0.5048828125	-1.436767578125E-06	-7.25399218026723E-07	-351401.875	0.000136435570311733
2	607	113.44437071358	0.494842529296875	0.494720458984375	-1.3739013671875E-06	-6.79697109262634E-07	-360084.40625	0.000136294038384221
2	608	113.545078713326	0.484771728515625	0.48480224609375	-1.3165283203125E-06	-6.38255869489512E-07	-368242.9375	0.000136158560053445
2	609	113.645786713072	0.474700927734375	0.474761962890625	-1.2640380859375E-06	-6.00117175508785E-07	-375591.53125	0.000136028626002371
2	610	113.746494712818	0.464630126953125	0.464569091796875	-1.2158203125E-06	-5.6483253274564E-07	-382103.4375	0.000135903756017797
2	611	113.847202712563	0.454559326171875	0.45458984375	-1.173095703125E-06	-5.33277386693953E-07	-387513	0.000135783455334604
2	612	113.947910712309	0.444488525390625	0.444488525390625	-1.13433837890625E-06	-5.04200386330922E-07	-391848.25	0.000135667272843421
2	613	114.048618712055	0.434417724609375	0.434417724609375	-1.10076904296875E-06	-4.781936127074E-07	-394649.28125	0.000135554728331044
2	614	114.149326711801	0.424346923828125	0.424407958984375	-1.0693359375E-06	-4.53834672953235E-07	-396889.28125	0.000135445443447679
2	615	114.250034711546	0.414276123046875	0.41424560546875	-1.0400390625E-06	-4.30831590847447E-07	-398298.125	0.000135339229018427
2	616	114.350742711292	0.404205322265625	0.404266357421875	-1.0125732421875E-06	-4.09349269148152E-07	-399246.5625	0.000135235881316476
2	617	114.451450711038	0.394134521484375	0.394134521484375	-9.869384765625E-07	-3.88986507005029E-07	-399350.6875	0.00013513519661501
2	618	114.552158710784	0.384063720703125	0.384033203125	-9.63134765625E-07	-3.69875721162316E-07	-398732.5625	0.000135037000291049
2	619	114.652866710529	0.373992919921875	0.374053955078125	-9.4146728515625E-07	-3.52159560179643E-07	-397309.5625	0.000134941088617779
2	620	114.753574710275	0.363922119140625	0.36395263671875	-9.2132568359375E-07	-3.35318901534265E-07	-395031.5	0.000134847301524132
2	621	114.854282710021	0.353851318359375	0.3538818359375	-9.0301513671875E-07	-3.19560655270834E-07	-391889.15625	0.000134755435283296
2	622	114.954990709767	0.343780517578125	0.34375	-8.85009765625E-07	-3.04222112390562E-07	-388413.8125	0.000134665402583778
2	623	115.055698709512	0.333709716796875	0.333709716796875	-8.67309570312499E-07	-2.89429635813576E-07	-384764.25	0.000134577159769833
2	624	115.156406709258	0.323638916015625	0.32373046875	-8.489990234375E-07	-2.74846826187058E-07	-381308.4375	0.000134490735945292
2	625	115.257114709004	0.313568115234375	0.313568115234375	-8.32214355468749E-07	-2.60955886233205E-07	-376787.6875	0.000134406087454408
2	626	115.357822708749	0.303497314453125	0.30352783203125	-8.160400390625E-07	-2.47690849164428E-07	-371952.125	0.000134323083329946
2	627	115.458530708495	0.293426513671875	0.293426513671875	-8.0169677734375E-07	-2.35239099311002E-07	-366006.84375	0.000134241621708497
2	628	115.559238708241	0.283355712890625	0.283355712890625	-7.8765869140625E-07	-2.23187583969775E-07	-359744.28125	0.000134161600726657
2	629	115.659946707987	0.273284912109375	0.273345947265625	-7.76062011718751E-07	-2.12133400623316E-07	-352221.78125	0.000134082860313356
2	630	115.760654707732	0.263214111328125	0.26324462890625	-7.6507568359375E-07	-2.01402059474276E-07	-344076.59375	0.000134005254949443
2	631	115.861362707478	0.253143310546875	0.253143310546875	-7.54699707031251E-07	-1.91047178077497E-07	-335422.59375	0.000133928726427257
2	632	115.962070707224	0.243072509765625	0.2430419921875	-7.45239257812499E-07	-1.81124420350898E-07	-326126.15625	0.000133853201987222
2	633	116.06277870697	0.233001708984375	0.2330322265625	-7.366943359375E-07	-1.71673505633407E-07	-316321.46875	0.000133778579765931
2	634	116.163486706715	0.222930908203125	0.22296142578125	-7.29980468749999E-07	-1.62757487487397E-07	-305434.78125	0.000133704728796147
2	635	116.264194706461	0.212860107421875	0.212921142578125	-7.25708007812501E-07	-1.54518573936002E-07	-293397.8125	0.000133631430799142
2	636	116.364902706207	0.202789306640625	0.202789306640625	-7.22656250000001E-07	-1.46546952350946E-07	-280616.5625	0.000133558496600017
2	637	116.465610705953	0.192718505859375	0.1927490234375	-7.21435546875E-07	-1.39055998715776E-07	-267174.28125	0.000133485780679621
2	638	116.566318705698	0.182647705078125	0.1826171875	-7.21435546875E-07	-1.31746531906174E-07	-253130.296875	0.000133413122966886
2	639	116.667026705444	0.172576904296875	0.172576904296875	-7.2296142578125E-07	-1.24766444287161E-07	-238708.3125	0.000133340392494574
2	640	116.76773470519	0.162506103515625	0.16253662109375	-7.26318359375E-07	-1.18053328890255E-07	-223781.53125	0.000133267414639704
2	641	116.868442704936	0.152435302734375	0.152496337890625	-7.3211669921875E-07	-1.11645114486691E-07	-208295.125	0.000133193985675462
2	642	116.969150704681	0.142364501953125	0.1424560546875	-7.415771484375E-07	-1.05642151027041E-07	-192098.765625	0.000133119770907797
2	643	117.069858704427	0.132293701171875	0.13238525390625	-7.56225585937501E-07	-1.00113112466715E-07	-175060.53125	0.000133044348331168
2	644	117.170566704173	0.122222900390625	0.122314453125	-7.763671875E-07	-9.49609244571548E-08	-157547.171875	0.000132967179524712
2	645	117.271274703918	0.112152099609375	0.1121826171875	-8.03527832031251E-07	-9.01418530929732E-08	-139612.609375	0.000132887624204159
2	646	117.371982703664	0.102081298828125	0.10211181640625	-8.38623046875001E-07	-8.56333173260282E-08	-121761.2890625	0.000132804940221831
2	647	117.47269070341	0.092010498046875	0.092132568359375	-8.85009765625E-07	-8.15382179553126E-08	-104103.453125	0.000132718152599409
2	648	117.573398703156	0.081939697265625	0.08197021484375	-9.45434570312501E-07	-7.74974679984552E-08	-86701.1015625	0.000132625980768353
2	649	117.674106702901	0.071868896484375	0.0718994140625	-1.02447509765625E-06	-7.36591587724433E-08	-70181.7109375	0.000132526780362241
2	650	117.774814702647	0.061798095703125	0.06182861328125	-1.126708984375E-06	-6.96628532637078E-08	-54875.40625	0.000132418455905281
2	651	117.875522702393	0.051727294921875	0.051788330078125	-1.25579833984375E-06	-6.5035699492455E-08	-41239.3671875	0.000132298489916138
2	652	117.976230702139	0.041656494140625	0.0417327880859375	-1.4141845703125E-06	-5.90178643733452E-08	-29510.142578125	0.000132164044771343
2	653	118.076938701884	0.031585693359375	0.031689453125	-1.59942626953125E-06	-5.06849424652955E-08	-19813.013671875	0.000132012297399342
2	654	118.17764670163	0.021514892578125	0.02166748046875	-1.80084228515625E-06	-3.90197136823645E-08	-12031.859375	0.000131841079564765
2	655	118.278354701376	0.011444091796875	0.011566162109375	-2.00408935546875E-06	-2.31796217775582E-08	-5771.28076171875	0.000131649489048868
2	656	118.379062701122	0.001373291015625	0.00146484375	-2.18963623046875E-06	-3.20747495230478E-09	-668.989562988281	0.00013143832620699
2	657	118.479770700867	-0.008697509765625	-0.00859375	-2.33978271484375E-06	2.01075085470848E-08	3672.88403320313	0.0001312102394877
2	658	118.580478700613	-0.018768310546875	-0.01865234375	-2.442626953125E-06	4.55607178651007E-08	7636.18212890625	0.000130969434394501
2	659	118.681186700359	-0.028839111328125	-0.0286773681640625	-2.49542236328125E-06	7.15621411018219E-08	11491.990234375	0.000130720785818994
2	660	118.781894700105	-0.038909912109375	-0.038775634765625	-2.503662109375E-06	9.70810845046799E-08	15487.5673828125	0.000130469052237459
2	661	118.88260269985	-0.048980712890625	-0.0488525390625	-2.47802734375E-06	1.21057922797263E-07	19714.287109375	0.000130218206322752
2	662	118.983310699596	-0.059051513671875	-0.058990478515625	-2.4298095703125E-06	1.43335626034968E-07	24277.8203125	0.000129971085698344
2	663	119.084018699342	-0.069122314453125	-0.06903076171875	-2.3699951171875E-06	1.63602550173891E-07	29126.96484375	0.000129729392938316
2	664	119.184726699087	-0.079193115234375	-0.07916259765625	-2.3065185546875E-06	1.82590000008531E-07	34321.25	0.00012949391384609
2	665	119.285434698833	-0.089263916015625	-0.0892333984375	-2.244873046875E-06	2.00317643361814E-07	39749.86328125	0.000129264735733159
2	666	119.386142698579	-0.099334716796875	-0.0992431640625	-2.1881103515625E-06	2.17154990878043E-07	45355.6484375	0.000129041509353556
2	667	119.486850698325	-0.109405517578125	-0.109344482421875	-2.13623046875E-06	2.33585012665571E-07	51185.71484375	0.000128823769045994
2	668	119.58755869807	-0.119476318359375	-0.119354248046875	-2.08984375E-06	2.49431735710459E-07	57111.56640625	0.000128610961837694
2	669	119.688266697816	-0.129547119140625	-0.1295166015625	-2.0477294921875E-06	2.6521493623477E-07	63248.88671875	0.00012840262206737
2	670	119.788974697562	-0.139617919921875	-0.139495849609375	-2.00958251953125E-06	2.80328407598063E-07	69415.34375	0.000128198313177563
2	671	119.889682697308	-0.149688720703125	-0.149505615234375	-1.9769287109375E-06	2.9556193226199E-07	75625.1953125	0.000127997584058903
2	672	119.990390697053	-0.159759521484375	-0.159637451171875	-1.94915771484375E-06	3.11158572685599E-07	81900.7421875	0.000127799881738611
2	673	120.091098696799	-0.169830322265625	-0.169708251953125	-1.92657470703125E-06	3.26955614582403E-07	88088.0703125	0.000127604726003483
2	674	120.191806696545	-0.179901123046875	-0.1796875	-1.91009521484375E-06	3.43220222021046E-07	94072.5390625	0.000127411534776911
2	675	120.292514696291	-0.189971923828125	-0.189849853515625	-1.8975830078125E-06	3.60255853593117E-07	100048.25	0.000127219798741862
2	676	120.393222696036	-0.200042724609375	-0.19989013671875	-1.89117431640625E-06	3.78027095848665E-07	105696.3046875	0.000127029023133218
2	677	120.493930695782	-0.189971923828125	-0.189727783203125	-1.65924072265625E-06	3.14804054823981E-07	114346.15625	0.000126850252854638
