Potential - Start -0.2 V, Upper Vertex 1.5 V, Lower Vertex -0.2 V, Stop -0.19 V; Scan - # end cross 5, Rate 0.1 Vps, Step 0.01 V 
Scan	Index	Time (s)	Potential applied (V)	WE(1).Potential (V)	WE(1).Current (A)	WE(1).Power (W)	WE(1).Resistance (Ω)	WE(1).Charge (C)
1	1	66.1945728328748	-0.189971923828125	-0.189849853515625	-1.89819335937499E-07	3.6037171469161E-08	1000160.8125	0
1	2	66.2952808326205	-0.179901123046875	-0.179779052734375	-1.56249999999999E-07	2.80904757232747E-08	1150586	-1.74259753293882E-08
1	3	66.3959888323662	-0.169830322265625	-0.169677734375	-1.2969970703125E-07	2.20071516565667E-08	1308235.375	-3.18246868857841E-08
1	4	66.496696832112	-0.159759521484375	-0.159637451171875	-1.068115234375E-07	1.70511196273537E-08	1494571.5	-4.37339728875941E-08
1	5	66.5974048318577	-0.149688720703125	-0.149627685546875	-8.60595703124994E-08	1.28768933294054E-08	1738652.625	-5.34458024503692E-08
1	6	66.6981128316035	-0.139617919921875	-0.139556884765625	-6.65283203125006E-08	9.28448429249329E-09	2097706.5	-6.11292136909469E-08
1	7	66.7988208313492	-0.129547119140625	-0.12939453125	-4.76074218749997E-08	6.16013995369258E-09	2717948.75	-6.68764030820057E-08
1	8	66.8995288310949	-0.119476318359375	-0.119384765625	-2.83813476562506E-08	3.38830052903916E-09	4206451.5	-7.07027396629201E-08
1	9	67.0002368308407	-0.109405517578125	-0.109344482421875	-7.62939453125E-09	8.34232127822077E-10	14332001	-7.25160234082978E-08
1	10	67.1009448305864	-0.099334716796875	-0.099273681640625	1.55639648437497E-08	-1.54509205430031E-09	-6378431.5	-7.21164923334072E-08
1	11	67.2016528303321	-0.089263916015625	-0.089202880859375	4.30297851562497E-08	-3.8383807243747E-09	-2073049.75	-6.91660630991464E-08
1	12	67.3023608300779	-0.079193115234375	-0.07916259765625	7.65991210937497E-08	-6.0637854737422E-09	-1033466.125	-6.31422665264836E-08
1	13	67.4030688298236	-0.069122314453125	-0.06903076171875	1.202392578125E-07	-8.30020674413845E-09	-574111.6875	-5.32306678735495E-08
1	14	67.5037768295693	-0.059051513671875	-0.058990478515625	1.77612304687499E-07	-1.04774349196646E-08	-332130.59375	-3.82326490466767E-08
1	15	67.6044848293151	-0.048980712890625	-0.0488616943359375	2.54211425781251E-07	-1.2421200068502E-08	-192208.890625	-1.64885971543072E-08
1	16	67.7051928290608	-0.038909912109375	-0.038763427734375	3.558349609375E-07	-1.37933815480551E-08	-108936.5390625	1.42296761040939E-08
1	17	67.8059008288066	-0.028839111328125	-0.0287261962890625	4.8797607421875E-07	-1.40176963370209E-08	-58868.0390625	5.67189353262165E-08
1	18	67.9066088285523	-0.018768310546875	-0.0186614990234375	6.536865234375E-07	-1.21987708823212E-08	-28548.0859375	1.14206216039747E-07
1	19	68.007316828298	-0.008697509765625	-0.00855712890625	8.514404296875E-07	-7.28588522846962E-09	-10050.1796875	1.89995375876606E-07
1	20	68.1080248280438	0.001373291015625	0.0014801025390625	1.0748291015625E-06	1.5908573347545E-09	1377.05847167969	2.86990740505644E-07
1	21	68.2087328277895	0.011444091796875	0.0115142822265625	1.30645751953125E-06	1.50429197987023E-08	8813.361328125	4.06898067240036E-07
1	22	68.3094408275352	0.021514892578125	0.0215911865234375	1.52557373046875E-06	3.29389457931484E-08	14152.8310546875	5.49502146895975E-07
1	23	68.410148827281	0.031585693359375	0.0316741943359375	1.7095947265625E-06	5.41500355666358E-08	18527.3125	7.12405835656682E-07
1	24	68.5108568270267	0.041656494140625	0.0417694091796875	1.8426513671875E-06	7.69664509903123E-08	22668.1015625	8.91275647063594E-07
1	25	68.6115648267725	0.051727294921875	0.051788330078125	1.91741943359375E-06	9.92999531490568E-08	27009.390625	1.08061021819594E-06
1	26	68.7122728265182	0.061798095703125	0.06182861328125	1.9384765625E-06	1.19853311275619E-07	31895.466796875	1.27477005662513E-06
1	27	68.8129808262639	0.071868896484375	0.071929931640625	1.917724609375E-06	1.3794179665183E-07	37507.95703125	1.46894512909057E-06
1	28	68.9136888260097	0.081939697265625	0.08203125	1.87042236328125E-06	1.53433077798582E-07	43857.07421875	1.65969356658024E-06
1	29	69.0143968257554	0.092010498046875	0.09197998046875	1.807861328125E-06	1.66287051683867E-07	50877.78515625	1.84490977517271E-06
1	30	69.1151048255011	0.102081298828125	0.10211181640625	1.73980712890625E-06	1.77654868593891E-07	58691.45703125	2.02354908651614E-06
1	31	69.2158128252469	0.112152099609375	0.1121826171875	1.67144775390625E-06	1.87507382065633E-07	67117.03125	2.19531943912443E-06
1	32	69.3165208249926	0.122222900390625	0.122222900390625	1.607666015625E-06	1.96493587623081E-07	76025.0625	2.36043592849455E-06
1	33	69.4172288247383	0.132293701171875	0.132354736328125	1.5478515625E-06	2.04865486352901E-07	85508.6796875	2.51932874562044E-06
1	34	69.5179368244841	0.142364501953125	0.1424560546875	1.494140625E-06	2.12849386116432E-07	95343.1328125	2.67250538854569E-06
1	35	69.6186448242298	0.152435302734375	0.15252685546875	1.4459228515625E-06	2.20542062834284E-07	105487.546875	2.82054929812148E-06
1	36	69.7193528239756	0.162506103515625	0.162506103515625	1.4031982421875E-06	2.28028270043978E-07	115811.2265625	2.96401390187384E-06
1	37	69.8200608237213	0.172576904296875	0.17254638671875	1.36505126953125E-06	2.35534670878224E-07	126402.859375	3.10340624309902E-06
1	38	69.920768823467	0.182647705078125	0.182647705078125	1.33148193359375E-06	2.43192118887237E-07	137176.25	3.23918766298448E-06
1	39	70.0214768232128	0.192718505859375	0.192718505859375	1.3006591796875E-06	2.50661088330162E-07	148169.875	3.37172650688444E-06
1	40	70.1221848229585	0.202789306640625	0.20281982421875	1.27349853515625E-06	2.58290725696497E-07	159261.9375	3.50134564541804E-06
1	41	70.2228928227042	0.212860107421875	0.21282958984375	1.24847412109375E-06	2.65712230884674E-07	170471.78125	3.62833702638454E-06
1	42	70.32360082245	0.222930908203125	0.2230224609375	1.22650146484375E-06	2.73537381190181E-07	181836.28125	3.75296190213703E-06
1	43	70.4243088221957	0.233001708984375	0.2330322265625	1.20635986328125E-06	2.81120719591854E-07	193169.75	3.87546606361866E-06
1	44	70.5250168219414	0.243072509765625	0.243072509765625	1.1883544921875E-06	2.88856284669237E-07	204545.46875	3.99604959966382E-06
1	45	70.6257248216872	0.253143310546875	0.253173828125	1.17218017578125E-06	2.96765335860982E-07	215985.421875	4.11491191698587E-06
1	46	70.7264328214329	0.263214111328125	0.26324462890625	1.15753173828125E-06	3.04714006915674E-07	227418.921875	4.23222218159935E-06
1	47	70.8271408211787	0.273284912109375	0.27325439453125	1.143798828125E-06	3.12548053216233E-07	238900.75	4.34810363003635E-06
1	48	70.9278488209244	0.283355712890625	0.2833251953125	1.13128662109375E-06	3.20521991170608E-07	250445.109375	4.46266312792432E-06
1	49	71.0285568206701	0.293426513671875	0.29339599609375	1.12030029296875E-06	3.28691612594412E-07	261890.515625	4.57603937320528E-06
1	50	71.1292648204159	0.303497314453125	0.303497314453125	1.10992431640625E-06	3.3685901712488E-07	273439.65625	4.68834014100139E-06
1	51	71.2299728201616	0.313568115234375	0.3135986328125	1.10107421875E-06	3.45295347869978E-07	284811.53125	4.79967275168747E-06
1	52	71.3306808199073	0.323638916015625	0.32366943359375	1.0931396484375E-06	3.53815892140119E-07	296091.5625	4.9101604417956E-06
1	53	71.4313888196531	0.333709716796875	0.333709716796875	1.0858154296875E-06	3.62347151394715E-07	307335.59375	5.01987960888073E-06
1	54	71.5320968193988	0.343780517578125	0.343780517578125	1.0791015625E-06	3.70974078123254E-07	318580.34375	5.12889164383523E-06
1	55	71.6328048191446	0.353851318359375	0.353851318359375	1.0736083984375E-06	3.79897727498246E-07	329590.6875	5.23728931511869E-06
1	56	71.7335128188903	0.363922119140625	0.36395263671875	1.06903076171875E-06	3.89076575402214E-07	340451.03125	5.34517948835855E-06
1	57	71.834220818636	0.373992919921875	0.374053955078125	1.06475830078125E-06	3.98277052227058E-07	351304.09375	5.4526244639419E-06
1	58	71.9349288183818	0.384063720703125	0.384063720703125	1.06170654296875E-06	4.07762939858003E-07	361741.90625	5.55970063942368E-06
1	59	72.0356368181275	0.394134521484375	0.394134521484375	1.058349609375E-06	4.17132099528317E-07	372404.875	5.66645394428633E-06
1	60	72.1363448178732	0.404205322265625	0.404205322265625	1.055908203125E-06	4.26803723030389E-07	382803.46875	5.77291530134971E-06
1	61	72.237052817619	0.414276123046875	0.414306640625	1.05438232421875E-06	4.36837609640861E-07	392937.78125	5.8791765695787E-06
1	62	72.3377608173647	0.424346923828125	0.42437744140625	1.0528564453125E-06	4.46808513743235E-07	403072.46875	5.98528458795045E-06
1	63	72.4384688171104	0.434417724609375	0.434417724609375	1.0516357421875E-06	4.56849221563971E-07	413087.625	6.09125436312752E-06
1	64	72.5391768168562	0.444488525390625	0.444427490234375	1.0504150390625E-06	4.66833313339521E-07	423097.0625	6.1971009017725E-06
1	65	72.6398848166019	0.454559326171875	0.454559326171875	1.04949951171875E-06	4.77059757031384E-07	433120.09375	6.30284012004267E-06
1	66	72.7405928163477	0.464630126953125	0.464630126953125	1.048583984375E-06	4.87203692500771E-07	443102.46875	6.40848702460062E-06
1	67	72.8413008160934	0.474700927734375	0.474639892578125	1.04827880859375E-06	4.97554935918743E-07	452780.1875	6.51407208351884E-06
1	68	72.9420088158391	0.484771728515625	0.484771728515625	1.0491943359375E-06	5.08619734773674E-07	462041.875	6.61968852000427E-06
1	69	73.0427168155849	0.494842529296875	0.494842529296875	1.0498046875E-06	5.19487969086185E-07	471366.3125	6.72538135404466E-06
1	70	73.1434248153306	0.504913330078125	0.504913330078125	1.051025390625E-06	5.30676743437652E-07	480400.6875	6.83116650179727E-06
1	71	73.2441328150763	0.514984130859375	0.515045166015625	1.05194091796875E-06	5.41797078312811E-07	489614.15625	6.93705942467204E-06
1	72	73.3448408148221	0.525054931640625	0.525054931640625	1.05377197265625E-06	5.5328814596578E-07	498262.40625	7.04309059074149E-06
1	73	73.4455488145678	0.535125732421875	0.535064697265625	1.05560302734375E-06	5.64815877623914E-07	506880.625	7.14930592948804E-06
1	74	73.5462568143136	0.545196533203125	0.545166015625	1.0577392578125E-06	5.76643515159958E-07	515406.8125	7.25572135706898E-06
1	75	73.6469648140593	0.555267333984375	0.55523681640625	1.0601806640625E-06	5.88651346333791E-07	523719.03125	7.36236688680947E-06
1	76	73.747672813805	0.565338134765625	0.565216064453125	1.06292724609375E-06	6.00783550908091E-07	531754.25	7.46927389627672E-06
1	77	73.8483808135508	0.575408935546875	0.575408935546875	1.06475830078125E-06	6.12671442468127E-07	540412.75	7.57641146265087E-06
1	78	73.9490888132965	0.585479736328125	0.585418701171875	1.0675048828125E-06	6.24937285920169E-07	548399.125	7.68377958593192E-06
1	79	74.0497968130422	0.595550537109375	0.595550537109375	1.070556640625E-06	6.37570622075145E-07	556299.875	7.79143920226488E-06
1	80	74.150504812788	0.605621337890625	0.605560302734375	1.07330322265625E-06	6.49949811304396E-07	564202.4375	7.89939076639712E-06
1	81	74.2512128125337	0.615692138671875	0.615692138671875	1.07574462890625E-06	6.62327522604755E-07	572340.4375	8.00760426500347E-06
1	82	74.3519208122794	0.625762939453125	0.62567138671875	1.07879638671875E-06	6.74972000069829E-07	579971.75	8.11609424999915E-06
1	83	74.4526288120252	0.635833740234375	0.6357421875	1.0821533203125E-06	6.87970498347568E-07	587478.875	8.22490619611926E-06
1	84	74.5533368117709	0.645904541015625	0.645843505859375	1.08489990234375E-06	7.00675514053728E-07	595302.4375	8.33402646094328E-06
1	85	74.6540448115167	0.655975341796875	0.656005859375	1.08734130859375E-06	7.13302256372117E-07	603311.8125	8.4434077507467E-06
1	86	74.7547528112624	0.666046142578125	0.666015625	1.09039306640625E-06	7.26218843283277E-07	610803.25	8.55306461744476E-06
1	87	74.8554608110081	0.676116943359375	0.67608642578125	1.09283447265625E-06	7.38850474135688E-07	618654.0625	8.66299888002686E-06
1	88	74.9561688107539	0.686187744140625	0.686126708984375	1.09527587890625E-06	7.5149802114538E-07	626441.9375	8.77317961567314E-06
1	89	75.0568768104996	0.696258544921875	0.6961669921875	1.09771728515625E-06	7.64194510338712E-07	634195.1875	8.8836050053942E-06
1	90	75.1575848102453	0.706329345703125	0.706268310546875	1.10076904296875E-06	7.77438287968835E-07	641613.5	8.9943077909993E-06
1	91	75.2582928099911	0.716400146484375	0.716339111328125	1.1029052734375E-06	7.90054173194221E-07	649501.9375	9.10527160158381E-06
1	92	75.3590008097368	0.726470947265625	0.72637939453125	1.10626220703125E-06	8.03566024387692E-07	656606.9375	9.21651189855766E-06
1	93	75.4597088094825	0.736541748046875	0.736419677734375	1.109619140625E-06	8.1714534871935E-07	663668.875	9.32809052756056E-06
1	94	75.5604168092283	0.746612548828125	0.746551513671875	1.11328125E-06	8.3112178117517E-07	670586.625	9.44002295000246E-06
1	95	75.661124808974	0.756683349609375	0.75714111328125	1.1181640625E-06	8.46607974835933E-07	677128.8125	9.55238465394359E-06
1	96	75.7618328087198	0.766754150390625	0.7672119140625	1.12335205078125E-06	8.61849059674569E-07	682966.625	9.66525385592831E-06
1	97	75.8625408084655	0.776824951171875	0.77667236328125	1.129150390625E-06	8.76979925124033E-07	687837.8125	9.77867694018641E-06
1	98	75.9632488082112	0.786895751953125	0.78704833984375	1.136474609375E-06	8.94460413292109E-07	692534.9375	9.8927594081033E-06
1	99	76.063956807957	0.796966552734375	0.797119140625	1.1444091796875E-06	9.12230404992442E-07	696533.375	1.00076113085379E-05
1	100	76.1646648077027	0.807037353515625	0.8074951171875	1.15447998046875E-06	9.32236901007855E-07	699444.875	1.01233699751901E-05
1	101	76.2653728074484	0.817108154296875	0.81787109375	1.165771484375E-06	9.5345075123987E-07	701570.6875	1.02402036645799E-05
1	102	76.3660808071942	0.827178955078125	0.82733154296875	1.17767333984375E-06	9.74326326286246E-07	702513.625	1.03582051451667E-05
1	103	76.4667888069399	0.837249755859375	0.83770751953125	1.18988037109375E-06	9.967717460313E-07	704026.6875	1.04774208011804E-05
1	104	76.5674968066857	0.847320556640625	0.84716796875	1.20147705078125E-06	1.01785292372369E-06	705105.375	1.05978360807057E-05
1	105	76.6682048064314	0.857391357421875	0.8575439453125	1.212158203125E-06	1.03947888874245E-06	707452.1875	1.07193718577037E-05
1	106	76.7689128061771	0.867462158203125	0.8673095703125	1.2213134765625E-06	1.05925687421404E-06	710144.9375	1.08419071693788E-05
1	107	76.8696208059229	0.877532958984375	0.87738037109375	1.22833251953125E-06	1.07771484181285E-06	714285.75	1.09652564788121E-05
1	108	76.9703288056686	0.887603759765625	0.88775634765625	1.2347412109375E-06	1.09614927623625E-06	718981.75	1.10892815428087E-05
1	109	77.0710368054143	0.897674560546875	0.89752197265625	1.239013671875E-06	1.11204190034186E-06	724384.25	1.12138450276689E-05
1	110	77.1717448051601	0.907745361328125	0.908203125	1.24267578125E-06	1.12860197987175E-06	730844.875	1.13388086901978E-05
1	111	77.2724528049058	0.917816162109375	0.91796875	1.24603271484375E-06	1.14381907678762E-06	736713.25	1.1464125236671E-05
1	112	77.3731608046515	0.927886962890625	0.927734375	1.2493896484375E-06	1.15910165732203E-06	742550.125	1.15897792056785E-05
1	113	77.4738688043973	0.937957763671875	0.93841552734375	1.25244140625E-06	1.17531044452335E-06	749269	1.17157569547999E-05
1	114	77.574576804143	0.948028564453125	0.9478759765625	1.256103515625E-06	1.19063031434052E-06	754616.1875	1.18420721264556E-05
1	115	77.6752848038888	0.958099365234375	0.95855712890625	1.2591552734375E-06	1.20697222882882E-06	761270	1.19687247206457E-05
1	116	77.7759928036345	0.968170166015625	0.96771240234375	1.26373291015625E-06	1.22292999549245E-06	765757.0625	1.20957629405893E-05
1	117	77.8767008033802	0.978240966796875	0.97808837890625	1.26739501953125E-06	1.23962433917768E-06	771731.3125	1.22232149806223E-05
1	118	77.977408803126	0.988311767578125	0.98846435546875	1.27166748046875E-06	1.2569979617183E-06	777297.875	1.2351067198324E-05
1	119	78.0781168028717	0.998382568359375	0.99822998046875	1.27685546875E-06	1.27459531995555E-06	781787.8125	1.24793950817548E-05
1	120	78.1788248026174	1.00845336914063	1.00860595703125	1.28143310546875E-06	1.29246109281667E-06	787092.125	1.26082150018192E-05
1	121	78.2795328023632	1.01852416992188	1.01837158203125	1.28692626953125E-06	1.31056913232896E-06	791320.875	1.27375424199272E-05
1	122	78.3802408021089	1.02859497070313	1.02874755859375	1.292724609375E-06	1.32988725454197E-06	795797.9375	1.28674382722238E-05
1	123	78.4809488018547	1.03866577148438	1.038818359375	1.298828125E-06	1.34924653139024E-06	799812	1.29979334815289E-05
1	124	78.5816568016004	1.04873657226563	1.048583984375	1.30462646484375E-06	1.36801031658251E-06	803742.75	1.31290280478424E-05
1	125	78.6823648013461	1.05880737304688	1.05865478515625	1.31134033203125E-06	1.38825669182552E-06	807307.4375	1.32607519844896E-05
1	126	78.7830728010919	1.06887817382813	1.0693359375	1.3177490234375E-06	1.40911640755803E-06	811486.8125	1.3393137123785E-05
1	127	78.8837808008376	1.07894897460938	1.07879638671875	1.3250732421875E-06	1.42948420034372E-06	814141	1.35262134790537E-05
1	128	78.9844888005833	1.08901977539063	1.08917236328125	1.331787109375E-06	1.45054571021319E-06	817827.6875	1.36599974212004E-05
1	129	79.0851968003291	1.09909057617188	1.09893798828125	1.33880615234375E-06	1.47126490901428E-06	820834.3125	1.37944725793204E-05
1	130	79.1859048000748	1.10916137695313	1.1090087890625	1.346435546875E-06	1.49320885611814E-06	823662.75	1.39296853376436E-05
1	131	79.2866127998205	1.11923217773438	1.119384765625	1.3543701171875E-06	1.5160611610554E-06	826498.4375	1.4065681170905E-05
1	132	79.3873207995663	1.12930297851563	1.12823486328125	1.3629150390625E-06	1.5376881492557E-06	827810.125	1.42025073728291E-05
1	133	79.488028799312	1.13937377929688	1.13983154296875	1.37176513671875E-06	1.56358112235466E-06	830923.3125	1.43402094181511E-05
1	134	79.5887367990578	1.14944458007813	1.1492919921875	1.38092041015625E-06	1.58708076014591E-06	832265.25	1.44788182296907E-05
1	135	79.6894447988035	1.15951538085938	1.1590576171875	1.3909912109375E-06	1.61223897521268E-06	833260.1875	1.46183956530876E-05
1	136	79.7901527985492	1.16958618164063	1.16912841796875	1.4007568359375E-06	1.63766458172176E-06	834640.5625	1.47589707921725E-05
1	137	79.890860798295	1.17965698242188	1.17919921875	1.41143798828125E-06	1.66436655035795E-06	835459.4375	1.49005763887544E-05
1	138	79.9915687980407	1.18972778320313	1.1895751953125	1.4227294921875E-06	1.69244367498322E-06	836121.8125	1.50432879308937E-05
1	139	80.0922767977864	1.19979858398438	1.19964599609375	1.43402099609375E-06	1.72031752754265E-06	836561	1.51871363414102E-05
1	140	80.1929847975322	1.20986938476563	1.21063232421875	1.4459228515625E-06	1.75048091932695E-06	837273.125	1.53321525431238E-05
1	141	80.2936927972779	1.21994018554688	1.2200927734375	1.4581298828125E-06	1.77905371856468E-06	836751.8125	1.54783847392537E-05
1	142	80.3944007970236	1.23001098632813	1.23016357421875	1.47003173828125E-06	1.80837946572865E-06	836827.875	1.56258283823263E-05
1	143	80.4951087967694	1.24008178710938	1.24053955078125	1.483154296875E-06	1.83991153335228E-06	836419.75	1.57745325850556E-05
1	144	80.5958167965151	1.25015258789063	1.25	1.49566650390625E-06	1.86958300218976E-06	835747.875	1.59245282702614E-05
1	145	80.6965247962609	1.26022338867188	1.26007080078125	1.50909423828125E-06	1.90156549706444E-06	834984.875	1.60758299898589E-05
1	146	80.7972327960066	1.27029418945313	1.2701416015625	1.5234375E-06	1.93498135558912E-06	833734	1.62285305123078E-05
1	147	80.8979407957523	1.28036499023438	1.28021240234375	1.53778076171875E-06	1.96868586499477E-06	832506.5	1.63826753123431E-05
1	148	80.9986487954981	1.29043579101563	1.2908935546875	1.55242919921875E-06	2.00402064365335E-06	831531.375	1.653827894188E-05
1	149	81.0993567952438	1.30050659179688	1.3006591796875	1.56829833984375E-06	2.03982153834659E-06	829344.25	1.66954214364523E-05
1	150	81.2000647949895	1.31057739257813	1.31134033203125	1.5838623046875E-06	2.07698258236633E-06	827938.375	1.68541446328163E-05
1	151	81.3007727947353	1.32064819335938	1.3201904296875	1.60186767578125E-06	2.11477026823559E-06	824157	1.70145594893256E-05
1	152	81.401480794481	1.33071899414063	1.33087158203125	1.6204833984375E-06	2.15665522773634E-06	821280.625	1.71768169821007E-05
1	153	81.5021887942268	1.34078979492188	1.3409423828125	1.64031982421875E-06	2.199574282713E-06	817488.4375	1.73410116985906E-05
1	154	81.6028967939725	1.35086059570313	1.351318359375	1.661376953125E-06	2.24504924517532E-06	813372.5625	1.75072655110853E-05
1	155	81.7036047937182	1.36093139648438	1.361083984375	1.68487548828125E-06	2.2932570118428E-06	807824.6875	1.76757621375145E-05
1	156	81.804312793464	1.37100219726563	1.37054443359375	1.71051025390625E-06	2.34433036894188E-06	801248.875	1.7846734408522E-05
1	157	81.9050207932097	1.38107299804688	1.38153076171875	1.7388916015625E-06	2.40233225667907E-06	794489.3125	1.80204242496984E-05
1	158	82.0057287929554	1.39114379882813	1.39129638671875	1.7724609375E-06	2.46601848630235E-06	784951.8125	1.81972354766913E-05
1	159	82.1064367927012	1.40121459960938	1.40167236328125	1.810302734375E-06	2.53745133704797E-06	774275.125	1.8377642845735E-05
1	160	82.2071447924469	1.41128540039063	1.4117431640625	1.85516357421875E-06	2.61901436715561E-06	760980.4375	1.85622138815233E-05
1	161	82.3078527921926	1.42135620117188	1.42120361328125	1.9061279296875E-06	2.70899590759655E-06	745597.1875	1.87516088772099E-05
1	162	82.4085607919384	1.43142700195313	1.43157958984375	1.96563720703125E-06	2.81396614809637E-06	728303.0625	1.8946568161482E-05
1	163	82.5092687916841	1.44149780273438	1.441650390625	2.034912109375E-06	2.93363177661377E-06	708458.3125	1.91480121429777E-05
1	164	82.6099767914299	1.45156860351563	1.451416015625	2.1148681640625E-06	3.0695532586833E-06	686291.5	1.93569703696994E-05
1	165	82.7106847911756	1.46163940429688	1.46148681640625	2.2076416015625E-06	3.22643904837605E-06	662012.75	1.95746251847595E-05
1	166	82.8113927909213	1.47171020507813	1.47186279296875	2.3150634765625E-06	3.40745577886992E-06	635776.4375	1.9802360839094E-05
1	167	82.9121007906671	1.48178100585938	1.48193359375	2.43865966796875E-06	3.61393153980316E-06	607683.6875	2.00417307496537E-05
1	168	83.0128087904128	1.49185180664063	1.49169921875	2.58026123046875E-06	3.84897384719807E-06	578119.4375	2.02944538614247E-05
1	169	83.1135167901585	1.50192260742188	1.50177001953125	2.73468017578125E-06	4.10686061513843E-06	549157.5	2.05620817723684E-05
1	170	83.2142247899043	1.49185180664063	1.49169921875	2.35321044921875E-06	3.51028211298399E-06	633899.625	2.08182773349108E-05
1	171	83.31493278965	1.48178100585938	1.48162841796875	2.07000732421875E-06	3.06698143504036E-06	715760	2.1041003492428E-05
1	172	83.4156407893958	1.47171020507813	1.47186279296875	1.8463134765625E-06	2.71752014668891E-06	797190.0625	2.1238207409624E-05
1	173	83.5163487891415	1.46163940429688	1.4617919921875	1.663818359375E-06	2.43215640693961E-06	878576.6875	2.14149549719878E-05
1	174	83.6170567888872	1.45156860351563	1.45172119140625	1.51397705078125E-06	2.19787261812598E-06	958879.25	2.15749696508283E-05
1	175	83.717764788633	1.44149780273438	1.44195556640625	1.38885498046875E-06	2.00266708816343E-06	1038233.4375	2.17211400013184E-05
1	176	83.8184727883787	1.43142700195313	1.43218994140625	1.285400390625E-06	1.84093744337588E-06	1114197.625	2.18557997868629E-05
1	177	83.9191807881244	1.42135620117188	1.4208984375	1.1981201171875E-06	1.70240696206747E-06	1185939.875	2.19808534893673E-05
1	178	84.0198887878702	1.41128540039063	1.4111328125	1.12518310546875E-06	1.58778277636884E-06	1254136.125	2.20978417928563E-05
1	179	84.1205967876159	1.40121459960938	1.40106201171875	1.0638427734375E-06	1.49050970321696E-06	1316982.25	2.22080689127324E-05
1	180	84.2213047873616	1.39114379882813	1.39129638671875	1.011962890625E-06	1.40794020353496E-06	1374849.375	2.23125935008284E-05
1	181	84.3220127871074	1.38107299804688	1.38092041015625	9.6710205078125E-07	1.33549087877327E-06	1427895.375	2.24122468353016E-05
1	182	84.4227207868531	1.37100219726563	1.37054443359375	9.28649902343751E-07	1.27275586692122E-06	1475846.25	2.25077055802103E-05
1	183	84.5234287865989	1.36093139648438	1.36077880859375	8.95080566406251E-07	1.21800655961124E-06	1520286.5	2.25995372602483E-05
1	184	84.6241367863446	1.35086059570313	1.35040283203125	8.6639404296875E-07	1.1699809192578E-06	1558647.375	2.2688234821544E-05
1	185	84.7248447860903	1.34078979492188	1.34063720703125	8.404541015625E-07	1.12674399588286E-06	1595134.375	2.27741820708616E-05
1	186	84.8255527858361	1.33071899414063	1.33087158203125	8.18786621093751E-07	1.0896998219323E-06	1625419.375	2.28577318921452E-05
1	187	84.9262607855818	1.32064819335938	1.3201904296875	7.9833984375E-07	1.05396065919194E-06	1653669.75	2.29391607717844E-05
1	188	85.0269687853275	1.31057739257813	1.31072998046875	7.8094482421875E-07	1.02360775144916E-06	1678390.125	2.30186833505286E-05
1	189	85.1276767850733	1.30050659179688	1.3006591796875	7.65380859375001E-07	9.95499590317195E-07	1699362.125	2.30965470109368E-05
1	190	85.228384784819	1.29043579101563	1.29058837890625	7.5103759765625E-07	9.69280335993972E-07	1718407.125	2.31729045481188E-05
1	191	85.3290927845648	1.28036499023438	1.28082275390625	7.3822021484375E-07	9.45529222917685E-07	1735014.5	2.32478942052694E-05
1	192	85.4298007843105	1.27029418945313	1.2701416015625	7.26928710937499E-07	9.23302366118151E-07	1747271.25	2.33216705964878E-05
1	193	85.5305087840562	1.26022338867188	1.2603759765625	7.159423828125E-07	9.02356532606063E-07	1760443.375	2.33943246712442E-05
1	194	85.631216783802	1.25015258789063	1.25030517578125	7.0556640625E-07	8.82173310401413E-07	1772058.875	2.34659037232632E-05
1	195	85.7319247835477	1.24008178710938	1.23992919921875	6.9580078125E-07	8.627436614006E-07	1782017.625	2.35364677791949E-05
1	196	85.8326327832934	1.23001098632813	1.2298583984375	6.87255859375E-07	8.45227418722061E-07	1789520.375	2.36061114264885E-05
1	197	85.9333407830392	1.21994018554688	1.2200927734375	6.78405761718751E-07	8.27717940410366E-07	1798470.625	2.36748765019001E-05
1	198	86.0340487827849	1.20986938476563	1.209716796875	6.70166015625E-07	8.10711071608239E-07	1805100.25	2.37427830143133E-05
1	199	86.1347567825306	1.19979858398438	1.199951171875	6.6192626953125E-07	7.94279173987888E-07	1812817	2.38098600675585E-05
1	200	86.2354647822764	1.18972778320313	1.190185546875	6.5460205078125E-07	7.79097888425895E-07	1818181.875	2.38761513173813E-05
1	201	86.3361727820221	1.17965698242188	1.17919921875	6.4727783203125E-07	7.6326949738359E-07	1821782.125	2.39417076954851E-05
1	202	86.4368807817679	1.16958618164063	1.16943359375	6.396484375E-07	7.48026366181875E-07	1828244.375	2.40065091929864E-05
1	203	86.5375887815136	1.15951538085938	1.15966796875	6.329345703125E-07	7.33993886115059E-07	1832208.375	2.40705885516945E-05
1	204	86.6382967812593	1.14944458007813	1.1492919921875	6.2591552734375E-07	7.19359661616181E-07	1836177.5	2.41339766944293E-05
1	205	86.7390047810051	1.13937377929688	1.138916015625	6.18896484375001E-07	7.04871126799844E-07	1840236.75	2.41966572502861E-05
1	206	86.8397127807508	1.12930297851563	1.129150390625	6.1248779296875E-07	6.91590798851394E-07	1843547.625	2.42586629610742E-05
1	207	86.9404207804965	1.11923217773438	1.11968994140625	6.0577392578125E-07	6.78278922805475E-07	1848362.875	2.43200065597193E-05
1	208	87.0411287802423	1.10916137695313	1.1090087890625	5.9967041015625E-07	6.6503974949228E-07	1849364	2.43807062361157E-05
1	209	87.141836779988	1.09909057617188	1.0992431640625	5.9326171875E-07	6.52138851364725E-07	1852880.75	2.4440774723189E-05
1	210	87.2425447797337	1.08901977539063	1.08917236328125	5.865478515625E-07	6.38851702206011E-07	1856919.875	2.45001829171088E-05
1	211	87.3432527794795	1.07894897460938	1.0791015625	5.8013916015625E-07	6.26029077466228E-07	1860073.625	2.45589308178751E-05
1	212	87.4439607792252	1.06887817382813	1.0687255859375	5.7373046875E-07	6.13160409557167E-07	1862766	2.46170329774031E-05
1	213	87.544668778971	1.05880737304688	1.05865478515625	5.6793212890625E-07	6.01244039444282E-07	1864051.75	2.46745203185128E-05
1	214	87.6453767787167	1.04873657226563	1.04888916015625	5.615234375E-07	5.88975865412067E-07	1867934.75	2.47313928412041E-05
1	215	87.7460847784624	1.03866577148438	1.03851318359375	5.55419921875E-07	5.76810862185084E-07	1869780.375	2.47876341745723E-05
1	216	87.8467927782082	1.02859497070313	1.02813720703125	5.4931640625E-07	5.64772619782161E-07	1871666.75	2.48432625085115E-05
1	217	87.9475007779539	1.01852416992188	1.01806640625	5.4351806640625E-07	5.53337486053351E-07	1873105	2.48982905759476E-05
1	218	88.0482087776996	1.00845336914063	1.00830078125	5.3741455078125E-07	5.41875522230839E-07	1876206.625	2.49527201958699E-05
1	219	88.1489167774454	0.998382568359375	0.99822998046875	5.316162109375E-07	5.30675208665343E-07	1877726.75	2.50065513682785E-05
1	220	88.2496247771911	0.988311767578125	0.98876953125	5.25512695312499E-07	5.19610921401181E-07	1881533.125	2.50597804551944E-05
1	221	88.3503327769369	0.978240966796875	0.97808837890625	5.19409179687499E-07	5.08028108470171E-07	1883078.75	2.51123965426814E-05
1	222	88.4510407766826	0.968170166015625	0.968017578125	5.133056640625E-07	4.9688890157995E-07	1885850.125	2.516439781175E-05
1	223	88.5517487764283	0.958099365234375	0.95794677734375	5.07202148437499E-07	4.85872647004726E-07	1888688.5	2.52157860813895E-05
1	224	88.6524567761741	0.948028564453125	0.94818115234375	5.01403808593751E-07	4.75421643386653E-07	1891053	2.52665722655365E-05
1	225	88.7531647759198	0.937957763671875	0.93841552734375	4.94995117187499E-07	4.645110891488E-07	1895807.625	2.53167454502545E-05
1	226	88.8538727756655	0.927886962890625	0.927734375	4.8797607421875E-07	4.52712185960991E-07	1901188.25	2.53662419709144E-05
1	227	88.9545807754113	0.917816162109375	0.91827392578125	4.8065185546875E-07	4.41370076487146E-07	1910476.125	2.54150163527811E-05
1	228	89.055288775157	0.907745361328125	0.908203125	4.7332763671875E-07	4.29877616170415E-07	1918762.125	2.54630522249499E-05
1	229	89.1559967749027	0.897674560546875	0.89752197265625	4.64477539062499E-07	4.16878776832164E-07	1932326	2.55102750088554E-05
1	230	89.2567047746485	0.887603759765625	0.88775634765625	4.547119140625E-07	4.03673396931481E-07	1952349	2.55565591942286E-05
1	231	89.3574127743942	0.877532958984375	0.87738037109375	4.44641113281249E-07	3.90119367921216E-07	1973232.75	2.56018465734087E-05
1	232	89.45812077414	0.867462158203125	0.86761474609375	4.3304443359375E-07	3.75715728750947E-07	2003523.625	2.56460407399572E-05
1	233	89.5588287738857	0.857391357421875	0.8575439453125	4.21142578125E-07	3.61148266847522E-07	2036231.875	2.56890525633935E-05
1	234	89.6595367736314	0.847320556640625	0.84747314453125	4.09545898437499E-07	3.47079151197249E-07	2069299.625	2.5730880224728E-05
1	235	89.7602447733772	0.837249755859375	0.83740234375	3.98864746093749E-07	3.34010252345252E-07	2099464.5	2.577158738859E-05
1	236	89.8609527731229	0.827178955078125	0.82763671875	3.8909912109375E-07	3.22032718713672E-07	2127058.75	2.58112650044495E-05
1	237	89.9616607728686	0.817108154296875	0.81756591796875	3.8116455078125E-07	3.11627132987269E-07	2144916	2.58500513155013E-05
1	238	90.0623687726144	0.807037353515625	0.8074951171875	3.74755859375001E-07	3.0261350048022E-07	2154723.25	2.58881136687705E-05
1	239	90.1630767723601	0.796966552734375	0.7977294921875	3.6956787109375E-07	2.94815180268415E-07	2158546.75	2.59255939454306E-05
1	240	90.2637847721059	0.786895751953125	0.7867431640625	3.6590576171875E-07	2.87873859861065E-07	2150125.25	2.59626285696868E-05
1	241	90.3644927718516	0.776824951171875	0.7769775390625	3.62243652343749E-07	2.81455157846722E-07	2144903.25	2.59992939390941E-05
1	242	90.4652007715973	0.766754150390625	0.7672119140625	3.59191894531249E-07	2.75576297781299E-07	2135938.75	2.60356209764723E-05
1	243	90.5659087713431	0.756683349609375	0.7574462890625	3.5675048828125E-07	2.70219345566147E-07	2123182.25	2.60716715274611E-05
1	244	90.6666167710888	0.746612548828125	0.74652099609375	3.5430908203125E-07	2.64499163904475E-07	2106976.75	2.61074765148805E-05
1	245	90.7673247708345	0.736541748046875	0.7364501953125	3.5125732421875E-07	2.58683513720825E-07	2096611.75	2.61430031969212E-05
1	246	90.8680327705803	0.726470947265625	0.726409912109375	3.4942626953125E-07	2.5382669832652E-07	2078864.625	2.61782861343818E-05
1	247	90.968740770326	0.716400146484375	0.716339111328125	3.4759521484375E-07	2.48996030904891E-07	2060842.875	2.62133835349232E-05
1	248	91.0694487700717	0.706329345703125	0.706329345703125	3.4515380859375E-07	2.43792271703569E-07	2046419.125	2.6248266294715E-05
1	249	91.1701567698175	0.696258544921875	0.69622802734375	3.42712402343751E-07	2.38605963431837E-07	2031522.875	2.62829034909373E-05
1	250	91.2708647695632	0.686187744140625	0.686126708984375	3.40881347656249E-07	2.33887789136134E-07	2012802.125	2.63173242274206E-05
1	251	91.371572769309	0.676116943359375	0.6761474609375	3.3843994140625E-07	2.28835304483255E-07	1997835.875	2.63515321421437E-05
1	252	91.4722807690547	0.666046142578125	0.666015625	3.3599853515625E-07	2.23780261876527E-07	1982198.125	2.63854926743079E-05
1	253	91.5729887688004	0.655975341796875	0.655914306640625	3.33251953124999E-07	2.18584716549231E-07	1968223.625	2.6419191271998E-05
1	254	91.6736967685462	0.645904541015625	0.6458740234375	3.30505371093751E-07	2.13464829812438E-07	1954201.25	2.64526152022881E-05
1	255	91.7744047682919	0.635833740234375	0.635772705078125	3.2806396484375E-07	2.08574107318782E-07	1937953.625	2.64857753791148E-05
1	256	91.8751127680376	0.625762939453125	0.625732421875	3.25622558593749E-07	2.03752591687589E-07	1921649.5	2.65186918113614E-05
1	257	91.9758207677834	0.615692138671875	0.615692138671875	3.23486328125E-07	1.99167985215354E-07	1903302	2.65513772319537E-05
1	258	92.0765287675291	0.605621337890625	0.6055908203125	3.21350097656251E-07	1.94606656123142E-07	1884520.5	2.65838480117964E-05
1	259	92.1772367672748	0.595550537109375	0.595550537109375	3.1890869140625E-07	1.89926240068417E-07	1867464.125	2.66160859609954E-05
1	260	92.2779447670206	0.585479736328125	0.58544921875	3.1707763671875E-07	1.85632842431005E-07	1846390.875	2.66481110884342E-05
1	261	92.3786527667663	0.575408935546875	0.57537841796875	3.1463623046875E-07	1.81034891966192E-07	1828710	2.6679919756134E-05
1	262	92.4793607665121	0.565338134765625	0.565338134765625	3.12194824218751E-07	1.76495646542207E-07	1810850.375	2.67114846792538E-05
1	263	92.5800687662578	0.555267333984375	0.555267333984375	3.10363769531249E-07	1.72334850390143E-07	1789085.625	2.67428331426345E-05
1	264	92.6807767660035	0.545196533203125	0.545135498046875	3.07617187500001E-07	1.67693045227679E-07	1772123.125	2.67739505943609E-05
1	265	92.7814847657493	0.535125732421875	0.53509521484375	3.06091308593751E-07	1.6378798761707E-07	1748155.625	2.68048534053378E-05
1	266	92.882192765495	0.525054931640625	0.525054931640625	3.03955078125E-07	1.59593099624544E-07	1727409.75	2.68355706793955E-05
1	267	92.9829007652407	0.514984130859375	0.5150146484375	3.01513671875001E-07	1.55283956360108E-07	1708097.25	2.68660587607883E-05
1	268	93.0836087649865	0.504913330078125	0.504913330078125	2.99072265625E-07	1.51005579596131E-07	1688265.25	2.68963012786116E-05
1	269	93.1843167647322	0.494842529296875	0.494781494140625	2.96936035156251E-07	1.4691845251491E-07	1666289.875	2.69263127847807E-05
1	270	93.285024764478	0.484771728515625	0.484771728515625	2.95104980468749E-07	1.43058542789731E-07	1642709.5	2.69561242021155E-05
1	271	93.3857327642237	0.474700927734375	0.474700927734375	2.9327392578125E-07	1.39217405603631E-07	1618626.375	2.69857519015204E-05
1	272	93.4864407639694	0.464630126953125	0.464599609375	2.9144287109375E-07	1.3540423537961E-07	1594136.25	2.70151940640062E-05
1	273	93.5871487637152	0.454559326171875	0.454559326171875	2.89306640625001E-07	1.31507022160804E-07	1571202.625	2.70444361376576E-05
1	274	93.6878567634609	0.444488525390625	0.44451904296875	2.86865234375E-07	1.27517054693271E-07	1549574.5	2.70734490186442E-05
1	275	93.7885647632066	0.434417724609375	0.434326171875	2.84423828124999E-07	1.23532714724206E-07	1527038.625	2.71022163360612E-05
1	276	93.8892727629524	0.424346923828125	0.42437744140625	2.81982421875E-07	1.19666978548594E-07	1504978.375	2.71307362709194E-05
1	277	93.9899807626981	0.414276123046875	0.414306640625	2.789306640625E-07	1.15562819757997E-07	1485339.25	2.71589815383777E-05
1	278	94.0906887624438	0.404205322265625	0.40423583984375	2.76794433593749E-07	1.11890223308819E-07	1460419	2.71869648713619E-05
1	279	94.1913967621896	0.394134521484375	0.394195556640625	2.74658203125E-07	1.08269041732001E-07	1435222.25	2.7214731744607E-05
1	280	94.2921047619353	0.384063720703125	0.38409423828125	2.7191162109375E-07	1.04439678239032E-07	1412570.25	2.7242254873272E-05
1	281	94.3928127616811	0.373992919921875	0.373931884765625	2.7008056640625E-07	1.0099173408662E-07	1384519.75	2.72695451712934E-05
1	282	94.4935207614268	0.363922119140625	0.364013671875	2.67944335937501E-07	9.75353984244975E-08	1358542.125	2.72966371994698E-05
1	283	94.5942287611725	0.353851318359375	0.3538818359375	2.667236328125E-07	9.43886462323462E-08	1326773.5	2.73235600616317E-05
1	284	94.6949367609183	0.343780517578125	0.34381103515625	2.642822265625E-07	9.08631463403253E-08	1300923.875	2.73502973868744E-05
1	285	94.795644760664	0.333709716796875	0.333740234375	2.6275634765625E-07	8.76923635928506E-08	1270151	2.73768364422722E-05
1	286	94.8963527604097	0.323638916015625	0.3236083984375	2.6092529296875E-07	8.44376089048637E-08	1240234	2.74032063316554E-05
1	287	94.9970607601555	0.313568115234375	0.3135986328125	2.58789062500001E-07	8.11558891200548E-08	1211792.5	2.74293761322042E-05
1	288	95.0977687599012	0.303497314453125	0.303466796875	2.5634765625E-07	7.77929969331126E-08	1183809.625	2.74553149210988E-05
1	289	95.198476759647	0.293426513671875	0.293426513671875	2.54211425781251E-07	7.45923713907359E-08	1154261.75	2.74810245173285E-05
1	290	95.2991847593927	0.283355712890625	0.283416748046875	2.5146484375E-07	7.12693406512699E-08	1127063.125	2.75064867309993E-05
1	291	95.3998927591384	0.273284912109375	0.2733154296875	2.4871826171875E-07	6.79785401302979E-08	1098895.75	2.75316724582808E-05
1	292	95.5006007588842	0.263214111328125	0.26318359375	2.4566650390625E-07	6.46553885985668E-08	1071304.375	2.75565671472577E-05
1	293	95.6013087586299	0.253143310546875	0.25311279296875	2.423095703125E-07	6.13316544217923E-08	1044584.375	2.75811380561208E-05
1	294	95.7020167583756	0.243072509765625	0.243072509765625	2.38952636718751E-07	5.80828150020807E-08	1017241.4375	2.76053724519443E-05
1	295	95.8027247581214	0.233001708984375	0.233001708984375	2.3468017578125E-07	5.46808820445221E-08	992847.875	2.76292212220142E-05
1	296	95.9034327578671	0.222930908203125	0.222991943359375	2.30712890625E-07	5.1447113236236E-08	966534.4375	2.76526552625E-05
1	297	96.0041407576128	0.212860107421875	0.212890625	2.2613525390625E-07	4.81420734388394E-08	941430.5625	2.76756600214867E-05
1	298	96.1048487573586	0.202789306640625	0.20281982421875	2.20947265625E-07	4.48124843899222E-08	917955.8125	2.7698171834345E-05
1	299	96.2055567571043	0.192718505859375	0.1927490234375	2.154541015625E-07	4.15285654753461E-08	894617.625	2.77201470453292E-05
1	300	96.3062647568501	0.182647705078125	0.182647705078125	2.09655761718749E-07	3.82931411024856E-08	871179.0625	2.77415529126301E-05
1	301	96.4069727565958	0.172576904296875	0.17254638671875	2.02026367187499E-07	3.48589175303005E-08	854078.625	2.77622821158729E-05
1	302	96.5076807563415	0.162506103515625	0.16253662109375	1.92871093749999E-07	3.13486125946838E-08	842721.5625	2.77821673080325E-05
1	303	96.6083887560873	0.152435302734375	0.152435302734375	1.8157958984375E-07	2.76791389808295E-08	839495.875	2.78010229521897E-05
1	304	96.709096755833	0.142364501953125	0.142425537109375	1.690673828125E-07	2.40795117179005E-08	842418.8125	2.78186780633405E-05
1	305	96.8098047555787	0.132293701171875	0.132354736328125	1.513671875E-07	2.00341645495428E-08	874395.125	2.78348143183393E-05
1	306	96.9105127553245	0.122222900390625	0.122283935546875	1.27258300781249E-07	1.55616461938735E-08	960911.25	2.78488441836089E-05
1	307	97.0112207550702	0.112152099609375	0.112213134765625	9.55200195312506E-08	1.07186002296089E-08	1174760.5	2.78600618912606E-05
1	308	97.1119287548159	0.102081298828125	0.102081298828125	5.31005859375003E-08	5.4205768762472E-09	1922413.875	2.78675452136667E-05
1	309	97.2126367545617	0.092010498046875	0.092071533203125	-6.40869140624972E-09	-5.90058057969856E-10	-14366667	2.78698971669655E-05
1	310	97.3133447543074	0.081939697265625	0.082061767578125	-8.544921875E-08	-7.01211355647047E-09	-960357.1875	2.78652714769123E-05
1	311	97.4140527540532	0.071868896484375	0.071868896484375	-1.9073486328125E-07	-1.37079032569432E-08	-376800.03125	2.78513634839328E-05
1	312	97.5147607537989	0.061798095703125	0.0618896484375	-3.2928466796875E-07	-2.03793124597951E-08	-187951.8125	2.78251791314688E-05
1	313	97.6154687535446	0.051727294921875	0.0517578125	-5.04455566406251E-07	-2.61095163267555E-08	-102601.3359375	2.77831968560349E-05
1	314	97.7161767532904	0.041656494140625	0.0417449951171875	-7.1319580078125E-07	-2.97723552478146E-08	-58532.30859375	2.77218841802096E-05
1	315	97.8168847530361	0.031585693359375	0.0316864013671875	-9.4757080078125E-07	-3.00251095097792E-08	-33439.6171875	2.76382561423816E-05
1	316	97.9175927527818	0.021514892578125	0.021636962890625	-1.1907958984375E-06	-2.57652050805746E-08	-18170.169921875	2.75305810646387E-05
1	317	98.0183007525276	0.011444091796875	0.011553955078125	-1.42242431640625E-06	-1.64346261044557E-08	-8122.72119140625	2.73989953711862E-05
1	318	98.1190087522733	0.001373291015625	0.0014617919921875	-1.6168212890625E-06	-2.36345631954293E-09	-904.114807128906	2.72459583356977E-05
1	319	98.2197167520191	-0.008697509765625	-0.00858154296874999	-1.7559814453125E-06	1.50690304678847E-08	4887.03515625	2.70761229330674E-05
1	320	98.3204247517648	-0.018768310546875	-0.018682861328125	-1.83349609375E-06	3.42549526521907E-08	10189.7470703125	2.6895379050984E-05
1	321	98.4211327515105	-0.028839111328125	-0.028680419921875	-1.8524169921875E-06	5.31280974769288E-08	15482.7021484375	2.67097784671932E-05
1	322	98.5218407512563	-0.038909912109375	-0.0387786865234375	-1.82586669921875E-06	7.0804709650929E-08	21238.5078125	2.65245616901666E-05
1	323	98.622548751002	-0.048980712890625	-0.0488372802734375	-1.77093505859375E-06	8.64876525952241E-08	27577.1171875	2.63434485532343E-05
1	324	98.7232567507477	-0.059051513671875	-0.058929443359375	-1.70013427734375E-06	1.00187968143928E-07	34661.640625	2.61686673184158E-05
1	325	98.8239647504935	-0.069122314453125	-0.069091796875	-1.624755859375E-06	1.1225729679154E-07	42524.41796875	2.60012457147241E-05
1	326	98.9246727502392	-0.079193115234375	-0.079193115234375	-1.5509033203125E-06	1.22820864589812E-07	51062.57421875	2.58413383562583E-05
1	327	99.0253807499849	-0.089263916015625	-0.089141845703125	-1.48162841796875E-06	1.32075086867189E-07	60164.78125	2.56886378338095E-05
1	328	99.1260887497307	-0.099334716796875	-0.0992431640625	-1.41876220703125E-06	1.40802441706001E-07	69950.53125	2.55425911745988E-05
1	329	99.2267967494764	-0.109405517578125	-0.10931396484375	-1.3629150390625E-06	1.48985634496057E-07	80206.0078125	2.54025235335575E-05
1	330	99.3275047492222	-0.119476318359375	-0.119354248046875	-1.31500244140625E-06	1.56951131202732E-07	90763.515625	2.52676782110939E-05
1	331	99.4282127489679	-0.129547119140625	-0.129425048828125	-1.2725830078125E-06	1.6470410457714E-07	101702.640625	2.51373840001179E-05
1	332	99.5289207487136	-0.139617919921875	-0.139495849609375	-1.2359619140625E-06	1.72411560583896E-07	112864.1953125	2.50110679189675E-05
1	333	99.6296287484594	-0.149688720703125	-0.1495361328125	-1.20513916015625E-06	1.80211841893652E-07	124082.046875	2.48881497100228E-05
1	334	99.7303367482051	-0.159759521484375	-0.15966796875	-1.17828369140625E-06	1.88134166023701E-07	135508.9375	2.47681346081663E-05
1	335	99.8310447479508	-0.169830322265625	-0.169708251953125	-1.1566162109375E-06	1.9628731706689E-07	146728.234375	2.46505624090787E-05
1	336	99.9317527476966	-0.179901123046875	-0.179718017578125	-1.1376953125E-06	2.04464356556855E-07	157966.734375	2.45350347540807E-05
1	337	100.032460747442	-0.189971923828125	-0.18988037109375	-1.121826171875E-06	2.13012768313092E-07	169260.078125	2.44212587858783E-05
1	338	100.133168747188	-0.200042724609375	-0.199859619140625	-1.10931396484375E-06	2.21707068703836E-07	180165.0625	2.43089125433471E-05
1	339	100.233876746934	-0.189971923828125	-0.189788818359375	-9.552001953125E-07	1.81286324618668E-07	198690.09375	2.42049554799451E-05
2	340	100.33458474668	-0.179901123046875	-0.179779052734375	-8.50830078125001E-07	1.52961419530584E-07	211298.421875	2.41140151047148E-05
2	341	100.435292746425	-0.169830322265625	-0.16973876953125	-7.68432617187501E-07	1.30432795231172E-07	220889.609375	2.40324789047008E-05
2	342	100.536000746171	-0.159759521484375	-0.159637451171875	-6.9915771484375E-07	1.1161174739982E-07	228328.25	2.3958578822203E-05
2	343	100.636708745917	-0.149688720703125	-0.14959716796875	-6.38427734375E-07	9.55069765495864E-08	234321.234375	2.38912271015579E-05
2	344	100.737416745662	-0.139617919921875	-0.139495849609375	-5.8441162109375E-07	8.15229981299126E-08	238694.515625	2.38296524912585E-05
2	345	100.838124745408	-0.129547119140625	-0.12945556640625	-5.34667968749999E-07	6.92157442472308E-08	242123.296875	2.3773302018526E-05
2	346	100.938832745154	-0.119476318359375	-0.119354248046875	-4.8736572265625E-07	5.81691672607576E-08	244896.6875	2.37218391703209E-05
2	347	101.0395407449	-0.109405517578125	-0.10931396484375	-4.4097900390625E-07	4.82051625283475E-08	247889.28125	2.36750929616392E-05
2	348	101.140248744645	-0.099334716796875	-0.099273681640625	-3.94592285156251E-07	3.91726260318137E-08	251585.46875	2.36330179177457E-05
2	349	101.240956744391	-0.089263916015625	-0.08917236328125	-3.45764160156251E-07	3.08326093545475E-08	257899.375	2.35957377299201E-05
2	350	101.341664744137	-0.079193115234375	-0.0791015625	-2.9144287109375E-07	2.3053585707089E-08	271413.625	2.35636525758309E-05
2	351	101.442372743883	-0.069122314453125	-0.069091796875	-2.2705078125E-07	1.56873465328999E-08	304301.09375	2.35375446209218E-05
2	352	101.543080743628	-0.059051513671875	-0.058990478515625	-1.495361328125E-07	8.82120776424244E-09	394489.78125	2.35185816563899E-05
2	353	101.643788743374	-0.048980712890625	-0.0488800048828125	-5.340576171875E-08	2.61047361505007E-09	915257.125	2.35083625739207E-05
2	354	101.74449674312	-0.038909912109375	-0.03875732421875	6.866455078125E-08	-2.6612541059734E-09	-564444.4375	2.3509130187449E-05
2	355	101.845204742866	-0.028839111328125	-0.0287384033203125	2.20947265625E-07	-6.34967145529686E-09	-130069.0703125	2.35237130254973E-05
2	356	101.945912742611	-0.018768310546875	-0.0186767578125	4.0740966796875E-07	-7.60909113495245E-09	-45842.69921875	2.3555354346172E-05
2	357	102.046620742357	-0.008697509765625	-0.00856933593750001	6.268310546875E-07	-5.37152544666242E-09	-13670.8857421875	2.36074320127955E-05
2	358	102.147328742103	0.001373291015625	0.001495361328125	8.70361328124999E-07	1.30150468180545E-09	1718.09265136719	2.36828218476148E-05
2	359	102.248036741849	0.011444091796875	0.0115692138671875	1.121826171875E-06	1.297864660188E-08	10312.8408203125	2.3783137294231E-05
2	360	102.348744741594	0.021514892578125	0.0216339111328125	1.35833740234375E-06	2.93861521782901E-08	15926.7587890625	2.39080218307208E-05
2	361	102.44945274134	0.031585693359375	0.031671142578125	1.55731201171875E-06	4.93218514918681E-08	20337.05859375	2.40548379224492E-05
2	362	102.550160741086	0.041656494140625	0.04173583984375	1.70135498046875E-06	7.10074772314329E-08	24530.94140625	2.42189234995749E-05
2	363	102.650868740831	0.051727294921875	0.051788330078125	1.78375244140625E-06	9.23775544947603E-08	29033.36328125	2.43944141402608E-05
2	364	102.751576740577	0.061798095703125	0.06182861328125	1.81060791015625E-06	1.11947372261056E-07	34147.98828125	2.45754035859136E-05
2	365	102.852284740323	0.071868896484375	0.071929931640625	1.79229736328125E-06	1.28919822373064E-07	40132.8125	2.4756824132055E-05
2	366	102.952992740069	0.081939697265625	0.08197021484375	1.7474365234375E-06	1.4323774166769E-07	46908.8359375	2.49350632657297E-05
2	367	103.053700739814	0.092010498046875	0.092071533203125	1.68548583984375E-06	1.55185261974111E-07	54626.109375	2.51079254667275E-05
2	368	103.15440873956	0.102081298828125	0.10205078125	1.6180419921875E-06	1.65122457929101E-07	63070.5390625	2.52742720476817E-05
2	369	103.255116739306	0.112152099609375	0.112152099609375	1.55120849609375E-06	1.73971287154018E-07	72299.8203125	2.54338556260336E-05
2	370	103.355824739052	0.122222900390625	0.1221923828125	1.488037109375E-06	1.81826806056051E-07	82116.484375	2.55868944805115E-05
2	371	103.456532738797	0.132293701171875	0.132354736328125	1.42974853515625E-06	1.89233986702675E-07	92572.0390625	2.57338160736253E-05
2	372	103.557240738543	0.142364501953125	0.14239501953125	1.37725830078125E-06	1.96114726236374E-07	103390.2109375	2.58751606452279E-05
2	373	103.657948738289	0.152435302734375	0.1524658203125	1.33087158203125E-06	2.02912417535117E-07	114560.8828125	2.60115248238435E-05
2	374	103.758656738035	0.162506103515625	0.16253662109375	1.28936767578125E-06	2.09569464004744E-07	126059.171875	2.61434652202297E-05
2	375	103.85936473778	0.172576904296875	0.172607421875	1.25335693359375E-06	2.16338705172348E-07	137716.09375	2.62715020653559E-05
2	376	103.960072737526	0.182647705078125	0.182647705078125	1.220703125E-06	2.22958618678604E-07	149625	2.63960791926365E-05
2	377	104.060780737272	0.192718505859375	0.192718505859375	1.19140625E-06	2.29606030188734E-07	161757.171875	2.65175385720795E-05
2	378	104.161488737018	0.202789306640625	0.202789306640625	1.165771484375E-06	2.36405981013377E-07	173952.890625	2.66362330876291E-05
2	379	104.262196736763	0.212860107421875	0.212860107421875	1.1419677734375E-06	2.43079398387636E-07	186397.640625	2.67524374066852E-05
2	380	104.362904736509	0.222930908203125	0.222930908203125	1.1212158203125E-06	2.4995364356073E-07	198829.625	2.68663970928174E-05
2	381	104.463612736255	0.233001708984375	0.2330322265625	1.10260009765625E-06	2.5694134819787E-07	211347.90625	2.6978375899489E-05
2	382	104.564320736	0.243072509765625	0.24310302734375	1.08551025390625E-06	2.63890825635826E-07	223952.765625	2.70885557256406E-05
2	383	104.665028735746	0.253143310546875	0.253173828125	1.0699462890625E-06	2.70882395625449E-07	236622.9375	2.71970911853714E-05
2	384	104.765736735492	0.263214111328125	0.263275146484375	1.0552978515625E-06	2.77833692052809E-07	249479.46875	2.73041059699608E-05
2	385	104.866444735238	0.273284912109375	0.273284912109375	1.04248046875E-06	2.84894184687801E-07	262148.71875	2.74097365036141E-05
2	386	104.967152734983	0.283355712890625	0.2833251953125	1.0308837890625E-06	2.92075327479324E-07	274837.1875	2.751413921942E-05
2	387	105.067860734729	0.293426513671875	0.293426513671875	1.0205078125E-06	2.99444025131379E-07	287529.9375	2.76174341706792E-05
2	388	105.168568734475	0.303497314453125	0.303497314453125	1.0107421875E-06	3.0675752782372E-07	300271.75	2.77197159448406E-05
2	389	105.269276734221	0.313568115234375	0.31365966796875	1.002197265625E-06	3.14348852725743E-07	312972	2.78210754913744E-05
2	390	105.369984733966	0.323638916015625	0.32366943359375	9.94262695312501E-07	3.21812450465586E-07	325537.15625	2.79216055787401E-05
2	391	105.470692733712	0.333709716796875	0.333740234375	9.8724365234375E-07	3.29482929828373E-07	338052.5625	2.80213826044928E-05
2	392	105.571400733458	0.343780517578125	0.34381103515625	9.8114013671875E-07	3.37326810040395E-07	350419.90625	2.8120499337092E-05
2	393	105.672108733204	0.353851318359375	0.353912353515625	9.7564697265625E-07	3.45293500458865E-07	362746.34375	2.82190303551033E-05
2	394	105.772816732949	0.363922119140625	0.363861083984375	9.71069335937499E-07	3.5333434311724E-07	374701.46875	2.83170556940604E-05
2	395	105.873524732695	0.373992919921875	0.373992919921875	9.66796875000001E-07	3.61575189344876E-07	386837.125	2.84146353806136E-05
2	396	105.974232732441	0.384063720703125	0.384063720703125	9.63745117187501E-07	3.7013950304754E-07	398511.75	2.85118458123179E-05
2	397	106.074940732187	0.394134521484375	0.39410400390625	9.60693359375001E-07	3.78613094653701E-07	410228.71875	2.8608748834813E-05
2	398	106.175648731932	0.404205322265625	0.40423583984375	9.58251953125E-07	3.87359762044071E-07	421847.15625	2.87053753709188E-05
2	399	106.276356731678	0.414276123046875	0.414276123046875	9.5672607421875E-07	3.96348752929043E-07	433014.375	2.88018018181901E-05
2	400	106.377064731424	0.424346923828125	0.42431640625	9.5489501953125E-07	4.05177615903085E-07	444359.25	2.8898059099447E-05
2	401	106.477772731169	0.434417724609375	0.434417724609375	9.527587890625E-07	4.13895293149835E-07	455957.75	2.89941181108588E-05
2	402	106.578480730915	0.444488525390625	0.444488525390625	9.5184326171875E-07	4.23083378109368E-07	466976.625	2.90900225081714E-05
2	403	106.679188730661	0.454559326171875	0.454559326171875	9.5062255859375E-07	4.3211431943746E-07	478170.15625	2.91858195851091E-05
2	404	106.779896730407	0.464630126953125	0.464630126953125	9.4940185546875E-07	4.41120704408604E-07	489392.46875	2.92814929707674E-05
2	405	106.880604730152	0.474700927734375	0.474700927734375	9.490966796875E-07	4.50537072538282E-07	500160.78125	2.93770899588708E-05
2	406	106.981312729898	0.484771728515625	0.484832763671875	9.490966796875E-07	4.60153160020127E-07	510836.03125	2.94726705760695E-05
2	407	107.082020729644	0.494842529296875	0.494873046875	9.4940185546875E-07	4.69833395300157E-07	521247.1875	2.95682675641729E-05
2	408	107.18272872939	0.504913330078125	0.5048828125	9.4970703125E-07	4.79490722682385E-07	531619.5625	2.96638954750961E-05
2	409	107.283436729135	0.514984130859375	0.5150146484375	9.5062255859375E-07	4.89584522256337E-07	541765.6875	2.9759585231659E-05
2	410	107.384144728881	0.525054931640625	0.525115966796875	9.521484375E-07	4.99988345836755E-07	551506.4375	2.9855396860512E-05
2	411	107.484852728627	0.535125732421875	0.535125732421875	9.5367431640625E-07	5.10335667058825E-07	561120	2.99513631034642E-05
2	412	107.585560728373	0.545196533203125	0.545135498046875	9.552001953125E-07	5.20713570040243E-07	570702.875	3.00474821415264E-05
2	413	107.686268728118	0.555267333984375	0.555206298828125	9.5855712890625E-07	5.32196906988247E-07	579210.5	3.01438485621475E-05
2	414	107.786976727864	0.565338134765625	0.565277099609375	9.6099853515625E-07	5.43230441962805E-07	588218.5	3.02405060210731E-05
2	415	107.88768472761	0.575408935546875	0.575347900390625	9.63745117187501E-07	5.5448867897212E-07	596991.8125	3.03374235954834E-05
2	416	107.988392727356	0.585479736328125	0.585418701171875	9.66796875000001E-07	5.65980940336885E-07	605524	3.04346340271877E-05
2	417	108.089100727101	0.595550537109375	0.59552001953125	9.71069335937499E-07	5.78291235342476E-07	613262.125	3.05322137137409E-05
2	418	108.189808726847	0.605621337890625	0.6055908203125	9.7503662109375E-07	5.90473234751698E-07	621095.4375	3.06302063108888E-05
2	419	108.290516726593	0.615692138671875	0.61566162109375	9.79003906250001E-07	6.0273509916442E-07	628865.375	3.07286027236842E-05
2	420	108.391224726338	0.625762939453125	0.625732421875	9.8388671875E-07	6.15649810242758E-07	635980.1875	3.08274393319152E-05
2	421	108.491932726084	0.635833740234375	0.635772705078125	9.8907470703125E-07	6.28826683168882E-07	642795.4375	3.09267888951581E-05
2	422	108.59264072583	0.645904541015625	0.645904541015625	9.9334716796875E-07	6.41607414308965E-07	650230.4375	3.10266113956459E-05
2	423	108.693348725576	0.655975341796875	0.655914306640625	9.9853515625E-07	6.54953510093037E-07	656876.5625	3.11269104713574E-05
2	424	108.794056725321	0.666046142578125	0.66595458984375	1.0028076171875E-06	6.67824338052014E-07	664090.0625	3.12276861222927E-05
2	425	108.894764725067	0.676116943359375	0.675994873046875	1.00830078125E-06	6.81606138641655E-07	670429.8125	3.13289529003669E-05
2	426	108.995472724813	0.686187744140625	0.6861572265625	1.01348876953125E-06	6.95412609275081E-07	677025	3.14307580993045E-05
2	427	109.096180724559	0.696258544921875	0.69622802734375	1.01776123046875E-06	7.08593859144457E-07	684078	3.15330398734659E-05
2	428	109.196888724304	0.706329345703125	0.706298828125	1.02294921875E-06	7.22507820682949E-07	690453.5	3.1635798222851E-05
2	429	109.29759672405	0.716400146484375	0.71630859375	1.0272216796875E-06	7.35807702767488E-07	697326.25	3.17390331474598E-05
2	430	109.398304723796	0.726470947265625	0.7264404296875	1.0321044921875E-06	7.49762421037303E-07	703843.875	3.18427264573984E-05
2	431	109.499012723542	0.736541748046875	0.7364501953125	1.03668212890625E-06	7.63464697683958E-07	710391.5625	3.19468999805395E-05
2	432	109.599720723287	0.746612548828125	0.74652099609375	1.04156494140625E-06	7.77550098973734E-07	716730.1875	3.20515464409254E-05
2	433	109.700428723033	0.756683349609375	0.75653076171875	1.046142578125E-06	7.91438992564508E-07	723162.25	3.21566694765352E-05
2	434	109.801136722779	0.766754150390625	0.76690673828125	1.051025390625E-06	8.06038428891043E-07	729674.8125	3.22622727253474E-05
2	435	109.901844722525	0.776824951171875	0.7769775390625	1.05621337890625E-06	8.20654065591953E-07	735625.5625	3.23683780152351E-05
2	436	110.00255272227	0.786895751953125	0.7867431640625	1.0614013671875E-06	8.35050229852641E-07	741230.625	3.24750108120497E-05
2	437	110.103260722016	0.796966552734375	0.797119140625	1.0675048828125E-06	8.50928529416706E-07	746712.4375	3.25822074955795E-05
2	438	110.203968721762	0.807037353515625	0.80718994140625	1.07421875E-06	8.67098549406364E-07	751420.4375	3.26900517393369E-05
2	439	110.304676721507	0.817108154296875	0.8172607421875	1.08062744140625E-06	8.83154314124113E-07	756283.5625	3.27985580952372E-05
2	440	110.405384721253	0.827178955078125	0.82763671875	1.08795166015625E-06	9.00428744898818E-07	760729.3125	3.29077556671109E-05
2	441	110.506092720999	0.837249755859375	0.83709716796875	1.09588623046875E-06	9.17363252028736E-07	763854.125	3.30177208525129E-05
2	442	110.606800720745	0.847320556640625	0.84747314453125	1.1029052734375E-06	9.34682589104341E-07	768400.6875	3.31284390995279E-05
2	443	110.70750872049	0.857391357421875	0.85784912109375	1.109619140625E-06	9.51885795075214E-07	773102.3125	3.32398485625163E-05
2	444	110.808216720236	0.867462158203125	0.86761474609375	1.114501953125E-06	9.66958396020345E-07	778477.5625	3.33518401021138E-05
2	445	110.908924719982	0.877532958984375	0.87799072265625	1.119384765625E-06	9.82809410743357E-07	784351.1875	3.34643264068291E-05
2	446	111.009632719728	0.887603759765625	0.88775634765625	1.12335205078125E-06	9.97262873170257E-07	790274.375	3.35772565449588E-05
2	447	111.110340719473	0.897674560546875	0.8978271484375	1.1260986328125E-06	1.01104194527579E-06	797290	3.36905250151176E-05
2	448	111.211048719219	0.907745361328125	0.9075927734375	1.12884521484375E-06	1.02453168437933E-06	804001.125	3.38040699716657E-05
2	449	111.311756718965	0.917816162109375	0.91827392578125	1.1309814453125E-06	1.03855074939929E-06	811926.625	3.39178623107728E-05
2	450	111.412464718711	0.927886962890625	0.92803955078125	1.13250732421875E-06	1.05101162262144E-06	819455.625	3.40318365488201E-05
2	451	111.513172718456	0.937957763671875	0.93780517578125	1.13494873046875E-06	1.06436073110672E-06	826297.4375	3.41460145136807E-05
2	452	111.613880718202	0.948028564453125	0.94818115234375	1.1370849609375E-06	1.0781625405798E-06	833870.125	3.42604180332273E-05
2	453	111.714588717948	0.958099365234375	0.958251953125	1.138916015625E-06	1.09136851733638E-06	841371.9375	3.43750252795871E-05
2	454	111.815296717694	0.968170166015625	0.96832275390625	1.141357421875E-06	1.10520238649769E-06	848395.75	3.44898471666966E-05
2	455	111.916004717439	0.978240966796875	0.97808837890625	1.14410400390625E-06	1.11903477773012E-06	854894.6875	3.46049273503013E-05
2	456	112.016712717185	0.988311767578125	0.98846435546875	1.14715576171875E-06	1.13392263756396E-06	861665.3125	3.47203022101894E-05
2	457	112.117420716931	0.998382568359375	0.99853515625	1.14959716796875E-06	1.14791316718765E-06	868595.75	3.48359535564668E-05
2	458	112.218128716676	1.00845336914063	1.00830078125	1.15234375E-06	1.16190915377956E-06	875000	3.49518631992396E-05
2	459	112.318836716422	1.01852416992188	1.01837158203125	1.15509033203125E-06	1.17631111606897E-06	881638.0625	3.50680529663805E-05
2	460	112.419544716168	1.02859497070313	1.0284423828125	1.1578369140625E-06	1.19076855753519E-06	888244.625	3.51845192199107E-05
2	461	112.520252715914	1.03866577148438	1.038818359375	1.1614990234375E-06	1.20658648938843E-06	894377.3125	3.5301305615576E-05
2	462	112.620960715659	1.04873657226563	1.048583984375	1.16455078125E-06	1.22112930966978E-06	900419.3125	3.54184339812491E-05
2	463	112.721668715405	1.05880737304688	1.05865478515625	1.16729736328125E-06	1.23576489841071E-06	906928.125	3.5535849747248E-05
2	464	112.822376715151	1.06887817382813	1.0693359375	1.170654296875E-06	1.25182270949153E-06	913451.5	3.56535747414455E-05
2	465	112.923084714897	1.07894897460938	1.07879638671875	1.17431640625E-06	1.26684824408585E-06	918659.0625	3.57716526195873E-05
2	466	113.023792714642	1.08901977539063	1.08917236328125	1.1773681640625E-06	1.28235683405364E-06	925090.6875	3.58900724677369E-05
2	467	113.124500714388	1.09909057617188	1.0986328125	1.180419921875E-06	1.29684804051067E-06	930713.5625	3.60087942681275E-05
2	468	113.225208714134	1.10916137695313	1.1090087890625	1.18499755859375E-06	1.31417266402423E-06	935874.375	3.61279016942717E-05
2	469	113.32591671388	1.11923217773438	1.11968994140625	1.18865966796875E-06	1.33093021759123E-06	941976.875	3.62474274879787E-05
2	470	113.426624713625	1.12930297851563	1.129150390625	1.19293212890625E-06	1.34699973841634E-06	946533.625	3.63673498213757E-05
2	471	113.527332713371	1.13937377929688	1.1395263671875	1.197509765625E-06	1.36459391342214E-06	951580.0625	3.64877159881871E-05
2	472	113.628040713117	1.14944458007813	1.1492919921875	1.202392578125E-06	1.38190011966799E-06	955837.5625	3.66085623682011E-05
2	473	113.728748712863	1.15951538085938	1.15966796875	1.20819091796875E-06	1.40110023494344E-06	959838.4375	3.67299435310997E-05
2	474	113.829456712608	1.16958618164063	1.16973876953125	1.2139892578125E-06	1.42005023917591E-06	963549.5625	3.68519104085863E-05
2	475	113.930164712354	1.17965698242188	1.18011474609375	1.2200927734375E-06	1.43984937039932E-06	967233.6875	3.6974477552576E-05
2	476	114.0308727121	1.18972778320313	1.1895751953125	1.2274169921875E-06	1.46010484058934E-06	969169.5625	3.7097717722645E-05
2	477	114.131580711845	1.19979858398438	1.19964599609375	1.23504638671875E-06	1.48161848301243E-06	971336.8125	3.72217145923059E-05
2	478	114.232288711591	1.20986938476563	1.2103271484375	1.243896484375E-06	1.50552170907758E-06	973012.75	3.73465372831561E-05
2	479	114.332996711337	1.21994018554688	1.21978759765625	1.2530517578125E-06	1.52845700540638E-06	973453.4375	3.7472269468708E-05
2	480	114.433704711083	1.23001098632813	1.2298583984375	1.26312255859375E-06	1.55346185692906E-06	973665.1875	3.75989693566225E-05
2	481	114.534412710828	1.24008178710938	1.24053955078125	1.2738037109375E-06	1.58020384333213E-06	973885.9375	3.77267133444548E-05
2	482	114.635120710574	1.25015258789063	1.25	1.285400390625E-06	1.60675040206115E-06	972459.6875	3.78555778297596E-05
2	483	114.73582871032	1.26022338867188	1.2603759765625	1.2982177734375E-06	1.63624247306871E-06	970851	3.798567558988E-05
2	484	114.836536710066	1.27029418945313	1.2701416015625	1.312255859375E-06	1.66675067703181E-06	967907	3.81171230401378E-05
2	485	114.937244709811	1.28036499023438	1.280517578125	1.32720947265625E-06	1.69951510997635E-06	964819.5	3.82500293198973E-05
2	486	115.037952709557	1.29043579101563	1.29058837890625	1.34429931640625E-06	1.73493708643946E-06	960045.375	3.83845508622471E-05
2	487	115.138660709303	1.30050659179688	1.30035400390625	1.36260986328125E-06	1.77187519057043E-06	954311.3125	3.85208550142124E-05
2	488	115.239368709049	1.31057739257813	1.3104248046875	1.3818359375E-06	1.81079201411194E-06	948321.5625	3.86590472771786E-05
2	489	115.340076708794	1.32064819335938	1.32080078125	1.402587890625E-06	1.85253907147853E-06	941688.4375	3.87992549804039E-05
2	490	115.44078470854	1.33071899414063	1.33087158203125	1.42486572265625E-06	1.89631327884854E-06	934033	3.89416309189983E-05
2	491	115.541492708286	1.34078979492188	1.3409423828125	1.448974609375E-06	1.94299150280131E-06	925442.3125	3.9086338802008E-05
2	492	115.642200708032	1.35086059570313	1.3507080078125	1.47430419921875E-06	1.99135456568911E-06	916166.4375	3.92335387005005E-05
2	493	115.742908707777	1.36093139648438	1.36077880859375	1.500244140625E-06	2.04150046556606E-06	907038.25	3.93833179259673E-05
2	494	115.843616707523	1.37100219726563	1.370849609375	1.52801513671875E-06	2.0946788481524E-06	897144	3.95358038076665E-05
2	495	115.944324707269	1.38107299804688	1.3812255859375	1.55853271484375E-06	2.15268505598942E-06	886234.625	3.96912219002843E-05
2	496	116.045032707014	1.39114379882813	1.39129638671875	1.59271240234375E-06	2.21593495552952E-06	873539	3.98498996219132E-05
2	497	116.14574070676	1.40121459960938	1.4013671875	1.6314697265625E-06	2.28628800869046E-06	858960	4.00122517021373E-05
2	498	116.246448706506	1.41128540039063	1.41082763671875	1.676025390625E-06	2.36458299696096E-06	841769.875	4.0178798371926E-05
2	499	116.347156706252	1.42135620117188	1.42120361328125	1.728515625E-06	2.45657270170341E-06	822210.4375	4.03502308472525E-05
2	500	116.447864705997	1.43142700195313	1.43096923828125	1.78985595703125E-06	2.56122871178377E-06	799488.5	4.05273931392003E-05
2	501	116.548572705743	1.44149780273438	1.44134521484375	1.85943603515625E-06	2.68008921011642E-06	775151.8125	4.07111510867253E-05
2	502	116.649280705489	1.45156860351563	1.451416015625	1.94000244140625E-06	2.81575057670125E-06	748151.625	4.09024651162326E-05
2	503	116.749988705235	1.46163940429688	1.4617919921875	2.03033447265625E-06	2.96792654808087E-06	719976	4.11023902415764E-05
2	504	116.85069670498	1.47171020507813	1.4715576171875	2.1331787109375E-06	3.13909526994394E-06	689842.625	4.13120396842714E-05
2	505	116.951404704726	1.48178100585938	1.48162841796875	2.2491455078125E-06	3.33239768224303E-06	658751.75	4.15327049267944E-05
2	506	117.052112704472	1.49185180664063	1.49139404296875	2.3809814453125E-06	3.55098154614097E-06	626377.875	4.17658520746045E-05
2	507	117.152820704218	1.50192260742188	1.50177001953125	2.52471923828125E-06	3.79154744223342E-06	594826.5625	4.20128744735848E-05
2	508	117.253528703963	1.49185180664063	1.49139404296875	2.1685791015625E-06	3.23420613312919E-06	687728.6875	4.22491975768935E-05
2	509	117.354236703709	1.48178100585938	1.48223876953125	1.905517578125E-06	2.82443193100335E-06	777866.8125	4.24543468398042E-05
2	510	117.454944703455	1.47171020507813	1.47186279296875	1.697998046875E-06	2.49922004513792E-06	866822.5	4.26357983087655E-05
2	511	117.555652703201	1.46163940429688	1.46148681640625	1.5289306640625E-06	2.23451183956058E-06	955888.25	4.27982849942055E-05
2	512	117.656360702946	1.45156860351563	1.451416015625	1.39068603515625E-06	2.01846387426485E-06	1043669.125	4.29452993557788E-05
2	513	117.757068702692	1.44149780273438	1.441650390625	1.275634765625E-06	1.83901931904984E-06	1130143.5	4.30795626016334E-05
2	514	117.857776702438	1.43142700195313	1.43096923828125	1.18011474609375E-06	1.68870792549569E-06	1212567.875	4.32032175012864E-05
2	515	117.958484702183	1.42135620117188	1.42120361328125	1.10107421875E-06	1.5648506632715E-06	1290742.875	4.33180830441415E-05
2	516	118.059192701929	1.41128540039063	1.41082763671875	1.03363037109375E-06	1.45827425512834E-06	1364924.75	4.34255744039547E-05
2	517	118.159900701675	1.40121459960938	1.4013671875	9.7808837890625E-07	1.37066092520399E-06	1432761.375	4.35268739238381E-05
2	518	118.260608701421	1.39114379882813	1.39068603515625	9.28955078125E-07	1.29188481423625E-06	1497043.375	4.36229020124301E-05
2	519	118.361316701166	1.38107299804688	1.38153076171875	8.8714599609375E-07	1.22561948501243E-06	1557275.625	4.3714349885704E-05
2	520	118.462024700912	1.37100219726563	1.370849609375	8.514404296875E-07	1.16719672860199E-06	1610035.875	4.38018942077179E-05
2	521	118.562732700658	1.36093139648438	1.361083984375	8.2000732421875E-07	1.11609881514596E-06	1659843.75	4.38860588474199E-05
2	522	118.663440700404	1.35086059570313	1.3507080078125	7.92846679687501E-07	1.0709043181123E-06	1703618.25	4.39672730863094E-05
2	523	118.764148700149	1.34078979492188	1.34063720703125	7.6904296875E-07	1.03100762771646E-06	1743254	4.40459189121611E-05
2	524	118.864856699895	1.33071899414063	1.33087158203125	7.476806640625E-07	9.95066898212826E-07	1780000	4.41222910012584E-05
2	525	118.965564699641	1.32064819335938	1.32049560546875	7.293701171875E-07	9.6312999176007E-07	1810460.375	4.41966658399906E-05
2	526	119.066272699387	1.31057739257813	1.31072998046875	7.1258544921875E-07	9.34007061914599E-07	1839400.5	4.42692762590013E-05
2	527	119.166980699132	1.30050659179688	1.30035400390625	6.98242187500001E-07	9.07961975826765E-07	1862325.25	4.43403150711674E-05
2	528	119.267688698878	1.29043579101563	1.290283203125	6.84814453125E-07	8.83604570844909E-07	1884135.5	4.44099605374504E-05
2	529	119.368396698624	1.28036499023438	1.28021240234375	6.72302246093751E-07	8.60689681303484E-07	1904221.5	4.44782963313628E-05
2	530	119.46910469837	1.27029418945313	1.27044677734375	6.610107421875E-07	8.39778977024253E-07	1921976	4.45454315922689E-05
2	531	119.569812698115	1.26022338867188	1.26068115234375	6.50634765624999E-07	8.20242973986751E-07	1937617.25	4.46114790975116E-05
2	532	119.670520697861	1.25015258789063	1.25030517578125	6.4117431640625E-07	8.01663588845258E-07	1950023.75	4.46765261585824E-05
2	533	119.771228697607	1.24008178710938	1.240234375	6.317138671875E-07	7.83473240062449E-07	1963285	4.47406237071846E-05
2	534	119.871936697352	1.23001098632813	1.23016357421875	6.2286376953125E-07	7.66224275139393E-07	1975012.25	4.48037935711909E-05
2	535	119.972644697098	1.21994018554688	1.21978759765625	6.146240234375E-07	7.49710750369559E-07	1984607.75	4.48661085101776E-05
2	536	120.073352696844	1.20986938476563	1.20941162109375	6.0699462890625E-07	7.34106322397565E-07	1992458.625	4.49276194558479E-05
2	537	120.17406069659	1.19979858398438	1.1993408203125	5.98754882812499E-07	7.18111152764322E-07	2003058.125	4.49883336841594E-05
2	538	120.274768696335	1.18972778320313	1.18988037109375	5.908203125E-07	7.03005525792832E-07	2013946.25	4.5048236643197E-05
2	539	120.375476696081	1.17965698242188	1.17919921875	5.8319091796875E-07	6.87698275214643E-07	2021978	4.51073501608334E-05
2	540	120.476184695827	1.16958618164063	1.16943359375	5.755615234375E-07	6.73080933211168E-07	2031813.5	4.51656997029204E-05
2	541	120.576892695573	1.15951538085938	1.1590576171875	5.6793212890625E-07	6.58266003483732E-07	2040838.375	4.52232779935002E-05
2	542	120.677600695318	1.14944458007813	1.14959716796875	5.60607910156249E-07	6.44473232114251E-07	2050626.125	4.5280103222467E-05
2	543	120.778308695064	1.13937377929688	1.1395263671875	5.53283691406251E-07	6.30481338248501E-07	2059569.875	4.53361935797147E-05
2	544	120.87901669481	1.12930297851563	1.12884521484375	5.450439453125E-07	6.15270209891605E-07	2071108.75	4.53914981335402E-05
2	545	120.979724694556	1.11923217773438	1.11907958984375	5.38024902343751E-07	6.02092654844455E-07	2079977.375	4.54460350738373E-05
2	546	121.080432694301	1.10916137695313	1.10931396484375	5.30395507812501E-07	5.88375087318127E-07	2091484.625	4.54998335044365E-05
2	547	121.181140694047	1.09909057617188	1.09954833984375	5.230712890625E-07	5.75142166781006E-07	2102100.5	4.55528825114015E-05
2	548	121.281848693793	1.08901977539063	1.0894775390625	5.14831542968749E-07	5.60897376544744E-07	2116182.75	4.56051457149442E-05
2	549	121.382556693539	1.07894897460938	1.07940673828125	5.07202148437499E-07	5.47477384316153E-07	2128159	4.56566085631493E-05
2	550	121.483264693284	1.06887817382813	1.06903076171875	4.99572753906249E-07	5.34058642642776E-07	2139890	4.57073037978262E-05
2	551	121.58397269303	1.05880737304688	1.0589599609375	4.91943359374999E-07	5.20948333360138E-07	2152605.5	4.57572277809959E-05
2	552	121.684680692776	1.04873657226563	1.048583984375	4.84619140625001E-07	5.08163850554411E-07	2163728	4.58064023405313E-05
2	553	121.785388692521	1.03866577148438	1.03912353515625	4.7637939453125E-07	4.95016990953445E-07	2181294.25	4.58547947346233E-05
2	554	121.886096692267	1.02859497070313	1.0284423828125	4.69360351562501E-07	4.82710049709567E-07	2191157.5	4.59024158772081E-05
2	555	121.986804692013	1.01852416992188	1.0186767578125	4.61425781249999E-07	4.70043715949942E-07	2207672	4.59492839581799E-05
2	556	122.087512691759	1.00845336914063	1.00799560546875	4.53796386718749E-07	4.57424761179936E-07	2221250.75	4.59953698737081E-05
2	557	122.188220691504	0.998382568359375	0.99884033203125	4.46166992187499E-07	4.45649561697792E-07	2238714.25	4.60406845377292E-05
2	558	122.28892869125	0.988311767578125	0.98846435546875	4.38537597656249E-07	4.33478788863795E-07	2254001.5	4.60852352262009E-05
2	559	122.389636690996	0.978240966796875	0.9783935546875	4.3182373046875E-07	4.22493542373559E-07	2265724.5	4.61290619568899E-05
2	560	122.490344690742	0.968170166015625	0.96832275390625	4.2449951171875E-07	4.11052525350897E-07	2281092.75	4.61721792817116E-05
2	561	122.591052690487	0.958099365234375	0.958251953125	4.17480468750001E-07	4.00051476390217E-07	2295321.75	4.62145762867294E-05
2	562	122.691760690233	0.948028564453125	0.9478759765625	4.1046142578125E-07	3.89066514117076E-07	2309293.75	4.62562675238587E-05
2	563	122.792468689979	0.937957763671875	0.9381103515625	4.0313720703125E-07	3.78187166916177E-07	2327025	4.62972348032054E-05
2	564	122.893176689725	0.927886962890625	0.92864990234375	3.9520263671875E-07	3.6700487271446E-07	2349807	4.63374344690237E-05
2	565	122.99388468947	0.917816162109375	0.9173583984375	3.875732421875E-07	3.55543562591265E-07	2366929.25	4.63768519693986E-05
2	566	123.094592689216	0.907745361328125	0.90789794921875	3.79028320312499E-07	3.44119030160073E-07	2395330.25	4.64154509245418E-05
2	567	123.195300688962	0.897674560546875	0.8978271484375	3.69873046874999E-07	3.32082066734074E-07	2427392.75	4.64531622128561E-05
2	568	123.296008688708	0.887603759765625	0.88775634765625	3.6041259765625E-07	3.1995855920286E-07	2463166.75	4.64899349026382E-05
2	569	123.396716688453	0.877532958984375	0.87799072265625	3.50341796875001E-07	3.07596849324909E-07	2506097.5	4.65257253381424E-05
2	570	123.497424688199	0.867462158203125	0.867919921875	3.399658203125E-07	2.95063102839777E-07	2552962.25	4.65604825876653E-05
2	571	123.598132687945	0.857391357421875	0.85784912109375	3.28979492187501E-07	2.82214784874668E-07	2607606.75	4.65941666334402E-05
2	572	123.69884068769	0.847320556640625	0.84747314453125	3.18603515625E-07	2.70007916469694E-07	2659961.75	4.6626777475467E-05
2	573	123.799548687436	0.837249755859375	0.83740234375	3.082275390625E-07	2.5811044679358E-07	2716831.75	4.66583405795973E-05
2	574	123.900256687182	0.827178955078125	0.82763671875	2.98461914062501E-07	2.47018050458792E-07	2773006.25	4.66888886876404E-05
2	575	124.000964686928	0.817108154296875	0.8172607421875	2.899169921875E-07	2.36937765407674E-07	2818947.5	4.67185163870454E-05
2	576	124.101672686673	0.807037353515625	0.806884765625	2.8228759765625E-07	2.27773568894918E-07	2858378.25	4.67473291791975E-05
2	577	124.202380686419	0.796966552734375	0.797119140625	2.75573730468751E-07	2.19665082568099E-07	2892580.5	4.67754180135671E-05
2	578	124.303088686165	0.786895751953125	0.7867431640625	2.69165039062499E-07	2.11763762081318E-07	2922902.5	4.68028483737726E-05
2	579	124.403796685911	0.776824951171875	0.7769775390625	2.63366699218751E-07	2.0463001249027E-07	2950173.75	4.68296639155596E-05
2	580	124.504504685656	0.766754150390625	0.7672119140625	2.581787109375E-07	1.98077785285022E-07	2971631.25	4.6855926484568E-05
2	581	124.605212685402	0.756683349609375	0.7568359375	2.5299072265625E-07	1.91472452115704E-07	2991556.25	4.68816651846282E-05
2	582	124.705920685148	0.746612548828125	0.74652099609375	2.47802734374999E-07	1.84989929152835E-07	3012561.75	4.6906883653719E-05
2	583	124.806628684894	0.736541748046875	0.7364501953125	2.43530273437501E-07	1.7934792140295E-07	3024060	4.69316219096072E-05
2	584	124.907336684639	0.726470947265625	0.726409912109375	2.38952636718751E-07	1.73577547002424E-07	3039974.75	4.69559199700598E-05
2	585	125.008044684385	0.716400146484375	0.71636962890625	2.349853515625E-07	1.68336370620636E-07	3048571.5	4.69797814730555E-05
2	586	125.108752684131	0.706329345703125	0.706268310546875	2.3040771484375E-07	1.62729662633865E-07	3065298	4.70032173325308E-05
2	587	125.209460683877	0.696258544921875	0.696197509765625	2.2613525390625E-07	1.57434797642964E-07	3078677.5	4.70262057206128E-05
2	588	125.310168683622	0.686187744140625	0.6861572265625	2.2308349609375E-07	1.53070345731976E-07	3075786.75	4.70488266728353E-05
2	589	125.410876683368	0.676116943359375	0.67608642578125	2.18505859375E-07	1.47728840715899E-07	3094134	4.70710619993042E-05
2	590	125.511584683114	0.666046142578125	0.666015625	2.1514892578125E-07	1.43292538723472E-07	3095603	4.70928971481044E-05
2	591	125.612292682859	0.655975341796875	0.655914306640625	2.1209716796875E-07	1.39117560138402E-07	3092518	4.71144121547695E-05
2	592	125.713000682605	0.645904541015625	0.64581298828125	2.08435058593751E-07	1.34610061763851E-07	3098389.5	4.71355888294056E-05
2	593	125.813708682351	0.635833740234375	0.63568115234375	2.0599365234375E-07	1.30946276044597E-07	3085926	4.71564562758431E-05
2	594	125.914416682097	0.625762939453125	0.625732421875	2.03552246093749E-07	1.27369247593379E-07	3074063	4.71770763397217E-05
2	595	126.015124681842	0.615692138671875	0.61572265625	2.00805664062501E-07	1.23640589322349E-07	3066261.5	4.7197438107105E-05
2	596	126.115832681588	0.605621337890625	0.60552978515625	1.9866943359375E-07	1.20300256867267E-07	3047926.5	4.72175524919294E-05
2	597	126.216540681334	0.595550537109375	0.59552001953125	1.96228027343751E-07	1.16857719945074E-07	3034836.75	4.72374376840889E-05
2	598	126.31724868108	0.585479736328125	0.58551025390625	1.94091796875E-07	1.13642734334007E-07	3016666.75	4.72570936835837E-05
2	599	126.417956680825	0.575408935546875	0.575347900390625	1.922607421875E-07	1.10616817039499E-07	2992539.75	4.72765459562652E-05
2	600	126.518664680571	0.565338134765625	0.565338134765625	1.9073486328125E-07	1.07829684736771E-07	2964000.25	4.72958308819216E-05
2	601	126.619372680317	0.555267333984375	0.55523681640625	1.8951416015625E-07	1.05225232971407E-07	2929790.75	4.73149812023621E-05
2	602	126.720080680063	0.545196533203125	0.545196533203125	1.873779296875E-07	1.02157791559421E-07	2909609.25	4.73339568998199E-05
2	603	126.820788679808	0.535125732421875	0.53509521484375	1.8646240234375E-07	9.97751357090237E-08	2869721.75	4.73527834401466E-05
2	604	126.921496679554	0.525054931640625	0.5250244140625	1.8463134765625E-07	9.69359632563283E-08	2843636.5	4.73714680992998E-05
2	605	127.0222046793	0.514984130859375	0.5150146484375	1.84020996093751E-07	9.47735045997433E-08	2798673.5	4.73900327051524E-05
2	606	127.122912679045	0.504913330078125	0.504913330078125	1.81884765625E-07	9.18360356649828E-08	2776006.75	4.74084554298315E-05
2	607	127.223620678791	0.494842529296875	0.494842529296875	1.80969238281251E-07	8.95512783927188E-08	2734401.25	4.74267253594007E-05
2	608	127.324328678537	0.484771728515625	0.4847412109375	1.7974853515625E-07	8.71315180006604E-08	2696774.25	4.74448897875845E-05
2	609	127.425036678283	0.474700927734375	0.474700927734375	1.77917480468751E-07	8.44575893665933E-08	2668096.25	4.74629014206585E-05
2	610	127.525744678028	0.464630126953125	0.464630126953125	1.7669677734375E-07	8.20986443272886E-08	2629533.75	4.74807566206437E-05
2	611	127.626452677774	0.454559326171875	0.45458984375	1.74865722656251E-07	7.94921817259819E-08	2599651	4.7498459025519E-05
2	612	127.72716067752	0.444488525390625	0.4444580078125	1.727294921875E-07	7.67710019999868E-08	2573145	4.75159613415599E-05
2	613	127.827868677266	0.434417724609375	0.434417724609375	1.71813964843751E-07	7.46390327321933E-08	2528419.25	4.75333108624909E-05
2	614	127.928576677011	0.424346923828125	0.42431640625	1.69677734375E-07	7.19970429940986E-08	2500719.5	4.7550507588312E-05
2	615	128.029284676757	0.414276123046875	0.414337158203125	1.678466796875E-07	6.95451163323924E-08	2468545.5	4.75675042252988E-05
2	616	128.129992676503	0.404205322265625	0.404266357421875	1.65710449218751E-07	6.6991155733831E-08	2439595	4.75842971354723E-05
2	617	128.230700676249	0.394134521484375	0.39410400390625	1.6326904296875E-07	6.43449808990226E-08	2413832	4.76008644909598E-05
2	618	128.331408675994	0.384063720703125	0.384124755859375	1.61132812500001E-07	6.18951006003954E-08	2383901.75	4.76171990158036E-05
2	619	128.43211667574	0.373992919921875	0.374053955078125	1.59301757812499E-07	5.95874496411852E-08	2348084.5	4.76333334518131E-05
2	620	128.532824675486	0.363922119140625	0.36395263671875	1.57470703125E-07	5.7311876133781E-08	2311240.5	4.76492859888822E-05
2	621	128.633532675232	0.353851318359375	0.35382080078125	1.556396484375E-07	5.50685435030118E-08	2273333.5	4.76650493510533E-05
2	622	128.734240674977	0.343780517578125	0.343780517578125	1.5411376953125E-07	5.29813100058618E-08	2230693.25	4.76806490041781E-05
2	623	128.834948674723	0.333709716796875	0.33380126953125	1.52587890625E-07	5.09340303267436E-08	2187600	4.76960922242142E-05
2	624	128.935656674469	0.323638916015625	0.323699951171875	1.5106201171875E-07	4.88987659252871E-08	2142828.25	4.77113826491404E-05
2	625	129.036364674214	0.313568115234375	0.313568115234375	1.4801025390625E-07	4.64112943632244E-08	2118556.75	4.7726440243423E-05
2	626	129.13707267396	0.303497314453125	0.303497314453125	1.47399902343751E-07	4.47354757682206E-08	2059006.25	4.77413159387652E-05
2	627	129.237780673706	0.293426513671875	0.29339599609375	1.4495849609375E-07	4.25302424389429E-08	2024000.125	4.77560388389975E-05
2	628	129.338488673452	0.283355712890625	0.283416748046875	1.422119140625E-07	4.03052382580427E-08	1992918.375	4.77704998047557E-05
2	629	129.439196673197	0.273284912109375	0.273284912109375	1.4007568359375E-07	3.828057160149E-08	1950980.375	4.7784713387955E-05
2	630	129.539904672943	0.263214111328125	0.263214111328125	1.373291015625E-07	3.61469574272633E-08	1916666.75	4.77986795885954E-05
2	631	129.640612672689	0.253143310546875	0.253204345703125	1.3458251953125E-07	3.40768799844682E-08	1881405.875	4.78123729408253E-05
2	632	129.741320672435	0.243072509765625	0.24298095703125	1.3153076171875E-07	3.19594697373304E-08	1847331.875	4.78257716167718E-05
2	633	129.84202867218	0.233001708984375	0.2330322265625	1.27563476562501E-07	2.97263991200225E-08	1826794.375	4.7838817408774E-05
2	634	129.942736671926	0.222930908203125	0.222869873046875	1.239013671875E-07	2.76138791832636E-08	1798768.625	4.78514812130015E-05
2	635	130.043444671672	0.212860107421875	0.212860107421875	1.190185546875E-07	2.53343017675434E-08	1788461.625	4.7863712097751E-05
2	636	130.144152671418	0.202789306640625	0.20281982421875	1.13830566406251E-07	2.30870949025075E-08	1781769.5	4.78754373034462E-05
2	637	130.244860671163	0.192718505859375	0.19281005859375	1.08947753906249E-07	2.10062225391994E-08	1769747.875	4.78866568300873E-05
2	638	130.345568670909	0.182647705078125	0.18267822265625	1.019287109375E-07	1.86201543073139E-08	1792215.625	4.78972760902252E-05
2	639	130.446276670655	0.172576904296875	0.172607421875	9.49096679687497E-08	1.63821134435693E-08	1818649.5	4.79071859444957E-05
2	640	130.546984670401	0.162506103515625	0.162567138671875	8.51440429687503E-08	1.38416229589211E-08	1909319.125	4.7916251787683E-05
2	641	130.647692670146	0.152435302734375	0.1524658203125	7.41577148437506E-08	1.13065166118531E-08	2055967.125	4.79242735309526E-05
2	642	130.748400669892	0.142364501953125	0.142425537109375	6.01196289062494E-08	8.56257020842577E-09	2369035.75	4.7931036533555E-05
2	643	130.849108669638	0.132293701171875	0.132354736328125	4.15039062499997E-08	5.49323875276286E-09	3188970.5	4.79361515317578E-05
2	644	130.949816669383	0.122222900390625	0.122283935546875	1.77001953125006E-08	2.16444950851269E-09	6908621	4.79391346743796E-05
2	645	131.050524669129	0.112152099609375	0.11224365234375	-1.49536132812503E-08	-1.6784481582377E-09	-7506122.5	4.79392729175743E-05
2	646	131.151232668875	0.102081298828125	0.102142333984375	-5.85937499999994E-08	-5.98490235148574E-09	-1743229.25	4.79355694551487E-05
2	647	131.251940668621	0.092010498046875	0.092132568359375	-1.177978515625E-07	-1.08530180398247E-08	-782124.375	4.79266855109017E-05
2	648	131.352648668366	0.081939697265625	0.08197021484375	-1.97448730468749E-07	-1.6184914741757E-08	-415146.84375	4.79108130093664E-05
2	649	131.453356668112	0.071868896484375	0.07196044921875	-3.04565429687501E-07	-2.19166640391677E-08	-236272.546875	4.78855326946359E-05
2	650	131.554064667858	0.061798095703125	0.061920166015625	-4.425048828125E-07	-2.73999756217336E-08	-139931.03125	4.78479159937706E-05
2	651	131.654772667604	0.051727294921875	0.051788330078125	-6.1614990234375E-07	-3.19093729217457E-08	-84051.515625	4.77946086903103E-05
2	652	131.755480667349	0.041656494140625	0.041778564453125	-8.2275390625E-07	-3.43734747332292E-08	-50778.93359375	4.77221547043882E-05
2	653	131.856188667095	0.031585693359375	0.031671142578125	-1.05499267578125E-06	-3.34128209544815E-08	-30020.251953125	4.76276036351919E-05
2	654	131.956896666841	0.021514892578125	0.0216033935546875	-1.295166015625E-06	-2.79799809987935E-08	-16680.021484375	4.7509263822576E-05
2	655	132.057604666587	0.011444091796875	0.0115264892578125	-1.519775390625E-06	-1.75176744221517E-08	-7584.337890625	4.73675172543153E-05
2	656	132.158312666332	0.001373291015625	0.001446533203125	-1.70745849609375E-06	-2.46989539931519E-09	-847.18505859375	4.72050160169601E-05
2	657	132.259020666078	-0.008697509765625	-0.0085784912109375	-1.839599609375E-06	1.57809889600458E-08	4663.23828125	4.70264058094472E-05
2	658	132.359728665824	-0.018768310546875	-0.0186737060546875	-1.91070556640625E-06	3.56799567668986E-08	9773.19921875	4.68375619675498E-05
2	659	132.46043666557	-0.028839111328125	-0.028753662109375	-1.9256591796875E-06	5.53697496741279E-08	14931.85546875	4.66443852928933E-05
2	660	132.561144665315	-0.038909912109375	-0.0387939453125	-1.89788818359375E-06	7.3626566177154E-08	20440.583984375	4.64518561784644E-05
2	661	132.661852665061	-0.048980712890625	-0.04888916015625	-1.84295654296875E-06	9.01005989817349E-08	26527.5703125	4.62634889117908E-05
2	662	132.762560664807	-0.059051513671875	-0.0589599609375	-1.77520751953125E-06	1.04666163736056E-07	33212.99609375	4.60812989331316E-05
2	663	132.863268664552	-0.069122314453125	-0.069061279296875	-1.70196533203125E-06	1.17539897814822E-07	40577.37109375	4.59062102891039E-05
2	664	132.963976664298	-0.079193115234375	-0.079071044921875	-1.6314697265625E-06	1.29002017956736E-07	48466.14453125	4.57383575849235E-05
2	665	133.064684664044	-0.089263916015625	-0.089141845703125	-1.56524658203125E-06	1.39528964382407E-07	56950.67578125	4.55773915746249E-05
2	666	133.16539266379	-0.099334716796875	-0.09918212890625	-1.50604248046875E-06	1.49372496593969E-07	65856.1328125	4.54227410955355E-05
2	667	133.266100663535	-0.109405517578125	-0.109283447265625	-1.45416259765625E-06	1.58915895553946E-07	75152.15625	4.52736821898725E-05
2	668	133.366808663281	-0.119476318359375	-0.11932373046875	-1.40899658203125E-06	1.68126732091878E-07	84687.0234375	4.51295090897474E-05
2	669	133.467516663027	-0.129547119140625	-0.129486083984375	-1.36962890625E-06	1.77347885710333E-07	94541	4.49895960628055E-05
2	670	133.568224662773	-0.139617919921875	-0.139495849609375	-1.336669921875E-06	1.86459899964575E-07	104360.7265625	4.48533210146707E-05
2	671	133.668932662518	-0.149688720703125	-0.149566650390625	-1.3079833984375E-06	1.95630690313919E-07	114349.046875	4.47201528004371E-05
2	672	133.769640662264	-0.159759521484375	-0.159576416015625	-1.28448486328125E-06	2.04973488848736E-07	124233.7890625	4.45896112069022E-05
2	673	133.87034866201	-0.169830322265625	-0.16973876953125	-1.2646484375E-06	2.14659863218003E-07	134218.15625	4.44612524006516E-05
2	674	133.971056661756	-0.179901123046875	-0.1798095703125	-1.24755859375E-06	2.24322960207246E-07	144129.171875	4.43347526015714E-05
2	675	134.071764661501	-0.189971923828125	-0.1898193359375	-1.23443603515625E-06	2.34319827541185E-07	153770.09375	4.42097734776326E-05
2	676	134.172472661247	-0.200042724609375	-0.1998291015625	-1.224365234375E-06	2.44663795001543E-07	163210.375	4.40859657828696E-05
2	677	134.273180660993	-0.189971923828125	-0.1898193359375	-1.06597900390625E-06	2.0234341491232E-07	178070.4375	4.3970638216706E-05
