Potential - Start -0.2 V, Upper Vertex 1.5 V, Lower Vertex -0.2 V, Stop -0.19 V; Scan - # end cross 5, Rate 0.1 Vps, Step 0.01 V 
Scan	Index	Time (s)	Potential applied (V)	WE(1).Potential (V)	WE(1).Current (A)	WE(1).Power (W)	WE(1).Resistance (Ω)	WE(1).Charge (C)
1	1	66.7335858315139	-0.189971923828125	-0.189849853515625	-2.21862792968749E-07	4.21206181044909E-08	855708.375	0
1	2	66.8342938312596	-0.179901123046875	-0.1796875	-1.87072753906251E-07	3.36146328550058E-08	960522.0625	-2.05915391404687E-08
1	3	66.9350018310054	-0.169830322265625	-0.169647216796875	-1.6021728515625E-07	2.71804161400269E-08	1058857.125	-3.80789835219275E-08
1	4	67.0357098307511	-0.159759521484375	-0.15966796875	-1.3702392578125E-07	2.18783302585734E-08	1165256.25	-5.30462642700513E-08
1	5	67.1364178304968	-0.149688720703125	-0.14959716796875	-1.1627197265625E-07	1.73939582737148E-08	1286614.25	-6.58007266451932E-08
1	6	67.2371258302426	-0.139617919921875	-0.1395263671875	-9.70458984375006E-08	1.35404620849044E-08	1437735.875	-7.65421361847984E-08
1	7	67.3378338299883	-0.129547119140625	-0.129486083984375	-7.81249999999997E-08	1.01160999577132E-08	1657421.875	-8.53626929142592E-08
1	8	67.438541829734	-0.119476318359375	-0.119354248046875	-5.88989257812506E-08	7.02983671274637E-09	2026425	-9.22623897281483E-08
1	9	67.5392498294798	-0.109405517578125	-0.109283447265625	-3.87573242187494E-08	4.23553414563571E-09	2819685	-9.71797717852496E-08
1	10	67.6399578292255	-0.099334716796875	-0.09930419921875	-1.52587890625E-08	1.51526169389626E-09	6508000.5	-9.98997009560298E-08
1	11	67.7406658289713	-0.089263916015625	-0.0892333984375	1.28173828124994E-08	-1.14373865933715E-09	-6961905	-1.00022639060171E-07
1	12	67.841373828717	-0.079193115234375	-0.0791015625	4.69970703125003E-08	-3.71754160788385E-09	-1683116.875	-9.70107407738396E-08
1	13	67.9420818284627	-0.069122314453125	-0.069061279296875	9.09423828125006E-08	-6.28059693141836E-09	-759396	-9.00649368418271E-08
1	14	68.0427898282085	-0.059051513671875	-0.058929443359375	1.48620605468749E-07	-8.75812933287534E-09	-396509.25	-7.80019817625544E-08
1	15	68.1434978279542	-0.048980712890625	-0.0487945556640625	2.25830078125E-07	-1.10192788227437E-08	-216067.578125	-5.91468918287319E-08
1	16	68.2442058276999	-0.038909912109375	-0.0387451171875	3.277587890625E-07	-1.26990524762505E-08	-118212.2890625	-3.12714796280034E-08
1	17	68.3449138274457	-0.028839111328125	-0.0287139892578125	4.59899902343749E-07	-1.32055610890802E-08	-62435.3046875	8.39028579946444E-09
1	18	68.4456218271914	-0.018768310546875	-0.0186553955078125	6.2530517578125E-07	-1.16653149362378E-08	-29834.064453125	6.30347045671442E-08
1	19	68.5463298269372	-0.008697509765625	-0.00861511230468751	8.221435546875E-07	-7.08285874395642E-09	-10478.841796875	1.35919535182438E-07
1	20	68.6470378266829	0.001373291015625	0.00150451660156251	1.04034423828125E-06	1.56521506866625E-09	1446.17199707031	2.29703232434986E-07
1	21	68.7477458264286	0.011444091796875	0.011578369140625	1.263427734375E-06	1.46284326874024E-08	9164.2509765625	3.45707377391591E-07
1	22	68.8484538261744	0.021514892578125	0.021612548828125	1.4697265625E-06	3.17645358904883E-08	14705.150390625	4.83332598832931E-07
1	23	68.9491618259201	0.031585693359375	0.031658935546875	1.63665771484375E-06	5.18148404182739E-08	19343.65234375	6.39751476683159E-07
1	24	69.0498698256658	0.041656494140625	0.041729736328125	1.75201416015625E-06	7.31110887386421E-08	23818.15234375	8.1038467669714E-07
1	25	69.1505778254116	0.051727294921875	0.051788330078125	1.81121826171875E-06	9.37999686811963E-08	28593.091796875	9.89807631412987E-07
1	26	69.2512858251573	0.061798095703125	0.0618896484375	1.82098388671875E-06	1.12700050181047E-07	33986.9296875	1.17270360533439E-06
1	27	69.351993824903	0.071868896484375	0.071868896484375	1.79412841796875E-06	1.28942019728129E-07	40057.8359375	1.35473896989424E-06
1	28	69.4527018246488	0.081939697265625	0.08197021484375	1.74468994140625E-06	1.43012613307292E-07	46982.68359375	1.53293262883381E-06
1	29	69.5534098243945	0.092010498046875	0.09210205078125	1.68365478515625E-06	1.5506805084442E-07	54703.64453125	1.70556347711681E-06
1	30	69.6541178241403	0.102081298828125	0.102142333984375	1.61865234375E-06	1.65332920687433E-07	63103.3203125	1.87184787137085E-06
1	31	69.754825823886	0.112152099609375	0.1121826171875	1.55426025390625E-06	1.74360977212018E-07	72177.5	2.03161675926822E-06
1	32	69.8555338236317	0.122222900390625	0.122283935546875	1.4947509765625E-06	1.82784020807958E-07	81808.90625	2.18514651351143E-06
1	33	69.9562418233775	0.132293701171875	0.132415771484375	1.4398193359375E-06	1.90654773746246E-07	91966.9375	2.33291393669788E-06
1	34	70.0569498231232	0.142364501953125	0.142425537109375	1.39068603515625E-06	1.9806918771792E-07	102413.875	2.47544107878639E-06
1	35	70.1576578228689	0.152435302734375	0.152496337890625	1.34613037109375E-06	2.0527994593067E-07	113284.96875	2.61325089923048E-06
1	36	70.2583658226147	0.162506103515625	0.162506103515625	1.3067626953125E-06	2.12356908946276E-07	124357.78125	2.74683452516911E-06
1	37	70.3590738223604	0.172576904296875	0.172607421875	1.2713623046875E-06	2.19446562255143E-07	135765.71875	2.87665352516342E-06
1	38	70.4597818221062	0.182647705078125	0.182708740234375	1.240234375E-06	2.26601656549974E-07	147317.90625	3.00312240142375E-06
1	39	70.5604898218519	0.192718505859375	0.192718505859375	1.2115478515625E-06	2.33487682521627E-07	159068.015625	3.12657948597916E-06
1	40	70.6611978215976	0.202789306640625	0.202789306640625	1.1865234375E-06	2.4061424142019E-07	170910.5	3.24733196066518E-06
1	41	70.7619058213434	0.212860107421875	0.212860107421875	1.163330078125E-06	2.47626559257696E-07	182974.828125	3.36565653924481E-06
1	42	70.8626138210891	0.222930908203125	0.22296142578125	1.14288330078125E-06	2.54818900202736E-07	195086.78125	3.48178355125128E-06
1	43	70.9633218208348	0.233001708984375	0.2330322265625	1.12396240234375E-06	2.61919467448024E-07	207330.984375	3.59592831955524E-06
1	44	71.0640298205806	0.243072509765625	0.2430419921875	1.10748291015625E-06	2.6916484330286E-07	219454.40625	3.70829047824373E-06
1	45	71.1647378203263	0.253143310546875	0.253143310546875	1.0919189453125E-06	2.76411952881972E-07	231833.4375	3.81903919333126E-06
1	46	71.265445820072	0.263214111328125	0.263275146484375	1.07757568359375E-06	2.83698909697705E-07	244321.71875	3.92828178519267E-06
1	47	71.3661538198178	0.273284912109375	0.273284912109375	1.06475830078125E-06	2.90982370643178E-07	256663.796875	4.03615695176995E-06
1	48	71.4668618195635	0.283355712890625	0.283416748046875	1.05316162109375E-06	2.98483627148016E-07	269110.40625	4.14280248151044E-06
1	49	71.5675698193093	0.293426513671875	0.293426513671875	1.04248046875E-06	3.05891404650538E-07	281469.5625	4.24832660428365E-06
1	50	71.668277819055	0.303497314453125	0.30352783203125	1.03302001953125E-06	3.13550316377587E-07	293825.71875	4.35283618571702E-06
1	51	71.7689858188007	0.313568115234375	0.313629150390625	1.02447509765625E-06	3.21305236639091E-07	306136.4375	4.45643945568008E-06
1	52	71.8696938185465	0.323638916015625	0.323699951171875	1.0162353515625E-06	3.28955309214507E-07	318528.5625	4.55919735031785E-06
1	53	71.9704018182922	0.333709716796875	0.333740234375	1.00982666015625E-06	3.37019770313418E-07	330492.59375	4.66121764475247E-06
1	54	72.0711098180379	0.343780517578125	0.343841552734375	1.00341796875E-06	3.45016786695851E-07	342670.3125	4.76259265269618E-06
1	55	72.1718178177837	0.353851318359375	0.3538818359375	9.9822998046875E-07	3.5325547287357E-07	354509.3125	4.86338376504136E-06
1	56	72.2725258175294	0.363922119140625	0.363922119140625	9.93957519531249E-07	3.61723124342461E-07	366134.46875	4.96369830216281E-06
1	57	72.3732338172751	0.373992919921875	0.373992919921875	9.91210937500001E-07	3.7070583402965E-07	377309.125	5.06365950059262E-06
1	58	72.4739418170209	0.384063720703125	0.38409423828125	9.8846435546875E-07	3.79663447347411E-07	388576.75	5.16334421263309E-06
1	59	72.5746498167666	0.394134521484375	0.394195556640625	9.8724365234375E-07	3.8916707012504E-07	399289.03125	5.26282883583917E-06
1	60	72.6753578165124	0.404205322265625	0.404205322265625	9.85107421875001E-07	3.9818564800953E-07	410316	5.36214474777807E-06
1	61	72.7760658162581	0.414276123046875	0.41424560546875	9.8419189453125E-07	4.07697143600672E-07	420899.25	5.46130650036503E-06
1	62	72.8767738160038	0.424346923828125	0.42431640625	9.83581542968751E-07	4.17349809822554E-07	431399.3125	5.56039185539703E-06
1	63	72.9774818157496	0.434417724609375	0.434356689453125	9.8388671875E-07	4.27357775834025E-07	441470.21875	5.6594617490191E-06
1	64	73.0781898154953	0.444488525390625	0.444549560546875	9.8419189453125E-07	4.37522061247364E-07	451689.9375	5.75856256546103E-06
1	65	73.178897815241	0.454559326171875	0.45452880859375	9.844970703125E-07	4.47482278786993E-07	461686.28125	5.85769384997548E-06
1	66	73.2796058149868	0.464630126953125	0.464630126953125	9.8602294921875E-07	4.58135929193304E-07	471216.375	5.95691744820215E-06
1	67	73.3803138147325	0.474700927734375	0.4747314453125	9.88159179687501E-07	4.69110233325409E-07	480420.03125	6.05632521910593E-06
1	68	73.4810218144783	0.484771728515625	0.484710693359375	9.906005859375E-07	4.80154710658098E-07	489309.90625	6.15596400166396E-06
1	69	73.581729814224	0.494842529296875	0.494842529296875	9.9365234375E-07	4.91701428018132E-07	498003.71875	6.25587881586398E-06
1	70	73.6824378139697	0.504913330078125	0.50494384765625	9.9761962890625E-07	5.03741887314391E-07	506148.6875	6.35614742350299E-06
1	71	73.7831458137155	0.514984130859375	0.5150146484375	1.00250244140625E-06	5.16303430231346E-07	513729.0625	6.45686168354587E-06
1	72	73.8838538134612	0.525054931640625	0.5250244140625	1.00860595703125E-06	5.29542774074798E-07	520544.625	6.55812891636742E-06
1	73	73.9845618132069	0.535125732421875	0.535186767578125	1.01715087890625E-06	5.44365718724293E-07	526162.625	6.66013374939212E-06
1	74	74.0852698129527	0.545196533203125	0.545196533203125	1.026611328125E-06	5.59704972147301E-07	531064.1875	6.76304534863448E-06
1	75	74.1859778126984	0.555267333984375	0.555206298828125	1.03973388671875E-06	5.77266803247767E-07	533988.875	6.86709427100141E-06
1	76	74.2866858124441	0.565338134765625	0.5654296875	1.05712890625E-06	5.97732082496805E-07	534873	6.97267978466698E-06
1	77	74.3873938121899	0.575408935546875	0.575439453125	1.08001708984375E-06	6.21484446128306E-07	532805.875	7.08029347151751E-06
1	78	74.4881018119356	0.585479736328125	0.585479736328125	1.112060546875E-06	6.51088896574947E-07	526481.875	7.19067338650348E-06
1	79	74.5888098116814	0.595550537109375	0.59552001953125	1.1566162109375E-06	6.88788134084461E-07	514881.25	7.30491046851967E-06
1	80	74.6895178114271	0.605621337890625	0.6055908203125	1.219482421875E-06	7.38507367259444E-07	496596.59375	7.4245563155273E-06
1	81	74.7902258111728	0.615692138671875	0.61566162109375	1.30584716796875E-06	8.03959949280397E-07	471465.3125	7.55171686250833E-06
1	82	74.8909338109186	0.625762939453125	0.625823974609375	1.42303466796875E-06	8.90569197053992E-07	439781.28125	7.68912650528364E-06
1	83	74.9916418106643	0.635833740234375	0.635894775390625	1.57318115234375E-06	1.00037766515015E-06	404209.53125	7.83999803388724E-06
1	84	75.09234981041	0.645904541015625	0.6458740234375	1.7572021484375E-06	1.13493115350138E-06	367558.1875	8.00769612396834E-06
1	85	75.1930578101558	0.655975341796875	0.655914306640625	1.96807861328125E-06	1.29089085021405E-06	333276.5	8.19527940620901E-06
1	86	75.2937658099015	0.666046142578125	0.665924072265625	2.1917724609375E-06	1.45955402786058E-06	303829.03125	8.40474422147963E-06
1	87	75.3944738096473	0.676116943359375	0.676025390625	2.4072265625E-06	1.62734625064331E-06	280831.65625	8.63632249092916E-06
1	88	75.495181809393	0.686187744140625	0.6861572265625	2.59368896484375E-06	1.77967831405113E-06	264548.78125	8.88813883648254E-06
1	89	75.5958898091387	0.696258544921875	0.696136474609375	2.7337646484375E-06	1.90307332559314E-06	254643.890625	9.15639702725457E-06
1	90	75.6965978088845	0.706329345703125	0.706298828125	2.81982421875E-06	1.99163855540974E-06	250476.1875	9.4360420916928E-06
1	91	75.7973058086302	0.716400146484375	0.71630859375	2.85491943359375E-06	2.04500315703626E-06	250903.265625	9.72178895608522E-06
1	92	75.8980138083759	0.726470947265625	0.726348876953125	2.85064697265625E-06	2.07056427825592E-06	254801.40625	1.00090865089442E-05
1	93	75.9987218081217	0.736541748046875	0.736419677734375	2.8228759765625E-06	2.07882135327964E-06	260875.671875	1.02947715276969E-05
1	94	76.0994298078674	0.746612548828125	0.74658203125	2.78472900390625E-06	2.07902849069797E-06	268098.65625	1.05771368907881E-05
1	95	76.2001378076131	0.756683349609375	0.75714111328125	2.74932861328125E-06	2.08162964554504E-06	275391.28125	1.08557987914537E-05
1	96	76.3008458073589	0.766754150390625	0.7672119140625	2.72705078125E-06	2.09222571356804E-06	281333.9375	1.11315557660419E-05
1	97	76.4015538071046	0.776824951171875	0.77667236328125	2.72552490234375E-06	2.11683982342947E-06	284962.5	1.14061149361078E-05
1	98	76.5022618068504	0.786895751953125	0.78643798828125	2.752685546875E-06	2.1648165784427E-06	285698.4375	1.16819646791555E-05
1	99	76.6029698065961	0.796966552734375	0.79742431640625	2.81280517578125E-06	2.24299924411753E-06	283497.875	1.19622100100969E-05
1	100	76.7036778063418	0.807037353515625	0.80718994140625	2.9095458984375E-06	2.3485561087E-06	277428.15625	1.22503524835338E-05
1	101	76.8043858060876	0.817108154296875	0.81695556640625	3.03924560546875E-06	2.48292849391873E-06	268802.09375	1.25498982015415E-05
1	102	76.9050938058333	0.827178955078125	0.82733154296875	3.1939697265625E-06	2.64247182713007E-06	259029.25	1.2863765732618E-05
1	103	77.005801805579	0.837249755859375	0.83740234375	3.35723876953125E-06	2.81135953628109E-06	249431.875	1.31936449179193E-05
1	104	77.1065098053248	0.847320556640625	0.84747314453125	3.5089111328125E-06	2.97370797852636E-06	241520.265625	1.35393829623354E-05
1	105	77.2072178050705	0.857391357421875	0.85723876953125	3.63067626953125E-06	3.11235635308549E-06	236109.9375	1.38988898470416E-05
1	106	77.3079258048163	0.867462158203125	0.8673095703125	3.7127685546875E-06	3.22011965181446E-06	233601.859375	1.42686621984467E-05
1	107	77.408633804562	0.877532958984375	0.877685546875	3.74755859375E-06	3.28917803926743E-06	234201.953125	1.46443189805723E-05
1	108	77.5093418043077	0.887603759765625	0.887451171875	3.743896484375E-06	3.32252511725528E-06	237039.46875	1.50215437315637E-05
1	109	77.6100498040535	0.897674560546875	0.8978271484375	3.71124267578125E-06	3.33205434799311E-06	241920.90625	1.53969394887099E-05
1	110	77.7107578037992	0.907745361328125	0.908203125	3.66424560546875E-06	3.32787908519094E-06	247855.421875	1.57683243742213E-05
1	111	77.8114658035449	0.917816162109375	0.91796875	3.6126708984375E-06	3.31631895278406E-06	254096.984375	1.61347470566398E-05
1	112	77.9121738032907	0.927886962890625	0.92742919921875	3.56781005859375E-06	3.30889110955468E-06	259943.5625	1.64963130373508E-05
1	113	78.0128818030364	0.937957763671875	0.9381103515625	3.53729248046875E-06	3.31837054545758E-06	265205.78125	1.68540827871766E-05
1	114	78.1135898027821	0.948028564453125	0.9478759765625	3.5284423828125E-06	3.34452556671749E-06	268638.65625	1.7209871657542E-05
1	115	78.2142978025279	0.958099365234375	0.95794677734375	3.5467529296875E-06	3.39760049428151E-06	270091.21875	1.75661352841416E-05
1	116	78.3150058022736	0.968170166015625	0.968017578125	3.59527587890625E-06	3.48029016095097E-06	269247.09375	1.79257658601273E-05
1	117	78.4157138020194	0.978240966796875	0.97869873046875	3.673095703125E-06	3.59485397893877E-06	266450.65625	1.82917574420571E-05
1	118	78.5164218017651	0.988311767578125	0.98846435546875	3.77471923828125E-06	3.73117518392974E-06	261864.34375	1.86667839443544E-05
1	119	78.6171298015108	0.998382568359375	0.99853515625	3.887939453125E-06	3.88224407288362E-06	256828.890625	1.90526297956239E-05
1	120	78.7178378012566	1.00845336914063	1.00860595703125	3.99505615234375E-06	4.0294371501659E-06	252463.53125	1.94495696632657E-05
1	121	78.8185458010023	1.01852416992188	1.01837158203125	4.08203125E-06	4.15702425016207E-06	249476.6875	1.98562829609727E-05
1	122	78.919253800748	1.02859497070313	1.02813720703125	4.134521484375E-06	4.25085545430193E-06	248671.390625	2.02700193767669E-05
1	123	79.0199618004938	1.03866577148438	1.0382080078125	4.14947509765625E-06	4.30801810580306E-06	250202.25	2.06871518457774E-05
1	124	79.1206698002395	1.04873657226563	1.04888916015625	4.130859375E-06	4.33281365985749E-06	253915.484375	2.11041005968582E-05
1	125	79.2213777999852	1.05880737304688	1.0589599609375	4.0863037109375E-06	4.32723209087271E-06	259148.609375	2.15178679354722E-05
1	126	79.322085799731	1.06887817382813	1.0687255859375	4.02618408203125E-06	4.30288582720095E-06	265443.8125	2.19263638427947E-05
1	127	79.4227937994767	1.07894897460938	1.0791015625	3.9581298828125E-06	4.27122404289548E-06	272629.15625	2.23284059757134E-05
1	128	79.5235017992225	1.08901977539063	1.08917236328125	3.88885498046875E-06	4.23563324147835E-06	280075.34375	2.27235323109198E-05
1	129	79.6242097989682	1.09909057617188	1.0992431640625	3.8214111328125E-06	4.20065998696373E-06	287653.71875	2.31117755902233E-05
1	130	79.7249177987139	1.10916137695313	1.1090087890625	3.75885009765625E-06	4.16859757024213E-06	295039.375	2.34934723266633E-05
1	131	79.8256257984597	1.11923217773438	1.119384765625	3.70086669921875E-06	4.14269379689358E-06	302465.59375	2.38690990954638E-05
1	132	79.9263337982054	1.12930297851563	1.12945556640625	3.6492919921875E-06	4.12171311836573E-06	309499.90625	2.42392088694032E-05
1	133	80.0270417979511	1.13937377929688	1.1395263671875	3.6029052734375E-06	4.10560551244998E-06	316279.84375	2.46043855440803E-05
1	134	80.1277497976969	1.14944458007813	1.1492919921875	3.56201171875E-06	4.0937916310213E-06	322652.5	2.49651675403584E-05
1	135	80.2284577974426	1.15951538085938	1.15966796875	3.52508544921875E-06	4.08792857342632E-06	328975.875	2.53220314334612E-05
1	136	80.3291657971884	1.16958618164063	1.16973876953125	3.4930419921875E-06	4.08594678447116E-06	334876.8125	2.56754228757927E-05
1	137	80.4298737969341	1.17965698242188	1.17950439453125	3.46527099609375E-06	4.08730238632415E-06	340378.6875	2.60258002526825E-05
1	138	80.5305817966798	1.18972778320313	1.1895751953125	3.441162109375E-06	4.09352105634753E-06	345689.96875	2.63735673797783E-05
1	139	80.6312897964256	1.19979858398438	1.19964599609375	3.4197998046875E-06	4.10254915550468E-06	350794.21875	2.67190443992149E-05
1	140	80.7319977961713	1.20986938476563	1.21002197265625	3.40179443359375E-06	4.11624614571338E-06	355701.09375	2.70625387202017E-05
1	141	80.832705795917	1.21994018554688	1.219482421875	3.38653564453125E-06	4.12982080888469E-06	360097.34375	2.74043577519478E-05
1	142	80.9334137956628	1.23001098632813	1.2298583984375	3.3740234375E-06	4.14957094108104E-06	364507.96875	2.7744779799832E-05
1	143	81.0341217954085	1.24008178710938	1.2396240234375	3.36334228515625E-06	4.16927969126846E-06	368569.125	2.80840322375298E-05
1	144	81.1348297951542	1.25015258789063	1.25	3.3538818359375E-06	4.19235220761038E-06	372702.46875	2.84222714981297E-05
1	145	81.2355377949	1.26022338867188	1.2603759765625	3.3465576171875E-06	4.21792083216133E-06	376618.65625	2.87596667476464E-05
1	146	81.3362457946457	1.27029418945313	1.27044677734375	3.34014892578125E-06	4.24348127125995E-06	380356.34375	2.90963689622004E-05
1	147	81.4369537943915	1.28036499023438	1.280517578125	3.33526611328125E-06	4.27086661147769E-06	383932.65625	2.9432501833071E-05
1	148	81.5376617941372	1.29043579101563	1.29058837890625	3.3306884765625E-06	4.2985475374735E-06	387484	2.97681599477073E-05
1	149	81.6383697938829	1.30050659179688	1.3006591796875	3.32763671875E-06	4.3281211219437E-06	390865.75	3.01034324365901E-05
1	150	81.7390777936287	1.31057739257813	1.31072998046875	3.3251953125E-06	4.35843321611173E-06	394181.375	3.04384302580729E-05
1	151	81.8397857933744	1.32064819335938	1.32110595703125	3.3233642578125E-06	4.39051609646413E-06	397520.6875	3.07732116198167E-05
1	152	81.9404937931201	1.33071899414063	1.33056640625	3.3233642578125E-06	4.42195687355706E-06	400367.3125	3.11079020320904E-05
1	153	82.0412017928659	1.34078979492188	1.3409423828125	3.32305908203125E-06	4.45603063781164E-06	403526.5	3.14425742544699E-05
1	154	82.1419097926116	1.35086059570313	1.35101318359375	3.32427978515625E-06	4.49114577349974E-06	406407.78125	3.1777293770574E-05
1	155	82.2426177923574	1.36093139648438	1.36077880859375	3.32672119140625E-06	4.5269316615304E-06	409045.0625	3.21121988235973E-05
1	156	82.3433257921031	1.37100219726563	1.370849609375	3.3306884765625E-06	4.56587258668151E-06	411581.46875	3.24474276567344E-05
1	157	82.4440337918488	1.38107299804688	1.380615234375	3.3367919921875E-06	4.60682576886029E-06	413755.28125	3.27831621689256E-05
1	158	82.5447417915946	1.39114379882813	1.3916015625	3.343505859375E-06	4.65282801087596E-06	416210.3125	3.31195406033657E-05
1	159	82.6454497913403	1.40121459960938	1.40106201171875	3.3526611328125E-06	4.69728593088803E-06	417895.53125	3.34567193931434E-05
1	160	82.746157791086	1.41128540039063	1.4111328125	3.3636474609375E-06	4.74655325888307E-06	419524.59375	3.37949131790083E-05
1	161	82.8468657908318	1.42135620117188	1.4208984375	3.37646484375E-06	4.79761365568265E-06	420824.3125	3.41343038599007E-05
1	162	82.9475737905775	1.43142700195313	1.4312744140625	3.39141845703125E-06	4.85405053041177E-06	422028.25	3.44750951626338E-05
1	163	83.0482817903232	1.44149780273438	1.4410400390625	3.41094970703125E-06	4.91531500301789E-06	422474.75	3.48176217812579E-05
1	164	83.148989790069	1.45156860351563	1.451416015625	3.4332275390625E-06	4.98304143548012E-06	422755.5625	3.51622511516325E-05
1	165	83.2496977898147	1.46163940429688	1.46148681640625	3.46099853515625E-06	5.05820344187669E-06	422273.1875	3.55094052792992E-05
1	166	83.3504057895605	1.47171020507813	1.47125244140625	3.49578857421875E-06	5.1431870815577E-06	420864.28125	3.58597062586341E-05
1	167	83.4511137893062	1.48178100585938	1.48162841796875	3.5382080078125E-06	5.24230927112512E-06	418751.09375	3.62138962373137E-05
1	168	83.5518217890519	1.49185180664063	1.49169921875	3.58795166015625E-06	5.35214439878473E-06	415752.3125	3.65727246389724E-05
1	169	83.6525297887977	1.50192260742188	1.5020751953125	3.64501953125E-06	5.47509307580185E-06	412089.75	3.69369336112868E-05
1	170	83.7532377885434	1.49185180664063	1.49139404296875	3.42620849609375E-06	5.10982681589667E-06	435289.9375	3.72930007870309E-05
1	171	83.8539457882891	1.48178100585938	1.48162841796875	3.2684326171875E-06	4.8426022658532E-06	453314.6875	3.76301031792536E-05
1	172	83.9546537880349	1.47171020507813	1.47186279296875	3.14361572265625E-06	4.62697107650456E-06	468206.96875	3.7952973798383E-05
1	173	84.0553617877806	1.46163940429688	1.46209716796875	3.04046630859375E-06	4.44545730715618E-06	480879.25	3.8264366594376E-05
1	174	84.1560697875263	1.45156860351563	1.45172119140625	2.95440673828125E-06	4.28897465098999E-06	491374.875	3.85662315238733E-05
1	175	84.2567777872721	1.44149780273438	1.44134521484375	2.87994384765625E-06	4.15099339079461E-06	500476.84375	3.886001650244E-05
1	176	84.3574857870178	1.43142700195313	1.4312744140625	2.81646728515625E-06	4.03113745051087E-06	508180.75	3.91468529414851E-05
1	177	84.4581937867636	1.42135620117188	1.4215087890625	2.760009765625E-06	3.92337824450806E-06	515037.59375	3.94276503357105E-05
1	178	84.5589017865093	1.41128540039063	1.41143798828125	2.71026611328125E-06	3.82537245968706E-06	520774.71875	3.97030999010894E-05
1	179	84.659609786255	1.40121459960938	1.40106201171875	2.6654052734375E-06	3.73439797840547E-06	525646.9375	3.99737873522099E-05
1	180	84.7603177860008	1.39114379882813	1.3909912109375	2.6251220703125E-06	3.65152163794846E-06	529876.75	4.02401856263168E-05
1	181	84.8610257857465	1.38107299804688	1.38092041015625	2.5885009765625E-06	3.57451358468097E-06	533482.6875	4.0502713090973E-05
1	182	84.9617337854922	1.37100219726563	1.37115478515625	2.55584716796875E-06	3.50446180163999E-06	536477.625	4.07617517339531E-05
1	183	85.062441785238	1.36093139648438	1.36077880859375	2.5244140625E-06	3.43516899192764E-06	539047.4375	4.10175634897314E-05
1	184	85.1631497849837	1.35086059570313	1.35101318359375	2.49542236328125E-06	3.37134838446218E-06	541396.625	4.12703338952269E-05
1	185	85.2638577847295	1.34078979492188	1.34063720703125	2.46856689453125E-06	3.30945272253302E-06	543083.1875	4.15202885051258E-05
1	186	85.3645657844752	1.33071899414063	1.33087158203125	2.4432373046875E-06	3.25163500747294E-06	544716.5	4.17676201323047E-05
1	187	85.4652737842209	1.32064819335938	1.3201904296875	2.41973876953125E-06	3.19451578434382E-06	545592.1875	4.20124888478313E-05
1	188	85.5659817839667	1.31057739257813	1.3104248046875	2.3968505859375E-06	3.14089243147464E-06	546727.8125	4.22550219809636E-05
1	189	85.6666897837124	1.30050659179688	1.30035400390625	2.37579345703125E-06	3.08937251247698E-06	547334.625	4.24953432229813E-05
1	190	85.7673977834581	1.29043579101563	1.290283203125	2.35504150390625E-06	3.0386704565899E-06	547881.3125	4.27335617132485E-05
1	191	85.8681057832039	1.28036499023438	1.280517578125	2.335205078125E-06	2.99027101391403E-06	548353.375	4.29697356594261E-05
1	192	85.9688137829496	1.27029418945313	1.270751953125	2.31658935546875E-06	2.94381015919498E-06	548544.375	4.32039705628995E-05
1	193	86.0695217826953	1.26022338867188	1.26068115234375	2.29827880859375E-06	2.89739682557411E-06	548532.75	4.34363464592025E-05
1	194	86.1702297824411	1.25015258789063	1.25030517578125	2.28057861328125E-06	2.85141936728905E-06	548240.3125	4.36669106420595E-05
1	195	86.2709377821868	1.24008178710938	1.2396240234375	2.2637939453125E-06	2.80625340565166E-06	547586.9375	4.38957395090256E-05
1	196	86.3716457819326	1.23001098632813	1.2298583984375	2.247314453125E-06	2.76387845588033E-06	547256.9375	4.41228912677616E-05
1	197	86.4723537816783	1.21994018554688	1.2200927734375	2.2314453125E-06	2.72257011602051E-06	546772.4375	4.4348413211992E-05
1	198	86.573061781424	1.20986938476563	1.209716796875	2.21588134765625E-06	2.68058875008137E-06	545930.3125	4.45723562734202E-05
1	199	86.6737697811698	1.19979858398438	1.19964599609375	2.200927734375E-06	2.64033405983355E-06	545063.8125	4.47947604698129E-05
1	200	86.7744777809155	1.18972778320313	1.190185546875	2.186279296875E-06	2.60207798419287E-06	544388.625	4.50156730948947E-05
1	201	86.8751857806612	1.17965698242188	1.18011474609375	2.1710205078125E-06	2.56205316873093E-06	543576.0625	4.52350795967504E-05
1	202	86.975893780407	1.16958618164063	1.16943359375	2.1563720703125E-06	2.5217336769856E-06	542315.375	4.545297997538E-05
1	203	87.0766017801527	1.15951538085938	1.15936279296875	2.14141845703125E-06	2.48268088398618E-06	541399.4375	4.56693924206775E-05
1	204	87.1773097798985	1.14944458007813	1.1492919921875	2.12646484375E-06	2.44392890635936E-06	540470.75	4.58842987427488E-05
1	205	87.2780177796442	1.13937377929688	1.1395263671875	2.10968017578125E-06	2.40403596762917E-06	540141.8125	4.6097604354145E-05
1	206	87.3787257793899	1.12930297851563	1.1285400390625	2.091064453125E-06	2.35984975915926E-06	539696.5	4.63091273559257E-05
1	207	87.4794337791357	1.11923217773438	1.11907958984375	2.0703125E-06	2.31684430218593E-06	540536.625	4.65186712972354E-05
1	208	87.5801417788814	1.10916137695313	1.1090087890625	2.04620361328125E-06	2.26925772039976E-06	541983.625	4.67259524157271E-05
1	209	87.6808497786271	1.09909057617188	1.09893798828125	2.0172119140625E-06	2.21679079004389E-06	544780.625	4.69305632577743E-05
1	210	87.7815577783729	1.08901977539063	1.0888671875	1.981201171875E-06	2.15726504393388E-06	549599.5	4.71318999188952E-05
1	211	87.8822657781186	1.07894897460938	1.0791015625	1.93511962890625E-06	2.08819051294995E-06	557640.75	4.73291001981124E-05
1	212	87.9829737778643	1.06887817382813	1.06842041015625	1.8756103515625E-06	2.00394038074592E-06	569638.8125	4.75209853902925E-05
1	213	88.0836817776101	1.05880737304688	1.0589599609375	1.79840087890625E-06	1.90443449810118E-06	588834.25	4.77059875265695E-05
1	214	88.1843897773558	1.04873657226563	1.048583984375	1.69952392578125E-06	1.78209347723168E-06	616986.9375	4.78821239084937E-05
1	215	88.2850977771016	1.03866577148438	1.03851318359375	1.5765380859375E-06	1.63725553647964E-06	658730.1875	4.80470844195224E-05
1	216	88.3858057768473	1.02859497070313	1.0284423828125	1.42974853515625E-06	1.47041396303393E-06	719317	4.81984643556643E-05
1	217	88.486513776593	1.01852416992188	1.01837158203125	1.26617431640625E-06	1.28943588606489E-06	804290.1875	4.8334215534851E-05
1	218	88.5872217763388	1.00845336914063	1.00860595703125	1.09588623046875E-06	1.10531732389063E-06	920356.4375	4.84531519759912E-05
1	219	88.6879297760845	0.998382568359375	0.99822998046875	9.3658447265625E-07	9.34926674744929E-07	1065819.5	4.85554955957923E-05
1	220	88.7886377758302	0.988311767578125	0.98846435546875	8.0230712890625E-07	7.93051981418103E-07	1232027.375	4.86430581077002E-05
1	221	88.889345775576	0.978240966796875	0.9783935546875	7.04345703125001E-07	6.89127261921385E-07	1389081.5	4.87189245177433E-05
1	222	88.9900537753217	0.968170166015625	0.968017578125	6.47583007812499E-07	6.26871667464002E-07	1494816.25	4.87869983771816E-05
1	223	89.0907617750674	0.958099365234375	0.958251953125	6.2591552734375E-07	5.99784755195287E-07	1530960.625	4.88511250296142E-05
1	224	89.1914697748132	0.948028564453125	0.94818115234375	6.3018798828125E-07	5.97532334722928E-07	1504600.5	4.89143749291543E-05
1	225	89.2921777745589	0.937957763671875	0.938720703125	6.44531249999999E-07	6.05034813361272E-07	1456439.5	4.89785597892478E-05
1	226	89.3928857743047	0.927886962890625	0.927734375	6.57043457031251E-07	6.09561766395927E-07	1411983.375	4.90441016154364E-05
1	227	89.4935937740504	0.917816162109375	0.91827392578125	6.60095214843751E-07	6.06148205406498E-07	1391123.375	4.91104219690897E-05
1	228	89.5943017737961	0.907745361328125	0.9075927734375	6.4666748046875E-07	5.86910687161435E-07	1403492.25	4.91762257297523E-05
1	229	89.6950097735419	0.897674560546875	0.89813232421875	6.1065673828125E-07	5.4845054364705E-07	1470764.625	4.92395338369533E-05
1	230	89.7957177732876	0.887603759765625	0.88775634765625	5.47180175781251E-07	4.8576265498923E-07	1622420.625	4.92978360853158E-05
1	231	89.8964257730333	0.877532958984375	0.877685546875	4.54101562500001E-07	3.98558370307001E-07	1932795.75	4.93482548336033E-05
1	232	89.9971337727791	0.867462158203125	0.86761474609375	3.2989501953125E-07	2.86221791157004E-07	2629972.25	4.93877341796178E-05
1	233	90.0978417725248	0.857391357421875	0.85784912109375	1.812744140625E-07	1.55506100441016E-07	4732323	4.9413472879678E-05
1	234	90.1985497722706	0.847320556640625	0.8477783203125	1.983642578125E-08	1.68168909908673E-08	42738460	4.94235973746981E-05
1	235	90.2992577720163	0.837249755859375	0.83770751953125	-1.3916015625E-07	-1.16575506581285E-07	-6019737	4.94175910716876E-05
1	236	90.399965771762	0.827178955078125	0.82733154296875	-2.7801513671875E-07	-2.30010698487604E-07	-2975850.75	4.93965853820555E-05
1	237	90.5006737715078	0.817108154296875	0.81756591796875	-3.8482666015625E-07	-3.14621161123796E-07	-2124504.5	4.93632069265004E-05
1	238	90.6013817712535	0.807037353515625	0.8074951171875	-4.5196533203125E-07	-3.64959788612396E-07	-1786630.75	4.93210718559567E-05
1	239	90.7020897709992	0.796966552734375	0.797119140625	-4.83093261718751E-07	-3.85082870479891E-07	-1650031.75	4.92739891342353E-05
1	240	90.802797770745	0.786895751953125	0.787353515625	-4.85839843749999E-07	-3.82527701958679E-07	-1620603	4.92251965624746E-05
1	241	90.9035057704907	0.776824951171875	0.77667236328125	-4.7119140625E-07	-3.65961312809304E-07	-1648316.125	4.91770078951959E-05
1	242	91.0042137702364	0.766754150390625	0.7672119140625	-4.49218749999999E-07	-3.44645968652912E-07	-1707880.5	4.91306600451935E-05
1	243	91.1049217699822	0.756683349609375	0.7568359375	-4.290771484375E-07	-3.24740994983586E-07	-1763869.125	4.90864367748145E-05
1	244	91.2056297697279	0.746612548828125	0.74652099609375	-4.20227050781249E-07	-3.1370831266031E-07	-1776470.625	4.90436686959583E-05
1	245	91.3063377694737	0.736541748046875	0.736419677734375	-4.28466796875E-07	-3.15531366368305E-07	-1718732.25	4.90009333589114E-05
1	246	91.4070457692194	0.726470947265625	0.72637939453125	-4.620361328125E-07	-3.35613520974221E-07	-1572126.875	4.8956095270114E-05
1	247	91.5077537689651	0.716400146484375	0.716278076171875	-5.2825927734375E-07	-3.78380519805432E-07	-1355921.5	4.89062294946052E-05
1	248	91.6084617687109	0.706329345703125	0.70623779296875	-6.29577636718751E-07	-4.44631524487704E-07	-1121764.375	4.88479272462428E-05
1	249	91.7091697684566	0.696258544921875	0.6961669921875	-7.6568603515625E-07	-5.33045351858163E-07	-909206.875	4.87776705995202E-05
1	250	91.8098777682023	0.686187744140625	0.686126708984375	-9.259033203125E-07	-6.35286994565831E-07	-741034.9375	4.8692490963731E-05
1	251	91.9105857679481	0.676116943359375	0.676116943359375	-1.09619140625E-06	-7.41153542094253E-07	-616787.3125	4.85906712128781E-05
1	252	92.0112937676938	0.666046142578125	0.665985107421875	-1.256103515625E-06	-8.3654623495022E-07	-530199.25	4.8472222260898E-05
1	253	92.1120017674396	0.655975341796875	0.655914306640625	-1.38519287109375E-06	-9.08567812984984E-07	-473518.40625	4.83392250316683E-05
1	254	92.2127097671853	0.645904541015625	0.645904541015625	-1.4703369140625E-06	-9.49697266605654E-07	-439290.15625	4.81954375572968E-05
1	255	92.313417766931	0.635833740234375	0.635894775390625	-1.5057373046875E-06	-9.57490442488051E-07	-422314.5625	4.80455782962963E-05
1	256	92.4141257666768	0.625762939453125	0.625762939453125	-1.49810791015625E-06	-9.37460356453812E-07	-417702.1875	4.78943220514338E-05
1	257	92.5148337664225	0.615692138671875	0.615692138671875	-1.45782470703125E-06	-8.97571169389266E-07	-422336.21875	4.77454814244993E-05
1	258	92.6155417661682	0.605621337890625	0.60552978515625	-1.39678955078125E-06	-8.45797671900073E-07	-433515.40625	4.76017412438523E-05
1	259	92.716249765914	0.595550537109375	0.595550537109375	-1.32598876953125E-06	-7.89693274327874E-07	-449136.96875	4.74646367365494E-05
1	260	92.8169577656597	0.585479736328125	0.585479736328125	-1.2518310546875E-06	-7.32921705548506E-07	-467698.6875	4.73348336527124E-05
1	261	92.9176657654054	0.575408935546875	0.57537841796875	-1.1798095703125E-06	-6.78836897805013E-07	-487687.5625	4.72123902000021E-05
1	262	93.0183737651512	0.565338134765625	0.5653076171875	-1.1114501953125E-06	-6.28311227046652E-07	-508621.65625	4.7097015340114E-05
1	263	93.1190817648969	0.555267333984375	0.55523681640625	-1.04827880859375E-06	-5.82043014674127E-07	-529665.1875	4.69882652396336E-05
1	264	93.2197897646427	0.545196533203125	0.545196533203125	-9.9090576171875E-07	-5.40238374924229E-07	-550200.1875	4.68855832878035E-05
1	265	93.3204977643884	0.535125732421875	0.53509521484375	-9.38720703125E-07	-5.02304942529008E-07	-570026	4.67884201498237E-05
1	266	93.4212057641341	0.525054931640625	0.524993896484375	-8.929443359375E-07	-4.68790290142351E-07	-587935.8125	4.66961864731275E-05
1	267	93.5219137638799	0.514984130859375	0.51495361328125	-8.5113525390625E-07	-4.3829516016558E-07	-605019.75	4.66083656647243E-05
1	268	93.6226217636256	0.504913330078125	0.504913330078125	-8.1329345703125E-07	-4.1064268430091E-07	-620825.5625	4.65245575469453E-05
1	269	93.7233297633713	0.494842529296875	0.494781494140625	-7.7850341796875E-07	-3.85189082408033E-07	-635554.6875	4.64444019598886E-05
1	270	93.8240377631171	0.484771728515625	0.484710693359375	-7.48291015624999E-07	-3.62704639655931E-07	-647757	4.63675241917372E-05
1	271	93.9247457628628	0.474700927734375	0.4747314453125	-7.1990966796875E-07	-3.41763723099575E-07	-659432	4.62935931864195E-05
1	272	94.0254537626085	0.464630126953125	0.46466064453125	-6.94885253906249E-07	-3.22885824743935E-07	-668686.875	4.62223506474402E-05
1	273	94.1261617623543	0.454559326171875	0.45458984375	-6.7138671875E-07	-3.05205588801982E-07	-677090.9375	4.61535564681981E-05
1	274	94.2268697621	0.444488525390625	0.444549560546875	-6.5032958984375E-07	-2.89103724071538E-07	-683575.8125	4.60869996459223E-05
1	275	94.3275777618458	0.434417724609375	0.434326171875	-6.3018798828125E-07	-2.73707115638899E-07	-689201	4.60225237475242E-05
1	276	94.4282857615915	0.424346923828125	0.424407958984375	-6.1248779296875E-07	-2.5994469865509E-07	-692924.75	4.59599468740635E-05
1	277	94.5289937613372	0.414276123046875	0.41424560546875	-5.96008300781251E-07	-2.46893819166871E-07	-695033.25	4.58990944025572E-05
1	278	94.629701761083	0.404205322265625	0.40423583984375	-5.810546875E-07	-2.34883131611241E-07	-695693.3125	4.58398244518321E-05
1	279	94.7304097608287	0.394134521484375	0.3941650390625	-5.66711425781249E-07	-2.23377838892702E-07	-695530.4375	4.57820315205026E-05
1	280	94.8311177605744	0.384063720703125	0.384124755859375	-5.5419921875E-07	-2.12881644756635E-07	-693116.75	4.57255882793106E-05
1	281	94.9318257603202	0.373992919921875	0.373931884765625	-5.42602539062501E-07	-2.02896387690998E-07	-689145.0625	4.56703601230402E-05
1	282	95.0325337600659	0.363922119140625	0.36395263671875	-5.3070068359375E-07	-1.93149915617141E-07	-685796.4375	4.5616314309882E-05
1	283	95.1332417598117	0.353851318359375	0.35382080078125	-5.2001953125E-07	-1.83993719815589E-07	-680399.0625	4.55634071840905E-05
1	284	95.2339497595574	0.343780517578125	0.34381103515625	-5.0994873046875E-07	-1.75326007934018E-07	-674207.0625	4.55115441582166E-05
1	285	95.3346577593031	0.333709716796875	0.333770751953125	-4.99877929687501E-07	-1.66844628779472E-07	-667704.5625	4.54606961284298E-05
1	286	95.4353657590489	0.323638916015625	0.3236083984375	-4.90722656250001E-07	-1.58801967131694E-07	-659452.75	4.54108158010058E-05
1	287	95.5360737587946	0.313568115234375	0.313568115234375	-4.8248291015625E-07	-1.5129126040847E-07	-649905.125	4.53618085884955E-05
1	288	95.6367817585403	0.303497314453125	0.303436279296875	-4.74853515625E-07	-1.44087778153335E-07	-639010.3125	4.53136053693015E-05
1	289	95.7374897582861	0.293426513671875	0.293426513671875	-4.67834472656251E-07	-1.37275037559448E-07	-627201.5625	4.52661370218266E-05
1	290	95.8381977580318	0.283355712890625	0.283416748046875	-4.608154296875E-07	-1.3060279968613E-07	-615033.125	4.52193744422402E-05
1	291	95.9389057577775	0.273284912109375	0.2733154296875	-4.55627441406251E-07	-1.24530004086409E-07	-599866.0625	4.51732303190511E-05
1	292	96.0396137575233	0.263214111328125	0.26318359375	-4.50439453125E-07	-1.18548271643704E-07	-584281.875	4.51276027888525E-05
1	293	96.140321757269	0.253143310546875	0.253204345703125	-4.46166992187499E-07	-1.12971420662689E-07	-567510.25	4.50824554718565E-05
1	294	96.2410297570148	0.243072509765625	0.243072509765625	-4.43115234374999E-07	-1.07709126950795E-07	-548553.75	4.50376792286988E-05
1	295	96.3417377567605	0.233001708984375	0.2330322265625	-4.40673828125E-07	-1.02691203096583E-07	-528808.875	4.49931758339517E-05
1	296	96.4424457565062	0.222930908203125	0.22296142578125	-4.38842773437501E-07	-9.78450103161776E-08	-508066.78125	4.49488870799541E-05
1	297	96.543153756252	0.212860107421875	0.212921142578125	-4.37011718749999E-07	-9.30490315909083E-08	-487220.65625	4.49047838628758E-05
1	298	96.6438617559977	0.202789306640625	0.202880859375	-4.364013671875E-07	-8.85374831227637E-08	-464895.09375	4.48608043370768E-05
1	299	96.7445697557434	0.192718505859375	0.1927490234375	-4.3609619140625E-07	-8.40571132698642E-08	-441987.4375	4.48168721050024E-05
1	300	96.8452777554892	0.182647705078125	0.18267822265625	-4.37011718749999E-07	-7.98325245909837E-08	-418016.75	4.47729071311187E-05
1	301	96.9459857552349	0.172576904296875	0.172637939453125	-4.38232421875E-07	-7.56555422753991E-08	-393941.53125	4.47288366558496E-05
1	302	97.0466937549807	0.162506103515625	0.16253662109375	-4.412841796875E-07	-7.17248340720289E-08	-368326.4375	4.46845479018521E-05
1	303	97.1474017547264	0.152435302734375	0.152435302734375	-4.4586181640625E-07	-6.79650824508826E-08	-341889.125	4.46398771600798E-05
1	304	97.2481097544721	0.142364501953125	0.14239501953125	-4.534912109375E-07	-6.45748912120325E-08	-313997.3125	4.45945915998891E-05
1	305	97.3488177542179	0.132293701171875	0.13238525390625	-4.6356201171875E-07	-6.13687731743084E-08	-285582.625	4.45484147348907E-05
1	306	97.4495257539636	0.122222900390625	0.122283935546875	-4.78515625000001E-07	-5.85147752474313E-08	-255548.46875	4.45009754912462E-05
1	307	97.5502337537093	0.112152099609375	0.11224365234375	-4.99877929687501E-07	-5.6108120816134E-08	-224542.140625	4.44517099822406E-05
1	308	97.6509417534551	0.102081298828125	0.102142333984375	-5.30395507812501E-07	-5.41758318206575E-08	-192577.6875	4.43998324044514E-05
1	309	97.7516497532008	0.092010498046875	0.092132568359375	-5.7342529296875E-07	-5.28311439040863E-08	-160670.578125	4.43442513642367E-05
1	310	97.8523577529465	0.081939697265625	0.08197021484375	-6.3446044921875E-07	-5.20068574871857E-08	-129196.734375	4.42834279965609E-05
1	311	97.9530657526923	0.071868896484375	0.071929931640625	-7.183837890625E-07	-5.16732967525968E-08	-100127.4453125	4.42153068433981E-05
1	312	98.053773752438	0.061798095703125	0.06182861328125	-8.30078125E-07	-5.13225764109393E-08	-74485.296875	4.41373376816045E-05
1	313	98.1544817521838	0.051727294921875	0.051788330078125	-9.74426269531251E-07	-5.0463910383769E-08	-53147.51171875	4.40464718849398E-05
1	314	98.2551897519295	0.041656494140625	0.0417327880859375	-1.15203857421875E-06	-4.80777799793941E-08	-36225.16796875	4.39393952547107E-05
1	315	98.3558977516752	0.031585693359375	0.0316375732421875	-1.3580322265625E-06	-4.29648387978432E-08	-23296.62890625	4.38130045949947E-05
1	316	98.456605751421	0.021514892578125	0.0216217041015625	-1.5777587890625E-06	-3.41138317594414E-08	-13704.0615234375	4.36651753261685E-05
1	317	98.5573137511667	0.011444091796875	0.011578369140625	-1.79168701171875E-06	-2.07448120903564E-08	-6462.2724609375	4.34955109085422E-05
1	318	98.6580217509124	0.001373291015625	0.00144042968749999	-1.97662353515625E-06	-2.84718715271026E-09	-728.732482910156	4.33057612099219E-05
1	319	98.7587297506582	-0.008697509765625	-0.008587646484375	-2.11639404296875E-06	1.81748429639583E-08	4057.67846679688	4.30996587965637E-05
1	320	98.8594377504039	-0.018768310546875	-0.01868896484375	-2.20062255859375E-06	4.11273575195992E-08	8492.5810546875	4.28822822868824E-05
1	321	98.9601457501496	-0.028839111328125	-0.02869873046875	-2.23236083984375E-06	6.40659223449802E-08	12855.7763671875	4.26590631832369E-05
1	322	99.0608537498954	-0.038909912109375	-0.0387847900390625	-2.22259521484375E-06	8.62028883830135E-08	17450.2265625	4.2434738134034E-05
1	323	99.1615617496411	-0.048980712890625	-0.0488067626953125	-2.18414306640625E-06	1.06600957394676E-07	22345.955078125	4.22128396166954E-05
1	324	99.2622697493869	-0.059051513671875	-0.058929443359375	-2.13043212890625E-06	1.25545170703845E-07	27660.794921875	4.19955867982935E-05
1	325	99.3629777491326	-0.069122314453125	-0.06903076171875	-2.06878662109375E-06	1.42809923886489E-07	33367.75390625	4.17841365560889E-05
1	326	99.4636857488783	-0.079193115234375	-0.079132080078125	-2.0074462890625E-06	1.58853396214909E-07	39419.27734375	4.15788817917928E-05
1	327	99.5643937486241	-0.089263916015625	-0.08917236328125	-1.94854736328125E-06	1.73756575350126E-07	45763.5078125	4.13796842622105E-05
1	328	99.6651017483698	-0.099334716796875	-0.099273681640625	-1.89483642578125E-06	1.88107378562563E-07	52391.69140625	4.11861547036096E-05
1	329	99.7658097481155	-0.109405517578125	-0.109283447265625	-1.84661865234375E-06	2.01804851940324E-07	59180.30078125	4.09977546951268E-05
1	330	99.8665177478613	-0.119476318359375	-0.11932373046875	-1.8048095703125E-06	2.1535659300298E-07	66114.3125	4.08138912462164E-05
1	331	99.967225747607	-0.129547119140625	-0.129425048828125	-1.76849365234375E-06	2.28887373054931E-07	73183.78125	4.06339604523964E-05
1	332	100.067933747353	-0.139617919921875	-0.139556884765625	-1.73675537109375E-06	2.42376160031199E-07	80354.953125	4.04574602725916E-05
1	333	100.168641747098	-0.149688720703125	-0.1495361328125	-1.71173095703125E-06	2.55965602491415E-07	87359.6015625	4.02838122681715E-05
1	334	100.269349746844	-0.159759521484375	-0.15960693359375	-1.689453125E-06	2.69648410267109E-07	94472.546875	4.01125507778488E-05
1	335	100.37005774659	-0.169830322265625	-0.16961669921875	-1.67266845703125E-06	2.83712495274813E-07	101404.859375	3.9943253796082E-05
1	336	100.470765746336	-0.179901123046875	-0.179718017578125	-1.66046142578125E-06	2.98414846611195E-07	108233.78125	3.97754192817956E-05
1	337	100.571473746081	-0.189971923828125	-0.1898193359375	-1.65283203125E-06	3.13739462853846E-07	114844.90625	3.96085815737024E-05
1	338	100.672181745827	-0.200042724609375	-0.199920654296875	-1.64947509765625E-06	3.29764134221477E-07	121202.59375	3.94422968383878E-05
1	339	100.772889745573	-0.189971923828125	-0.189788818359375	-1.4544677734375E-06	2.76041731694932E-07	130486.78125	3.92859983548988E-05
2	340	100.873597745319	-0.179901123046875	-0.179779052734375	-1.31591796875E-06	2.3657449332859E-07	136618.734375	3.91465000575408E-05
2	341	100.974305745064	-0.169830322265625	-0.169708251953125	-1.2042236328125E-06	2.04366685352397E-07	140927.515625	3.90196000807919E-05
2	342	101.07501374481	-0.159759521484375	-0.159637451171875	-1.109619140625E-06	1.77136769252684E-07	143866.890625	3.89030901715159E-05
2	343	101.175721744556	-0.149688720703125	-0.1495361328125	-1.02752685546875E-06	1.53652393919401E-07	145530.140625	3.87954751204234E-05
2	344	101.276429744302	-0.139617919921875	-0.1395263671875	-9.5367431640625E-07	1.33062712848186E-07	146304	3.86957144655753E-05
2	345	101.377137744047	-0.129547119140625	-0.1295166015625	-8.8714599609375E-07	1.14900132075491E-07	145992.4375	3.86030224035494E-05
2	346	101.477845743793	-0.119476318359375	-0.119415283203125	-8.2550048828125E-07	9.85773738193529E-08	144658.046875	3.85167841159273E-05
2	347	101.578553743539	-0.109405517578125	-0.10931396484375	-7.6568603515625E-07	8.37001721265551E-08	142766.046875	3.84366612706799E-05
2	348	101.679261743285	-0.099334716796875	-0.099273681640625	-7.080078125E-07	7.02865392554486E-08	140215.515625	3.83624537789728E-05
2	349	101.77996974303	-0.089263916015625	-0.0892333984375	-6.4849853515625E-07	5.78677301632524E-08	137600	3.82941470888909E-05
2	350	101.880677742776	-0.079193115234375	-0.079132080078125	-5.841064453125E-07	4.62215581364944E-08	135475.453125	3.82320831704419E-05
2	351	101.981385742522	-0.069122314453125	-0.069122314453125	-5.12084960937501E-07	3.53964964006082E-08	134982.125	3.81768841180019E-05
2	352	102.082093742267	-0.059051513671875	-0.058990478515625	-4.28161621093751E-07	2.52574583470278E-08	137776.203125	3.81295394618064E-05
2	353	102.182801742013	-0.048980712890625	-0.0487945556640625	-3.24096679687499E-07	1.58141535422374E-08	150555.5625	3.8091660826467E-05
2	354	102.283509741759	-0.038909912109375	-0.0387908935546875	-1.97448730468749E-07	7.65921281953297E-09	196460.59375	3.80653982574586E-05
2	355	102.384217741505	-0.028839111328125	-0.0287017822265625	-4.119873046875E-08	1.18247689417927E-09	696666.6875	3.80533820134588E-05
2	356	102.48492574125	-0.018768310546875	-0.01866455078125	1.48620605468749E-07	-2.77393663594694E-09	-125585.21875	3.80587916879449E-05
2	357	102.585633740996	-0.008697509765625	-0.00863037109375001	3.662109375E-07	-3.16053627713586E-09	-23566.666015625	3.80847122869454E-05
2	358	102.686341740742	0.001373291015625	0.0014495849609375	6.0394287109375E-07	8.7546647709047E-10	2400.2021484375	3.81335667043459E-05
2	359	102.787049740488	0.011444091796875	0.0115081787109375	8.43200683593751E-07	9.70370450659175E-09	13648.208984375	3.82064354198519E-05
2	360	102.887757740233	0.021514892578125	0.02161865234375	1.06201171875E-06	2.29592629352737E-08	20356.322265625	3.83023689209949E-05
2	361	102.988465739979	0.031585693359375	0.031695556640625	1.239013671875E-06	3.92712244945415E-08	25581.28125	3.8418234908022E-05
2	362	103.089173739725	0.041656494140625	0.0417510986328125	1.3616943359375E-06	5.68522331434451E-08	30661.138671875	3.85491912311409E-05
2	363	103.189881739471	0.051727294921875	0.05181884765625	1.42791748046875E-06	7.39930356985496E-08	36289.8046875	3.86896608688403E-05
2	364	103.290589739216	0.061798095703125	0.0618896484375	1.44561767578125E-06	8.9468763064815E-08	42811.90625	3.88343541999348E-05
2	365	103.391297738962	0.071868896484375	0.07196044921875	1.4263916015625E-06	1.02643781474399E-07	50449.29296875	3.89789711334743E-05
2	366	103.492005738708	0.081939697265625	0.082061767578125	1.3861083984375E-06	1.13746501995138E-07	59202.99609375	3.91205903724767E-05
2	367	103.592713738454	0.092010498046875	0.092041015625	1.33392333984375E-06	1.22775645650108E-07	69000.234375	3.92575566365849E-05
2	368	103.693421738199	0.102081298828125	0.10211181640625	1.27777099609375E-06	1.30475513060446E-07	79914.0234375	3.93890659324825E-05
2	369	103.794129737945	0.112152099609375	0.1121826171875	1.22344970703125E-06	1.37249784870619E-07	91693.6953125	3.9515012758784E-05
2	370	103.894837737691	0.122222900390625	0.12225341796875	1.1724853515625E-06	1.43340344038734E-07	104268.609375	3.96356554119848E-05
2	371	103.995545737436	0.132293701171875	0.13238525390625	1.12640380859375E-06	1.4911924495209E-07	117529.1328125	3.97514158976264E-05
2	372	104.096253737182	0.142364501953125	0.142364501953125	1.08551025390625E-06	1.5453812807209E-07	131149.84375	3.98627926188055E-05
2	373	104.196961736928	0.152435302734375	0.15252685546875	1.0498046875E-06	1.60123391879097E-07	145290.703125	3.99703167204279E-05
2	374	104.297669736674	0.162506103515625	0.162506103515625	1.01806640625E-06	1.65442003208227E-07	159622.296875	4.00744393118657E-05
2	375	104.398377736419	0.172576904296875	0.172607421875	9.9090576171875E-07	1.7103768357174E-07	174191.5625	4.01756005885545E-05
2	376	104.499085736165	0.182647705078125	0.18267822265625	9.66796875000001E-07	1.76612729774206E-07	188952.03125	4.02741789002903E-05
2	377	104.599793735911	0.192718505859375	0.1927490234375	9.45434570312501E-07	1.82231573830904E-07	203873.484375	4.03704652853776E-05
2	378	104.700501735657	0.202789306640625	0.202789306640625	9.27124023437501E-07	1.88010830015628E-07	218729.4375	4.04647580580786E-05
2	379	104.801209735402	0.212860107421875	0.212890625	9.1064453125E-07	1.93867677467097E-07	233780.15625	4.05572973249946E-05
2	380	104.901917735148	0.222930908203125	0.222991943359375	8.96606445312501E-07	1.99936010858437E-07	248706.609375	4.06482977268752E-05
2	381	105.002625734894	0.233001708984375	0.233001708984375	8.837890625E-07	2.05924351348585E-07	263639.5	4.07379484386183E-05
2	382	105.10333373464	0.243072509765625	0.243072509765625	8.7249755859375E-07	2.12080166761552E-07	278593.90625	4.08263840654399E-05
2	383	105.204041734385	0.253143310546875	0.253143310546875	8.62731933593749E-07	2.18394802686817E-07	293420.59375	4.09137610404287E-05
2	384	105.304749734131	0.263214111328125	0.26324462890625	8.5418701171875E-07	2.24860130515481E-07	308181.5	4.10002139688004E-05
2	385	105.405457733877	0.273284912109375	0.273284912109375	8.465576171875E-07	2.3135142157571E-07	322819.03125	4.10858556278981E-05
2	386	105.506165733623	0.283355712890625	0.2833251953125	8.40148925781251E-07	2.38035354982458E-07	337232.125	4.11707878811285E-05
2	387	105.606873733368	0.293426513671875	0.293365478515625	8.343505859375E-07	2.44769637447462E-07	351609.375	4.12551053159405E-05
2	388	105.707581733114	0.303497314453125	0.303466796875	8.29162597656249E-07	2.51623305302928E-07	365991.90625	4.13388697779737E-05
2	389	105.80828973286	0.313568115234375	0.3135986328125	8.2427978515625E-07	2.58493003002513E-07	380451.6875	4.1422124922974E-05
2	390	105.908997732605	0.323638916015625	0.32366943359375	8.2122802734375E-07	2.65806392008017E-07	394128.59375	4.15049835282844E-05
2	391	106.009705732351	0.333709716796875	0.333770751953125	8.1817626953125E-07	2.73083315960321E-07	407944.8125	4.15875329053961E-05
2	392	106.110413732097	0.343780517578125	0.343719482421875	8.160400390625E-07	2.80488848147797E-07	421204.1875	4.16698239860125E-05
2	393	106.211121731843	0.353851318359375	0.353851318359375	8.14208984375001E-07	2.88108935819764E-07	434595.1875	4.17519149777945E-05
2	394	106.311829731588	0.363922119140625	0.36395263671875	8.12683105468751E-07	2.95778164627336E-07	447840.78125	4.18338349845726E-05
2	395	106.412537731334	0.373992919921875	0.3740234375	8.1298828125E-07	3.04076678503407E-07	460060.0625	4.1915693145711E-05
2	396	106.51324573108	0.384063720703125	0.384063720703125	8.1329345703125E-07	3.12356490894672E-07	472232.6875	4.19975840486586E-05
2	397	106.613953730826	0.394134521484375	0.394134521484375	8.14208984375001E-07	3.20907872719545E-07	484070.46875	4.20795331592672E-05
2	398	106.714661730571	0.404205322265625	0.404296875	8.1451416015625E-07	3.29305521518108E-07	496365.6875	4.21615477534942E-05
2	399	106.815369730317	0.414276123046875	0.414337158203125	8.15734863281251E-07	3.37989263243799E-07	507931.1875	4.22436351072975E-05
2	400	106.916077730063	0.424346923828125	0.42437744140625	8.1695556640625E-07	3.46697504483018E-07	519462.09375	4.23258497903589E-05
2	401	107.016785729809	0.434417724609375	0.4344482421875	8.19091796875E-07	3.55852989741834E-07	530402.375	4.24082318204455E-05
2	402	107.117493729554	0.444488525390625	0.444488525390625	8.20312500000001E-07	3.64619495485385E-07	541852.6875	4.24907811975572E-05
2	403	107.2182017293	0.454559326171875	0.454559326171875	8.2244873046875E-07	3.73851747781373E-07	552690.1875	4.25735015596729E-05
2	404	107.318909729046	0.464630126953125	0.464599609375	8.24584960937499E-07	3.83101848910883E-07	563434.5	4.26564365625381E-05
2	405	107.419617728792	0.474700927734375	0.474639892578125	8.270263671875E-07	3.92539675431181E-07	573911.4375	4.27396007580683E-05
2	406	107.520325728537	0.484771728515625	0.484771728515625	8.30078125E-07	4.02398399046433E-07	584007.375	4.28230414399877E-05
2	407	107.621033728283	0.494842529296875	0.49481201171875	8.331298828125E-07	4.12242684433295E-07	593919.4375	4.29067913501058E-05
2	408	107.721741728029	0.504913330078125	0.50494384765625	8.37097167968751E-07	4.2268706579307E-07	603208.1875	4.29908941441681E-05
2	409	107.822449727774	0.514984130859375	0.5150146484375	8.4259033203125E-07	4.33946354405634E-07	611227.8125	4.30754735134542E-05
2	410	107.92315772752	0.525054931640625	0.525054931640625	8.4869384765625E-07	4.45610879751257E-07	618662.375	4.31606349593494E-05
2	411	108.023865727266	0.535125732421875	0.53509521484375	8.5601806640625E-07	4.58051175655783E-07	625098.0625	4.32464767072815E-05
2	412	108.124573727012	0.545196533203125	0.545135498046875	8.6639404296875E-07	4.72302133402991E-07	629200.4375	4.33332061220426E-05
2	413	108.225281726757	0.555267333984375	0.55523681640625	8.7890625E-07	4.8800109198055E-07	631736.125	4.34210887760855E-05
2	414	108.325989726503	0.565338134765625	0.565338134765625	8.9569091796875E-07	5.06368223796017E-07	631175.5	4.35104448115453E-05
2	415	108.426697726249	0.575408935546875	0.575408935546875	9.197998046875E-07	5.29261001247505E-07	625580.625	4.36018635809887E-05
2	416	108.527405725995	0.585479736328125	0.58544921875	9.521484375E-07	5.57434532311163E-07	614871.8125	4.36961236118805E-05
2	417	108.62811372574	0.595550537109375	0.59552001953125	9.979248046875E-07	5.94284188082383E-07	596758.4375	4.37943162978627E-05
2	418	108.728821725486	0.605621337890625	0.6055908203125	1.06201171875E-06	6.43144574041798E-07	570229.875	4.38980423496105E-05
2	419	108.829529725232	0.615692138671875	0.61566162109375	1.15081787109375E-06	7.0851439204489E-07	534977.4375	4.40094700024929E-05
2	420	108.930237724978	0.625762939453125	0.625732421875	1.26983642578125E-06	7.94577772467164E-07	492766.1875	4.41313568444457E-05
2	421	109.030945724723	0.635833740234375	0.63580322265625	1.42242431640625E-06	9.04381920463493E-07	446985.65625	4.42669224867132E-05
2	422	109.131653724469	0.645904541015625	0.645904541015625	1.6082763671875E-06	1.03879301605048E-06	401612.90625	4.44195320596918E-05
2	423	109.232361724215	0.655975341796875	0.6558837890625	1.8194580078125E-06	1.19335300041712E-06	360483.09375	4.45921323262155E-05
2	424	109.333069723961	0.666046142578125	0.665985107421875	2.04315185546875E-06	1.36070877942984E-06	325959.65625	4.4786629587179E-05
2	425	109.433777723706	0.676116943359375	0.67608642578125	2.2564697265625E-06	1.52556856392039E-06	299621.3125	4.50031329819467E-05
2	426	109.534485723452	0.686187744140625	0.68609619140625	2.43927001953125E-06	1.67357381997135E-06	281271.125	4.52395834145136E-05
2	427	109.635193723198	0.696258544921875	0.696136474609375	2.57598876953125E-06	1.79323967586242E-06	270240.5	4.54921209893655E-05
2	428	109.735901722943	0.706329345703125	0.706329345703125	2.65869140625E-06	1.87791169992124E-06	265668.0625	4.57557071058545E-05
2	429	109.836609722689	0.716400146484375	0.71636962890625	2.6922607421875E-06	1.92865377357521E-06	266084.78125	4.6025150368223E-05
2	430	109.937317722435	0.726470947265625	0.726348876953125	2.6885986328125E-06	1.95286065718392E-06	270158.90625	4.62960961158387E-05
2	431	110.038025722181	0.736541748046875	0.736419677734375	2.66265869140625E-06	1.96083419723436E-06	276573.09375	4.65655539301224E-05
2	432	110.138733721926	0.746612548828125	0.74652099609375	2.628173828125E-06	1.96198675439518E-06	284045.53125	4.68319703941233E-05
2	433	110.239441721672	0.756683349609375	0.7568359375	2.59674072265625E-06	1.96530663743033E-06	291456.125	4.70950653834734E-05
2	434	110.340149721418	0.766754150390625	0.76690673828125	2.57904052734375E-06	1.9778835849138E-06	297361.25	4.73556865472347E-05
2	435	110.440857721164	0.776824951171875	0.77667236328125	2.58209228515625E-06	2.00543968276179E-06	300791.875	4.76155692012981E-05
2	436	110.541565720909	0.786895751953125	0.787353515625	2.61260986328125E-06	2.05704736799817E-06	301366.6875	4.78771435155068E-05
2	437	110.642273720655	0.796966552734375	0.797119140625	2.6751708984375E-06	2.13242992685991E-06	297969.4375	4.8143403546419E-05
2	438	110.742981720401	0.807037353515625	0.80718994140625	2.77191162109375E-06	2.23745905714168E-06	291203.34375	4.84176853206009E-05
2	439	110.843689720147	0.817108154296875	0.8172607421875	2.8985595703125E-06	2.36887876781111E-06	281954.125	4.87032193632331E-05
2	440	110.944397719892	0.827178955078125	0.82733154296875	3.04840087890625E-06	2.52203813033702E-06	271398.53125	4.90026723127812E-05
2	441	111.045105719638	0.837249755859375	0.83740234375	3.20404052734375E-06	2.68307098849618E-06	261358.234375	4.93175066367257E-05
2	442	111.145813719384	0.847320556640625	0.84808349609375	3.34686279296875E-06	2.83841905002191E-06	253396.5625	4.96473694511224E-05
2	443	111.24652171913	0.857391357421875	0.8575439453125	3.4600830078125E-06	2.96717325909412E-06	247839.125	4.99901289003901E-05
2	444	111.347229718875	0.867462158203125	0.8673095703125	3.53302001953125E-06	3.06422202811518E-06	245486.75	5.03422597830649E-05
2	445	111.447937718621	0.877532958984375	0.87738037109375	3.5626220703125E-06	3.12577458316809E-06	246273.78125	5.0699552957667E-05
2	446	111.548645718367	0.887603759765625	0.887451171875	3.55621337890625E-06	3.15596548716712E-06	249549.484375	5.10580139234662E-05
2	447	111.649353718112	0.897674560546875	0.8978271484375	3.5235595703125E-06	3.16354726237478E-06	254806.875	5.14145103807095E-05
2	448	111.750061717858	0.907745361328125	0.90728759765625	3.477783203125E-06	3.15534953188035E-06	260881.015625	5.17670559929684E-05
2	449	111.850769717604	0.917816162109375	0.91796875	3.43017578125E-06	3.14879412144364E-06	267615.65625	5.21148976986296E-05
2	450	111.95147771735	0.927886962890625	0.92803955078125	3.39019775390625E-06	3.14623753183696E-06	273742.03125	5.24583301739767E-05
2	451	112.052185717095	0.937957763671875	0.9381103515625	3.36639404296875E-06	3.15804891215521E-06	278669.21875	5.27985539520159E-05
2	452	112.152893716841	0.948028564453125	0.94818115234375	3.363037109375E-06	3.18876823257597E-06	281941.9375	5.31374062120449E-05
2	453	112.253601716587	0.958099365234375	0.95794677734375	3.38775634765625E-06	3.24529037243337E-06	282767.3125	5.34773353138007E-05
2	454	112.354309716333	0.968170166015625	0.968017578125	3.4423828125E-06	3.33228695126309E-06	281205.6875	5.38212589162868E-05
2	455	112.455017716078	0.978240966796875	0.97808837890625	3.5260009765625E-06	3.4487404718675E-06	277393.125	5.41721456102096E-05
2	456	112.555725715824	0.988311767578125	0.98846435546875	3.631591796875E-06	3.58969896296912E-06	272184.875	5.45325601706281E-05
2	457	112.65643371557	0.998382568359375	0.99761962890625	3.7481689453125E-06	3.7392467220343E-06	266161.875	5.49041615158785E-05
2	458	112.757141715316	1.00845336914063	1.00860595703125	3.85711669921875E-06	3.890310836141E-06	261492.21875	5.52871169929858E-05
2	459	112.857849715061	1.01852416992188	1.01837158203125	3.9434814453125E-06	4.01592933485517E-06	258241.765625	5.56799095647875E-05
2	460	112.958557714807	1.02859497070313	1.0284423828125	3.9947509765625E-06	4.10837128583807E-06	257448.4375	5.60796288482379E-05
2	461	113.059265714553	1.03866577148438	1.038818359375	4.00848388671875E-06	4.16408647652133E-06	259154.9375	5.64826259505935E-05
2	462	113.159973714299	1.04873657226563	1.048583984375	3.98834228515625E-06	4.18211175201577E-06	262912.25	5.68852956348564E-05
2	463	113.260681714044	1.05880737304688	1.05865478515625	3.9434814453125E-06	4.17478531744564E-06	268456.90625	5.72846947761718E-05
2	464	113.36138971379	1.06887817382813	1.06903076171875	3.88275146484375E-06	4.15078102378175E-06	275328.125	5.767877883045E-05
2	465	113.462097713536	1.07894897460938	1.0791015625	3.814697265625E-06	4.11644577980042E-06	282880	5.80663763685152E-05
2	466	113.562805713281	1.08901977539063	1.0888671875	3.7451171875E-06	4.07793504564324E-06	290743.15625	5.84470435569528E-05
2	467	113.663513713027	1.09909057617188	1.0992431640625	3.677978515625E-06	4.04299271394848E-06	298871.5625	5.88208240515087E-05
2	468	113.764221712773	1.10916137695313	1.10870361328125	3.61572265625E-06	4.00876479034196E-06	306634.03125	5.91880925639998E-05
2	469	113.864929712519	1.11923217773438	1.119384765625	3.55804443359375E-06	3.98282054447918E-06	314606.75	5.95493183936924E-05
2	470	113.965637712264	1.12930297851563	1.129150390625	3.5052490234375E-06	3.95795314034331E-06	322131.28125	5.99049853917677E-05
2	471	114.06634571201	1.13937377929688	1.1395263671875	3.4588623046875E-06	3.94146491089487E-06	329451.21875	6.02556574449409E-05
2	472	114.167053711756	1.14944458007813	1.15020751953125	3.41644287109375E-06	3.92961828765692E-06	336668.15625	6.06018547841813E-05
2	473	114.267761711502	1.15951538085938	1.15997314453125	3.37982177734375E-06	3.92050242226105E-06	343205.4375	6.09440721746068E-05
2	474	114.368469711247	1.16958618164063	1.16973876953125	3.3465576171875E-06	3.91459798265714E-06	349534.9375	6.12827716395259E-05
2	475	114.469177710993	1.17965698242188	1.17919921875	3.3172607421875E-06	3.91171124647371E-06	355473.78125	6.16183242527768E-05
2	476	114.569885710739	1.18972778320313	1.18927001953125	3.2916259765625E-06	3.91463208870846E-06	361301.6875	6.19511047261767E-05
2	477	114.670593710485	1.19979858398438	1.199951171875	3.26904296875E-06	3.92269203075557E-06	367064.96875	6.22814623056911E-05
2	478	114.77130171023	1.20986938476563	1.209716796875	3.24981689453125E-06	3.93135769627406E-06	372241.5625	6.2609717133455E-05
2	479	114.872009709976	1.21994018554688	1.21978759765625	3.2330322265625E-06	3.9436126826331E-06	377289.03125	6.29361529718153E-05
2	480	114.972717709722	1.23001098632813	1.2298583984375	3.2183837890625E-06	3.9581559576618E-06	382135.4375	6.32610099273734E-05
2	481	115.073425709468	1.24008178710938	1.2396240234375	3.20648193359375E-06	3.97483199776616E-06	386599.4375	6.35845208307728E-05
2	482	115.174133709213	1.25015258789063	1.25030517578125	3.19580078125E-06	3.99572627429734E-06	391233.78125	6.39069039607421E-05
2	483	115.274841708959	1.26022338867188	1.2603759765625	3.18695068359375E-06	4.01675606553908E-06	395480.25	6.42283048364334E-05
2	484	115.375549708705	1.27029418945313	1.27044677734375	3.17962646484375E-06	4.03954618377611E-06	399558.5	6.45488835289143E-05
2	485	115.47625770845	1.28036499023438	1.280517578125	3.1732177734375E-06	4.06336084779468E-06	403539.15625	6.48687782813795E-05
2	486	115.576965708196	1.29043579101563	1.29058837890625	3.1689453125E-06	4.08980395150138E-06	407261.15625	6.51881273370236E-05
2	487	115.677673707942	1.30050659179688	1.30126953125	3.165283203125E-06	4.11888640883262E-06	411106.84375	6.55070834909566E-05
2	488	115.778381707688	1.31057739257813	1.31011962890625	3.1634521484375E-06	4.14450050811865E-06	414142.40625	6.58257631585002E-05
2	489	115.879089707433	1.32064819335938	1.3201904296875	3.1622314453125E-06	4.17474757341552E-06	417486.96875	6.61442827549763E-05
2	490	115.979797707179	1.33071899414063	1.33087158203125	3.162841796875E-06	4.20933611167129E-06	420783.5	6.6462773247622E-05
2	491	116.080505706925	1.34078979492188	1.3409423828125	3.1640625E-06	4.24282552557997E-06	423804	6.67813583277166E-05
2	492	116.181213706671	1.35086059570313	1.35009765625	3.16680908203125E-06	4.27550139647792E-06	426327.46875	6.71001471346244E-05
2	493	116.281921706416	1.36093139648438	1.361083984375	3.17108154296875E-06	4.31610806117533E-06	429217.59375	6.74192851874977E-05
2	494	116.382629706162	1.37100219726563	1.370849609375	3.17596435546875E-06	4.35376932728104E-06	431632.5625	6.77388816257007E-05
2	495	116.483337705908	1.38107299804688	1.380615234375	3.18206787109375E-06	4.39321138401283E-06	433873.625	6.805903831264E-05
2	496	116.584045705654	1.39114379882813	1.3909912109375	3.19000244140625E-06	4.43726548837731E-06	436047.0625	6.83798934915103E-05
2	497	116.684753705399	1.40121459960938	1.4013671875	3.19915771484375E-06	4.48319451606949E-06	438042.5625	6.87016145093367E-05
2	498	116.785461705145	1.41128540039063	1.4117431640625	3.2098388671875E-06	4.53146776635549E-06	439817.46875	6.90243323333561E-05
2	499	116.886169704891	1.42135620117188	1.42120361328125	3.22265625E-06	4.58005069958745E-06	441003.78125	6.93482361384667E-05
2	500	116.986877704637	1.43142700195313	1.43157958984375	3.2373046875E-06	4.63445894638426E-06	442213.4375	6.9673522375524E-05
2	501	117.087585704382	1.44149780273438	1.44134521484375	3.25408935546875E-06	4.69026599603239E-06	442933.53125	7.00003874953836E-05
2	502	117.188293704128	1.45156860351563	1.451416015625	3.2745361328125E-06	4.75271417599288E-06	443243.25	7.03291298123077E-05
2	503	117.289001703874	1.46163940429688	1.46209716796875	3.29833984375E-06	4.822493337997E-06	443282.75	7.06600985722616E-05
2	504	117.389709703619	1.47171020507813	1.4715576171875	3.32672119140625E-06	4.89546164317289E-06	442344.75	7.09937012288719E-05
2	505	117.490417703365	1.48178100585938	1.48193359375	3.36151123046875E-06	4.98153622174868E-06	440853.40625	7.1330476203002E-05
2	506	117.591125703111	1.49185180664063	1.49200439453125	3.40423583984375E-06	5.07913455294329E-06	438278.8125	7.16711583663709E-05
2	507	117.691833702857	1.50192260742188	1.50146484375	3.4539794921875E-06	5.18602882948471E-06	434705.78125	7.20164971426129E-05
2	508	117.792541702602	1.49185180664063	1.49200439453125	3.2684326171875E-06	4.87651550429291E-06	456489.28125	7.23549965186976E-05
2	509	117.893249702348	1.48178100585938	1.48223876953125	3.13446044921875E-06	4.64601862404379E-06	472884.84375	7.26774087524973E-05
2	510	117.993957702094	1.47171020507813	1.47216796875	3.02886962890625E-06	4.45900468548643E-06	486045.34375	7.29877574485727E-05
2	511	118.09466570184	1.46163940429688	1.46148681640625	2.94219970703125E-06	4.29998590334435E-06	496732.71875	7.32884291210212E-05
2	512	118.195373701585	1.45156860351563	1.4520263671875	2.869873046875E-06	4.16713146478287E-06	505954.90625	7.35810899641365E-05
2	513	118.296081701331	1.44149780273438	1.441650390625	2.80670166015625E-06	4.04628235628479E-06	513645.78125	7.38669259590097E-05
2	514	118.396789701077	1.43142700195313	1.43157958984375	2.75238037109375E-06	3.9402516449627E-06	520124.1875	7.41468466003425E-05
2	515	118.497497700823	1.42135620117188	1.42120361328125	2.7044677734375E-06	3.84359918825794E-06	525502.125	7.44216231396422E-05
2	516	118.598205700568	1.41128540039063	1.4111328125	2.66204833984375E-06	3.75650370187941E-06	530092.875	7.46918449294753E-05
2	517	118.698913700314	1.40121459960938	1.4007568359375	2.6239013671875E-06	3.675447715068E-06	533845.0625	7.49580140109174E-05
2	518	118.79962170006	1.39114379882813	1.39068603515625	2.589111328125E-06	3.60064086635248E-06	537128.6875	7.52205087337643E-05
2	519	118.900329699806	1.38107299804688	1.38092041015625	2.55767822265625E-06	3.53194991475902E-06	539911.75	7.54796710680239E-05
2	520	119.001037699551	1.37100219726563	1.370849609375	2.5286865234375E-06	3.46644901583204E-06	542119.25	7.57357920520008E-05
2	521	119.101745699297	1.36093139648438	1.3604736328125	2.50152587890625E-06	3.40326005243696E-06	543857.5	7.59890826884657E-05
2	522	119.202453699043	1.35086059570313	1.35101318359375	2.47772216796875E-06	3.34743526764214E-06	545264.1875	7.62398049118929E-05
2	523	119.303161698788	1.34078979492188	1.34063720703125	2.45330810546875E-06	3.28899614032707E-06	546461	7.64881042414345E-05
2	524	119.403869698534	1.33071899414063	1.33026123046875	2.43133544921875E-06	3.23431117976725E-06	547131.9375	7.6734067988582E-05
2	525	119.50457769828	1.32064819335938	1.32110595703125	2.41058349609375E-06	3.18463617077214E-06	548044.0625	7.69778780522756E-05
2	526	119.605285698026	1.31057739257813	1.3104248046875	2.39044189453125E-06	3.13249415739847E-06	548193.5625	7.72196290199645E-05
2	527	119.705993697771	1.30050659179688	1.30096435546875	2.3712158203125E-06	3.08486710309808E-06	548648.6875	7.74593936512247E-05
2	528	119.806701697517	1.29043579101563	1.2908935546875	2.35260009765625E-06	3.03695605907706E-06	548709.3125	7.76972592575476E-05
2	529	119.907409697263	1.28036499023438	1.28021240234375	2.335205078125E-06	2.98955842481519E-06	548222.6875	7.79333058744669E-05
2	530	120.008117697009	1.27029418945313	1.27044677734375	2.318115234375E-06	2.94504184239486E-06	548051.625	7.81676208134741E-05
2	531	120.108825696754	1.26022338867188	1.26007080078125	2.3016357421875E-06	2.90022398985457E-06	547467.5	7.84002477303147E-05
2	532	120.2095336965	1.25015258789063	1.2506103515625	2.28607177734375E-06	2.85898499896575E-06	547056.4375	7.86312521086074E-05
2	533	120.310241696246	1.24008178710938	1.240234375	2.2711181640625E-06	2.81671873381129E-06	546089.75	7.88607285358012E-05
2	534	120.410949695992	1.23001098632813	1.2298583984375	2.255859375E-06	2.77438743978564E-06	545184	7.90886770118959E-05
2	535	120.511657695737	1.21994018554688	1.22039794921875	2.24212646484375E-06	2.73628643299162E-06	544303.8125	7.93151702964678E-05
2	536	120.612365695483	1.20986938476563	1.209716796875	2.22747802734375E-06	2.69461770585622E-06	543088.0625	7.95402302173898E-05
2	537	120.713073695229	1.19979858398438	1.1993408203125	2.21343994140625E-06	2.65466883320187E-06	541844.75	7.97638494987041E-05
2	538	120.813781694975	1.18972778320313	1.18927001953125	2.20001220703125E-06	2.61640866483503E-06	540574.3125	7.99860863480717E-05
2	539	120.91448969472	1.17965698242188	1.17950439453125	2.186279296875E-06	2.57872602560383E-06	539503.0625	8.02069553174078E-05
2	540	121.015197694466	1.16958618164063	1.16973876953125	2.1728515625E-06	2.54166866398009E-06	538342.6875	8.04264491307549E-05
2	541	121.115905694212	1.15951538085938	1.15936279296875	2.15911865234375E-06	2.50320181294228E-06	536961.125	8.06445823400281E-05
2	542	121.216613693957	1.14944458007813	1.14959716796875	2.14447021484375E-06	2.46527702074673E-06	536075.125	8.0861289461609E-05
2	543	121.317321693703	1.13937377929688	1.13922119140625	2.12921142578125E-06	2.42564283325919E-06	535043.6875	8.10764831840061E-05
2	544	121.418029693449	1.12930297851563	1.129150390625	2.1112060546875E-06	2.38386905948573E-06	534836.6875	8.12900034361519E-05
2	545	121.518737693195	1.11923217773438	1.11968994140625	2.09259033203125E-06	2.34305230151222E-06	535073.6875	8.15016828710213E-05
2	546	121.61944569294	1.10916137695313	1.10931396484375	2.069091796875E-06	2.29527245210193E-06	536135.6875	8.1711245002225E-05
2	547	121.720153692686	1.09909057617188	1.09893798828125	2.041015625E-06	2.24294944928261E-06	538427.0625	8.19182023406029E-05
2	548	121.820861692432	1.08901977539063	1.0894775390625	2.0062255859375E-06	2.18573768506758E-06	543048.375	8.21219946374185E-05
2	549	121.921569692178	1.07894897460938	1.07879638671875	1.961669921875E-06	2.11624228541041E-06	549937.8125	8.2321792433504E-05
2	550	122.022277691923	1.06887817382813	1.0687255859375	1.90277099609375E-06	2.03353988581512E-06	561668	8.25163879198954E-05
2	551	122.122985691669	1.05880737304688	1.05865478515625	1.8267822265625E-06	1.93393179870327E-06	579518.875	8.27041803859174E-05
2	552	122.223693691415	1.04873657226563	1.048583984375	1.72882080078125E-06	1.81281370714714E-06	606531.375	8.28832198749296E-05
2	553	122.324401691161	1.03866577148438	1.03851318359375	1.6070556640625E-06	1.66894847097865E-06	646221.0625	8.30511999083683E-05
2	554	122.425109690906	1.02859497070313	1.02874755859375	1.46026611328125E-06	1.50224514072761E-06	704493.25	8.32056466606446E-05
2	555	122.525817690652	1.01852416992188	1.01837158203125	1.29669189453125E-06	1.32051411583234E-06	785361.3125	8.33444719319232E-05
2	556	122.626525690398	1.00845336914063	1.00860595703125	1.124267578125E-06	1.13394298750791E-06	897122.6875	8.34663806017488E-05
2	557	122.727233690144	0.998382568359375	0.99822998046875	9.6160888671875E-07	9.59906742536987E-07	1038083.1875	8.35714090499096E-05
2	558	122.827941689889	0.988311767578125	0.9881591796875	8.23974609375E-07	8.14218026334856E-07	1199259.25	8.3661318058148E-05
2	559	122.928649689635	0.978240966796875	0.97808837890625	7.2296142578125E-07	7.07120193510491E-07	1352891.5	8.37392144603655E-05
2	560	123.029357689381	0.968170166015625	0.96832275390625	6.622314453125E-07	6.41253734556813E-07	1462212.125	8.38089690660127E-05
2	561	123.130065689126	0.958099365234375	0.95794677734375	6.40258789062501E-07	6.13333781984693E-07	1496187	8.38745545479469E-05
2	562	123.230773688872	0.948028564453125	0.9478759765625	6.44531249999999E-07	6.10935671829793E-07	1470644	8.39392450870946E-05
2	563	123.331481688618	0.937957763671875	0.938720703125	6.59790039062499E-07	6.19358559106331E-07	1422756.75	8.40049251564778E-05
2	564	123.432189688364	0.927886962890625	0.92803955078125	6.7291259765625E-07	6.24489473466383E-07	1379138.375	8.40720313135535E-05
2	565	123.532897688109	0.917816162109375	0.91766357421875	6.77490234375E-07	6.21708124981524E-07	1354504.5	8.41400324134156E-05
2	566	123.633605687855	0.907745361328125	0.90789794921875	6.65283203125E-07	6.04009244398185E-07	1364678.875	8.42076406115666E-05
2	567	123.734313687601	0.897674560546875	0.8978271484375	6.30798339843749E-07	5.66347864605632E-07	1423318.875	8.42729059513658E-05
2	568	123.835021687347	0.887603759765625	0.887451171875	5.68542480468751E-07	5.04553668179142E-07	1560923.25	8.43332963995636E-05
2	569	123.935729687092	0.877532958984375	0.8770751953125	4.7607421875E-07	4.17552882936434E-07	1842307.75	8.43859015731141E-05
2	570	124.036437686838	0.867462158203125	0.8673095703125	3.521728515625E-07	3.05442881654017E-07	2462738.5	8.4427600086201E-05
2	571	124.137145686584	0.857391357421875	0.8575439453125	2.00500488281249E-07	1.71937969639657E-07	4277017	8.44554306240752E-05
2	572	124.23785368633	0.847320556640625	0.84747314453125	3.57055664062494E-08	3.02595069001654E-08	23735044	8.44673268147744E-05
2	573	124.338561686075	0.837249755859375	0.83770751953125	-1.28784179687499E-07	-1.07883472821868E-07	-6504739.5	8.44626410980709E-05
2	574	124.439269685821	0.827178955078125	0.82733154296875	-2.73742675781249E-07	-2.26475947329163E-07	-3022296.5	8.44423702801578E-05
2	575	124.539977685567	0.817108154296875	0.8172607421875	-3.8604736328125E-07	-3.15501353043146E-07	-2116996	8.44091482576914E-05
2	576	124.640685685313	0.807037353515625	0.806884765625	-4.5806884765625E-07	-3.69608756045636E-07	-1761492.375	8.43666421133094E-05
2	577	124.741393685058	0.796966552734375	0.797119140625	-4.931640625E-07	-3.9311052546509E-07	-1616336.625	8.43187444843352E-05
2	578	124.842101684804	0.786895751953125	0.78643798828125	-4.9774169921875E-07	-3.9144296692939E-07	-1580012.375	8.42688459670171E-05
2	579	124.94280968455	0.776824951171875	0.77728271484375	-4.82788085937499E-07	-3.75262828811174E-07	-1609987.375	8.42194785946049E-05
2	580	125.043517684295	0.766754150390625	0.7672119140625	-4.5928955078125E-07	-3.52372410361568E-07	-1670432	8.41720393509604E-05
2	581	125.144225684041	0.756683349609375	0.7568359375	-4.37011718749999E-07	-3.30746189547426E-07	-1731843.625	8.41269065858796E-05
2	582	125.244933683787	0.746612548828125	0.746490478515625	-4.2388916015625E-07	-3.1642923659092E-07	-1761051.125	8.40835564304143E-05
2	583	125.345641683533	0.736541748046875	0.7364501953125	-4.28466796875E-07	-3.15544440354643E-07	-1718803.5	8.40406355564483E-05
2	584	125.446349683278	0.726470947265625	0.726409912109375	-4.58679199218751E-07	-3.33189092316388E-07	-1583699.375	8.39959684526548E-05
2	585	125.547057683024	0.716400146484375	0.71636962890625	-5.22460937499999E-07	-3.74275145986758E-07	-1371144.875	8.39465574244969E-05
2	586	125.64776568277	0.706329345703125	0.706298828125	-6.2286376953125E-07	-4.39927930528938E-07	-1133954	8.38888881844468E-05
2	587	125.748473682516	0.696258544921875	0.696197509765625	-7.586669921875E-07	-5.28182056314108E-07	-917658.875	8.38193227536976E-05
2	588	125.849181682261	0.686187744140625	0.68609619140625	-9.22241210937499E-07	-6.32746207429591E-07	-743944.375	8.37346815387718E-05
2	589	125.949889682007	0.676116943359375	0.676055908203125	-1.0968017578125E-06	-7.41499263767764E-07	-616388.4375	8.36330145830289E-05
2	590	126.050597681753	0.666046142578125	0.666015625	-1.26220703125E-06	-8.40649590827525E-07	-527659.625	8.35142272990197E-05
2	591	126.151305681499	0.655975341796875	0.6558837890625	-1.397705078125E-06	-9.16732119549124E-07	-469257.625	8.33802914712578E-05
2	592	126.252013681244	0.645904541015625	0.645843505859375	-1.4874267578125E-06	-9.60644911174313E-07	-434201.90625	8.32350124255754E-05
2	593	126.35272168099	0.635833740234375	0.635772705078125	-1.5277099609375E-06	-9.7127633580385E-07	-416160.59375	8.30831922939979E-05
2	594	126.453429680736	0.625762939453125	0.625732421875	-1.52252197265625E-06	-9.52691380007309E-07	-410984.15625	8.29295968287624E-05
2	595	126.554137680482	0.615692138671875	0.615692138671875	-1.48345947265625E-06	-9.13354313070158E-07	-415038.0625	8.27782350825146E-05
2	596	126.654845680227	0.605621337890625	0.60565185546875	-1.42120361328125E-06	-8.60754596487823E-07	-426154.1875	8.26319737825543E-05
2	597	126.755553679973	0.595550537109375	0.595550537109375	-1.3482666015625E-06	-8.029608693505E-07	-441715.71875	8.24925227789208E-05
2	598	126.856261679719	0.585479736328125	0.585418701171875	-1.27197265625E-06	-7.4463656574153E-07	-460244.71875	8.23605805635452E-05
2	599	126.956969679464	0.575408935546875	0.575347900390625	-1.19659423828125E-06	-6.88457987507718E-07	-480821.21875	8.22362781036645E-05
2	600	127.05767767921	0.565338134765625	0.5653076171875	-1.12518310546875E-06	-6.36074560134148E-07	-502413.90625	8.21193680167198E-05
2	601	127.158385678956	0.555267333984375	0.555206298828125	-1.05987548828125E-06	-5.88449495353416E-07	-523841.09375	8.20093409856781E-05
2	602	127.259093678702	0.545196533203125	0.54522705078125	-1.0003662109375E-06	-5.4542670113733E-07	-545027.5	8.19056003820151E-05
2	603	127.359801678447	0.535125732421875	0.53509521484375	-9.46655273437499E-07	-5.0655069117056E-07	-565248.25	8.18075641291216E-05
2	604	127.460509678193	0.525054931640625	0.52508544921875	-8.98132324218751E-07	-4.71596223405868E-07	-584641.5	8.17146647023037E-05
2	605	127.561217677939	0.514984130859375	0.515045166015625	-8.53881835937501E-07	-4.39787697814609E-07	-603180.875	8.16264437162317E-05
2	606	127.661925677685	0.504913330078125	0.50494384765625	-8.1512451171875E-07	-4.11592111504433E-07	-619468.375	8.15424064057879E-05
2	607	127.76263367743	0.494842529296875	0.494842529296875	-7.794189453125E-07	-3.85689645554521E-07	-634886.4375	8.14621162135154E-05
2	608	127.863341677176	0.484771728515625	0.484771728515625	-7.464599609375E-07	-3.61862674935765E-07	-649427.6875	8.13852821011096E-05
2	609	127.964049676922	0.474700927734375	0.474761962890625	-7.171630859375E-07	-3.40481733474007E-07	-662000	8.13115839264356E-05
2	610	128.064757676668	0.464630126953125	0.464569091796875	-6.903076171875E-07	-3.20695590971809E-07	-672988.5	8.12407088233158E-05
2	611	128.165465676413	0.454559326171875	0.454620361328125	-6.66198730468751E-07	-3.02867505297399E-07	-682409.5	8.11724021332338E-05
2	612	128.266173676159	0.444488525390625	0.444549560546875	-6.44531249999999E-07	-2.86526073978166E-07	-689725.4375	8.11064019217156E-05
2	613	128.366881675905	0.434417724609375	0.43438720703125	-6.243896484375E-07	-2.71226866743746E-07	-695698.9375	8.10425044619478E-05
2	614	128.467589675651	0.424346923828125	0.42437744140625	-6.05163574218751E-07	-2.56817770605267E-07	-701260.75	8.09805933386087E-05
2	615	128.568297675396	0.414276123046875	0.414337158203125	-5.889892578125E-07	-2.44040109009802E-07	-703471.5625	8.09204648248851E-05
2	616	128.669005675142	0.404205322265625	0.4041748046875	-5.7403564453125E-07	-2.32010748391076E-07	-704093.5625	8.08619006420486E-05
2	617	128.769713674888	0.394134521484375	0.3941650390625	-5.596923828125E-07	-2.20611156009909E-07	-704253.0625	8.08048134786077E-05
2	618	128.870421674633	0.384063720703125	0.384063720703125	-5.47180175781251E-07	-2.10152037993794E-07	-701896.3125	8.0749079643283E-05
2	619	128.971129674379	0.373992919921875	0.37396240234375	-5.352783203125E-07	-2.00173971620643E-07	-698631.6875	8.06945754447952E-05
2	620	129.071837674125	0.363922119140625	0.363922119140625	-5.24291992187501E-07	-1.90801443977762E-07	-694121.0625	8.06412208476104E-05
2	621	129.172545673871	0.353851318359375	0.35382080078125	-5.13610839843751E-07	-1.81726193204668E-07	-688888.9375	8.05889576440677E-05
2	622	129.273253673616	0.343780517578125	0.343780517578125	-5.0384521484375E-07	-1.73212171716841E-07	-682313.75	8.05377203505486E-05
2	623	129.373961673362	0.333709716796875	0.333740234375	-4.94384765625E-07	-1.64996095008973E-07	-675061.6875	8.04874580353498E-05
2	624	129.474669673108	0.323638916015625	0.323638916015625	-4.86145019531251E-07	-1.57335435346795E-07	-665725.125	8.043808338698E-05
2	625	129.575377672854	0.313568115234375	0.31365966796875	-4.7882080078125E-07	-1.50186764358295E-07	-655067	8.03894945420325E-05
2	626	129.676085672599	0.303497314453125	0.303466796875	-4.72106933593749E-07	-1.43268778174388E-07	-642792.5	8.03416114649735E-05
2	627	129.776793672345	0.293426513671875	0.29345703125	-4.66003417968749E-07	-1.36751978629945E-07	-629731.5	8.02943759481423E-05
2	628	129.877501672091	0.283355712890625	0.28338623046875	-4.61425781249999E-07	-1.30761705463556E-07	-614153.4375	8.02476715762168E-05
2	629	129.978209671837	0.273284912109375	0.2733154296875	-4.5654296875E-07	-1.24780228816235E-07	-598663.125	8.02014546934515E-05
2	630	130.078917671582	0.263214111328125	0.263214111328125	-4.534912109375E-07	-1.1936528210299E-07	-580417.25	8.01556307123974E-05
2	631	130.179625671328	0.253143310546875	0.25323486328125	-4.5135498046875E-07	-1.14298813969071E-07	-561054.8125	8.01100613898598E-05
2	632	130.280333671074	0.243072509765625	0.243072509765625	-4.49218749999999E-07	-1.09192725972207E-07	-541100.5625	8.00647176220082E-05
2	633	130.38104167082	0.233001708984375	0.2330322265625	-4.4891357421875E-07	-1.04611331153137E-07	-519102.65625	8.00194902694784E-05
2	634	130.481749670565	0.222930908203125	0.2230224609375	-4.49523925781251E-07	-1.00253934931516E-07	-496130.34375	7.9974255640991E-05
2	635	130.582457670311	0.212860107421875	0.212921142578125	-4.5135498046875E-07	-9.61030153234788E-08	-471737.6875	7.99288900452666E-05
2	636	130.683165670057	0.202789306640625	0.2027587890625	-4.534912109375E-07	-9.19493245987724E-08	-447106.34375	7.98833279986866E-05
2	637	130.783873669802	0.192718505859375	0.1927490234375	-4.57153320312501E-07	-8.8115854168791E-08	-421628.84375	7.9837474913802E-05
2	638	130.884581669548	0.182647705078125	0.1826171875	-4.6051025390625E-07	-8.40970884041781E-08	-396554	7.97912653069943E-05
2	639	130.985289669294	0.172576904296875	0.17266845703125	-4.64477539062499E-07	-8.02006141498168E-08	-371747.71875	7.97446846263483E-05
2	640	131.08599766904	0.162506103515625	0.16253662109375	-4.69970703125E-07	-7.63874510312235E-08	-345844.15625	7.96976310084574E-05
2	641	131.186705668785	0.152435302734375	0.15240478515625	-4.7607421875E-07	-7.25559843317569E-08	-320128.21875	7.96499953139573E-05
2	642	131.287413668531	0.142364501953125	0.142364501953125	-4.8370361328125E-07	-6.88622208144807E-08	-294321.75	7.96016684034839E-05
2	643	131.388121668277	0.132293701171875	0.13238525390625	-4.93469238281249E-07	-6.53280451956562E-08	-268274.59375	7.95524611021392E-05
2	644	131.488829668023	0.122222900390625	0.122314453125	-5.07202148437499E-07	-6.20381470639586E-08	-241155.25	7.9502075095661E-05
2	645	131.589537667768	0.112152099609375	0.11224365234375	-5.2764892578125E-07	-5.92252433762042E-08	-212724.125	7.94499646872282E-05
2	646	131.690245667514	0.102081298828125	0.102142333984375	-5.5572509765625E-07	-5.67630564773935E-08	-183800.109375	7.93954168329947E-05
2	647	131.79095366726	0.092010498046875	0.09210205078125	-5.97534179687501E-07	-5.50341212601779E-08	-154136.875	7.93373474152759E-05
2	648	131.891661667006	0.081939697265625	0.082000732421875	-6.573486328125E-07	-5.3903068675254E-08	-124744.6640625	7.92741557233967E-05
2	649	131.992369666751	0.071868896484375	0.071929931640625	-7.4005126953125E-07	-5.32318331636361E-08	-97195.8828125	7.92037899373099E-05
2	650	132.093077666497	0.061798095703125	0.0618896484375	-8.50830078125001E-07	-5.26575760773085E-08	-72740.3125	7.91236816439778E-05
2	651	132.193785666243	0.051727294921875	0.051788330078125	-9.94873046875E-07	-5.15228144593038E-08	-52055.21484375	7.90307458373718E-05
2	652	132.294493665989	0.041656494140625	0.0417205810546875	-1.1737060546875E-06	-4.89676956760832E-08	-35546.0234375	7.89215482654981E-05
2	653	132.395201665734	0.031585693359375	0.0316497802734375	-1.3812255859375E-06	-4.37154810128959E-08	-22914.2734375	7.87928947829641E-05
2	654	132.49590966548	0.021514892578125	0.0215850830078125	-1.60430908203125E-06	-3.4629145773124E-08	-13454.44140625	7.86425662226975E-05
2	655	132.596617665226	0.011444091796875	0.0115264892578125	-1.82281494140625E-06	-2.10106563258705E-08	-6323.4560546875	7.84699950600043E-05
2	656	132.697325664971	0.001373291015625	0.0014984130859375	-2.01507568359375E-06	-3.01941538438655E-09	-743.601440429688	7.8276738349814E-05
2	657	132.798033664717	-0.008697509765625	-0.00855407714843751	-2.16094970703125E-06	1.84849291429146E-08	3958.48046875	7.80664631747641E-05
2	658	132.898741664463	-0.018768310546875	-0.0186798095703125	-2.25128173828125E-06	4.20535144485257E-08	8297.41015625	7.7844291809015E-05
2	659	132.999449664209	-0.028839111328125	-0.0287200927734375	-2.2882080078125E-06	6.57175434071178E-08	12551.3466796875	7.76157103246078E-05
2	660	133.100157663954	-0.038909912109375	-0.0388092041015625	-2.28179931640625E-06	8.85548061546615E-08	17008.158203125	7.73855863371864E-05
2	661	133.2008656637	-0.048980712890625	-0.04884033203125	-2.2454833984375E-06	1.09670153847219E-07	21750.4765625	7.71576233091764E-05
2	662	133.301573663446	-0.059051513671875	-0.05902099609375	-2.19268798828125E-06	1.29414630123392E-07	26917.1875	7.69341422710568E-05
2	663	133.402281663192	-0.069122314453125	-0.069000244140625	-2.1319580078125E-06	1.4710560947151E-07	32364.73046875	7.67163801356219E-05
2	664	133.502989662937	-0.079193115234375	-0.0791015625	-2.0703125E-06	1.63764937610722E-07	38207.55078125	7.65047807362862E-05
2	665	133.603697662683	-0.089263916015625	-0.08917236328125	-2.01171875E-06	1.79389701315813E-07	44326.4609375	7.62992349336855E-05
2	666	133.704405662429	-0.099334716796875	-0.099273681640625	-1.9586181640625E-06	1.94439238043742E-07	50685.5703125	7.6099306170363E-05
2	667	133.805113662175	-0.109405517578125	-0.109283447265625	-1.91070556640625E-06	2.088084869456E-07	57195.3359375	7.59044705773704E-05
2	668	133.90582166192	-0.119476318359375	-0.119384765625	-1.86859130859375E-06	2.23081329409069E-07	63890.25	7.57141679059714E-05
2	669	134.006529661666	-0.129547119140625	-0.129425048828125	-1.83197021484375E-06	2.37102824485191E-07	70648.0078125	7.55278306314722E-05
2	670	134.107237661412	-0.139617919921875	-0.139495849609375	-1.80084228515625E-06	2.51210025226101E-07	77461.4453125	7.5344905781094E-05
2	671	134.207945661158	-0.149688720703125	-0.14959716796875	-1.7755126953125E-06	2.65611646455E-07	84255.765625	7.51648185541853E-05
2	672	134.308653660903	-0.159759521484375	-0.15966796875	-1.75506591796875E-06	2.80227794746679E-07	90975.484375	7.4987045081798E-05
2	673	134.409361660649	-0.169830322265625	-0.169677734375	-1.73919677734375E-06	2.95102950076398E-07	97560.9765625	7.48110905988142E-05
2	674	134.510069660395	-0.179901123046875	-0.179779052734375	-1.72760009765625E-06	3.10586301566218E-07	104062.890625	7.46365258237347E-05
2	675	134.61077766014	-0.189971923828125	-0.189788818359375	-1.7205810546875E-06	3.26547052509341E-07	110305.0703125	7.44628996471874E-05
2	676	134.711485659886	-0.200042724609375	-0.1998291015625	-1.7181396484375E-06	3.43334306762699E-07	116305.5078125	7.42897464078851E-05
2	677	134.812193659632	-0.189971923828125	-0.18975830078125	-1.51397705078125E-06	2.87289708467142E-07	125337.6328125	7.41269905120134E-05
