Potential - Start -0.2 V, Upper Vertex 1.5 V, Lower Vertex -0.2 V, Stop -0.19 V; Scan - # end cross 5, Rate 0.1 Vps, Step 0.01 V 
Scan	Index	Time (s)	Potential applied (V)	WE(1).Potential (V)	WE(1).Current (A)	WE(1).Power (W)	WE(1).Resistance (Ω)	WE(1).Charge (C)
1	1	57.2714148554036	-0.189971923828125	-0.189788818359375	-2.3223876953125E-07	4.40763194831106E-08	817214.25	0
1	2	57.3721228551493	-0.179901123046875	-0.179779052734375	-2.01416015625E-07	3.62103804718572E-08	892575.75	-2.18362519177617E-08
1	3	57.4728308548951	-0.169830322265625	-0.169647216796875	-1.7578125E-07	2.98207964988251E-08	965104.25	-4.08296436660294E-08
1	4	57.5735388546408	-0.159759521484375	-0.15960693359375	-1.5411376953125E-07	2.4597625269962E-08	1035643.625	-5.74411771481209E-08
1	5	57.6742468543865	-0.149688720703125	-0.1495361328125	-1.3427734375E-07	2.00793142113298E-08	1113636.375	-7.19628232559444E-08
1	6	57.7749548541323	-0.139617919921875	-0.13958740234375	-1.15966796875E-07	1.6187502893672E-08	1203684.25	-8.45636165536234E-08
1	7	57.875662853878	-0.129547119140625	-0.12945556640625	-9.82666015624995E-08	1.27211583489384E-08	1317391.375	-9.53511261059248E-08
1	8	57.9763708536237	-0.119476318359375	-0.119415283203125	-8.05664062500003E-08	9.62085966449422E-09	1482197	-1.0435608288617E-07
1	9	58.0770788533695	-0.109405517578125	-0.109222412109375	-6.22558593750003E-08	6.79973499728703E-09	1754411.875	-1.1154774881561E-07
1	10	58.1777868531152	-0.099334716796875	-0.099212646484375	-4.30297851562497E-08	4.26909840811618E-09	2305674	-1.16849307119082E-07
1	11	58.2784948528609	-0.089263916015625	-0.089202880859375	-2.07519531250006E-08	1.85113402384474E-09	4298529.5	-1.20060974495573E-07
1	12	58.3792028526067	-0.079193115234375	-0.079132080078125	5.49316406250056E-09	-4.34685509809185E-10	-14405555	-1.2082931277746E-07
1	13	58.4799108523524	-0.069122314453125	-0.069061279296875	3.84521484374997E-08	-2.65555444300958E-09	-1796031.875	-1.18616490851764E-07
1	14	58.5806188520982	-0.059051513671875	-0.058990478515625	8.05664062500003E-08	-4.75265071742115E-09	-732197	-1.1262343235785E-07
1	15	58.6813268518439	-0.048980712890625	-0.048846435546875	1.35498046875E-07	-6.61859633765971E-09	-360495.5	-1.01743722780157E-07
1	16	58.7820348515896	-0.038909912109375	-0.038775634765625	2.093505859375E-07	-8.11770117792321E-09	-185218.671875	-8.4379216502839E-08
1	17	58.8827428513354	-0.028839111328125	-0.028704833984375	3.0792236328125E-07	-8.83886031033398E-09	-93221.0078125	-5.83324499814353E-08
1	18	58.9834508510811	-0.018768310546875	-0.0186798095703125	4.3670654296875E-07	-8.15759459982246E-09	-42774.28515625	-2.08374082433238E-08
1	19	59.0841588508268	-0.008697509765625	-0.008587646484375	6.01806640625E-07	-5.16810239048482E-09	-14269.77734375	3.14558832315015E-08
1	20	59.1848668505726	0.001373291015625	0.0014617919921875	8.0291748046875E-07	1.17369836072356E-09	1820.60070800781	1.02189360973171E-07
1	21	59.2855748503183	0.011444091796875	0.011553955078125	1.03485107421875E-06	1.19566223588663E-08	11164.8486328125	1.94728357882923E-07
1	22	59.386282850064	0.021514892578125	0.0216064453125	1.2823486328125E-06	2.7706995808785E-08	16849.119140625	3.11408626885168E-07
1	23	59.4869908498098	0.031585693359375	0.031683349609375	1.5240478515625E-06	4.82869353390925E-08	20788.947265625	4.52721906185616E-07
1	24	59.5876988495555	0.041656494140625	0.0417327880859375	1.73583984375E-06	7.24414306318977E-08	24041.84375	6.16870295289118E-07
1	25	59.6884068493013	0.051727294921875	0.051788330078125	1.89727783203125E-06	9.82568479912516E-08	27296.123046875	7.998123123798E-07
1	26	59.789114849047	0.061798095703125	0.06182861328125	1.9970703125E-06	1.23476084468166E-07	30959.658203125	9.95908294498804E-07
1	27	59.8898228487927	0.071868896484375	0.07183837890625	2.03857421875E-06	1.46447860061016E-07	35239.5234375	1.19911908313952E-06
1	28	59.9905308485385	0.081939697265625	0.082000732421875	2.03094482421875E-06	1.66538967505403E-07	40375.65625	1.40403574278025E-06
1	29	60.0912388482842	0.092010498046875	0.092071533203125	1.98883056640625E-06	1.83114678975471E-07	46294.30859375	1.60644742663862E-06
1	30	60.1919468480299	0.102081298828125	0.10211181640625	1.92718505859375E-06	1.96788349171584E-07	52984.9609375	1.80363451818266E-06
1	31	60.2926548477757	0.112152099609375	0.1121826171875	1.856689453125E-06	2.08288284397895E-07	60420.77734375	1.99416763280169E-06
1	32	60.3933628475214	0.122222900390625	0.12225341796875	1.7840576171875E-06	2.18107132354817E-07	68525.4921875	2.17749379771703E-06
1	33	60.4940708472672	0.132293701171875	0.13232421875	1.71417236328125E-06	2.26826514904133E-07	77194.234375	2.35364382206171E-06
1	34	60.5947788470129	0.142364501953125	0.142425537109375	1.64886474609375E-06	2.34840442203677E-07	86377.9453125	2.52298605118995E-06
1	35	60.6954868467586	0.152435302734375	0.152496337890625	1.58935546875E-06	2.42370873593245E-07	95948.546875	2.68604344455525E-06
1	36	60.7961948465044	0.162506103515625	0.162506103515625	1.53564453125E-06	2.49551618480837E-07	105822.734375	2.8433996703825E-06
1	37	60.8969028462501	0.172576904296875	0.172607421875	1.48773193359375E-06	2.56793555308832E-07	116020.515625	2.99563885164389E-06
1	38	60.9976108459958	0.182647705078125	0.182647705078125	1.44439697265625E-06	2.6381579232293E-07	126452.5703125	3.14328326567193E-06
1	39	61.0983188457416	0.192718505859375	0.192779541015625	1.40594482421875E-06	2.71037379206973E-07	137117.4375	3.28680926031666E-06
1	40	61.1990268454873	0.202789306640625	0.20281982421875	1.370849609375E-06	2.78035457768055E-07	147951.921875	3.42663201990945E-06
1	41	61.299734845233	0.212860107421875	0.212890625	1.34002685546875E-06	2.85279156742035E-07	158870.421875	3.56313557858812E-06
1	42	61.4004428449788	0.222930908203125	0.22296142578125	1.31195068359375E-06	2.92514386046605E-07	169946.5	3.69667304767063E-06
1	43	61.5011508447245	0.233001708984375	0.233062744140625	1.28631591796875E-06	2.99792304758739E-07	181186.25	3.82750613425742E-06
1	44	61.6018588444703	0.243072509765625	0.243072509765625	1.26312255859375E-06	3.07030347812542E-07	192437.796875	3.95588085666532E-06
1	45	61.702566844216	0.253143310546875	0.253204345703125	1.2420654296875E-06	3.14496361397687E-07	203857.5	4.08202686230652E-06
1	46	61.8032748439617	0.263214111328125	0.26318359375	1.22344970703125E-06	3.2199187671722E-07	215116	4.20617561758263E-06
1	47	61.9039828437075	0.273284912109375	0.273284912109375	1.2054443359375E-06	3.29429724388319E-07	226708.875	4.32847991760354E-06
1	48	62.0046908434532	0.283355712890625	0.283447265625	1.18988037109375E-06	3.37268318162387E-07	238214.9375	4.44909437646857E-06
1	49	62.1053988431989	0.293426513671875	0.29339599609375	1.17523193359375E-06	3.44808341878888E-07	249649.453125	4.56818725069752E-06
1	50	62.2061068429447	0.303497314453125	0.303466796875	1.162109375E-06	3.52661601255022E-07	261134.453125	4.68588132207515E-06
1	51	62.3068148426904	0.313568115234375	0.313568115234375	1.14990234375E-06	3.60572698809847E-07	272691.09375	4.80230073662824E-06
1	52	62.4075228424362	0.323638916015625	0.32366943359375	1.138916015625E-06	3.68632299796445E-07	284190.78125	4.91755190523691E-06
1	53	62.5082308421819	0.333709716796875	0.333740234375	1.129150390625E-06	3.76842933746957E-07	295567.5625	5.03175806443323E-06
1	54	62.6089388419276	0.343780517578125	0.343780517578125	1.12030029296875E-06	3.85137383318579E-07	306864.625	5.14502653459203E-06
1	55	62.7096468416734	0.353851318359375	0.35382080078125	1.112060546875E-06	3.93470145354513E-07	318166.84375	5.25743507751031E-06
1	56	62.8103548414191	0.363922119140625	0.363983154296875	1.10565185546875E-06	4.02438615765277E-07	329202.34375	5.36910556547809E-06
1	57	62.9110628411648	0.373992919921875	0.37396240234375	1.09954833984375E-06	4.11189716942317E-07	340105.5	5.4801462283649E-06
1	58	63.0117708409106	0.384063720703125	0.384063720703125	1.0943603515625E-06	4.20304075987588E-07	350948.15625	5.5906184570631E-06
1	59	63.1124788406563	0.394134521484375	0.394134521484375	1.090087890625E-06	4.29641261234792E-07	361562.15625	5.70061411053757E-06
1	60	63.213186840402	0.404205322265625	0.40423583984375	1.08673095703125E-06	4.39295575915821E-07	371974.1875	5.81022550250054E-06
1	61	63.3138948401478	0.414276123046875	0.414276123046875	1.08428955078125E-06	4.49195283636072E-07	382071.46875	5.9195454014116E-06
1	62	63.4146028398935	0.424346923828125	0.424346923828125	1.0821533203125E-06	4.5920842239866E-07	392132	6.0286342886684E-06
1	63	63.5153108396393	0.434417724609375	0.434417724609375	1.080322265625E-06	4.69311146389373E-07	402118.65625	6.13752354183816E-06
1	64	63.616018839385	0.444488525390625	0.4444580078125	1.07940673828125E-06	4.7975095185393E-07	411761.375	6.24627455181326E-06
1	65	63.7167268391307	0.454559326171875	0.454559326171875	1.0784912109375E-06	4.90238221573236E-07	421477.09375	6.35493324807612E-06
1	66	63.8174348388765	0.464630126953125	0.464599609375	1.07818603515625E-06	5.00924784319068E-07	430908.59375	6.46353055344662E-06
1	67	63.9181428386222	0.474700927734375	0.474700927734375	1.0784912109375E-06	5.11960763560637E-07	440152.8125	6.57212785881711E-06
1	68	64.0188508383679	0.484771728515625	0.4847412109375	1.08001708984375E-06	5.23528797202744E-07	448827.34375	6.68081747789984E-06
1	69	64.1195588381137	0.494842529296875	0.4947509765625	1.08184814453125E-06	5.35245419541752E-07	457320.15625	6.78967626299709E-06
1	70	64.2202668378594	0.504913330078125	0.50494384765625	1.08428955078125E-06	5.47505351278232E-07	465690.96875	6.89874968884396E-06
1	71	64.3209748376051	0.514984130859375	0.5150146484375	1.0882568359375E-06	5.60468208732345E-07	473247.34375	7.00814644005732E-06
1	72	64.4216828373509	0.525054931640625	0.52508544921875	1.092529296875E-06	5.73671229631145E-07	480614.53125	7.11795746610733E-06
1	73	64.5223908370966	0.535125732421875	0.535125732421875	1.0992431640625E-06	5.88233319831488E-07	486812.875	7.22832191968337E-06
1	74	64.6230988368424	0.545196533203125	0.545135498046875	1.1065673828125E-06	6.03229125317739E-07	492636.53125	7.33939350539003E-06
1	75	64.7238068365881	0.555267333984375	0.55523681640625	1.1163330078125E-06	6.1982916577108E-07	497375.625	7.45132547308458E-06
1	76	64.8245148363338	0.565338134765625	0.56524658203125	1.12945556640625E-06	6.38420885934465E-07	500459.34375	7.56440977056627E-06
1	77	64.9252228360796	0.575408935546875	0.575439453125	1.1468505859375E-06	6.59943054870382E-07	501756.28125	7.67903111409396E-06
1	78	65.0259308358253	0.585479736328125	0.58544921875	1.170654296875E-06	6.85358656937751E-07	500104.28125	7.79572656028904E-06
1	79	65.126638835571	0.595550537109375	0.595489501953125	1.202392578125E-06	7.16012152679468E-07	495253.8125	7.91521870269207E-06
1	80	65.2273468353168	0.605621337890625	0.605560302734375	1.24786376953125E-06	7.55656799356075E-07	485277.5625	8.03859893494518E-06
1	81	65.3280548350625	0.615692138671875	0.61566162109375	1.31195068359375E-06	8.0771764032761E-07	469271.9375	8.16749616205925E-06
1	82	65.4287628348083	0.625762939453125	0.625732421875	1.40106201171875E-06	8.76689853157586E-07	446612.96875	8.30410681373905E-06
1	83	65.529470834554	0.635833740234375	0.635772705078125	1.52313232421875E-06	9.68365952758177E-07	417411.375	8.45135218696669E-06
1	84	65.6301788342997	0.645904541015625	0.645782470703125	1.68212890625E-06	1.08628933048749E-06	383907.84375	8.61274929775391E-06
1	85	65.7308868340455	0.655975341796875	0.6558837890625	1.88262939453125E-06	1.23478605473792E-06	348387.09375	8.79224990057992E-06
1	86	65.8315948337912	0.666046142578125	0.665985107421875	2.12005615234375E-06	1.41192572300497E-06	314135.625	8.99380029295571E-06
1	87	65.9323028335369	0.676116943359375	0.675994873046875	2.38189697265625E-06	1.61015009325638E-06	283805.28125	9.22049184737261E-06
1	88	66.0330108332827	0.686187744140625	0.686126708984375	2.650146484375E-06	1.81833615897631E-06	258901.4375	9.47387525229715E-06
1	89	66.1337188330284	0.696258544921875	0.696197509765625	2.89794921875E-06	2.01754505724239E-06	240238	9.75324473984074E-06
1	90	66.2344268327741	0.706329345703125	0.706298828125	3.10150146484375E-06	2.19058665607008E-06	227728.046875	1.00553406809922E-05
1	91	66.3351348325199	0.716400146484375	0.71630859375	3.24310302734375E-06	2.32306251746195E-06	220871.359375	1.03748170658946E-05
1	92	66.4358428322656	0.726470947265625	0.72637939453125	3.316650390625E-06	2.40914641835843E-06	219009.953125	1.07051264421898E-05
1	93	66.5365508320114	0.736541748046875	0.73638916015625	3.328857421875E-06	2.45133446696855E-06	221213.796875	1.10397550088237E-05
1	94	66.6372588317571	0.746612548828125	0.746551513671875	3.294677734375E-06	2.45964656642172E-06	226593.1875	1.13732758109109E-05
1	95	66.7379668315028	0.756683349609375	0.75714111328125	3.22967529296875E-06	2.44531997850572E-06	234432.578125	1.17018034870853E-05
1	96	66.8386748312486	0.766754150390625	0.76690673828125	3.1488037109375E-06	2.41483871832315E-06	243554.953125	1.20229851745535E-05
1	97	66.9393828309943	0.776824951171875	0.7763671875	3.06243896484375E-06	2.37757717513887E-06	253512.703125	1.2335745850578E-05
1	98	67.04009083074	0.786895751953125	0.78704833984375	2.9779052734375E-06	2.34375534091669E-06	264295.96875	1.2639901797229E-05
1	99	67.1407988304858	0.796966552734375	0.797119140625	2.89825439453125E-06	2.31025387620321E-06	275034.25	1.29357895275461E-05
1	100	67.2415068302315	0.807037353515625	0.8074951171875	2.82684326171875E-06	2.28266208068817E-06	285652.59375	1.32240711536724E-05
1	101	67.3422148299773	0.817108154296875	0.81756591796875	2.762451171875E-06	2.25848589252564E-06	295956.71875	1.3505514289136E-05
1	102	67.442922829723	0.827178955078125	0.82763671875	2.706298828125E-06	2.23983215619228E-06	305818.6875	1.37808883664547E-05
1	103	67.5436308294687	0.837249755859375	0.83770751953125	2.65716552734375E-06	2.22592734644422E-06	315263.59375	1.40509600896621E-05
1	104	67.6443388292145	0.847320556640625	0.84747314453125	2.6153564453125E-06	2.21644427256251E-06	324037.34375	1.43164525070461E-05
1	105	67.7450468289602	0.857391357421875	0.85784912109375	2.57904052734375E-06	2.21242771658581E-06	332623.375	1.45780113598448E-05
1	106	67.8457548287059	0.867462158203125	0.8673095703125	2.54913330078125E-06	2.21088771468203E-06	340237.03125	1.48362350955722E-05
1	107	67.9464628284517	0.877532958984375	0.87799072265625	2.5238037109375E-06	2.21587629312126E-06	347883.90625	1.50916775965015E-05
1	108	68.0471708281974	0.887603759765625	0.887451171875	2.5048828125E-06	2.22296125684807E-06	354288.5	1.53448927449062E-05
1	109	68.1478788279431	0.897674560546875	0.89813232421875	2.49114990234375E-06	2.23738220483938E-06	360529.21875	1.55964626173954E-05
1	110	68.2485868276889	0.907745361328125	0.90789794921875	2.48565673828125E-06	2.25672260967258E-06	365254.75	1.5847064787522E-05
1	111	68.3492948274346	0.917816162109375	0.91827392578125	2.48992919921875E-06	2.28643693844788E-06	368795.21875	1.60976051120088E-05
1	112	68.4500028271804	0.927886962890625	0.92742919921875	2.50823974609375E-06	2.32621482609829E-06	369753	1.63492841238622E-05
1	113	68.5507108269261	0.937957763671875	0.93841552734375	2.54486083984375E-06	2.3881368633738E-06	368749.25	1.66037261806196E-05
1	114	68.6514188266718	0.948028564453125	0.948486328125	2.60528564453125E-06	2.47107777795463E-06	364062.34375	1.68630576808937E-05
1	115	68.7521268264176	0.958099365234375	0.95794677734375	2.6959228515625E-06	2.58255067819846E-06	355331.6875	1.7129994375864E-05
1	116	68.8528348261633	0.968170166015625	0.96832275390625	2.8240966796875E-06	2.73463706434995E-06	342878.78125	1.74079505086411E-05
1	117	68.953542825909	0.978240966796875	0.977783203125	2.99346923828125E-06	2.92696404358139E-06	326638.8125	1.77008878381457E-05
1	118	69.0542508256548	0.988311767578125	0.98876953125	3.2049560546875E-06	3.16896262120281E-06	308512.6875	1.80130027729319E-05
1	119	69.1549588254005	0.998382568359375	0.99853515625	3.45123291015625E-06	3.44617728842422E-06	289327.09375	1.83481679414399E-05
1	120	69.2556668251462	1.00845336914063	1.00830078125	3.7152099609375E-06	3.74604906028253E-06	271398.0625	1.87090281542623E-05
1	121	69.356374824892	1.01852416992188	1.01806640625	3.978271484375E-06	4.05014452553587E-06	255906.734375	1.90964256034931E-05
1	122	69.4570828246377	1.02859497070313	1.0284423828125	4.20989990234375E-06	4.32963952334831E-06	244291.40625	1.9508732293616E-05
1	123	69.5577908243835	1.03866577148438	1.0382080078125	4.38995361328125E-06	4.5576848606288E-06	236496.359375	1.99417700059712E-05
1	124	69.6584988241292	1.04873657226563	1.04888916015625	4.501953125E-06	4.7220496526279E-06	232985.375	2.03895124286646E-05
1	125	69.7592068238749	1.05880737304688	1.05865478515625	4.54681396484375E-06	4.81350616610143E-06	232834.4375	2.08451547223376E-05
1	126	69.8599148236207	1.06887817382813	1.0687255859375	4.532470703125E-06	4.84396696265321E-06	235793.171875	2.13023322430672E-05
1	127	69.9606228233664	1.07894897460938	1.0791015625	4.47509765625E-06	4.8290849008481E-06	241134.75	2.17558990698308E-05
1	128	70.0613308231121	1.08901977539063	1.08978271484375	4.3927001953125E-06	4.78708898299374E-06	248089.484375	2.2202428226592E-05
1	129	70.1620388228579	1.09909057617188	1.0992431640625	4.2974853515625E-06	4.72398141937447E-06	255787.53125	2.2640013412456E-05
1	130	70.2627468226036	1.10916137695313	1.10931396484375	4.20013427734375E-06	4.65926768811187E-06	264113.9375	2.30679033847991E-05
1	131	70.3634548223494	1.11923217773438	1.11907958984375	4.10614013671875E-06	4.59509737993358E-06	272538.125	2.34861581702717E-05
1	132	70.4641628220951	1.12930297851563	1.12884521484375	4.01824951171875E-06	4.53598158856039E-06	280929.59375	2.38952525251079E-05
1	133	70.5648708218408	1.13937377929688	1.13922119140625	3.93829345703125E-06	4.48658738605445E-06	289267.71875	2.42958958551753E-05
1	134	70.6655788215866	1.14944458007813	1.14990234375	3.8653564453125E-06	4.44478200734011E-06	297489.375	2.46888412220869E-05
1	135	70.7662868213323	1.15951538085938	1.15936279296875	3.800048828125E-06	4.40563508163905E-06	305091.5625	2.50748253165511E-05
1	136	70.866994821078	1.16958618164063	1.1700439453125	3.7420654296875E-06	4.37838070865837E-06	312673.3125	2.54546012001811E-05
1	137	70.9677028208238	1.17965698242188	1.17919921875	3.68988037109375E-06	4.3511040530575E-06	319576.5625	2.58288291661302E-05
1	138	71.0684108205695	1.18972778320313	1.18988037109375	3.64349365234375E-06	4.33532159149763E-06	326576.78125	2.6198093109997E-05
1	139	71.1691188203152	1.19979858398438	1.19964599609375	3.60321044921875E-06	4.32257684224169E-06	332938.09375	2.65629951172741E-05
1	140	71.269826820061	1.20986938476563	1.209716796875	3.5662841796875E-06	4.3141935748281E-06	339209.3125	2.69240063062171E-05
1	141	71.3705348198067	1.21994018554688	1.22039794921875	3.5333251953125E-06	4.31206262874184E-06	345396.46875	2.72815013886429E-05
1	142	71.4712428195525	1.23001098632813	1.23077392578125	3.5040283203125E-06	4.31266653322382E-06	351245.4375	2.76358605333371E-05
1	143	71.5719508192982	1.24008178710938	1.240234375	3.47747802734375E-06	4.31288754043635E-06	356647.65625	2.7987405701424E-05
1	144	71.6726588190439	1.25015258789063	1.25	3.453369140625E-06	4.31671151090995E-06	361965.375	2.83364024653565E-05
1	145	71.7733668187897	1.26022338867188	1.259765625	3.43231201171875E-06	4.32390834248508E-06	367031.21875	2.86831236735452E-05
1	146	71.8740748185354	1.27029418945313	1.27044677734375	3.4124755859375E-06	4.33536843047477E-06	372294.78125	2.90277857857291E-05
1	147	71.9747828182811	1.28036499023438	1.2799072265625	3.39508056640625E-06	4.34538787885685E-06	376988.78125	2.93705743388273E-05
1	148	72.0754908180269	1.29043579101563	1.2908935546875	3.3795166015625E-06	4.36259597336175E-06	381975.8125	2.97117021546001E-05
1	149	72.1761988177726	1.30050659179688	1.30096435546875	3.36578369140625E-06	4.37876451542252E-06	386526.4375	3.00513547699666E-05
1	150	72.2769068175184	1.31057739257813	1.3104248046875	3.35418701171875E-06	4.39540963270701E-06	390683.3125	3.03897322737612E-05
1	151	72.3776148172641	1.32064819335938	1.3201904296875	3.34503173828125E-06	4.41607880929951E-06	394672.03125	3.07270638586488E-05
1	152	72.4783228170098	1.33071899414063	1.33087158203125	3.33709716796875E-06	4.44124771092902E-06	398811.1875	3.10635368805379E-05
1	153	72.5790308167556	1.34078979492188	1.3409423828125	3.3319091796875E-06	4.46789817942772E-06	402454.6875	3.13993477902841E-05
1	154	72.6797388165013	1.35086059570313	1.3507080078125	3.328857421875E-06	4.49631397714256E-06	405757.25	3.17347439704463E-05
1	155	72.780446816247	1.36093139648438	1.36077880859375	3.3282470703125E-06	4.52900803793455E-06	408857.53125	3.20699546136893E-05
1	156	72.8811548159928	1.37100219726563	1.3714599609375	3.3306884765625E-06	4.56790576208732E-06	411764.71875	3.24052598443814E-05
1	157	72.9818628157385	1.38107299804688	1.3812255859375	3.33587646484375E-06	4.60759747511474E-06	414051.8125	3.27409470628481E-05
1	158	73.0825708154842	1.39114379882813	1.3909912109375	3.34503173828125E-06	4.65290986539912E-06	415837.96875	3.30773582390975E-05
1	159	73.18327881523	1.40121459960938	1.4007568359375	3.35845947265625E-06	4.70438499178272E-06	417083.15625	3.34149044647347E-05
1	160	73.2839868149757	1.41128540039063	1.41143798828125	3.37615966796875E-06	4.76523973702569E-06	418060.21875	3.37540222972166E-05
1	161	73.3846948147215	1.42135620117188	1.42181396484375	3.39935302734375E-06	4.83324720335077E-06	418260.1875	3.40951955877244E-05
1	162	73.4854028144672	1.43142700195313	1.43157958984375	3.42926025390625E-06	4.90925913254614E-06	417460.1875	3.44390427926555E-05
1	163	73.5861108142129	1.44149780273438	1.4410400390625	3.468017578125E-06	4.99755196869955E-06	415522.71875	3.47863497154322E-05
1	164	73.6868188139587	1.45156860351563	1.451416015625	3.5186767578125E-06	5.10706377099268E-06	412489.15625	3.51381568179931E-05
1	165	73.7875268137044	1.46163940429688	1.46209716796875	3.58245849609375E-06	5.23790231454768E-06	408126.75	3.54957264789846E-05
1	166	73.8882348134501	1.47171020507813	1.47186279296875	3.66180419921875E-06	5.38967333341134E-06	401950.15625	3.58605066139717E-05
1	167	73.9889428131959	1.48178100585938	1.48193359375	3.75762939453125E-06	5.5685568440822E-06	394379.9375	3.62341015716083E-05
1	168	74.0896508129416	1.49185180664063	1.49200439453125	3.87054443359375E-06	5.77486935071647E-06	385476.625	3.66182139259763E-05
1	169	74.1903588126874	1.50192260742188	1.5020751953125	4.00054931640625E-06	6.00912608206272E-06	375467.25	3.70145535271149E-05
1	170	74.2910668124331	1.49185180664063	1.49169921875	3.66729736328125E-06	5.47050467503141E-06	406757.09375	3.74006594938692E-05
1	171	74.3917748121788	1.48178100585938	1.48193359375	3.42010498046875E-06	5.06836840941105E-06	433300.625	3.77575379388873E-05
1	172	74.4924828119246	1.47171020507813	1.47186279296875	3.22357177734375E-06	4.74465514344047E-06	456593.78125	3.8092075556051E-05
1	173	74.5931908116703	1.46163940429688	1.4617919921875	3.062744140625E-06	4.47709498985205E-06	477281.78125	3.8408616092056E-05
1	174	74.693898811416	1.45156860351563	1.45172119140625	2.92816162109375E-06	4.25087409894331E-06	495779.0625	3.87102809327189E-05
1	175	74.7946068111618	1.44149780273438	1.44134521484375	2.81494140625E-06	4.05730224883882E-06	512033.84375	3.89994711440522E-05
1	176	74.8953148109075	1.43142700195313	1.4312744140625	2.718505859375E-06	3.89092792829615E-06	526493.0625	3.92781003029086E-05
1	177	74.9960228106532	1.42135620117188	1.42120361328125	2.6361083984375E-06	3.74644673684088E-06	539129.4375	3.95477291021962E-05
1	178	75.096730810399	1.41128540039063	1.41082763671875	2.564697265625E-06	3.61834577233822E-06	550095.1875	3.98096090066247E-05
1	179	75.1974388101447	1.40121459960938	1.4013671875	2.50213623046875E-06	3.50641153090692E-06	560068.3125	4.00647440983448E-05
1	180	75.2981468098905	1.39114379882813	1.3909912109375	2.447509765625E-06	3.40446467816946E-06	568329.1875	4.03139783884399E-05
1	181	75.3988548096362	1.38107299804688	1.38092041015625	2.398681640625E-06	3.31238834405667E-06	575699.75	4.05580030928832E-05
1	182	75.4995628093819	1.37100219726563	1.37115478515625	2.35595703125E-06	3.23038148053456E-06	581994.875	4.07974184781779E-05
1	183	75.6002708091277	1.36093139648438	1.36016845703125	2.31597900390625E-06	3.15012152896088E-06	587297.4375	4.10326683777384E-05
1	184	75.7009788088734	1.35086059570313	1.35101318359375	2.28118896484375E-06	3.08191624753817E-06	592240.8125	4.12641566072125E-05
1	185	75.8016868086191	1.34078979492188	1.3409423828125	2.24945068359375E-06	3.01638351629663E-06	596120	4.14922906202264E-05
1	186	75.9023948083649	1.33071899414063	1.33026123046875	2.22015380859375E-06	2.95338440992055E-06	599175.3125	4.17173541791271E-05
1	187	76.0031028081106	1.32064819335938	1.32049560546875	2.19207763671875E-06	2.89462877844926E-06	602394.5625	4.19395255448762E-05
1	188	76.1038108078563	1.31057739257813	1.31072998046875	2.16705322265625E-06	2.84042175735522E-06	604844.375	4.21590266341809E-05
1	189	76.2045188076021	1.30050659179688	1.30035400390625	2.1429443359375E-06	2.78658626484685E-06	606807.1875	4.23760538978968E-05
1	190	76.3052268073478	1.29043579101563	1.290283203125	2.12005615234375E-06	2.73547266260721E-06	608608.0625	4.25907128374092E-05
1	191	76.4059348070936	1.28036499023438	1.28021240234375	2.09808349609375E-06	2.68599251285195E-06	610181.8125	4.28031125920825E-05
1	192	76.5066428068393	1.27029418945313	1.2701416015625	2.07733154296875E-06	2.63850529336196E-06	611429.375	4.30133623012807E-05
1	193	76.607350806585	1.26022338867188	1.2603759765625	2.05780029296875E-06	2.5936019483197E-06	612487.0625	4.32215820183046E-05
1	194	76.7080588063308	1.25015258789063	1.25030517578125	2.03857421875E-06	2.54883980232989E-06	613323.375	4.34278481407091E-05
1	195	76.8087668060765	1.24008178710938	1.240234375	2.020263671875E-06	2.50560037784453E-06	613897.3125	4.36322297900915E-05
1	196	76.9094748058222	1.23001098632813	1.23016357421875	2.0025634765625E-06	2.46348054133705E-06	614294.4375	4.38347924500704E-05
1	197	77.010182805568	1.21994018554688	1.21978759765625	1.9854736328125E-06	2.42185592469468E-06	614356	4.40356088802218E-05
1	198	77.1108908053137	1.20986938476563	1.209716796875	1.96807861328125E-06	2.38081770476128E-06	614668.9375	4.42346863565035E-05
1	199	77.2115988050595	1.19979858398438	1.1993408203125	1.95098876953125E-06	2.33990044762322E-06	614734.875	4.44320248789154E-05
1	200	77.3123068048052	1.18972778320313	1.18988037109375	1.93389892578125E-06	2.30110822485585E-06	615275.375	4.46276462753303E-05
1	201	77.4130148045509	1.17965698242188	1.17919921875	1.91650390625E-06	2.25993971980643E-06	615286.625	4.48215287178755E-05
1	202	77.5137228042967	1.16958618164063	1.16912841796875	1.89697265625E-06	2.21780464926269E-06	616312.75	4.50135521532502E-05
1	203	77.6144308040424	1.15951538085938	1.15936279296875	1.87774658203125E-06	2.1769894829049E-06	617422.4375	4.52036256319843E-05
1	204	77.7151388037881	1.14944458007813	1.14959716796875	1.85455322265625E-06	2.13198904930323E-06	619878.25	4.53915599791799E-05
1	205	77.8158468035339	1.13937377929688	1.1395263671875	1.82861328125E-06	2.0837530883E-06	623164.25	4.55770241387654E-05
1	206	77.9165548032796	1.12930297851563	1.129150390625	1.79779052734375E-06	2.02997580345254E-06	628076.75	4.57596252090298E-05
1	207	78.0172628030253	1.11923217773438	1.119384765625	1.75872802734375E-06	1.96869336832606E-06	636474.0625	4.59387119917665E-05
1	208	78.1179708027711	1.10916137695313	1.1090087890625	1.708984375E-06	1.89527861493843E-06	648928.625	4.61133240605704E-05
1	209	78.2186788025168	1.09909057617188	1.0992431640625	1.6436767578125E-06	1.8068003555527E-06	668770.9375	4.62821444671135E-05
1	210	78.3193868022626	1.08901977539063	1.08917236328125	1.55670166015625E-06	1.69551640283316E-06	699666.75	4.64432960143313E-05
1	211	78.4200948020083	1.07894897460938	1.07879638671875	1.44317626953125E-06	1.55689326675201E-06	747515.375	4.65943521703593E-05
1	212	78.520802801754	1.06887817382813	1.06903076171875	1.2933349609375E-06	1.38261475512991E-06	826569.1875	4.67321478936356E-05
1	213	78.6215108014998	1.05880737304688	1.05865478515625	1.1029052734375E-06	1.16759588308923E-06	959878.3125	4.68528050987516E-05
1	214	78.7222188012455	1.04873657226563	1.04888916015625	8.70666503906251E-07	9.13232668153796E-07	1204696.875	4.69521837658249E-05
1	215	78.8229268009912	1.03866577148438	1.038818359375	6.0089111328125E-07	6.2421668189927E-07	1728796.375	4.70262821181677E-05
1	216	78.923634800737	1.02859497070313	1.0284423828125	3.08837890624999E-07	3.17621982048877E-07	3330039.5	4.70720915473066E-05
1	217	79.0243428004827	1.01852416992188	1.0186767578125	1.61743164062506E-08	1.6476398911891E-08	62981136	4.70884588139597E-05
1	218	79.1250508002285	1.00845336914063	1.0089111328125	-2.5146484375E-07	-2.53705650266056E-07	-4012136.25	4.7076609916985E-05
1	219	79.2257587999742	0.998382568359375	0.99884033203125	-4.6722412109375E-07	-4.66682280375608E-07	-2137818.5	4.70404193038121E-05
1	220	79.3264667997199	0.988311767578125	0.98846435546875	-6.170654296875E-07	-6.09947164775804E-07	-1601879.25	4.69858205178753E-05
1	221	79.4271747994657	0.978240966796875	0.9783935546875	-6.976318359375E-07	-6.82558493281249E-07	-1402449.75	4.69196202175226E-05
1	222	79.5278827992114	0.968170166015625	0.9686279296875	-7.1685791015625E-07	-6.94368566200865E-07	-1351213.375	4.68483958684374E-05
1	223	79.6285907989571	0.958099365234375	0.9588623046875	-6.878662109375E-07	-6.59568968330859E-07	-1393966.375	4.67776626464911E-05
1	224	79.7292987987029	0.948028564453125	0.9478759765625	-6.2744140625E-07	-5.94736661696516E-07	-1510700.375	4.6711433242308E-05
1	225	79.8300067984486	0.937957763671875	0.93841552734375	-5.5084228515625E-07	-5.16918930770771E-07	-1703601.125	4.66521014459431E-05
1	226	79.9307147981943	0.927886962890625	0.92803955078125	-4.67834472656251E-07	-4.34168896390474E-07	-1983692.125	4.66008059447631E-05
1	227	80.0314227979401	0.917816162109375	0.91766357421875	-3.84521484375E-07	-3.52861349028899E-07	-2386508	4.65578850707971E-05
1	228	80.1321307976858	0.907745361328125	0.9075927734375	-3.06396484375E-07	-2.78083234661608E-07	-2962151.25	4.65230950794648E-05
1	229	80.2328387974316	0.897674560546875	0.89813232421875	-2.34375000000001E-07	-2.1049976339782E-07	-3832031.25	4.64958648080938E-05
1	230	80.3335467971773	0.887603759765625	0.8880615234375	-1.690673828125E-07	-1.50142227539618E-07	-5252708	4.6475550334435E-05
1	231	80.434254796923	0.877532958984375	0.87799072265625	-1.11083984375E-07	-9.75307088424415E-08	-7903846	4.64614458905999E-05
1	232	80.5349627966688	0.867462158203125	0.867919921875	-5.98144531249997E-08	-5.19141565291648E-08	-14510204	4.64528384327423E-05
1	233	80.6356707964145	0.857391357421875	0.85723876953125	-1.58691406249994E-08	-1.36036426567898E-08	-54019232	4.64490294689313E-05
1	234	80.7363787961602	0.847320556640625	0.84747314453125	2.288818359375E-08	1.93971203543697E-08	37026668	4.64493823528755E-05
1	235	80.837086795906	0.837249755859375	0.83770751953125	5.46264648437503E-08	4.57610020987431E-08	15335195	4.64532859041356E-05
1	236	80.9377947956517	0.827178955078125	0.82733154296875	8.14819335937494E-08	6.74125715249829E-08	10153559	4.64601398562081E-05
1	237	81.0385027953974	0.817108154296875	0.8172607421875	1.019287109375E-07	8.33023321433757E-08	8017964.5	4.64693730464205E-05
1	238	81.1392107951432	0.807037353515625	0.8074951171875	1.15966796875E-07	9.36426189923623E-08	6963158	4.64803451905027E-05
1	239	81.2399187948889	0.796966552734375	0.797119140625	1.22680664062499E-07	9.77911014388155E-08	6497512.5	4.64923614345025E-05
1	240	81.3406267946347	0.786895751953125	0.787353515625	1.1871337890625E-07	9.34693886733839E-08	6632391	4.65045195596758E-05
1	241	81.4413347943804	0.776824951171875	0.77728271484375	1.0101318359375E-07	7.85157965310646E-08	7694864.5	4.65155826532282E-05
1	242	81.5420427941261	0.766754150390625	0.76690673828125	6.53076171875003E-08	5.00848500450957E-08	11742991	4.65239572804421E-05
1	243	81.6427507938719	0.756683349609375	0.7568359375	5.79833984375028E-09	4.38839187211215E-09	130526320	4.65275370515883E-05
1	244	81.7434587936176	0.746612548828125	0.74658203125	-8.42285156249997E-08	-6.28834939675471E-08	-8863769	4.65235898445826E-05
1	245	81.8441667933633	0.736541748046875	0.7364501953125	-2.1240234375E-07	-1.56423752173396E-07	-3467241.5	4.65086523036007E-05
1	246	81.9448747931091	0.726470947265625	0.7264404296875	-3.80859375000001E-07	-2.76671642041038E-07	-1907371.75	4.64787772216368E-05
1	247	82.0455827928548	0.716400146484375	0.71636962890625	-5.92956542968751E-07	-4.24776061436205E-07	-1208131.75	4.64297445432749E-05
1	248	82.1462907926006	0.706329345703125	0.70623779296875	-8.38623046875001E-07	-5.92267269894364E-07	-842139.75	4.63576579932123E-05
1	249	82.2469987923463	0.696258544921875	0.696197509765625	-1.10321044921875E-06	-7.68052302646538E-07	-631065.0625	4.62598763988353E-05
1	250	82.347706792092	0.686187744140625	0.68609619140625	-1.3604736328125E-06	-9.3341571982819E-07	-504306.875	4.61358213215135E-05
1	251	82.4484147918378	0.676116943359375	0.676055908203125	-1.5850830078125E-06	-1.0716047427195E-06	-426511.375	4.59875009255484E-05
1	252	82.5491227915835	0.666046142578125	0.666046142578125	-1.7535400390625E-06	-1.16793853521813E-06	-379829.46875	4.58193899248727E-05
1	253	82.6498307913292	0.655975341796875	0.65594482421875	-1.85455322265625E-06	-1.21648452022782E-06	-353694.28125	4.56377056252677E-05
1	254	82.750538791075	0.645904541015625	0.645843505859375	-1.888427734375E-06	-1.21962875709869E-06	-342000.65625	4.54492328572087E-05
1	255	82.8512467908207	0.635833740234375	0.635772705078125	-1.866455078125E-06	-1.18664115689171E-06	-340631.15625	4.52601598226465E-05
1	256	82.9519547905664	0.625762939453125	0.625762939453125	-1.805419921875E-06	-1.1297648825348E-06	-346602.4375	4.50752668257337E-05
1	257	83.0526627903122	0.615692138671875	0.615692138671875	-1.719970703125E-06	-1.05897242974606E-06	-357966.65625	4.48977480118629E-05
1	258	83.1533707900579	0.605621337890625	0.60565185546875	-1.6253662109375E-06	-9.8440602869232E-07	-372624.875	4.47292950411793E-05
1	259	83.2540787898037	0.595550537109375	0.595550537109375	-1.52862548828125E-06	-9.10373728402192E-07	-389598.71875	4.45704790763557E-05
1	260	83.3547867895494	0.585479736328125	0.58551025390625	-1.43524169921875E-06	-8.40348718611494E-07	-407952.375	4.44212382717524E-05
1	261	83.4554947892951	0.575408935546875	0.575439453125	-1.3482666015625E-06	-7.7584576274603E-07	-426799.46875	4.42810778622515E-05
1	262	83.5562027890409	0.565338134765625	0.565277099609375	-1.26861572265625E-06	-7.17119405635458E-07	-445585.75	4.41493066318799E-05
1	263	83.6569107887866	0.555267333984375	0.5552978515625	-1.1962890625E-06	-6.6429674916435E-07	-464183.65625	4.40251897089183E-05
1	264	83.7576187885323	0.545196533203125	0.545135498046875	-1.1309814453125E-06	-6.16538159192714E-07	-482002.15625	4.39080031355843E-05
1	265	83.8583267882781	0.535125732421875	0.53515625	-1.0723876953125E-06	-5.73894965327781E-07	-499032.4375	4.37970520579256E-05
1	266	83.9590347880238	0.525054931640625	0.525054931640625	-1.0198974609375E-06	-5.35502181264746E-07	-514811.5	4.3691699829651E-05
1	267	84.0597427877696	0.514984130859375	0.51495361328125	-9.722900390625E-07	-5.00684222970449E-07	-529629.6875	4.35913825640455E-05
1	268	84.1604507875153	0.504913330078125	0.50494384765625	-9.28955078125E-07	-4.69070130293403E-07	-543561.125	4.34956491517369E-05
1	269	84.261158787261	0.494842529296875	0.494842529296875	-8.8958740234375E-07	-4.40205667473492E-07	-556260.75	4.34040775871836E-05
1	270	84.3618667870068	0.484771728515625	0.4847412109375	-8.5418701171875E-07	-4.14059627473762E-07	-567488.4375	4.33162713306956E-05
1	271	84.4625747867525	0.474700927734375	0.474700927734375	-8.2122802734375E-07	-3.8983770878076E-07	-578037.9375	4.32319066021591E-05
1	272	84.5632827864982	0.464630126953125	0.464630126953125	-7.91015625E-07	-3.67529679579093E-07	-587384.25	4.31507251050789E-05
1	273	84.663990786244	0.454559326171875	0.45452880859375	-7.6263427734375E-07	-3.46639239978686E-07	-595998.375	4.30724903708324E-05
1	274	84.7646987859897	0.444488525390625	0.44451904296875	-7.373046875E-07	-3.27745965478243E-07	-602897.375	4.29969622928184E-05
1	275	84.8654067857354	0.434417724609375	0.43438720703125	-7.14111328125E-07	-3.10200817921213E-07	-608290.625	4.29238789365627E-05
1	276	84.9661147854812	0.424346923828125	0.424346923828125	-6.9244384765625E-07	-2.9383642186076E-07	-612825.0625	4.28530547651462E-05
1	277	85.0668227852269	0.414276123046875	0.414306640625	-6.72607421875E-07	-2.78665737596384E-07	-615970.9375	4.2784318793565E-05
1	278	85.1675307849727	0.404205322265625	0.4041748046875	-6.53991699218751E-07	-2.64326956767036E-07	-618012.1875	4.27175182267092E-05
1	279	85.2682387847184	0.394134521484375	0.394134521484375	-6.365966796875E-07	-2.50904719223399E-07	-619127.5	4.26525330112781E-05
1	280	85.3689467844641	0.384063720703125	0.384033203125	-6.195068359375E-07	-2.37911180533956E-07	-619901.5	4.2589283111738E-05
1	281	85.4696547842099	0.373992919921875	0.3740234375	-6.03637695312501E-07	-2.25774627438113E-07	-619615.8125	4.2527692130534E-05
1	282	85.5703627839556	0.363922119140625	0.36395263671875	-5.8868408203125E-07	-2.14253120134344E-07	-618247.8125	4.24676545662805E-05
1	283	85.6710707837013	0.353851318359375	0.3538818359375	-5.7373046875E-07	-2.03032783474555E-07	-616808.5	4.24091231252532E-05
1	284	85.7717787834471	0.343780517578125	0.343780517578125	-5.60913085937501E-07	-1.92830981404768E-07	-612894.5	4.23519886680879E-05
1	285	85.8724867831928	0.333709716796875	0.33380126953125	-5.48095703125E-07	-1.82955034233601E-07	-609020.0625	4.2296145693399E-05
1	286	85.9731947829385	0.323638916015625	0.3236083984375	-5.36193847656249E-07	-1.7351683823108E-07	-603528.75	4.22415469074622E-05
1	287	86.0739027826843	0.313568115234375	0.313568115234375	-5.2520751953125E-07	-1.64688330528406E-07	-597036.625	4.21881013608072E-05
1	288	86.17461078243	0.303497314453125	0.303466796875	-5.15136718750001E-07	-1.56326890987657E-07	-589099.5	4.21357144659851E-05
1	289	86.2753187821758	0.293426513671875	0.293426513671875	-5.0537109375E-07	-1.48289274193303E-07	-580615.9375	4.20843280153349E-05
1	290	86.3760267819215	0.283355712890625	0.283355712890625	-4.96826171875001E-07	-1.40778524837515E-07	-570331.75	4.20338656113017E-05
1	291	86.4767347816672	0.273284912109375	0.27325439453125	-4.88891601562499E-07	-1.33591782969233E-07	-558926.3125	4.19842290284578E-05
1	292	86.577442781413	0.263214111328125	0.263153076171875	-4.81262207031249E-07	-1.2664563087128E-07	-546797.75	4.19353782490361E-05
1	293	86.6781507811587	0.253143310546875	0.253173828125	-4.74853515625E-07	-1.20220477128896E-07	-533162	4.18872332375031E-05
1	294	86.7788587809044	0.243072509765625	0.24310302734375	-4.69360351562501E-07	-1.14102917336822E-07	-517945.40625	4.18396884924732E-05
1	295	86.8795667806502	0.233001708984375	0.232940673828125	-4.64477539062499E-07	-1.08195706616243E-07	-501511.1875	4.17926676163916E-05
1	296	86.9802747803959	0.222930908203125	0.222930908203125	-4.6112060546875E-07	-1.02798033196905E-07	-483454.65625	4.17460578319151E-05
1	297	87.0809827801417	0.212860107421875	0.212921142578125	-4.5806884765625E-07	-9.75325349372724E-08	-464823.46875	4.16997754655313E-05
1	298	87.1816907798874	0.202789306640625	0.2027587890625	-4.559326171875E-07	-9.24443384064944E-08	-444712.21875	4.16537513956428E-05
1	299	87.2823987796331	0.192718505859375	0.1927490234375	-4.559326171875E-07	-8.78805650472714E-08	-422757.71875	4.16078328271396E-05
1	300	87.3831067793789	0.182647705078125	0.18267822265625	-4.57153320312501E-07	-8.35119564612796E-08	-399599.46875	4.15618560509756E-05
1	301	87.4838147791246	0.172576904296875	0.172576904296875	-4.61425781249999E-07	-7.96314338913362E-08	-374007.9375	4.15156027884223E-05
1	302	87.5845227788703	0.162506103515625	0.162567138671875	-4.67529296874999E-07	-7.60048948222902E-08	-347715.40625	4.14688256569207E-05
1	303	87.6852307786161	0.152435302734375	0.152435302734375	-4.76989746093751E-07	-7.27100726294339E-08	-319577.75	4.14212663599756E-05
1	304	87.7859387783618	0.142364501953125	0.142425537109375	-4.9163818359375E-07	-7.00218265592412E-08	-289695.84375	4.13724919781089E-05
1	305	87.8866467781075	0.132293701171875	0.132354736328125	-5.11474609375E-07	-6.76960851819786E-08	-258770.890625	4.13219822803512E-05
1	306	87.9873547778533	0.122222900390625	0.122222900390625	-5.40771484374999E-07	-6.60946568586951E-08	-226015.8125	4.12689951190259E-05
1	307	88.088062777599	0.112152099609375	0.112213134765625	-5.82275390625001E-07	-6.53389449212227E-08	-192714.890625	4.12124463764485E-05
1	308	88.1887707773448	0.102081298828125	0.10211181640625	-6.39953613281249E-07	-6.53468248401623E-08	-159561.28125	4.11509026889689E-05
1	309	88.2894787770905	0.092010498046875	0.092041015625	-7.20825195312499E-07	-6.63454855498458E-08	-127688.3984375	4.10823813581374E-05
1	310	88.3901867768362	0.081939697265625	0.08203125	-8.28857421875E-07	-6.79922109725339E-08	-98969.0703125	4.10043467127252E-05
1	311	88.490894776582	0.071868896484375	0.071929931640625	-9.716796875E-07	-6.98928559472733E-08	-74026.3828125	4.09136846428737E-05
1	312	88.5916027763277	0.061798095703125	0.06182861328125	-1.14837646484375E-06	-7.10025247485646E-08	-53840.0234375	4.08069317927584E-05
1	313	88.6923107760734	0.051727294921875	0.0517578125	-1.3592529296875E-06	-7.035195892513E-08	-38078.1328125	4.06806611863431E-05
1	314	88.7930187758192	0.041656494140625	0.04176025390625	-1.5911865234375E-06	-6.64483508217018E-08	-26244.7265625	4.05320970457979E-05
1	315	88.8937267755649	0.031585693359375	0.031689453125	-1.8255615234375E-06	-5.78510466198168E-08	-17358.744140625	4.03600497520529E-05
1	316	88.9944347753107	0.021514892578125	0.021630859375	-2.0391845703125E-06	-4.4109309982332E-08	-10607.6025390625	4.01654433517251E-05
1	317	89.0951427750564	0.011444091796875	0.0115234375	-2.20947265625E-06	-2.5460719754733E-08	-5215.4697265625	3.99515047320165E-05
1	318	89.1958507748021	0.001373291015625	0.001483154296875	-2.32208251953125E-06	-3.44400663543354E-09	-638.71728515625	3.97233234252781E-05
1	319	89.2965587745479	-0.008697509765625	-0.00861511230468751	-2.37518310546875E-06	2.04624690525179E-08	3627.1357421875	3.94867965951562E-05
1	320	89.3972667742936	-0.018768310546875	-0.0186492919921875	-2.37640380859375E-06	4.43182450737822E-08	7847.69482421875	3.92475376429502E-05
1	321	89.4979747740393	-0.028839111328125	-0.0287200927734375	-2.340087890625E-06	6.7207537313152E-08	12273.0830078125	3.90100431104656E-05
1	322	89.5986827737851	-0.038909912109375	-0.0387908935546875	-2.2808837890625E-06	8.84775204212929E-08	17006.95703125	3.8777357985964E-05
1	323	89.6993907735308	-0.048980712890625	-0.0488189697265625	-2.20977783203125E-06	1.07879067456906E-07	22092.25390625	3.85512357752305E-05
1	324	89.8000987732765	-0.059051513671875	-0.0589599609375	-2.13653564453125E-06	1.25970061048974E-07	27596.05859375	3.83323822461534E-05
1	325	89.9008067730223	-0.069122314453125	-0.06903076171875	-2.06634521484375E-06	1.42641383149567E-07	33407.1796875	3.81207501050085E-05
1	326	90.001514772768	-0.079193115234375	-0.07916259765625	-2.00103759765625E-06	1.58407331696253E-07	39560.77734375	3.79159391741268E-05
1	327	90.1022227725138	-0.089263916015625	-0.089202880859375	-1.94122314453125E-06	1.73162689520723E-07	45951.8984375	3.77174328605179E-05
1	328	90.2029307722595	-0.099334716796875	-0.099212646484375	-1.88995361328125E-06	1.87507296800504E-07	52494.75390625	3.75245181203354E-05
1	329	90.3036387720052	-0.109405517578125	-0.10931396484375	-1.8450927734375E-06	2.01694405177477E-07	59245.78515625	3.73364418919664E-05
1	330	90.404346771751	-0.119476318359375	-0.119415283203125	-1.80633544921875E-06	2.15704048400767E-07	66109.140625	3.7152578443056E-05
1	331	90.5050547714967	-0.129547119140625	-0.1295166015625	-1.77276611328125E-06	2.29602633794457E-07	73059.046875	3.69723566109315E-05
1	332	90.6057627712424	-0.139617919921875	-0.1395263671875	-1.74468994140625E-06	2.43430235968844E-07	79972.015625	3.67952379747294E-05
1	333	90.7064707709882	-0.149688720703125	-0.14959716796875	-1.7218017578125E-06	2.57576658668768E-07	86884.0859375	3.66206877515651E-05
1	334	90.8071787707339	-0.159759521484375	-0.159637451171875	-1.70196533203125E-06	2.71697388143366E-07	93795.953125	3.64482875738759E-05
1	335	90.9078867704796	-0.169830322265625	-0.169677734375	-1.6864013671875E-06	2.86144768324448E-07	100615.2734375	3.62776663678233E-05
1	336	91.0085947702254	-0.179901123046875	-0.179779052734375	-1.67449951171875E-06	3.01039932537606E-07	107362.859375	3.6108434869675E-05
1	337	91.1093027699711	-0.189971923828125	-0.189849853515625	-1.66656494140625E-06	3.16397091637555E-07	113916.8671875	3.5940196539741E-05
1	338	91.2100107697169	-0.200042724609375	-0.199859619140625	-1.6619873046875E-06	3.32164148630909E-07	120253.3984375	3.57725912181195E-05
1	339	91.3107187694626	-0.189971923828125	-0.18975830078125	-1.49627685546875E-06	2.83930944533495E-07	126820.3203125	3.56135606125463E-05
2	340	91.4114267692083	-0.179901123046875	-0.179779052734375	-1.378173828125E-06	2.47766791972026E-07	130447.296875	3.54688199877273E-05
2	341	91.5121347689541	-0.169830322265625	-0.169769287109375	-1.2811279296875E-06	2.17496165078046E-07	132515.484375	3.53349132637959E-05
2	342	91.6128427686998	-0.159759521484375	-0.159637451171875	-1.1981201171875E-06	1.9126484573917E-07	133239.9375	3.52100723830517E-05
2	343	91.7135507684455	-0.149688720703125	-0.14959716796875	-1.1260986328125E-06	1.68461156135891E-07	132845.53125	3.50930386048276E-05
2	344	91.8142587681913	-0.139617919921875	-0.139495849609375	-1.0601806640625E-06	1.47890801827089E-07	131577.421875	3.4982953366125E-05
2	345	91.914966767937	-0.129547119140625	-0.12939453125	-1.00067138671875E-06	1.29481392718844E-07	129307.7265625	3.48791800206527E-05
2	346	92.0156747676828	-0.119476318359375	-0.119384765625	-9.4482421875E-07	1.12797614804094E-07	126356.59375	3.47812165273353E-05
2	347	92.1163827674285	-0.109405517578125	-0.10931396484375	-8.9263916015625E-07	9.75779244072328E-08	122461.5390625	3.46886918123346E-05
2	348	92.2170907671742	-0.099334716796875	-0.099273681640625	-8.41674804687501E-07	8.35561522194439E-08	117947.796875	3.46013621310703E-05
2	349	92.31779876692	-0.089263916015625	-0.0892333984375	-7.904052734375E-07	7.0530546736336E-08	112895.7578125	3.45191801898181E-05
2	350	92.4185067666657	-0.079193115234375	-0.079132080078125	-7.3699951171875E-07	5.83203032533675E-08	107370.6015625	3.44422696798574E-05
2	351	92.5192147664114	-0.069122314453125	-0.069061279296875	-6.793212890625E-07	4.69147956039251E-08	101662.1796875	3.4370954381302E-05
2	352	92.6199227661572	-0.059051513671875	-0.05889892578125	-6.14013671874999E-07	3.61647423119393E-08	95924.4609375	3.43058272846974E-05
2	353	92.7206307659029	-0.048980712890625	-0.048834228515625	-5.36499023437501E-07	2.61995136696669E-08	91023.890625	3.42478961101733E-05
2	354	92.8213387656486	-0.038909912109375	-0.0387725830078125	-4.412841796875E-07	1.71097269685561E-08	87863.078125	3.41986597049981E-05
2	355	92.9220467653944	-0.028839111328125	-0.028729248046875	-3.24096679687499E-07	9.31105414991862E-09	88644.0703125	3.41601189575158E-05
2	356	93.0227547651401	-0.018768310546875	-0.01866455078125	-1.7669677734375E-07	3.2979656783283E-09	105630.3984375	3.41349041264039E-05
2	357	93.1234627648859	-0.008697509765625	-0.00863037109375001	5.79833984375028E-09	-5.00418213811304E-11	-1488421	3.41262966685463E-05
2	358	93.2241707646316	0.001373291015625	0.00144348144531251	2.227783203125E-07	3.21576348882857E-10	6479.4521484375	3.41378072334919E-05
2	359	93.3248787643773	0.011444091796875	0.0115570068359375	4.681396484375E-07	5.4102931024147E-09	24687.09375	3.41725972248241E-05
2	360	93.4255867641231	0.021514892578125	0.021600341796875	7.2784423828125E-07	1.57216835106055E-08	29677.1484375	3.42328203259967E-05
2	361	93.5262947638688	0.031585693359375	0.031671142578125	9.80529785156251E-07	3.10544976400706E-08	32300.033203125	3.43188439728692E-05
2	362	93.6270027636145	0.041656494140625	0.041748046875	1.202392578125E-06	5.01975421229872E-08	34720.8125	3.44287618645467E-05
2	363	93.7277107633603	0.051727294921875	0.05169677734375	1.3726806640625E-06	7.09631677864309E-08	37661.18359375	3.4558426705189E-05
2	364	93.828418763106	0.061798095703125	0.06182861328125	1.4825439453125E-06	9.16636295755779E-08	41704.40625	3.47021996276453E-05
2	365	93.9291267628518	0.071868896484375	0.07196044921875	1.533203125E-06	1.10329985147928E-07	46934.71484375	3.48540561390109E-05
2	366	94.0298347625975	0.081939697265625	0.08203125	1.5362548828125E-06	1.26020907487145E-07	53396.90234375	3.50086156686302E-05
2	367	94.1305427623432	0.092010498046875	0.09210205078125	1.50634765625E-06	1.38737703991865E-07	61142.625	3.51618218701333E-05
2	368	94.231250762089	0.102081298828125	0.102081298828125	1.45599365234375E-06	1.4862970942886E-07	70111.09375	3.53109862771817E-05
2	369	94.3319587618347	0.112152099609375	0.1121826171875	1.39617919921875E-06	1.56627038450097E-07	80349.7265625	3.5454606404528E-05
2	370	94.4326667615804	0.122222900390625	0.12225341796875	1.33514404296875E-06	1.63225919891374E-07	91565.71875	3.55921401933301E-05
2	371	94.5333747613262	0.132293701171875	0.13232421875	1.275634765625E-06	1.68797370747598E-07	103732.0546875	3.57236021955032E-05
2	372	94.6340827610719	0.142364501953125	0.142425537109375	1.220703125E-06	1.73859291408007E-07	116675	3.58493016392458E-05
2	373	94.7347907608176	0.152435302734375	0.152496337890625	1.1712646484375E-06	1.78613575485542E-07	130198.015625	3.5969747841591E-05
2	374	94.8354987605634	0.162506103515625	0.162567138671875	1.126708984375E-06	1.83165852263301E-07	144284.9375	3.60854610335082E-05
2	375	94.9362067603091	0.172576904296875	0.172637939453125	1.08795166015625E-06	1.87821726171933E-07	158681.625	3.6196975997882E-05
2	376	95.0369147600549	0.182647705078125	0.18267822265625	1.0540771484375E-06	1.92556925071585E-07	173306.328125	3.63048347935546E-05
2	377	95.1376227598006	0.192718505859375	0.192718505859375	1.0235595703125E-06	1.97258870571204E-07	188282.65625	3.64094521501102E-05
2	378	95.2383307595463	0.202789306640625	0.202850341796875	9.979248046875E-07	2.02429376372493E-07	203272.1875	3.65112427971326E-05
2	379	95.3390387592921	0.212860107421875	0.212890625	9.7503662109375E-07	2.07576164257262E-07	218341.15625	3.66105887223966E-05
2	380	95.4397467590378	0.222930908203125	0.222930908203125	9.54589843750001E-07	2.12807577781859E-07	233535.8125	3.67077554983553E-05
2	381	95.5404547587835	0.233001708984375	0.23297119140625	9.368896484375E-07	2.18268297658142E-07	248664.5	3.68029977835249E-05
2	382	95.6411627585293	0.243072509765625	0.243072509765625	9.21630859375E-07	2.2402312538361E-07	263741.71875	3.68965811503585E-05
2	383	95.741870758275	0.253143310546875	0.25311279296875	9.07287597656251E-07	2.29646090588176E-07	278977.46875	3.69886765838601E-05
2	384	95.8425787580207	0.263214111328125	0.263214111328125	8.94775390624999E-07	2.35517504165728E-07	294167.8125	3.70794150512666E-05
2	385	95.9432867577665	0.273284912109375	0.2733154296875	8.837890625E-07	2.41553181012932E-07	309254.15625	3.71689748135395E-05
2	386	96.0439947575122	0.283355712890625	0.2833251953125	8.75244140625001E-07	2.47978704237539E-07	323709.90625	3.72575486835558E-05
2	387	96.144702757258	0.293426513671875	0.29339599609375	8.6639404296875E-07	2.54196550031338E-07	338640.375	3.73452458006795E-05
2	388	96.2454107570037	0.303497314453125	0.303497314453125	8.59375E-07	2.60817984099049E-07	353160.53125	3.74321462004445E-05
2	389	96.3461187567494	0.313568115234375	0.313568115234375	8.526611328125E-07	2.67367340711644E-07	367752.34375	3.75183553842362E-05
2	390	96.4468267564952	0.323638916015625	0.3236083984375	8.47473144531249E-07	2.74249430276541E-07	381850.9375	3.76039643015247E-05
2	391	96.5475347562409	0.333709716796875	0.333740234375	8.428955078125E-07	2.81308132343838E-07	395944.96875	3.76890784536954E-05
2	392	96.6482427559866	0.343780517578125	0.343780517578125	8.392333984375E-07	2.88512097768034E-07	409636.375	3.77737815142609E-05
2	393	96.7489507557324	0.353851318359375	0.353790283203125	8.36181640625E-07	2.95832933261408E-07	423102.1875	3.78581462427974E-05
2	394	96.8496587554781	0.363922119140625	0.363922119140625	8.34045410156251E-07	3.03527571077211E-07	436333.6875	3.79422490368597E-05
2	395	96.9503667552239	0.373992919921875	0.37396240234375	8.3282470703125E-07	3.11445120360077E-07	449028.96875	3.80261808459181E-05
2	396	97.0510747549696	0.384063720703125	0.38409423828125	8.32214355468749E-07	3.19648734148359E-07	461532.84375	3.81100217055064E-05
2	397	97.1517827547153	0.394134521484375	0.394134521484375	8.32214355468749E-07	3.28004375660385E-07	473597.375	3.81938334612641E-05
2	398	97.2524907544611	0.404205322265625	0.404205322265625	8.32214355468749E-07	3.3638545460235E-07	485698.59375	3.82776452170219E-05
2	399	97.3531987542068	0.414276123046875	0.414215087890625	8.3343505859375E-07	3.45221366160331E-07	496997.46875	3.83615151804406E-05
2	400	97.4539067539525	0.424346923828125	0.42431640625	8.343505859375E-07	3.54028628635206E-07	508558.90625	3.84454979212023E-05
2	401	97.5546147536983	0.434417724609375	0.434478759765625	8.36791992187499E-07	3.63568346983811E-07	519219.5625	3.85296443710104E-05
2	402	97.655322753444	0.444488525390625	0.444427490234375	8.3831787109375E-07	3.7257152030179E-07	530142	3.86139945476316E-05
2	403	97.7560307531897	0.454559326171875	0.45458984375	8.4075927734375E-07	3.82200624926554E-07	540689.6875	3.86985411751084E-05
2	404	97.8567387529355	0.464630126953125	0.464599609375	8.428955078125E-07	3.91608921290754E-07	551194.8125	3.87833206332289E-05
2	405	97.9574467526812	0.474700927734375	0.474700927734375	8.4564208984375E-07	4.01427087126649E-07	561349.6875	3.88683438359294E-05
2	406	98.058154752427	0.484771728515625	0.484771728515625	8.4869384765625E-07	4.11422774959647E-07	571197.4375	3.89536617149133E-05
2	407	98.1588627521727	0.494842529296875	0.49481201171875	8.52050781249999E-07	4.21604937628217E-07	580730.6875	3.90392997360323E-05
2	408	98.2595707519184	0.504913330078125	0.504852294921875	8.563232421875E-07	4.32316738852023E-07	589558.125	3.91253233829048E-05
2	409	98.3602787516642	0.514984130859375	0.51495361328125	8.61511230468751E-07	4.43638299429949E-07	597732.9375	3.9211823605001E-05
2	410	98.4609867514099	0.525054931640625	0.524993896484375	8.6700439453125E-07	4.55171999647064E-07	605526.25	3.92988622479606E-05
2	411	98.5616947511556	0.535125732421875	0.53509521484375	8.7432861328125E-07	4.67849048391145E-07	612007	3.93865448131692E-05
2	412	98.6624027509014	0.545196533203125	0.545166015625	8.831787109375E-07	4.81478991787299E-07	617277.125	3.94750422856305E-05
2	413	98.7631107506471	0.555267333984375	0.555206298828125	8.9447021484375E-07	4.9661548473523E-07	620709.6875	3.9564554754179E-05
2	414	98.8638187503929	0.565338134765625	0.5653076171875	9.08813476562501E-07	5.13759175646555E-07	622028.25	3.96553550672252E-05
2	415	98.9645267501386	0.575408935546875	0.57537841796875	9.2742919921875E-07	5.33622767306952E-07	620401.4375	3.97478179365862E-05
2	416	99.0652347498843	0.585479736328125	0.585418701171875	9.527587890625E-07	5.57762803055084E-07	614445.875	3.9842492697062E-05
2	417	99.1659427496301	0.595550537109375	0.595489501953125	9.87548828125E-07	5.88074954066542E-07	602997.5625	3.9940197893884E-05
2	418	99.2666507493758	0.605621337890625	0.605621337890625	1.03607177734375E-06	6.27467215963406E-07	584536.0625	4.00420940422919E-05
2	419	99.3673587491215	0.615692138671875	0.615631103515625	1.10382080078125E-06	6.79546360515815E-07	557727.4375	4.01498473365791E-05
2	420	99.4680667488673	0.625762939453125	0.625732421875	1.1981201171875E-06	7.49702621760662E-07	522261.84375	4.02657569793519E-05
2	421	99.568774748613	0.635833740234375	0.635772705078125	1.32598876953125E-06	8.43027407881891E-07	479470.6875	4.03928570449352E-05
2	422	99.6694827483587	0.645904541015625	0.645843505859375	1.49200439453125E-06	9.63601337389264E-07	432869.71875	4.0534752770327E-05
2	423	99.7701907481045	0.655975341796875	0.655853271484375	1.70013427734375E-06	1.11503857169737E-06	385765.59375	4.06954895879608E-05
2	424	99.8708987478502	0.666046142578125	0.665924072265625	1.94580078125E-06	1.29575551000016E-06	342236.53125	4.08790765504818E-05
2	425	99.971606747596	0.676116943359375	0.676055908203125	2.21527099609375E-06	1.49764707657596E-06	305179.78125	4.10886059398763E-05
2	426	100.072314747342	0.686187744140625	0.6861572265625	2.4896240234375E-06	1.70827343026758E-06	275606.78125	4.13255147577729E-05
2	427	100.173022747087	0.696258544921875	0.6961669921875	2.74169921875E-06	1.90868036042957E-06	253918.09375	4.15889335272368E-05
2	428	100.273730746833	0.706329345703125	0.706268310546875	2.94830322265625E-06	2.08229312192998E-06	239550.78125	4.18754461861681E-05
2	429	100.374438746579	0.716400146484375	0.716339111328125	3.09051513671875E-06	2.21385676013597E-06	231786.3125	4.21795266447589E-05
2	430	100.475146746325	0.726470947265625	0.726409912109375	3.1634521484375E-06	2.29796296480345E-06	229625.703125	4.24944373662584E-05
2	431	100.57585474607	0.736541748046875	0.7364501953125	3.17474365234375E-06	2.3380405309581E-06	231971.546875	4.28135936090257E-05
2	432	100.676562745816	0.746612548828125	0.7464599609375	3.13934326171875E-06	2.34339404414641E-06	237775.84375	4.31315311288927E-05
2	433	100.777270745562	0.756683349609375	0.75714111328125	3.07342529296875E-06	2.32701654567791E-06	246350.921875	4.34443682024721E-05
2	434	100.877978745308	0.766754150390625	0.7666015625	2.99285888671875E-06	2.29433021559089E-06	256143.578125	4.37498310930096E-05
2	435	100.978686745053	0.776824951171875	0.77728271484375	2.90771484375E-06	2.26011638915224E-06	267317.375	4.40469484601635E-05
2	436	101.079394744799	0.786895751953125	0.7867431640625	2.823486328125E-06	2.22135849980987E-06	278642.46875	4.43355384049937E-05
2	437	101.180102744545	0.796966552734375	0.797119140625	2.745361328125E-06	2.1883799945499E-06	290351.25	4.46159501734655E-05
2	438	101.280810744291	0.807037353515625	0.806884765625	2.67486572265625E-06	2.15830846173048E-06	301654.3125	4.488888225751E-05
2	439	101.381518744036	0.817108154296875	0.81756591796875	2.61199951171875E-06	2.13548173633171E-06	313003.875	4.51550949946977E-05
2	440	101.482226743782	0.827178955078125	0.8270263671875	2.55706787109375E-06	2.11476253753062E-06	323427.625	4.54153778264299E-05
2	441	101.582934743528	0.837249755859375	0.83770751953125	2.51007080078125E-06	2.10270513889554E-06	333738.59375	4.56705311080441E-05
2	442	101.683642743273	0.847320556640625	0.84808349609375	2.4688720703125E-06	2.09380959859118E-06	343510.5	4.5921238779556E-05
2	443	101.784350743019	0.857391357421875	0.85784912109375	2.43377685546875E-06	2.08781330002239E-06	352476.46875	4.61681083834264E-05
2	444	101.885058742765	0.867462158203125	0.8673095703125	2.40478515625E-06	2.08569326787256E-06	360659.90625	4.64117474621162E-05
2	445	101.985766742511	0.877532958984375	0.87799072265625	2.3809814453125E-06	2.09047948374064E-06	368751.59375	4.66527308162767E-05
2	446	102.086474742256	0.887603759765625	0.887451171875	2.36328125E-06	2.09729682865145E-06	375516.53125	4.68916223326232E-05
2	447	102.187182742002	0.897674560546875	0.89752197265625	2.35107421875E-06	2.11014071282989E-06	381749.71875	4.71290113637224E-05
2	448	102.287890741748	0.907745361328125	0.90789794921875	2.3468017578125E-06	2.13065641219146E-06	386866.0625	4.73655672976747E-05
2	449	102.388598741494	0.917816162109375	0.91827392578125	2.3541259765625E-06	2.16173248190898E-06	390070.03125	4.76022760267369E-05
2	450	102.489306741239	0.927886962890625	0.927734375	2.37548828125E-06	2.20382207771763E-06	390544.71875	4.78404326713644E-05
2	451	102.590014740985	0.937957763671875	0.93780517578125	2.41546630859375E-06	2.26523684432323E-06	388250.15625	4.80816779599991E-05
2	452	102.690722740731	0.948028564453125	0.94818115234375	2.479248046875E-06	2.35077618526702E-06	382447.09375	4.83281437482219E-05
2	453	102.791430740477	0.958099365234375	0.958251953125	2.5738525390625E-06	2.46639910983504E-06	372302.59375	4.85825876239687E-05
2	454	102.892138740222	0.968170166015625	0.96771240234375	2.7056884765625E-06	2.61832815340313E-06	357658.5	4.88484329252969E-05
2	455	102.992846739968	0.978240966796875	0.9783935546875	2.87933349609375E-06	2.81712118521682E-06	339798.625	4.91296632390004E-05
2	456	103.093554739714	0.988311767578125	0.9881591796875	3.0938720703125E-06	3.05723801830027E-06	319392.40625	4.94304367748555E-05
2	457	103.19426273946	0.998382568359375	0.99822998046875	3.3428955078125E-06	3.33697857968218E-06	298612.375	4.97545552207157E-05
2	458	103.294970739205	1.00845336914063	1.00830078125	3.60992431640625E-06	3.63988942808646E-06	279313.5625	5.01046561112162E-05
2	459	103.395678738951	1.01852416992188	1.01837158203125	3.86993408203125E-06	3.94103108192212E-06	263149.59375	5.04812960571144E-05
2	460	103.496386738697	1.02859497070313	1.02813720703125	4.0997314453125E-06	4.21508639192325E-06	250781.59375	5.08826014993247E-05
2	461	103.597094738442	1.03866577148438	1.03912353515625	4.27642822265625E-06	4.44373699792777E-06	242988.65625	5.13043742103036E-05
2	462	103.697802738188	1.04873657226563	1.048583984375	4.38629150390625E-06	4.59939519714681E-06	239059.34375	5.17405787832104E-05
2	463	103.798510737934	1.05880737304688	1.058349609375	4.42901611328125E-06	4.6874474719516E-06	238958.1875	5.21844631293789E-05
2	464	103.89921873768	1.06887817382813	1.0687255859375	4.4140625E-06	4.71742168883793E-06	242118.359375	5.26297480973881E-05
2	465	103.999926737425	1.07894897460938	1.07879638671875	4.3572998046875E-06	4.70063878310611E-06	247583.703125	5.30714205524419E-05
2	466	104.100634737171	1.08901977539063	1.0888671875	4.27520751953125E-06	4.65513312519761E-06	254693.40625	5.35061008122284E-05
2	467	104.201342736917	1.09909057617188	1.0992431640625	4.1815185546875E-06	4.59650527773192E-06	262881.34375	5.39319335075561E-05
2	468	104.302050736663	1.10916137695313	1.1083984375	4.0850830078125E-06	4.52789936389308E-06	271328.28125	5.43481874046847E-05
2	469	104.402758736408	1.11923217773438	1.11907958984375	3.99139404296875E-06	4.46668764197966E-06	280373.125	5.47548734175507E-05
2	470	104.503466736154	1.12930297851563	1.129150390625	3.90472412109375E-06	4.4090206756664E-06	289175.46875	5.51524717593566E-05
2	471	104.6041747359	1.13937377929688	1.13922119140625	3.82537841796875E-06	4.3579520934145E-06	297806.15625	5.55417136638425E-05
2	472	104.704882735646	1.14944458007813	1.1492919921875	3.7530517578125E-06	4.31335229222896E-06	306228.65625	5.59233194508124E-05
2	473	104.805590735391	1.15951538085938	1.15875244140625	3.6883544921875E-06	4.27388977186638E-06	314165.15625	5.62980239919852E-05
2	474	104.906298735137	1.16958618164063	1.16943359375	3.63037109375E-06	4.24547806687769E-06	322125.09375	5.66665512451436E-05
2	475	105.007006734883	1.17965698242188	1.17919921875	3.577880859375E-06	4.2190340536763E-06	329580.34375	5.7029516028706E-05
2	476	105.107714734629	1.18972778320313	1.18927001953125	3.53240966796875E-06	4.20098876929842E-06	336673.875	5.73875477130059E-05
2	477	105.208422734374	1.19979858398438	1.199951171875	3.49090576171875E-06	4.18891659137444E-06	343736.34375	5.77411992708221E-05
2	478	105.30913073412	1.20986938476563	1.21002197265625	3.4539794921875E-06	4.17939099861542E-06	350326.9375	5.80908999836538E-05
2	479	105.409838733866	1.21994018554688	1.2200927734375	3.42132568359375E-06	4.17433466282091E-06	356614.0625	5.84371009608731E-05
2	480	105.510546733611	1.23001098632813	1.2298583984375	3.3917236328125E-06	4.17133969676797E-06	362605.71875	5.87801660003606E-05
2	481	105.611254733357	1.24008178710938	1.2408447265625	3.36578369140625E-06	4.17641467720387E-06	368664.4375	5.91204334341455E-05
2	482	105.711962733103	1.25015258789063	1.25	3.3416748046875E-06	4.17709361499874E-06	374063.9375	5.94581797486171E-05
2	483	105.812670732849	1.26022338867188	1.26007080078125	3.32122802734375E-06	4.18498257204192E-06	379399.0625	5.97936814301647E-05
2	484	105.913378732594	1.27029418945313	1.27105712890625	3.30291748046875E-06	4.19819662056398E-06	384828.625	6.01272367930505E-05
2	485	106.01408673234	1.28036499023438	1.28021240234375	3.28643798828125E-06	4.2073388613062E-06	389544.0625	6.04590350121725E-05
2	486	106.114794732086	1.29043579101563	1.29058837890625	3.2720947265625E-06	4.22292714574724E-06	394422.71875	6.07892834523227E-05
2	487	106.215502731832	1.30050659179688	1.30096435546875	3.26019287109375E-06	4.24139489041409E-06	399045.21875	6.11182113061659E-05
2	488	106.316210731577	1.31057739257813	1.3104248046875	3.25042724609375E-06	4.25944062953931E-06	403154.625	6.14460441283882E-05
2	489	106.416918731323	1.32064819335938	1.32049560546875	3.24188232421875E-06	4.28089106208063E-06	407323.75	6.1772960179951E-05
2	490	106.517626731069	1.33071899414063	1.33087158203125	3.23699951171875E-06	4.30803038398153E-06	411143.59375	6.20991995674558E-05
2	491	106.618334730815	1.34078979492188	1.3409423828125	3.233642578125E-06	4.3361283132981E-06	414684.8125	6.24250242253765E-05
2	492	106.71904273056	1.35086059570313	1.351318359375	3.23272705078125E-06	4.3684435695468E-06	418011.90625	6.27506306045689E-05
2	493	106.819750730306	1.36093139648438	1.361083984375	3.23455810546875E-06	4.4025050556229E-06	420794.40625	6.30762806395069E-05
2	494	106.920458730052	1.37100219726563	1.37115478515625	3.2391357421875E-06	4.44135639554588E-06	423308.84375	6.34022580925375E-05
2	495	107.021166729798	1.38107299804688	1.38092041015625	3.24676513671875E-06	4.48352420789888E-06	425321.9375	6.37288467260078E-05
2	496	107.121874729543	1.39114379882813	1.39129638671875	3.25775146484375E-06	4.53249776910525E-06	427072.625	6.40563812339678E-05
2	497	107.222582729289	1.40121459960938	1.40106201171875	3.272705078125E-06	4.58526255897596E-06	428105.1875	6.43852108623832E-05
2	498	107.323290729035	1.41128540039063	1.41143798828125	3.292236328125E-06	4.64678714706679E-06	428717.09375	6.47157867206261E-05
2	499	107.42399872878	1.42135620117188	1.42181396484375	3.3172607421875E-06	4.71652765554609E-06	428610.84375	6.50485962978564E-05
2	500	107.524706728526	1.43142700195313	1.43096923828125	3.3477783203125E-06	4.79056734548067E-06	427438.5	6.53842071187682E-05
2	501	107.625414728272	1.44149780273438	1.44195556640625	3.38714599609375E-06	4.88411387777887E-06	425714.03125	6.57233395031653E-05
2	502	107.726122728018	1.45156860351563	1.451416015625	3.43536376953125E-06	4.98614190291846E-06	422492.6875	6.60668811178766E-05
2	503	107.826830727763	1.46163940429688	1.46209716796875	3.49517822265625E-06	5.11029020344722E-06	418318.34375	6.64158578729257E-05
2	504	107.927538727509	1.47171020507813	1.4715576171875	3.56964111328125E-06	5.25293216924183E-06	412242.46875	6.6771601268556E-05
2	505	108.028246727255	1.48178100585938	1.48162841796875	3.65997314453125E-06	5.42272027814761E-06	404819.46875	6.7135646531824E-05
2	506	108.128954727001	1.49185180664063	1.49139404296875	3.7664794921875E-06	5.61730530534987E-06	395965	6.7509594373405E-05
2	507	108.229662726746	1.50192260742188	1.50238037109375	3.88946533203125E-06	5.84345661991392E-06	386269.125	6.78951037116349E-05
2	508	108.330370726492	1.49185180664063	1.49139404296875	3.5858154296875E-06	5.34786386197084E-06	415914.90625	6.82715108268894E-05
2	509	108.431078726238	1.48178100585938	1.4813232421875	3.36151123046875E-06	4.97948440170148E-06	440671.84375	6.86213388689794E-05
2	510	108.531786725984	1.47171020507813	1.47186279296875	3.18328857421875E-06	4.68536381958984E-06	462371.78125	6.89508960931562E-05
2	511	108.632494725729	1.46163940429688	1.4617919921875	3.0377197265625E-06	4.44051420345204E-06	481213.59375	6.92641478963196E-05
2	512	108.733202725475	1.45156860351563	1.451416015625	2.91717529296875E-06	4.23403480453999E-06	497541.59375	6.95639973855577E-05
2	513	108.833910725221	1.44149780273438	1.441650390625	2.81585693359375E-06	4.05948094339692E-06	511975.75	6.98526782798581E-05
2	514	108.934618724967	1.43142700195313	1.43157958984375	2.72918701171875E-06	3.90704826713772E-06	524544.375	7.01318931533024E-05
2	515	109.035326724712	1.42135620117188	1.42181396484375	2.6556396484375E-06	3.77582523469755E-06	535394.1875	7.04030462657101E-05
2	516	109.136034724458	1.41128540039063	1.41082763671875	2.591552734375E-06	3.6562341847457E-06	544394.75	7.0667258114554E-05
2	517	109.236742724204	1.40121459960938	1.4013671875	2.53662109375E-06	3.55473730451195E-06	552454.3125	7.09254818502814E-05
2	518	109.337450723949	1.39114379882813	1.3909912109375	2.4884033203125E-06	3.46134697792877E-06	558989.5	7.11785178282298E-05
2	519	109.438158723695	1.38107299804688	1.38092041015625	2.4468994140625E-06	3.37897313329449E-06	564355.25	7.14270281605422E-05
2	520	109.538866723441	1.37100219726563	1.370849609375	2.40936279296875E-06	3.30287389260775E-06	568967.75	7.16715585440397E-05
2	521	109.639574723187	1.36093139648438	1.3604736328125	2.37548828125E-06	3.23178915095923E-06	572713.25	7.19124946044758E-05
2	522	109.740282722932	1.35086059570313	1.3507080078125	2.3455810546875E-06	3.16819500767451E-06	575852.25	7.2150221967604E-05
2	523	109.840990722678	1.34078979492188	1.3409423828125	2.318115234375E-06	3.10845871354104E-06	578462.375	7.23850534996018E-05
2	524	109.941698722424	1.33071899414063	1.33056640625	2.29248046875E-06	3.05029720948369E-06	580404.75	7.26172147551551E-05
2	525	110.04240672217	1.32064819335938	1.32049560546875	2.269287109375E-06	2.99658358926536E-06	581898.875	7.28469240129925E-05
2	526	110.143114721915	1.31057739257813	1.3104248046875	2.24761962890625E-06	2.94533629130456E-06	583027.875	7.30743631720543E-05
2	527	110.243822721661	1.30050659179688	1.3006591796875	2.2265625E-06	2.89599893221748E-06	584155.75	7.32996559236199E-05
2	528	110.344530721407	1.29043579101563	1.290283203125	2.20733642578125E-06	2.84808902506484E-06	584543.0625	7.35229259589687E-05
2	529	110.445238721153	1.28036499023438	1.280517578125	2.18841552734375E-06	2.80230437965656E-06	585134.5625	7.37442678655498E-05
2	530	110.545946720898	1.27029418945313	1.2701416015625	2.17071533203125E-06	2.7571159080253E-06	585125.8125	7.39637689548545E-05
2	531	110.646654720644	1.26022338867188	1.2603759765625	2.15301513671875E-06	2.71360840997659E-06	585400.5	7.41814874345437E-05
2	532	110.74736272039	1.25015258789063	1.25	2.13623046875E-06	2.67028804046276E-06	585142.875	7.43974669603631E-05
2	533	110.848070720136	1.24008178710938	1.23992919921875	2.120361328125E-06	2.62909793491417E-06	584772.5625	7.46118021197617E-05
2	534	110.948778719881	1.23001098632813	1.2298583984375	2.10479736328125E-06	2.58860245594406E-06	584312.0625	7.48245511204004E-05
2	535	111.049486719627	1.21994018554688	1.21978759765625	2.08984375E-06	2.54916540143313E-06	583674.0625	7.50357721699402E-05
2	536	111.150194719373	1.20986938476563	1.209716796875	2.0751953125E-06	2.51039841714373E-06	582941.1875	7.52454943722114E-05
2	537	111.250902719118	1.19979858398438	1.19964599609375	2.06024169921875E-06	2.47156071964127E-06	582284.125	7.54537322791293E-05
2	538	111.351610718864	1.18972778320313	1.18896484375	2.0452880859375E-06	2.43177555603324E-06	581319	7.56604640628211E-05
2	539	111.45231871861	1.17965698242188	1.1798095703125	2.02972412109375E-06	2.39468795371067E-06	581266	7.58656533434987E-05
2	540	111.553026718356	1.16958618164063	1.16943359375	2.01324462890625E-06	2.35435572903953E-06	580870.125	7.60692346375436E-05
2	541	111.653734718101	1.15951538085938	1.15936279296875	1.99554443359375E-06	2.31355988944415E-06	580975.6875	7.62710915296338E-05
2	542	111.754442717847	1.14944458007813	1.14959716796875	1.9744873046875E-06	2.26986503548687E-06	582225.6875	7.64709984650835E-05
2	543	111.855150717593	1.13937377929688	1.13983154296875	1.95037841796875E-06	2.22310291064787E-06	584415.5625	7.66686353017576E-05
2	544	111.955858717339	1.12930297851563	1.12884521484375	1.9207763671875E-06	2.16825924326258E-06	587702.5625	7.68635654821992E-05
2	545	112.056566717084	1.11923217773438	1.11907958984375	1.88385009765625E-06	2.10817802326346E-06	594038.5625	7.70551414461806E-05
2	546	112.15727471683	1.10916137695313	1.1090087890625	1.83502197265625E-06	2.03505555873562E-06	604357.25	7.72424027672969E-05
2	547	112.257982716576	1.09909057617188	1.0992431640625	1.7706298828125E-06	1.94635276784538E-06	620820.4375	7.74239597376436E-05
2	548	112.358690716322	1.08901977539063	1.08978271484375	1.6845703125E-06	1.83581562396284E-06	646920.3125	7.7597942436114E-05
2	549	112.459398716067	1.07894897460938	1.07940673828125	1.57073974609375E-06	1.69546706274559E-06	687196.4375	7.77618624852039E-05
2	550	112.560106715813	1.06887817382813	1.06903076171875	1.4215087890625E-06	1.51963661210175E-06	752039.5625	7.79125330154784E-05
2	551	112.660814715559	1.05880737304688	1.05865478515625	1.2310791015625E-06	1.30328771774657E-06	859940.5	7.8046097769402E-05
2	552	112.761522715305	1.04873657226563	1.04888916015625	9.9853515625E-07	1.04735272543621E-06	1050427.875	7.81583730713464E-05
2	553	112.86223071505	1.03866577148438	1.038818359375	7.2906494140625E-07	7.573660241178E-07	1424864	7.82453644205816E-05
2	554	112.962938714796	1.02859497070313	1.0284423828125	4.37011718749999E-07	4.4944138721803E-07	2353352	7.83040813985281E-05
2	555	113.063646714542	1.01852416992188	1.0186767578125	1.4617919921875E-07	1.48909336417091E-07	6968685	7.83334471634589E-05
2	556	113.164354714287	1.00845336914063	1.00860595703125	-1.202392578125E-07	-1.21274027264917E-07	-8388325.5	7.83347495598719E-05
2	557	113.265062714033	0.998382568359375	0.99853515625	-3.3447265625E-07	-3.33982683287104E-07	-2985401.5	7.831185212126E-05
2	558	113.365770713779	0.988311767578125	0.98876953125	-4.83093261718751E-07	-4.77667867926357E-07	-2046746.875	7.8270684753079E-05
2	559	113.466478713525	0.978240966796875	0.9783935546875	-5.62438964843751E-07	-5.50286642919673E-07	-1739555	7.82180431997404E-05
2	560	113.56718671327	0.968170166015625	0.9686279296875	-5.816650390625E-07	-5.6341696108575E-07	-1665267.625	7.81604321673512E-05
2	561	113.667894713016	0.958099365234375	0.958251953125	-5.53283691406251E-07	-5.30185161551344E-07	-1731936.125	7.81032795202918E-05
2	562	113.768602712762	0.948028564453125	0.9478759765625	-4.9468994140625E-07	-4.68904687522809E-07	-1916101.25	7.80505142756738E-05
2	563	113.869310712508	0.937957763671875	0.93780517578125	-4.17175292968749E-07	-3.91229121987635E-07	-2247988.5	7.80045957071707E-05
2	564	113.970018712253	0.927886962890625	0.927734375	-3.3447265625E-07	-3.1030177183311E-07	-2773722.75	7.79667461756617E-05
2	565	114.070726711999	0.917816162109375	0.91796875	-2.4871826171875E-07	-2.28315599315465E-07	-3690797.5	7.79373804107308E-05
2	566	114.171434711745	0.907745361328125	0.908203125	-1.6448974609375E-07	-1.49390103842961E-07	-5521335.5	7.79165711719543E-05
2	567	114.272142711491	0.897674560546875	0.8978271484375	-8.11767578124997E-08	-7.28826989870868E-08	-11060150	7.79042020440102E-05
2	568	114.372850711236	0.887603759765625	0.8880615234375	-1.22070312500028E-09	-1.08405939780454E-09	-727500032	7.79000547481701E-05
2	569	114.473558710982	0.877532958984375	0.87738037109375	6.561279296875E-08	5.75673730907056E-08	13372094	7.7903299825266E-05
2	570	114.574266710728	0.867462158203125	0.86761474609375	1.190185546875E-07	1.03262252082459E-07	7289744	7.79125912231393E-05
2	571	114.674974710474	0.857391357421875	0.8575439453125	1.629638671875E-07	1.39748664196304E-07	5262172.5	7.79267938924022E-05
2	572	114.775682710219	0.847320556640625	0.8477783203125	1.99279785156251E-07	1.68945078371507E-07	4254211.5	7.7945034718141E-05
2	573	114.876390709965	0.837249755859375	0.83770751953125	2.301025390625E-07	1.92758619732558E-07	3640583.75	7.79666515882127E-05
2	574	114.977098709711	0.827178955078125	0.82763671875	2.5604248046875E-07	2.11910162306594E-07	3232419.5	7.79911351855844E-05
2	575	115.077806709456	0.817108154296875	0.8172607421875	2.7587890625E-07	2.25465001335579E-07	2962389.5	7.80179179855622E-05
2	576	115.178514709202	0.807037353515625	0.80718994140625	2.89306640625001E-07	2.33525398130041E-07	2790084.5	7.80463742557913E-05
2	577	115.279222708948	0.796966552734375	0.79681396484375	2.947998046875E-07	2.34900596751686E-07	2702898.5	7.80757909524255E-05
2	578	115.379930708694	0.786895751953125	0.7867431640625	2.90527343749999E-07	2.28570399940509E-07	2707983.25	7.81052658567205E-05
2	579	115.480638708439	0.776824951171875	0.7769775390625	2.7191162109375E-07	2.11269210126375E-07	2857463.75	7.81335838837549E-05
2	580	115.581346708185	0.766754150390625	0.7666015625	2.3529052734375E-07	1.80374087221935E-07	3258106.25	7.81591224949807E-05
2	581	115.682054707931	0.756683349609375	0.7568359375	1.751708984375E-07	1.32575635802823E-07	4320557.5	7.81797934905626E-05
2	582	115.782762707677	0.746612548828125	0.746490478515625	8.42285156249997E-08	6.28757774734368E-08	8862682	7.819285383448E-05
2	583	115.883470707422	0.736541748046875	0.736419677734375	-4.51660156250006E-08	-3.32611413966788E-08	-16304730	7.81948183430359E-05
2	584	115.984178707168	0.726470947265625	0.726409912109375	-2.1636962890625E-07	-1.57173047909964E-07	-3357263.75	7.81816488597542E-05
2	585	116.084886706914	0.716400146484375	0.716339111328125	-4.29687500000001E-07	-3.07801968801868E-07	-1667116.5	7.81491180532612E-05
2	586	116.18559470666	0.706329345703125	0.706298828125	-6.78100585937499E-07	-4.7894161525619E-07	-1041584.1875	7.80933405621909E-05
2	587	116.286302706405	0.696258544921875	0.696197509765625	-9.45434570312501E-07	-6.58209160064871E-07	-736378.375	7.80115879024379E-05
2	588	116.387010706151	0.686187744140625	0.68609619140625	-1.20635986328125E-06	-8.27678888981609E-07	-568732.625	7.79032343416475E-05
2	589	116.487718705897	0.676116943359375	0.676116943359375	-1.434326171875E-06	-9.69772145253955E-07	-471383	7.77702662162483E-05
2	590	116.588426705643	0.666046142578125	0.66595458984375	-1.60614013671875E-06	-1.06961635992775E-06	-414630.4375	7.76171655161306E-05
2	591	116.689134705388	0.655975341796875	0.655914306640625	-1.7108154296875E-06	-1.1221483191548E-06	-383392.8125	7.7450145909097E-05
2	592	116.789842705134	0.645904541015625	0.645843505859375	-1.7462158203125E-06	-1.1277820703981E-06	-369853.21875	7.72760686231777E-05
2	593	116.89055070488	0.635833740234375	0.635833740234375	-1.7254638671875E-06	-1.09710811102559E-06	-368500.1875	7.71012564655393E-05
2	594	116.991258704625	0.625762939453125	0.625732421875	-1.66473388671875E-06	-1.0416779332445E-06	-375875.34375	7.69305479479954E-05
2	595	117.091966704371	0.615692138671875	0.615692138671875	-1.57958984375E-06	-9.72540988186665E-07	-389779.75	7.67671808716841E-05
2	596	117.192674704117	0.605621337890625	0.605560302734375	-1.48406982421875E-06	-8.98693770068348E-07	-408040.3125	7.66129160183482E-05
2	597	117.293382703863	0.595550537109375	0.59552001953125	-1.38671875E-06	-8.25818744942808E-07	-429445.4375	7.64683572924696E-05
2	598	117.394090703608	0.585479736328125	0.585479736328125	-1.29241943359375E-06	-7.56685324176942E-07	-453010.65625	7.6333453762345E-05
2	599	117.494798703354	0.575408935546875	0.575408935546875	-1.204833984375E-06	-6.93272227181296E-07	-477583.5625	7.62077033868991E-05
2	600	117.5955067031	0.565338134765625	0.5653076171875	-1.124267578125E-06	-6.3555700080542E-07	-502823.03125	7.60904295020737E-05
2	601	117.696214702846	0.555267333984375	0.55523681640625	-1.0516357421875E-06	-5.83906910378573E-07	-527974.4375	7.59808608563617E-05
2	602	117.796922702591	0.545196533203125	0.54510498046875	-9.8602294921875E-07	-5.3748595973957E-07	-552832	7.58782553020865E-05
2	603	117.897630702337	0.535125732421875	0.53509521484375	-9.27124023437501E-07	-4.96099630709068E-07	-577156.0625	7.57819216232747E-05
2	604	117.998338702083	0.525054931640625	0.525054931640625	-8.73718261718751E-07	-4.58750065490676E-07	-600943.0625	7.56912413635291E-05
2	605	118.099046701829	0.514984130859375	0.51495361328125	-8.2550048828125E-07	-4.25094441425244E-07	-623807.75	7.56056833779439E-05
2	606	118.199754701574	0.504913330078125	0.504913330078125	-7.81860351562499E-07	-3.94771689116169E-07	-645784.5625	7.55247456254438E-05
2	607	118.30046270132	0.494842529296875	0.49481201171875	-7.421875E-07	-3.67243274013163E-07	-666694.125	7.54479988245293E-05
2	608	118.401170701066	0.484771728515625	0.4847412109375	-7.061767578125E-07	-3.42312972634318E-07	-686430.4375	7.53750719013624E-05
2	609	118.501878700812	0.474700927734375	0.474700927734375	-6.73828125000001E-07	-3.19866813924818E-07	-704483.75	7.53055792301893E-05
2	610	118.602586700557	0.464630126953125	0.464630126953125	-6.43310546875001E-07	-2.98901454698353E-07	-722248.5625	7.5239258876536E-05
2	611	118.703294700303	0.454559326171875	0.45458984375	-6.15234375E-07	-2.79679284176382E-07	-738888.9375	7.51758852857165E-05
2	612	118.804002700049	0.444488525390625	0.44451904296875	-5.89904785156251E-07	-2.62223892377733E-07	-753543.75	7.51152037992142E-05
2	613	118.904710699794	0.434417724609375	0.4344482421875	-5.66711425781249E-07	-2.4620678118481E-07	-766612.8125	7.50569597585127E-05
2	614	119.00541869954	0.424346923828125	0.424346923828125	-5.45654296875001E-07	-2.31546721352061E-07	-777684.5625	7.50009494367987E-05
2	615	119.106126699286	0.414276123046875	0.414306640625	-5.25817871093751E-07	-2.17849844830198E-07	-787928	7.49469982110895E-05
2	616	119.206834699032	0.404205322265625	0.40423583984375	-5.06591796875E-07	-2.04782551804783E-07	-797951.8125	7.48950114939362E-05
2	617	119.307542698777	0.394134521484375	0.394134521484375	-4.8858642578125E-07	-1.92568776924418E-07	-806683.375	7.48449019738473E-05
2	618	119.408250698523	0.384063720703125	0.38409423828125	-4.718017578125E-07	-1.81216336159196E-07	-814100.9375	7.47965386835858E-05
2	619	119.508958698269	0.373992919921875	0.373992919921875	-4.55322265624999E-07	-1.70287307810213E-07	-821380.6875	7.47498561395332E-05
2	620	119.609666698015	0.363922119140625	0.36395263671875	-4.39453125E-07	-1.59940114485835E-07	-828194.4375	7.47048034099862E-05
2	621	119.71037469776	0.353851318359375	0.353851318359375	-4.241943359375E-07	-1.5010172660368E-07	-834172.6875	7.46613150113262E-05
2	622	119.811082697506	0.343780517578125	0.34375	-4.09851074218751E-07	-1.40886299959675E-07	-838719.3125	7.46193181839772E-05
2	623	119.911790697252	0.333709716796875	0.333709716796875	-3.955078125E-07	-1.31984805307184E-07	-843750	7.45787619962357E-05
2	624	120.012498696998	0.323638916015625	0.32366943359375	-3.826904296875E-07	-1.23865191881123E-07	-845773.5625	7.45395736885257E-05
2	625	120.113206696743	0.313568115234375	0.313629150390625	-3.70178222656251E-07	-1.16098675562171E-07	-847238.25	7.45016659493558E-05
2	626	120.213914696489	0.303497314453125	0.303466796875	-3.59497070312501E-07	-1.09095417144545E-07	-844142.6875	7.44649223634042E-05
2	627	120.314622696235	0.293426513671875	0.293426513671875	-3.48510742187499E-07	-1.02262283974142E-07	-841944	7.44292774470523E-05
2	628	120.415330695981	0.283355712890625	0.2833251953125	-3.39660644531251E-07	-9.62344159916029E-08	-834142	7.43946220609359E-05
2	629	120.516038695726	0.273284912109375	0.273284912109375	-3.314208984375E-07	-9.05723283040061E-08	-824585.625	7.43608325137757E-05
2	630	120.616746695472	0.263214111328125	0.263214111328125	-3.2379150390625E-07	-8.52264889772414E-08	-812912.375	7.43278360459954E-05
2	631	120.717454695218	0.253143310546875	0.253082275390625	-3.1707763671875E-07	-8.02467283733677E-08	-798171.375	7.42955671739765E-05
2	632	120.818162694963	0.243072509765625	0.2430419921875	-3.09143066406251E-07	-7.51347428717963E-08	-786179.6875	7.42640331736766E-05
2	633	120.918870694709	0.233001708984375	0.23297119140625	-3.0242919921875E-07	-7.04572897802791E-08	-770333.0625	7.42332413210534E-05
2	634	121.019578694455	0.222930908203125	0.22296142578125	-2.95104980468749E-07	-6.57970247175399E-08	-755532.625	7.42031479603611E-05
2	635	121.120286694201	0.212860107421875	0.21282958984375	-2.8839111328125E-07	-6.13781594438478E-08	-737989.4375	7.4173767643515E-05
2	636	121.220994693946	0.202789306640625	0.202850341796875	-2.8106689453125E-07	-5.70145139988654E-08	-721715.5625	7.41450930945575E-05
2	637	121.321702693692	0.192718505859375	0.192779541015625	-2.7587890625E-07	-5.31838075801261E-08	-698783.1875	7.41170515539125E-05
2	638	121.422410693438	0.182647705078125	0.182647705078125	-2.72521972656251E-07	-4.97755117123688E-08	-670212.8125	7.40894392947666E-05
2	639	121.523118693184	0.172576904296875	0.172637939453125	-2.70996093750001E-07	-4.67842049545197E-08	-637049.5625	7.40620671422221E-05
2	640	121.623826692929	0.162506103515625	0.16253662109375	-2.728271484375E-07	-4.43444037045992E-08	-595749.4375	7.40346877137199E-05
2	641	121.724534692675	0.152435302734375	0.1524658203125	-2.78625488281251E-07	-4.24808632715212E-08	-547207	7.40069153835066E-05
2	642	121.825242692421	0.142364501953125	0.142425537109375	-2.899169921875E-07	-4.12915817094017E-08	-491263.1875	7.39782917662524E-05
2	643	121.925950692167	0.132293701171875	0.13232421875	-3.082275390625E-07	-4.07859666040622E-08	-429306.9375	7.39481693017296E-05
2	644	122.026658691912	0.122222900390625	0.122222900390625	-3.3538818359375E-07	-4.09921128152746E-08	-364422.21875	7.39157621865161E-05
2	645	122.127366691658	0.112152099609375	0.11224365234375	-3.753662109375E-07	-4.2132473510037E-08	-299024.40625	7.38799717510119E-05
2	646	122.228074691404	0.102081298828125	0.10211181640625	-4.3212890625E-07	-4.41254677241432E-08	-236299.4375	7.38393136998639E-05
2	647	122.32878269115	0.092010498046875	0.092041015625	-5.126953125E-07	-4.71889940456549E-08	-179523.8125	7.37917362130247E-05
2	648	122.429490690895	0.081939697265625	0.08197021484375	-6.21948242187501E-07	-5.09812316806801E-08	-131795.875	7.37345981178805E-05
2	649	122.530198690641	0.071868896484375	0.0718994140625	-7.6568603515625E-07	-5.50523751030596E-08	-93901.953125	7.36647270969115E-05
2	650	122.630906690387	0.061798095703125	0.061859130859375	-9.4512939453125E-07	-5.84648809365262E-08	-65450.4375	7.35785797587596E-05
2	651	122.731614690132	0.051727294921875	0.051727294921875	-1.15997314453125E-06	-6.00022715957493E-08	-44593.53125	7.34725836082362E-05
2	652	122.832322689878	0.041656494140625	0.0417724609375	-1.39801025390625E-06	-5.83983279511813E-08	-29879.94140625	7.33437773305923E-05
2	653	122.933030689624	0.031585693359375	0.0316497802734375	-1.641845703125E-06	-5.19640508400698E-08	-19276.951171875	7.31907057343051E-05
2	654	123.03373868937	0.021514892578125	0.021600341796875	-1.86614990234375E-06	-4.03094730927478E-08	-11574.81640625	7.30140673113056E-05
2	655	123.134446689115	0.011444091796875	0.0115570068359375	-2.049560546875E-06	-2.36867840897048E-08	-5638.7734375	7.28168961359188E-05
2	656	123.235154688861	0.001373291015625	0.00146484375	-2.17376708984375E-06	-3.18422932465978E-09	-673.873352050781	7.26042344467714E-05
2	657	123.335862688607	-0.008697509765625	-0.0086029052734375	-2.23602294921875E-06	1.92362925588441E-08	3847.41357421875	7.23821794963442E-05
2	658	123.436570688353	-0.018768310546875	-0.01864013671875	-2.2454833984375E-06	4.18561150183905E-08	8301.1689453125	7.21565229468979E-05
2	659	123.537278688098	-0.028839111328125	-0.0287139892578125	-2.21405029296875E-06	6.35742196664069E-08	12968.9873046875	7.19319650670514E-05
2	660	123.637986687844	-0.038909912109375	-0.0387847900390625	-2.15789794921875E-06	8.36936138171041E-08	17973.4140625	7.17118236934766E-05
2	661	123.73869468759	-0.048980712890625	-0.04884033203125	-2.0892333984375E-06	1.02038846705454E-07	23377.15625	7.14979614713229E-05
2	662	123.839402687336	-0.059051513671875	-0.05902099609375	-2.0172119140625E-06	1.19057858682936E-07	29258.69921875	7.12911860318854E-05
2	663	123.940110687081	-0.069122314453125	-0.06903076171875	-1.94732666015625E-06	1.34425434339391E-07	35448.98828125	7.10915555828251E-05
2	664	124.040818686827	-0.079193115234375	-0.079132080078125	-1.88323974609375E-06	1.4902467171396E-07	42019.12109375	7.08986699464731E-05
2	665	124.141526686573	-0.089263916015625	-0.0892333984375	-1.8255615234375E-06	1.62901059752585E-07	48879.97265625	7.07119179423898E-05
2	666	124.242234686319	-0.099334716796875	-0.09930419921875	-1.77520751953125E-06	1.76285553266098E-07	55939.48828125	7.05306010786444E-05
2	667	124.342942686064	-0.109405517578125	-0.109344482421875	-1.73187255859375E-06	1.8937070933589E-07	63136.5625	7.03540063113905E-05
2	668	124.44365068581	-0.119476318359375	-0.119384765625	-1.69464111328125E-06	2.02314325292718E-07	70448.4140625	7.01814715284854E-05
2	669	124.544358685556	-0.129547119140625	-0.12945556640625	-1.66412353515625E-06	2.15430048911003E-07	77792.046875	7.00123418937437E-05
2	670	124.645066685301	-0.139617919921875	-0.1395263671875	-1.63848876953125E-06	2.28612378805337E-07	85155.5234375	6.98460426065139E-05
2	671	124.745774685047	-0.149688720703125	-0.149566650390625	-1.61773681640625E-06	2.4195946934924E-07	92454.2578125	6.96820789016783E-05
2	672	124.846482684793	-0.159759521484375	-0.15966796875	-1.6015625E-06	2.55718219932533E-07	99695.125	6.95199705660343E-05
2	673	124.947190684539	-0.169830322265625	-0.169647216796875	-1.59027099609375E-06	2.69785033424341E-07	106678.1875	6.93592519382946E-05
2	674	125.047898684284	-0.179901123046875	-0.17974853515625	-1.583251953125E-06	2.84587201804243E-07	113531.2265625	6.91994500812143E-05
2	675	125.14860668403	-0.189971923828125	-0.1898193359375	-1.57989501953125E-06	2.99894622912689E-07	120146.8046875	6.90401793690398E-05
2	676	125.249314683776	-0.200042724609375	-0.19989013671875	-1.58050537109375E-06	3.15927422889217E-07	126472.296875	6.88810396241024E-05
2	677	125.350022683522	-0.189971923828125	-0.189849853515625	-1.40472412109375E-06	2.66686669192495E-07	135150.984375	6.87307183397934E-05
