Potential - OCP -0.0169905120251225 V
Time (s)	WE(1).Potential (V)
6.95031198245215	-0.0174285888671875
7.05031198219967	-0.017425537109375
7.1503119819472	-0.01741943359375
7.25031198169472	-0.0174163818359375
7.35031198144225	-0.017413330078125
7.45031198118977	-0.0174102783203125
7.55031198093729	-0.0174072265625
7.65031198068482	-0.017401123046875
7.75031198043234	-0.0173980712890625
7.85031198017987	-0.01739501953125
7.95031197992739	-0.0173919677734375
8.05031197967492	-0.0173858642578125
8.15031197942244	-0.0173828125
8.25031197916996	-0.017376708984375
8.35031197891749	-0.0173736572265625
8.45031197866501	-0.01737060546875
8.55031197841254	-0.017364501953125
8.65031197816006	-0.0173583984375
8.75031197790759	-0.0173553466796875
8.85031197765511	-0.017352294921875
8.95031197740263	-0.0173492431640625
9.05031197715016	-0.01734619140625
9.15031197689768	-0.0173431396484375
9.25031197664521	-0.017340087890625
9.35031197639273	-0.017333984375
9.45031197614026	-0.017327880859375
9.55031197588778	-0.017327880859375
9.6503119756353	-0.0173248291015625
9.75031197538283	-0.01732177734375
9.85031197513035	-0.0173187255859375
9.95031197487788	-0.0173126220703125
10.0503119746254	-0.0173095703125
10.1503119743729	-0.0173065185546875
10.2503119741205	-0.017303466796875
10.350311973868	-0.01729736328125
10.4503119736155	-0.01729736328125
10.550311973363	-0.017291259765625
10.6503119731105	-0.0172882080078125
10.7503119728581	-0.01728515625
10.8503119726056	-0.0172821044921875
10.9503119723531	-0.0172760009765625
11.0503119721006	-0.01727294921875
11.1503119718482	-0.0172698974609375
11.2503119715957	-0.0172637939453125
11.3503119713432	-0.0172607421875
11.4503119710907	-0.017254638671875
11.5503119708383	-0.0172515869140625
11.6503119705858	-0.01724853515625
11.7503119703333	-0.017242431640625
11.8503119700808	-0.0172393798828125
11.9503119698284	-0.017236328125
12.0503119695759	-0.0172332763671875
12.1503119693234	-0.017230224609375
12.2503119690709	-0.0172271728515625
12.3503119688185	-0.0172210693359375
12.450311968566	-0.0172210693359375
12.5503119683135	-0.0172149658203125
12.650311968061	-0.0172119140625
12.7503119678086	-0.0172088623046875
12.8503119675561	-0.017205810546875
12.9503119673036	-0.0172027587890625
13.0503119670511	-0.01719970703125
13.1503119667987	-0.01719970703125
13.2503119665462	-0.017193603515625
13.3503119662937	-0.0171905517578125
13.4503119660412	-0.0171905517578125
13.5503119657888	-0.0171875
13.6503119655363	-0.0171844482421875
13.7503119652838	-0.017181396484375
13.8503119650313	-0.0171783447265625
13.9503119647788	-0.01717529296875
14.0503119645264	-0.0171722412109375
14.1503119642739	-0.017169189453125
14.2503119640214	-0.0171661376953125
14.3503119637689	-0.0171630859375
14.4503119635165	-0.0171630859375
14.550311963264	-0.0171600341796875
14.6503119630115	-0.017156982421875
14.750311962759	-0.0171539306640625
14.8503119625066	-0.01715087890625
14.9503119622541	-0.0171478271484375
15.0503119620016	-0.017144775390625
15.1503119617491	-0.017144775390625
15.2503119614967	-0.0171417236328125
15.3503119612442	-0.017138671875
15.4503119609917	-0.0171356201171875
15.5503119607392	-0.017132568359375
15.6503119604868	-0.0171295166015625
15.7503119602343	-0.0171295166015625
15.8503119599818	-0.01712646484375
15.9503119597293	-0.0171234130859375
16.0503119594769	-0.017120361328125
16.1503119592244	-0.017120361328125
16.2503119589719	-0.0171173095703125
16.3503119587194	-0.0171142578125
16.450311958467	-0.0171112060546875
16.5503119582145	-0.017108154296875
16.650311957962	-0.017108154296875
16.7503119577095	-0.0171051025390625
16.8503119574571	-0.01710205078125
16.9503119572046	-0.0170989990234375
17.0503119569521	-0.017095947265625
17.1503119566996	-0.017095947265625
17.2503119564471	-0.0170928955078125
17.3503119561947	-0.01708984375
17.4503119559422	-0.0170867919921875
17.5503119556897	-0.0170867919921875
17.6503119554372	-0.017083740234375
17.7503119551848	-0.0170806884765625
17.8503119549323	-0.01707763671875
17.9503119546798	-0.0170745849609375
18.0503119544273	-0.0170745849609375
18.1503119541749	-0.017071533203125
18.2503119539224	-0.0170684814453125
18.3503119536699	-0.0170684814453125
18.4503119534174	-0.0170654296875
18.550311953165	-0.0170623779296875
18.6503119529125	-0.017059326171875
18.75031195266	-0.0170562744140625
18.8503119524075	-0.0170562744140625
18.9503119521551	-0.01705322265625
19.0503119519026	-0.0170501708984375
19.1503119516501	-0.017047119140625
19.2503119513976	-0.017047119140625
19.3503119511452	-0.0170440673828125
19.4503119508927	-0.017041015625
19.5503119506402	-0.017041015625
19.6503119503877	-0.0170379638671875
19.7503119501353	-0.017034912109375
19.8503119498828	-0.017034912109375
19.9503119496303	-0.0170318603515625
20.0503119493778	-0.01702880859375
20.1503119491254	-0.01702880859375
20.2503119488729	-0.0170257568359375
20.3503119486204	-0.017022705078125
20.4503119483679	-0.017022705078125
20.5503119481154	-0.0170196533203125
20.650311947863	-0.0170196533203125
20.7503119476105	-0.0170196533203125
20.850311947358	-0.0170196533203125
20.9503119471055	-0.0170196533203125
21.0503119468531	-0.0170196533203125
21.1503119466006	-0.0170196533203125
21.2503119463481	-0.0170196533203125
21.3503119460956	-0.017022705078125
21.4503119458432	-0.017022705078125
21.5503119455907	-0.0170196533203125
21.6503119453382	-0.0170196533203125
21.7503119450857	-0.0170196533203125
21.8503119448333	-0.0170196533203125
21.9503119445808	-0.0170196533203125
22.0503119443283	-0.0170196533203125
22.1503119440758	-0.0170196533203125
22.2503119438234	-0.0170196533203125
22.3503119435709	-0.0170196533203125
22.4503119433184	-0.0170166015625
22.5503119430659	-0.0170166015625
22.6503119428135	-0.0170166015625
22.750311942561	-0.0170166015625
22.8503119423085	-0.0170135498046875
22.950311942056	-0.0170135498046875
23.0503119418036	-0.0170135498046875
23.1503119415511	-0.0170135498046875
23.2503119412986	-0.017010498046875
23.3503119410461	-0.017010498046875
23.4503119407937	-0.017010498046875
23.5503119405412	-0.0170074462890625
23.6503119402887	-0.0170074462890625
23.7503119400362	-0.0170074462890625
23.8503119397838	-0.01700439453125
23.9503119395313	-0.01700439453125
24.0503119392788	-0.01700439453125
24.1503119390263	-0.0170013427734375
24.2503119387738	-0.0170013427734375
24.3503119385214	-0.0170013427734375
24.4503119382689	-0.016998291015625
24.5503119380164	-0.016998291015625
24.6503119377639	-0.0169952392578125
24.7503119375115	-0.0169952392578125
24.850311937259	-0.0169952392578125
24.9503119370065	-0.0169921875
25.050311936754	-0.0169921875
25.1503119365016	-0.0169921875
25.2503119362491	-0.0169921875
25.3503119359966	-0.0169891357421875
25.4503119357441	-0.0169891357421875
25.5503119354917	-0.0169891357421875
25.6503119352392	-0.016986083984375
25.7503119349867	-0.016986083984375
25.8503119347342	-0.016986083984375
25.9503119344818	-0.016986083984375
26.0503119342293	-0.016986083984375
26.1503119339768	-0.0169830322265625
26.2503119337243	-0.0169830322265625
26.3503119334719	-0.0169830322265625
26.4503119332194	-0.0169830322265625
26.5503119329669	-0.0169830322265625
26.6503119327144	-0.01697998046875
26.750311932462	-0.01697998046875
26.8503119322095	-0.01697998046875
26.950311931957	-0.01697998046875
27.0503119317045	-0.01697998046875
27.1503119314521	-0.01697998046875
27.2503119311996	-0.0169769287109375
27.3503119309471	-0.0169769287109375
27.4503119306946	-0.0169769287109375
27.5503119304421	-0.0169769287109375
27.6503119301897	-0.0169769287109375
27.7503119299372	-0.0169769287109375
27.8503119296847	-0.0169769287109375
27.9503119294322	-0.0169769287109375
28.0503119291798	-0.0169769287109375
28.1503119289273	-0.0169769287109375
