Potential - Start -0.2 V, Upper Vertex 1.5 V, Lower Vertex -0.2 V, Stop -0.19 V; Scan - # end cross 5, Rate 0.1 Vps, Step 0.01 V 
Scan	Index	Time (s)	Potential applied (V)	WE(1).Potential (V)	WE(1).Current (A)	WE(1).Power (W)	WE(1).Resistance (Ω)	WE(1).Charge (C)
1	1	66.8565908312033	-0.189971923828125	-0.1898193359375	-2.17285156249999E-07	4.1244923920658E-08	873595.5625	0
1	2	66.9572988309491	-0.179901123046875	-0.179718017578125	-1.8463134765625E-07	3.31815783738421E-08	973388.4375	-2.02381027492038E-08
1	3	67.0580068306948	-0.169830322265625	-0.169677734375	-1.58081054687501E-07	2.68228337318988E-08	1073359.125	-3.74950417381115E-08
1	4	67.1587148304405	-0.159759521484375	-0.15966796875	-1.35192871093751E-07	2.15859703445176E-08	1181038.5	-5.226255694879E-08
1	5	67.2594228301863	-0.149688720703125	-0.1495361328125	-1.13525390624999E-07	1.697614671059E-08	1317204.375	-6.47865192604513E-08
1	6	67.360130829932	-0.139617919921875	-0.1395263671875	-9.21630859374994E-08	1.28591803871814E-08	1513907.25	-7.51437525536858E-08
1	7	67.4608388296778	-0.129547119140625	-0.12945556640625	-6.98852539062503E-08	9.04703512105698E-09	1852401.75	-8.33035329605991E-08
1	8	67.5615468294235	-0.119476318359375	-0.119293212890625	-4.54711914062503E-08	5.42440448114689E-09	2623490	-8.91121914037285E-08
1	9	67.6622548291692	-0.109405517578125	-0.1092529296875	-1.983642578125E-08	2.16718754053602E-09	5507692.5	-9.2400696871664E-08
1	10	67.762962828915	-0.099334716796875	-0.09918212890625	9.46044921874972E-09	-9.38307542774908E-10	-10483871	-9.29231660506957E-08
1	11	67.8636708286607	-0.089263916015625	-0.089202880859375	4.54711914062503E-08	-4.05616118470675E-09	-1961745	-9.01571368672194E-08
1	12	67.9643788284064	-0.079193115234375	-0.07916259765625	9.09423828125006E-08	-7.19923498593289E-09	-870469.8125	-8.3288171026652E-08
1	13	68.0650868281522	-0.069122314453125	-0.069061279296875	1.5106201171875E-07	-1.04325357241919E-08	-457171.71875	-7.1102277843238E-08
1	14	68.1657948278979	-0.059051513671875	-0.058990478515625	2.29797363281251E-07	-1.35558559932747E-08	-256706.515625	-5.19244878205427E-08
1	15	68.2665028276436	-0.048980712890625	-0.0488311767578125	3.33251953124999E-07	-1.62730842134806E-08	-146529.3125	-2.35727046771217E-08
1	16	68.3672108273894	-0.038909912109375	-0.038726806640625	4.64477539062499E-07	-1.79877304162801E-08	-83377.140625	1.65961644427171E-08
1	17	68.4679188271351	-0.028839111328125	-0.0287384033203125	6.2530517578125E-07	-1.79702723812625E-08	-45959.00390625	7.14710850502343E-08
1	18	68.5686268268809	-0.018768310546875	-0.0186187744140625	8.148193359375E-07	-1.51709365070474E-08	-22850.1875	1.43987108458532E-07
1	19	68.6693348266266	-0.008697509765625	-0.008563232421875	1.0198974609375E-06	-8.7336191612053E-09	-8396.169921875	2.36372443396249E-07
1	20	68.7700428263723	0.001373291015625	0.001483154296875	1.22802734375E-06	1.8213538455214E-09	1207.75354003906	3.49564430734972E-07
1	21	68.8707508261181	0.011444091796875	0.0115692138671875	1.4202880859375E-06	1.64316169559697E-08	8145.68115234375	4.82917698718666E-07
1	22	68.9714588258638	0.021514892578125	0.0216064453125	1.5765380859375E-06	3.40633832252024E-08	13704.9951171875	6.33819865925034E-07
1	23	69.0721668256095	0.031585693359375	0.031683349609375	1.68365478515625E-06	5.33438218042193E-08	18818.197265625	7.97983659595047E-07
1	24	69.1728748253553	0.041656494140625	0.041778564453125	1.73919677734375E-06	7.26611446566494E-08	24021.759765625	9.70337850958458E-07
1	25	69.273582825101	0.051727294921875	0.0517578125	1.74774169921875E-06	9.04592809547466E-08	29614.109375	1.14591921374085E-06
1	26	69.3742908248468	0.061798095703125	0.06182861328125	1.72149658203125E-06	1.06437745728272E-07	35915.6171875	1.32060927171551E-06
1	27	69.4749988245925	0.071868896484375	0.0718994140625	1.673583984375E-06	1.20329701758237E-07	42961.34375	1.49156505813153E-06
1	28	69.5757068243382	0.081939697265625	0.08197021484375	1.61529541015625E-06	1.32406100306071E-07	50746.26953125	1.65717335676163E-06
1	29	69.676414824084	0.092010498046875	0.092041015625	1.5545654296875E-06	1.43083781267705E-07	59206.91015625	1.8167885400544E-06
1	30	69.7771228238297	0.102081298828125	0.10211181640625	1.49505615234375E-06	1.52662906316436E-07	68299.65625	1.97034910343064E-06
1	31	69.8778308235754	0.112152099609375	0.112152099609375	1.439208984375E-06	1.61410312671251E-07	77926.2109375	2.11810106520716E-06
1	32	69.9785388233212	0.122222900390625	0.12225341796875	1.387939453125E-06	1.69680333783617E-07	88082.6796875	2.26045926865481E-06
1	33	70.0792468230669	0.132293701171875	0.132354736328125	1.34185791015625E-06	1.7760125103905E-07	98635.4296875	2.39791552303359E-06
1	34	70.1799548228126	0.142364501953125	0.142364501953125	1.29974365234375E-06	1.85037350775019E-07	109532.7578125	2.53093071478361E-06
1	35	70.2806628225584	0.152435302734375	0.1524658203125	1.26312255859375E-06	1.92583001989988E-07	120705.4921875	2.6599814191286E-06
1	36	70.3813708223041	0.162506103515625	0.162567138671875	1.2310791015625E-06	2.00133001726499E-07	132052.5625	2.78557445199112E-06
1	37	70.4820788220499	0.172576904296875	0.17266845703125	1.20208740234375E-06	2.07562564469299E-07	143640.53125	2.90809407488268E-06
1	38	70.5827868217956	0.182647705078125	0.182708740234375	1.1761474609375E-06	2.14892409644563E-07	155345.109375	3.02784769701248E-06
1	39	70.6834948215413	0.192718505859375	0.1927490234375	1.15264892578125E-06	2.22171948394134E-07	167222.671875	3.14511180476984E-06
1	40	70.7842028212871	0.202789306640625	0.202789306640625	1.13128662109375E-06	2.29412819408026E-07	179255.46875	3.26011718243535E-06
1	41	70.8849108210328	0.212860107421875	0.212890625	1.11175537109375E-06	2.36682282661604E-07	191490.546875	3.37306323672237E-06
1	42	70.9856188207785	0.222930908203125	0.222869873046875	1.09405517578125E-06	2.43831948409934E-07	203709.90625	3.48413459505537E-06
1	43	71.0863268205243	0.233001708984375	0.2330322265625	1.0784912109375E-06	2.51323200473053E-07	216072.4375	3.59353111889504E-06
1	44	71.18703482027	0.243072509765625	0.2430419921875	1.064453125E-06	2.58706791100849E-07	228325.703125	3.70143698091852E-06
1	45	71.2877428200158	0.253143310546875	0.25311279296875	1.05224609375E-06	2.66336940057954E-07	240545.25	3.80802111976664E-06
1	46	71.3884508197615	0.263214111328125	0.263275146484375	1.041259765625E-06	2.74137818223608E-07	252842.90625	3.91343746741768E-06
1	47	71.4891588195072	0.273284912109375	0.273223876953125	1.0308837890625E-06	2.81662039469666E-07	265038.5	4.01777833758388E-06
1	48	71.589866819253	0.283355712890625	0.283294677734375	1.02142333984375E-06	2.89363782712826E-07	277352.875	4.12112012782018E-06
1	49	71.6905748189987	0.293426513671875	0.29339599609375	1.01287841796875E-06	2.97174466368233E-07	289665.5625	4.22355515183881E-06
1	50	71.7912828187444	0.303497314453125	0.30340576171875	1.005859375E-06	3.05183505133755E-07	301638.375	4.32520664617186E-06
1	51	71.8919908184902	0.313568115234375	0.31365966796875	9.99755859375E-07	3.1358305818685E-07	313736.28125	4.42619739260408E-06
1	52	71.9926988182359	0.323638916015625	0.3236083984375	9.9517822265625E-07	3.22048009593345E-07	325176.34375	4.52665062766755E-06
1	53	72.0934068179816	0.333709716796875	0.333709716796875	9.91210937500001E-07	3.30776686041645E-07	336668.75	4.62667321698973E-06
1	54	72.1941148177274	0.343780517578125	0.34381103515625	9.87854003906249E-07	3.39635079171785E-07	348038.34375	4.72632700621034E-06
1	55	72.2948228174731	0.353851318359375	0.353851318359375	9.85107421875001E-07	3.4858155117945E-07	359200.75	4.82567338622175E-06
1	56	72.3955308172189	0.363922119140625	0.363922119140625	9.82666015625E-07	3.57613856749595E-07	370341.65625	4.92475874125375E-06
1	57	72.4962388169646	0.373992919921875	0.373992919921875	9.808349609375E-07	3.66825304354279E-07	381300.59375	5.02362900078879E-06
1	58	72.5969468167103	0.384063720703125	0.384002685546875	9.796142578125E-07	3.76174511984573E-07	391993.78125	5.12234510097187E-06
1	59	72.6976548164561	0.394134521484375	0.3941650390625	9.7930908203125E-07	3.86009418207323E-07	402492.96875	5.2209848036E-06
1	60	72.7983628162018	0.404205322265625	0.40423583984375	9.7930908203125E-07	3.95871836644801E-07	412776.5625	5.31960904481821E-06
1	61	72.8990708159475	0.414276123046875	0.414276123046875	9.7930908203125E-07	4.05704383865668E-07	423028.96875	5.41823328603641E-06
1	62	72.9997788156933	0.424346923828125	0.42431640625	9.7930908203125E-07	4.15536931086535E-07	433281.375	5.51685752725461E-06
1	63	73.100486815439	0.434417724609375	0.434356689453125	9.7991943359375E-07	4.2563453916955E-07	443257.5625	5.61551269129268E-06
1	64	73.2011948151847	0.444488525390625	0.4444580078125	9.808349609375E-07	4.35939938370211E-07	453142.53125	5.71424470763304E-06
1	65	73.3019028149305	0.454559326171875	0.454559326171875	9.81750488281249E-07	4.46263811682002E-07	463009.0625	5.81306858293829E-06
1	66	73.4026108146762	0.464630126953125	0.46466064453125	9.8419189453125E-07	4.57315223911792E-07	472124.0625	5.91206162425806E-06
1	67	73.503318814422	0.474700927734375	0.47467041015625	9.87548828125E-07	4.68760191552064E-07	480655.15625	6.0113466133771E-06
1	68	73.6040268141677	0.484771728515625	0.484771728515625	9.918212890625E-07	4.80806875202688E-07	488769.25	6.11101586400764E-06
1	69	73.7047348139134	0.494842529296875	0.49481201171875	9.9761962890625E-07	4.93634161102818E-07	495992.65625	6.21119215793442E-06
1	70	73.8054428136592	0.504913330078125	0.504852294921875	1.004638671875E-06	5.07194101828645E-07	502521.28125	6.31201373835211E-06
1	71	73.9061508134049	0.514984130859375	0.514984130859375	1.0125732421875E-06	5.21459128322022E-07	508589.53125	6.41358838038286E-06
1	72	74.0068588131506	0.525054931640625	0.524993896484375	1.0235595703125E-06	5.37362495833804E-07	512909.96875	6.51611617286108E-06
1	73	74.1075668128964	0.535125732421875	0.53515625	1.03729248046875E-06	5.55113558675657E-07	515916.46875	6.61988815409131E-06
1	74	74.2082748126421	0.545196533203125	0.545196533203125	1.05560302734375E-06	5.75511080569413E-07	516478.78125	6.7252735789225E-06
1	75	74.3089828123879	0.555267333984375	0.555267333984375	1.08123779296875E-06	6.00376040438277E-07	513547.84375	6.83287225911045E-06
1	76	74.4096908121336	0.565338134765625	0.565399169921875	1.11572265625E-06	6.3082865153774E-07	506756.03125	6.94349819241324E-06
1	77	74.5103988118793	0.575408935546875	0.575347900390625	1.1627197265625E-06	6.68968368700007E-07	494829.375	7.05822685631574E-06
1	78	74.6111068116251	0.585479736328125	0.58544921875	1.2286376953125E-06	7.19304921403818E-07	476502.75	7.17864122634637E-06
1	79	74.7118148113708	0.595550537109375	0.59552001953125	1.31988525390625E-06	7.86018063081428E-07	451190.78125	7.30696956452448E-06
1	80	74.8125228111165	0.605621337890625	0.60552978515625	1.44256591796875E-06	8.735166261431E-07	419758.84375	7.44606995795039E-06
1	81	74.9132308108623	0.615692138671875	0.61566162109375	1.60369873046875E-06	9.87335738500406E-07	383901.0625	7.5994616963726E-06
1	82	75.013938810608	0.625762939453125	0.625732421875	1.80694580078125E-06	1.13066460016853E-06	346292.875	7.77120112616103E-06
1	83	75.1146468103537	0.635833740234375	0.635772705078125	2.05047607421875E-06	1.30363673633838E-06	310061.03125	7.96543736214517E-06
1	84	75.2153548100995	0.645904541015625	0.645904541015625	2.32574462890625E-06	1.50220898831321E-06	277719.46875	8.18579792394303E-06
1	85	75.3160628098452	0.655975341796875	0.6558837890625	2.6165771484375E-06	1.71617057276308E-06	250664.796875	8.43466386868386E-06
1	86	75.416770809591	0.666046142578125	0.665924072265625	2.9010009765625E-06	1.9318463273521E-06	229549.765625	8.71249540068675E-06
1	87	75.5174788093367	0.676116943359375	0.67608642578125	3.15338134765625E-06	2.13195812648337E-06	214400.484375	9.01735802472103E-06
1	88	75.6181868090824	0.686187744140625	0.686126708984375	3.3538818359375E-06	2.30118780564226E-06	204576.890625	9.34502440941287E-06
1	89	75.7188948088282	0.696258544921875	0.696197509765625	3.48907470703125E-06	2.42908504333172E-06	199536.4375	9.68959466263186E-06
1	90	75.8196028085739	0.706329345703125	0.706298828125	3.55865478515625E-06	2.5134736461041E-06	198473.546875	1.00444767667796E-05
1	91	75.9203108083196	0.716400146484375	0.71636962890625	3.57269287109375E-06	2.55936856774497E-06	200512.515625	1.0403568012407E-05
1	92	76.0210188080654	0.726470947265625	0.72637939453125	3.551025390625E-06	2.57939154835185E-06	204554.84375	1.07622763607651E-05
1	93	76.1217268078111	0.736541748046875	0.736480712890625	3.51226806640625E-06	2.58671752817463E-06	209688.078125	1.11179406303563E-05
1	94	76.2224348075569	0.746612548828125	0.746490478515625	3.47686767578125E-06	2.59544844993798E-06	214702.015625	1.14698723336915E-05
1	95	76.3231428073026	0.756683349609375	0.7568359375	3.4600830078125E-06	2.61871514339873E-06	218733.46875	1.18191746878438E-05
1	96	76.4238508070483	0.766754150390625	0.76690673828125	3.47564697265625E-06	2.6654970497475E-06	220651.5	1.21684170153458E-05
1	97	76.5245588067941	0.776824951171875	0.7769775390625	3.53546142578125E-06	2.74697390523215E-06	219766.953125	1.25214537547436E-05
1	98	76.6252668065398	0.786895751953125	0.787353515625	3.64776611328125E-06	2.87208149529761E-06	215845.390625	1.28831579786493E-05
1	99	76.7259748062855	0.796966552734375	0.79742431640625	3.8153076171875E-06	3.04241893900326E-06	209006.5625	1.32589539134642E-05
1	100	76.8266828060313	0.807037353515625	0.80718994140625	4.03411865234375E-06	3.25630003317201E-06	200090.765625	1.36542039399501E-05
1	101	76.927390805777	0.817108154296875	0.81756591796875	4.2913818359375E-06	3.50848745256371E-06	190513.453125	1.40734264277853E-05
1	102	77.0280988055227	0.827178955078125	0.82672119140625	4.569091796875E-06	3.77736500922765E-06	180937.75	1.45195863296976E-05
1	103	77.1288068052685	0.837249755859375	0.83770751953125	4.83978271484375E-06	4.05432228944846E-06	173087.84375	1.49933612192399E-05
1	104	77.2295148050142	0.847320556640625	0.84686279296875	5.0811767578125E-06	4.30305954068899E-06	166666.671875	1.54929202835774E-05
1	105	77.33022280476	0.857391357421875	0.85723876953125	5.267333984375E-06	4.51536288892385E-06	162746.234375	1.601400981599E-05
1	106	77.4309308045057	0.867462158203125	0.8673095703125	5.38330078125E-06	4.66898791273707E-06	161111.125	1.65503115567844E-05
1	107	77.5316388042514	0.877532958984375	0.877685546875	5.4351806640625E-06	4.77037929158541E-06	161482.328125	1.70950661413372E-05
1	108	77.6323468039972	0.887603759765625	0.88775634765625	5.43212890625E-06	4.82240648125298E-06	163426.984375	1.76422781805741E-05
1	109	77.7330548037429	0.897674560546875	0.89752197265625	5.401611328125E-06	4.84806469103205E-06	166158.1875	1.81878003786551E-05
1	110	77.8337628034886	0.907745361328125	0.90850830078125	5.364990234375E-06	4.87413808514248E-06	169340.15625	1.87299410754349E-05
1	111	77.9344708032344	0.917816162109375	0.91766357421875	5.3497314453125E-06	4.90925367557793E-06	171534.515625	1.92694715224206E-05
1	112	78.0351788029801	0.927886962890625	0.927734375	5.377197265625E-06	4.98861072628642E-06	172531.21875	1.98096149688354E-05
1	113	78.1358868027258	0.937957763671875	0.93780517578125	5.46875E-06	5.12862197865616E-06	171484.375	2.03557519853348E-05
1	114	78.2365948024716	0.948028564453125	0.94757080078125	5.633544921875E-06	5.33818274561781E-06	168201.515625	2.09147965506418E-05
1	115	78.3373028022173	0.958099365234375	0.958251953125	5.8837890625E-06	5.63815228815656E-06	162863.0625	2.14947394852061E-05
1	116	78.4380108019631	0.968170166015625	0.968017578125	6.21337890625E-06	6.01465990257566E-06	155795.6875	2.21038808376761E-05
1	117	78.5387188017088	0.978240966796875	0.97808837890625	6.6162109375E-06	6.47123852104414E-06	147832.109375	2.2749902200303E-05
1	118	78.6394268014545	0.988311767578125	0.98846435546875	7.061767578125E-06	6.98030544299399E-06	139974.078125	2.34386425290722E-05
1	119	78.7401348012003	0.998382568359375	0.99884033203125	7.5225830078125E-06	7.51385914554703E-06	132778.90625	2.41730231209658E-05
1	120	78.840842800946	1.00845336914063	1.00799560546875	7.9681396484375E-06	8.03184957476333E-06	126503.2578125	2.49530439759837E-05
1	121	78.9415508006917	1.01852416992188	1.01837158203125	8.3587646484375E-06	8.51232834975235E-06	121832.78125	2.57751689787256E-05
1	122	79.0422588004375	1.02859497070313	1.0284423828125	8.6578369140625E-06	8.90408591658343E-06	118787.453125	2.66320221271599E-05
1	123	79.1429668001832	1.03866577148438	1.03912353515625	8.8409423828125E-06	9.18683144846E-06	117535.3828125	2.75131551461527E-05
1	124	79.243674799929	1.04873657226563	1.048583984375	8.892822265625E-06	9.32487091631629E-06	117913.5234375	2.8406122510205E-05
1	125	79.3443827996747	1.05880737304688	1.058349609375	8.831787109375E-06	9.34711806621635E-06	119834.1484375	2.92986260319594E-05
1	126	79.4450907994204	1.06887817382813	1.06903076171875	8.67919921875E-06	9.27833025343716E-06	123171.59375	3.01803738693707E-05
1	127	79.5457987991662	1.07894897460938	1.0791015625	8.477783203125E-06	9.14838892640546E-06	127285.8203125	3.1044299248606E-05
1	128	79.6465067989119	1.08901977539063	1.08917236328125	8.251953125E-06	8.98779853741871E-06	131989.65625	3.18867059831973E-05
1	129	79.7472147986576	1.09909057617188	1.0992431640625	8.0291748046875E-06	8.82601580087794E-06	136906.125	3.27065281453542E-05
1	130	79.8479227984034	1.10916137695313	1.109619140625	7.818603515625E-06	8.67567177920137E-06	141920.375	3.35045260726474E-05
1	131	79.9486307981491	1.11923217773438	1.11968994140625	7.6263427734375E-06	8.53913934406592E-06	146818.734375	3.42822386301123E-05
1	132	80.0493387978948	1.12930297851563	1.12945556640625	7.452392578125E-06	8.41714609123301E-06	151556.109375	3.50415139109828E-05
1	133	80.1500467976406	1.13937377929688	1.138916015625	7.2967529296875E-06	8.3103886936442E-06	156085.328125	3.57841927325353E-05
1	134	80.2507547973863	1.14944458007813	1.14990234375	7.159423828125E-06	8.23263781057904E-06	160613.8125	3.65121195500251E-05
1	135	80.3514627971321	1.15951538085938	1.15936279296875	7.037353515625E-06	8.15884595795069E-06	164744.140625	3.72269823856186E-05
1	136	80.4521707968778	1.16958618164063	1.16943359375	6.927490234375E-06	8.10123947303509E-06	168810.578125	3.79301709472202E-05
1	137	80.5528787966235	1.17965698242188	1.1798095703125	6.829833984375E-06	8.05790295999032E-06	172743.53125	3.8622907595709E-05
1	138	80.6535867963693	1.18972778320313	1.1895751953125	6.7413330078125E-06	8.01932219474111E-06	176459.9375	3.93062691728119E-05
1	139	80.754294796115	1.19979858398438	1.19964599609375	6.6650390625E-06	7.99568715592613E-06	179990.84375	3.99813325202558E-05
1	140	80.8550027958607	1.20986938476563	1.209716796875	6.5948486328125E-06	7.97789925854886E-06	183433.609375	4.06490216846578E-05
1	141	80.9557107956065	1.21994018554688	1.21978759765625	6.53076171875E-06	7.96614222053904E-06	186775.703125	4.13099478464574E-05
1	142	81.0564187953522	1.23001098632813	1.2298583984375	6.475830078125E-06	7.96435415395536E-06	189915.171875	4.19648822571617E-05
1	143	81.157126795098	1.24008178710938	1.23992919921875	6.427001953125E-06	7.96902713773306E-06	192924.984375	4.2614592530299E-05
1	144	81.2578347948437	1.25015258789063	1.25030517578125	6.38427734375E-06	7.98229484644253E-06	195841.3125	4.32596898463089E-05
1	145	81.3585427945894	1.26022338867188	1.2603759765625	6.3446044921875E-06	7.99658664618619E-06	198653.203125	4.39006398664787E-05
1	146	81.4592507943352	1.27029418945313	1.27044677734375	6.31103515625E-06	8.01783426140901E-06	201305.609375	4.4537904614117E-05
1	147	81.5599587940809	1.28036499023438	1.280517578125	6.2774658203125E-06	8.03840521257371E-06	203986.390625	4.51717860414647E-05
1	148	81.6606667938266	1.29043579101563	1.29058837890625	6.2469482421875E-06	8.06223852123367E-06	206595.03125	4.58024369436316E-05
1	149	81.7613747935724	1.30050659179688	1.3006591796875	6.2164306640625E-06	8.08545701147523E-06	209229.265625	4.64300210296642E-05
1	150	81.8620827933181	1.31057739257813	1.3104248046875	6.1920166015625E-06	8.1141715781996E-06	211631.359375	4.70548329758458E-05
1	151	81.9627907930638	1.32064819335938	1.32110595703125	6.1676025390625E-06	8.14805662230356E-06	214200.890625	4.76771892863326E-05
1	152	82.0634987928096	1.33071899414063	1.3311767578125	6.146240234375E-06	8.1817315731314E-06	216583.921875	4.82972427562345E-05
1	153	82.1642067925553	1.34078979492188	1.3409423828125	6.1248779296875E-06	8.21310823084787E-06	218933.734375	4.89151425426826E-05
1	154	82.2649147923011	1.35086059570313	1.3507080078125	6.103515625E-06	8.24406652100151E-06	221300.015625	4.95308886456769E-05
1	155	82.3656227920468	1.36093139648438	1.3604736328125	6.085205078125E-06	8.27876101539005E-06	223570.71875	5.01446411362849E-05
1	156	82.4663307917925	1.37100219726563	1.37115478515625	6.06689453125E-06	8.31865145300981E-06	226006.03125	5.07565491716377E-05
1	157	82.5670387915383	1.38107299804688	1.380615234375	6.048583984375E-06	8.35076752991881E-06	228254.28125	5.13666091137566E-05
1	158	82.667746791284	1.39114379882813	1.39068603515625	6.0333251953125E-06	8.39046060718829E-06	230500.765625	5.19749846716877E-05
1	159	82.7684547910297	1.40121459960938	1.40106201171875	6.01806640625E-06	8.43168436404085E-06	232809.328125	5.25818177266046E-05
1	160	82.8691627907755	1.41128540039063	1.41143798828125	6.005859375E-06	8.47689807415009E-06	235010.171875	5.31872719875537E-05
1	161	82.9698707905212	1.42135620117188	1.4215087890625	5.99365234375E-06	8.52002995088696E-06	237169.046875	5.37914966116659E-05
1	162	83.0705787902669	1.43142700195313	1.4312744140625	5.9814453125E-06	8.5610890891985E-06	239285.71875	5.43944879609626E-05
1	163	83.1712867900127	1.44149780273438	1.44134521484375	5.96923828125E-06	8.60373256728053E-06	241462.1875	5.49962533114012E-05
1	164	83.2719947897584	1.45156860351563	1.4520263671875	5.9600830078125E-06	8.65419769979781E-06	243625.1875	5.5596941820113E-05
1	165	83.3727027895042	1.46163940429688	1.46148681640625	5.9539794921875E-06	8.70166240929393E-06	245463.875	5.61968627152964E-05
1	166	83.4734107892499	1.47171020507813	1.4715576171875	5.950927734375E-06	8.75713249115506E-06	247282.0625	5.67963215871714E-05
1	167	83.5741187889956	1.48178100585938	1.48193359375	5.950927734375E-06	8.81887899595313E-06	249025.65625	5.73956276639365E-05
1	168	83.6748267887414	1.49185180664063	1.4923095703125	5.9539794921875E-06	8.88518025021767E-06	250640.703125	5.79950901737902E-05
1	169	83.7755347884871	1.50192260742188	1.5020751953125	5.963134765625E-06	8.95707671588752E-06	251893.546875	5.85951638640836E-05
1	170	83.8762427882328	1.49185180664063	1.49200439453125	5.792236328125E-06	8.64204139361391E-06	257586.9375	5.91870921198279E-05
1	171	83.9769507879786	1.48178100585938	1.48162841796875	5.670166015625E-06	8.40107895783149E-06	261302.46875	5.97642720094882E-05
1	172	84.0776587877243	1.47171020507813	1.4715576171875	5.5694580078125E-06	8.19577780930558E-06	264219.1875	6.03302323725075E-05
1	173	84.1783667874701	1.46163940429688	1.4617919921875	5.4840087890625E-06	8.01648002379807E-06	266555.375	6.08868176641408E-05
1	174	84.2790747872158	1.45156860351563	1.45172119140625	5.4107666015625E-06	7.85492375143804E-06	268302.3125	6.14354139543138E-05
1	175	84.3797827869615	1.44149780273438	1.44134521484375	5.3436279296875E-06	7.70201222621836E-06	269731.59375	6.19769416516647E-05
1	176	84.4804907867073	1.43142700195313	1.4312744140625	5.2825927734375E-06	7.56083954911446E-06	270941.65625	6.25120155746117E-05
1	177	84.581198786453	1.42135620117188	1.42120361328125	5.2276611328125E-06	7.42957081456552E-06	271862.25	6.30412469035946E-05
1	178	84.6819067861987	1.41128540039063	1.41143798828125	5.17578125E-06	7.30529427528381E-06	272700.46875	6.35651012999006E-05
1	179	84.7826147859445	1.40121459960938	1.4013671875	5.126953125E-06	7.18474393579527E-06	273333.34375	6.40838843537495E-05
1	180	84.8833227856902	1.39114379882813	1.3909912109375	5.0811767578125E-06	7.06787250237539E-06	273753.75	6.45979016553611E-05
1	181	84.9840307854359	1.38107299804688	1.38092041015625	5.0384521484375E-06	6.95770131642348E-06	274076.34375	6.51074660709128E-05
1	182	85.0847387851817	1.37100219726563	1.370849609375	4.998779296875E-06	6.85257464283495E-06	274236.875	6.56128831906244E-05
1	183	85.1854467849274	1.36093139648438	1.36077880859375	4.9591064453125E-06	6.74824650559458E-06	274400	6.61143058096059E-05
1	184	85.2861547846732	1.35086059570313	1.3507080078125	4.92401123046875E-06	6.65090146867442E-06	274310.5	6.66119594825432E-05
1	185	85.3868627844189	1.34078979492188	1.34063720703125	4.89013671875E-06	6.55589883535868E-06	274151.28125	6.71061352477409E-05
1	186	85.4875707841646	1.33071899414063	1.33087158203125	4.85687255859375E-06	6.46387343294919E-06	274018.25	6.75969422445633E-05
1	187	85.5882787839104	1.32064819335938	1.32049560546875	4.82635498046875E-06	6.37318044027779E-06	273601	6.80845259921625E-05
1	188	85.6889867836561	1.31057739257813	1.3104248046875	4.79736328125E-06	6.28658381174318E-06	273155.21875	6.85691193211824E-05
1	189	85.7896947834018	1.30050659179688	1.30096435546875	4.7698974609375E-06	6.20546643403941E-06	272744.71875	6.90508677507751E-05
1	190	85.8904027831476	1.29043579101563	1.290283203125	4.74456787109375E-06	6.12183612247463E-06	271949.5625	6.95299604558386E-05
1	191	85.9911107828933	1.28036499023438	1.280517578125	4.7198486328125E-06	6.04384922553436E-06	271304.78125	7.00065356795676E-05
1	192	86.0918187826391	1.27029418945313	1.27044677734375	4.69512939453125E-06	5.96491145188338E-06	270588.25	7.0480615249835E-05
1	193	86.1925267823848	1.26022338867188	1.26007080078125	4.67132568359375E-06	5.88620105190785E-06	269745.875	7.09522573743016E-05
1	194	86.2932347821305	1.25015258789063	1.2506103515625	4.647216796875E-06	5.81185759074287E-06	269109.53125	7.14214766048826E-05
1	195	86.3939427818763	1.24008178710938	1.240234375	4.62493896484375E-06	5.73600800635177E-06	268162.34375	7.18883675290272E-05
1	196	86.494650781622	1.23001098632813	1.23016357421875	4.6038818359375E-06	5.66352764508338E-06	267201.375	7.23530756658874E-05
1	197	86.5953587813677	1.21994018554688	1.2200927734375	4.58251953125E-06	5.59109912501299E-06	266249.34375	7.28156519471668E-05
1	198	86.6960667811135	1.20986938476563	1.20941162109375	4.56146240234375E-06	5.51668563275598E-06	265136.8125	7.32760890969075E-05
1	199	86.7967747808592	1.19979858398438	1.19964599609375	4.53948974609375E-06	5.44578051631106E-06	264268.90625	7.37343580112793E-05
1	200	86.8974827806049	1.18972778320313	1.18988037109375	4.51690673828125E-06	5.37457890459336E-06	263428.15625	7.41903786547482E-05
1	201	86.9981907803507	1.17965698242188	1.1798095703125	4.49249267578125E-06	5.30028592038434E-06	262618.03125	7.46440418879502E-05
1	202	87.0988987800964	1.16958618164063	1.1700439453125	4.4677734375E-06	5.22749087394914E-06	261885.265625	7.50952240196057E-05
1	203	87.1996067798422	1.15951538085938	1.1602783203125	4.44122314453125E-06	5.15305509907193E-06	261251.96875	7.55438304622658E-05
1	204	87.3003147795879	1.14944458007813	1.14959716796875	4.41314697265625E-06	5.07334152644034E-06	260493.734375	7.59896793169901E-05
1	205	87.4010227793336	1.13937377929688	1.13922119140625	4.3804931640625E-06	4.99035058965092E-06	260066.890625	7.64324795454741E-05
1	206	87.5017307790794	1.12930297851563	1.129150390625	4.3426513671875E-06	4.90350612381008E-06	260014.0625	7.68717218306847E-05
1	207	87.6024387788251	1.11923217773438	1.11907958984375	4.29534912109375E-06	4.80683729620068E-06	260532.875	7.73066785768606E-05
1	208	87.7031467785708	1.10916137695313	1.1090087890625	4.2364501953125E-06	4.69826045446098E-06	261777.859375	7.773628749419E-05
1	209	87.8038547783166	1.09909057617188	1.0992431640625	4.16015625E-06	4.57302303402685E-06	264231.21875	7.81590933911502E-05
1	210	87.9045627780623	1.08901977539063	1.0888671875	4.06097412109375E-06	4.42186137661338E-06	268129.5625	7.85730589996092E-05
1	211	88.0052707778081	1.07894897460938	1.07879638671875	3.929443359375E-06	4.23906931246165E-06	274541.78125	7.89754121797159E-05
1	212	88.1059787775538	1.06887817382813	1.06903076171875	3.75457763671875E-06	4.01375882574939E-06	284727.3125	7.9362333053723E-05
1	213	88.2066867772995	1.05880737304688	1.058349609375	3.5260009765625E-06	3.73174179912894E-06	300155.78125	7.97289394540712E-05
1	214	88.3073947770453	1.04873657226563	1.0491943359375	3.232421875E-06	3.39143844030332E-06	324584.59375	8.00692505436018E-05
1	215	88.408102776791	1.03866577148438	1.038818359375	2.87109375E-06	2.98254485642246E-06	361819.71875	8.03765869932249E-05
1	216	88.5088107765367	1.02859497070313	1.0284423828125	2.442626953125E-06	2.51210099122545E-06	421039.46875	8.06441530585289E-05
1	217	88.6095187762825	1.01852416992188	1.01837158203125	1.96014404296875E-06	1.99615487872506E-06	519539.1875	8.08658514870331E-05
1	218	88.7102267760282	1.00845336914063	1.00860595703125	1.441650390625E-06	1.4540571555699E-06	699618.9375	8.10371420811862E-05
1	219	88.8109347757739	0.998382568359375	0.99822998046875	9.1827392578125E-07	9.1664850287998E-07	1087072.125	8.11559802968986E-05
1	220	88.9116427755197	0.988311767578125	0.9881591796875	4.1961669921875E-07	4.14648098967518E-07	2354909	8.12233483884484E-05
1	221	89.0123507752654	0.978240966796875	0.97869873046875	-2.10571289062503E-08	-2.06085832843428E-08	-46478264	8.12434154795483E-05
1	222	89.1130587750112	0.968170166015625	0.96832275390625	-3.741455078125E-07	-3.62293576472439E-07	-2588091.5	8.12235157354735E-05
1	223	89.2137667747569	0.958099365234375	0.958251953125	-6.14013671874999E-07	-5.88379748478474E-07	-1560636.25	8.11737554613501E-05
1	224	89.3144747745026	0.948028564453125	0.94757080078125	-7.3577880859375E-07	-6.9720249484817E-07	-1287847.375	8.1105790741276E-05
1	225	89.4151827742484	0.937957763671875	0.9375	-7.4798583984375E-07	-7.01236729128141E-07	-1253366	8.10310739325359E-05
1	226	89.5158907739941	0.927886962890625	0.927734375	-6.81457519531251E-07	-6.32211538231786E-07	-1361397.25	8.09591001598164E-05
1	227	89.6165987737398	0.917816162109375	0.91766357421875	-5.6793212890625E-07	-5.21170591127884E-07	-1615798.125	8.08961849543266E-05
1	228	89.7173067734856	0.907745361328125	0.9075927734375	-4.4586181640625E-07	-4.04660966069059E-07	-2035592.125	8.08451368357055E-05
1	229	89.8180147732313	0.897674560546875	0.8978271484375	-3.4210205078125E-07	-3.07148525280354E-07	-2624442.5	8.08054610388353E-05
1	230	89.918722772977	0.887603759765625	0.88775634765625	-2.7740478515625E-07	-2.46267859438376E-07	-3200220	8.07742617325857E-05
1	231	90.0194307727228	0.877532958984375	0.877685546875	-2.6580810546875E-07	-2.332959212481E-07	-3301952	8.0746911407914E-05
1	232	90.1201387724685	0.867462158203125	0.8673095703125	-3.155517578125E-07	-2.73681052931352E-07	-2748549.5	8.07176402304322E-05
1	233	90.2208467722143	0.857391357421875	0.85723876953125	-4.26025390625E-07	-3.65205465868712E-07	-2012177.75	8.06803000159562E-05
1	234	90.32155477196	0.847320556640625	0.8477783203125	-5.8563232421875E-07	-4.96486393330997E-07	-1447629	8.06293537607417E-05
1	235	90.4222627717057	0.837249755859375	0.83709716796875	-7.7880859375E-07	-6.51938421469822E-07	-1074843.375	8.05606541689485E-05
1	236	90.5229707714515	0.827178955078125	0.82733154296875	-9.814453125E-07	-8.11980612525076E-07	-842972.6875	8.04720184532925E-05
1	237	90.6236787711972	0.817108154296875	0.81756591796875	-1.1688232421875E-06	-9.55590053308697E-07	-699477.8125	8.03637376520783E-05
1	238	90.7243867709429	0.807037353515625	0.8074951171875	-1.3153076171875E-06	-1.06210450212529E-06	-613921.125	8.02386566647328E-05
1	239	90.8250947706887	0.796966552734375	0.797119140625	-1.4080810546875E-06	-1.12240832095267E-06	-566103.1875	8.01015194156207E-05
1	240	90.9258027704344	0.786895751953125	0.787353515625	-1.44256591796875E-06	-1.13580938432278E-06	-545800.75	7.99579793238081E-05
1	241	91.0265107701802	0.776824951171875	0.7769775390625	-1.42669677734375E-06	-1.10851135559642E-06	-544598.9375	7.98135006334633E-05
1	242	91.1272187699259	0.766754150390625	0.76690673828125	-1.375732421875E-06	-1.05505841929698E-06	-557453.4375	7.96723907114938E-05
1	243	91.2279267696716	0.756683349609375	0.7568359375	-1.3092041015625E-06	-9.90852754512161E-07	-578088.5625	7.9537188867107E-05
1	244	91.3286347694174	0.746612548828125	0.746551513671875	-1.24298095703125E-06	-9.27949315610022E-07	-600613.8125	7.94086736277677E-05
1	245	91.4293427691631	0.736541748046875	0.736419677734375	-1.19293212890625E-06	-8.78498724432575E-07	-617319	7.92860155343078E-05
1	246	91.5300507689088	0.726470947265625	0.72637939453125	-1.1700439453125E-06	-8.49895798182843E-07	-620813.8125	7.91670317994431E-05
1	247	91.6307587686546	0.716400146484375	0.716339111328125	-1.1834716796875E-06	-8.47767068989924E-07	-605286.25	7.90485282777809E-05
1	248	91.7314667684003	0.706329345703125	0.706268310546875	-1.24053955078125E-06	-8.7615376287431E-07	-569323.5	7.89264668128453E-05
1	249	91.832174768146	0.696258544921875	0.69622802734375	-1.3427734375E-06	-9.34876482006075E-07	-518500	7.87963872426189E-05
1	250	91.9328827678918	0.686187744140625	0.68609619140625	-1.48773193359375E-06	-1.02072715435497E-06	-461169.25	7.86538585089147E-05
1	251	92.0335907676375	0.676116943359375	0.676025390625	-1.66656494140625E-06	-1.12664019980002E-06	-405640	7.84950243541971E-05
1	252	92.1342987673833	0.666046142578125	0.666015625	-1.864013671875E-06	-1.24146220059629E-06	-357301.90625	7.83172508818097E-05
1	253	92.235006767129	0.655975341796875	0.6558837890625	-2.05596923828125E-06	-1.34847687149886E-06	-319014.40625	7.81198614276946E-05
1	254	92.3357147668747	0.645904541015625	0.64581298828125	-2.218017578125E-06	-1.43242448302772E-06	-291166.78125	7.79046531533822E-05
1	255	92.4364227666205	0.635833740234375	0.635833740234375	-2.33001708984375E-06	-1.48150343193265E-06	-272888.03125	7.76756351115182E-05
1	256	92.5371307663662	0.625762939453125	0.625762939453125	-2.3809814453125E-06	-1.48992990034458E-06	-262817.21875	7.7438417065423E-05
1	257	92.6378387661119	0.615692138671875	0.615631103515625	-2.37091064453125E-06	-1.45960632380593E-06	-259660.1875	7.71991399233229E-05
1	258	92.7385467658577	0.605621337890625	0.6055908203125	-2.310791015625E-06	-1.39939379550924E-06	-262070.796875	7.69633988966234E-05
1	259	92.8392547656034	0.595550537109375	0.5955810546875	-2.216796875E-06	-1.32028230837022E-06	-268667.40625	7.67354213166982E-05
1	260	92.9399627653492	0.585479736328125	0.585357666015625	-2.1044921875E-06	-1.23188056022627E-06	-278146.78125	7.65178265282884E-05
1	261	93.0406707650949	0.575408935546875	0.57537841796875	-1.98577880859375E-06	-1.14257420591457E-06	-289749.53125	7.63118659961037E-05
1	262	93.1413787648406	0.565338134765625	0.5653076171875	-1.86767578125E-06	-1.05581125353638E-06	-302679.75	7.61178234824911E-05
1	263	93.2420867645864	0.555267333984375	0.55523681640625	-1.75506591796875E-06	-9.74477188719902E-07	-316362.375	7.59354079491459E-05
1	264	93.3427947643321	0.545196533203125	0.545135498046875	-1.650390625E-06	-8.99686483535334E-07	-330306.96875	7.57639281800948E-05
1	265	93.4435027640778	0.535125732421875	0.53515625	-1.55426025390625E-06	-8.31772069886938E-07	-344315.75	7.56025619921274E-05
1	266	93.5442107638236	0.525054931640625	0.5250244140625	-1.46728515625E-06	-7.703604865128E-07	-357820.3125	7.54504144424573E-05
1	267	93.6449187635693	0.514984130859375	0.514984130859375	-1.3885498046875E-06	-7.15081114321947E-07	-370879.125	7.53066124161705E-05
1	268	93.745626763315	0.504913330078125	0.504913330078125	-1.31866455078125E-06	-6.65811285216478E-07	-382897.46875	7.51702900743112E-05
1	269	93.8463347630608	0.494842529296875	0.494842529296875	-1.2548828125E-06	-6.20969387910009E-07	-394333.65625	7.50407052692026E-05
1	270	93.9470427628065	0.484771728515625	0.4847412109375	-1.19781494140625E-06	-5.80630228341761E-07	-404687.9375	7.49172031646594E-05
1	271	94.0477507625523	0.474700927734375	0.47467041015625	-1.14532470703125E-06	-5.43651708539983E-07	-414441.8125	7.47992162359878E-05
1	272	94.148458762298	0.464630126953125	0.46466064453125	-1.097412109375E-06	-5.09924234393111E-07	-423414.90625	7.46862860978581E-05
1	273	94.2491667620437	0.454559326171875	0.454620361328125	-1.05224609375E-06	-4.78372498946555E-07	-432047.59375	7.45780416764319E-05
1	274	94.3498747617895	0.444488525390625	0.444488525390625	-1.0107421875E-06	-4.49263296786739E-07	-439764.5	7.44741628295742E-05
1	275	94.4505827615352	0.434417724609375	0.434417724609375	-9.72900390625001E-07	-4.22645143771661E-07	-446518.21875	7.43742784834467E-05
1	276	94.5512907612809	0.424346923828125	0.424346923828125	-9.37499999999999E-07	-3.97825232312243E-07	-452636.71875	7.42780830478296E-05
1	277	94.6519987610267	0.414276123046875	0.414215087890625	-9.04541015625E-07	-3.74674527847674E-07	-457928.5	7.4185329140164E-05
1	278	94.7527067607724	0.404205322265625	0.40423583984375	-8.740234375E-07	-3.53311605749695E-07	-462500	7.4095769377891E-05
1	279	94.8534147605181	0.394134521484375	0.394195556640625	-8.44726562500001E-07	-3.3298744028798E-07	-466654.65625	7.40092218620703E-05
1	280	94.9541227602639	0.384063720703125	0.38409423828125	-8.17260742187501E-07	-3.13905132998116E-07	-469977.59375	7.39255337975919E-05
1	281	95.0548307600096	0.373992919921875	0.3740234375	-7.91320800781251E-07	-2.95972512276421E-07	-472657.1875	7.38445378374308E-05
1	282	95.1555387597554	0.363922119140625	0.363922119140625	-7.66601562499999E-07	-2.78983264934141E-07	-474721.34375	7.37660884624347E-05
1	283	95.2562467595011	0.353851318359375	0.3538818359375	-7.44018554687501E-07	-2.63294651858814E-07	-475635.75	7.3690025601536E-05
1	284	95.3569547592468	0.343780517578125	0.34381103515625	-7.22656250000001E-07	-2.484571837158E-07	-475760.15625	7.36161673557945E-05
1	285	95.4576627589926	0.333709716796875	0.333740234375	-7.02514648437499E-07	-2.34457402825683E-07	-475065.1875	7.35444045858458E-05
1	286	95.5583707587383	0.323638916015625	0.323577880859375	-6.8328857421875E-07	-2.21097053554331E-07	-473559.65625	7.34746281523257E-05
1	287	95.659078758484	0.313568115234375	0.313568115234375	-6.64672851562501E-07	-2.08420203762216E-07	-471763.09375	7.3406750743743E-05
1	288	95.7597867582298	0.303497314453125	0.30352783203125	-6.4697265625E-07	-1.96374202232619E-07	-469150.96875	7.33407068764791E-05
1	289	95.8604947579755	0.293426513671875	0.29345703125	-6.30798339843749E-07	-1.85112199346804E-07	-465215.3125	7.32763655832969E-05
1	290	95.9612027577213	0.283355712890625	0.2833251953125	-6.15539550781249E-07	-1.74397854380004E-07	-460287.5625	7.32136031729169E-05
1	291	96.061910757467	0.273284912109375	0.27325439453125	-6.024169921875E-07	-1.64613098263544E-07	-453596.75	7.3152274126187E-05
1	292	96.1626187572127	0.263214111328125	0.263214111328125	-5.89904785156251E-07	-1.55271251855993E-07	-446197.65625	7.30922401999123E-05
1	293	96.2633267569585	0.253143310546875	0.25311279296875	-5.780029296875E-07	-1.46299939274286E-07	-437909.1875	7.30334286345169E-05
1	294	96.3640347567042	0.243072509765625	0.243133544921875	-5.66711425781249E-07	-1.37786557274922E-07	-429025.3125	7.29757884982973E-05
1	295	96.4647427564499	0.233001708984375	0.23297119140625	-5.5572509765625E-07	-1.29467935039429E-07	-419220.21875	7.29192688595504E-05
1	296	96.5654507561957	0.222930908203125	0.22296142578125	-5.45349121093749E-07	-1.21591810398058E-07	-408841.65625	7.28638260625303E-05
1	297	96.6661587559414	0.212860107421875	0.212921142578125	-5.36193847656249E-07	-1.14167008291588E-07	-397097.3125	7.28093655197881E-05
1	298	96.7668667556871	0.202789306640625	0.202789306640625	-5.28564453124999E-07	-1.07187219100524E-07	-383660.53125	7.27557489881292E-05
1	299	96.8675747554329	0.192718505859375	0.1927490234375	-5.22460937499999E-07	-1.00703836380944E-07	-368925.21875	7.27028236724436E-05
1	300	96.9682827551786	0.182647705078125	0.182647705078125	-5.16357421875E-07	-9.43115026075247E-08	-353723.40625	7.26505168131553E-05
1	301	97.0689907549244	0.172576904296875	0.172607421875	-5.12084960937501E-07	-8.83896689174435E-08	-337067.9375	7.25987338228151E-05
1	302	97.1696987546701	0.162506103515625	0.162567138671875	-5.0811767578125E-07	-8.26032291456613E-08	-319939.96875	7.25473582861014E-05
1	303	97.2704067544158	0.152435302734375	0.152496337890625	-5.05981445312501E-07	-7.71603083649097E-08	-301387.25	7.2496295615565E-05
1	304	97.3711147541616	0.142364501953125	0.1424560546875	-5.0689697265625E-07	-7.22105468753398E-08	-281035.53125	7.24452911526896E-05
1	305	97.4718227539073	0.132293701171875	0.132354736328125	-5.11474609375E-07	-6.76960851819786E-08	-258770.890625	7.23940174793825E-05
1	306	97.572530753653	0.122222900390625	0.12225341796875	-5.2032470703125E-07	-6.36114734220428E-08	-234956.015625	7.23420598660596E-05
1	307	97.6732387533988	0.112152099609375	0.112152099609375	-5.34973144531251E-07	-5.99983636107027E-08	-209640.625	7.22889235476032E-05
1	308	97.7739467531445	0.102081298828125	0.102081298828125	-5.572509765625E-07	-5.68849038984354E-08	-183187.296875	7.22339245839976E-05
1	309	97.8746547528903	0.092010498046875	0.092071533203125	-5.8868408203125E-07	-5.4201045429636E-08	-156402.28125	7.21762189641595E-05
1	310	97.975362752636	0.081939697265625	0.082000732421875	-6.33544921875E-07	-5.19511473839884E-08	-129431.6015625	7.21146789146587E-05
1	311	98.0760707523817	0.071868896484375	0.07196044921875	-6.9549560546875E-07	-5.00481753817894E-08	-103466.4296875	7.20477546565235E-05
1	312	98.1767787521275	0.061798095703125	0.061767578125	-7.781982421875E-07	-4.80674202663067E-08	-79372.546875	7.19735471648164E-05
1	313	98.2774867518732	0.051727294921875	0.05181884765625	-8.880615234375E-07	-4.6018321597785E-08	-58350.515625	7.18896480975673E-05
1	314	98.3781947516189	0.041656494140625	0.0417694091796875	-1.0272216796875E-06	-4.29064392903911E-08	-40662.5078125	7.17932052793913E-05
1	315	98.4789027513647	0.031585693359375	0.031646728515625	-1.1962890625E-06	-3.78586371141409E-08	-26454.08203125	7.16812428436242E-05
1	316	98.5796107511104	0.021514892578125	0.0215850830078125	-1.3897705078125E-06	-2.99983113905E-08	-15531.4013671875	7.15510250302032E-05
1	317	98.6803187508561	0.011444091796875	0.0115509033203125	-1.59576416015625E-06	-1.8432517734368E-08	-7238.4775390625	7.14006891939789E-05
1	318	98.7810267506019	0.001373291015625	0.00148925781250001	-1.79779052734375E-06	-2.67737343406793E-09	-828.38232421875	7.12298060534522E-05
1	319	98.8817347503476	-0.008697509765625	-0.008587646484375	-1.97509765625E-06	1.69614402523166E-08	4347.96044921875	7.10398308001459E-05
1	320	98.9824427500934	-0.018768310546875	-0.0186676025390625	-2.11181640625E-06	3.942255233369E-08	8839.595703125	7.08340376149863E-05
1	321	99.0831507498391	-0.028839111328125	-0.0287353515625	-2.19940185546875E-06	6.32005807688074E-08	13065.076171875	7.06169521436095E-05
1	322	99.1838587495848	-0.038909912109375	-0.0387451171875	-2.23541259765625E-06	8.66113154529558E-08	17332.423828125	7.0393638452515E-05
1	323	99.2845667493306	-0.048980712890625	-0.0488525390625	-2.22930908203125E-06	1.0890741464209E-07	21913.7578125	7.0168825914152E-05
1	324	99.3852747490763	-0.059051513671875	-0.058929443359375	-2.19268798828125E-06	1.29213887589685E-07	26875.43359375	6.99461597832851E-05
1	325	99.485982748822	-0.069122314453125	-0.069061279296875	-2.1368408203125E-06	1.47572961850528E-07	32319.337890625	6.97281502652913E-05
1	326	99.5866907485678	-0.079193115234375	-0.0791015625	-2.07366943359375E-06	1.6403048164193E-07	38145.69921875	6.95161361363716E-05
1	327	99.6873987483135	-0.089263916015625	-0.089141845703125	-2.0086669921875E-06	1.79056286242485E-07	44378.609375	6.93105685058981E-05
1	328	99.7881067480592	-0.099334716796875	-0.099273681640625	-1.94732666015625E-06	1.93318285823807E-07	50979.47265625	6.9111367338337E-05
1	329	99.888814747805	-0.109405517578125	-0.10931396484375	-1.89208984375E-06	2.06831842319843E-07	57774.1953125	6.89180378685705E-05
1	330	99.9895227475507	-0.119476318359375	-0.119384765625	-1.84295654296875E-06	2.20020936581022E-07	64778.9375	6.87299689161591E-05
1	331	100.090230747296	-0.129547119140625	-0.129486083984375	-1.800537109375E-06	2.3314450459111E-07	71915.25	6.85464983689599E-05
1	332	100.190938747042	-0.139617919921875	-0.139556884765625	-1.763916015625E-06	2.46166621309385E-07	79117.6484375	6.83670150465332E-05
1	333	100.291646746788	-0.149688720703125	-0.149658203125	-1.73309326171875E-06	2.59371603306136E-07	86353.234375	6.81909295963123E-05
1	334	100.392354746534	-0.159759521484375	-0.159576416015625	-1.70806884765625E-06	2.72567490355868E-07	93425.0546875	6.80176526657306E-05
1	335	100.493062746279	-0.169830322265625	-0.169647216796875	-1.6888427734375E-06	2.86507486180199E-07	100451.75	6.78466021781787E-05
1	336	100.593770746025	-0.179901123046875	-0.1798095703125	-1.67572021484375E-06	3.01310535633093E-07	107302.859375	6.76771815051325E-05
1	337	100.694478745771	-0.189971923828125	-0.189849853515625	-1.6680908203125E-06	3.16686794121779E-07	113812.6640625	6.75088085699826E-05
1	338	100.795186745517	-0.200042724609375	-0.19989013671875	-1.66534423828125E-06	3.32885861098475E-07	120029.328125	6.73409595037811E-05
1	339	100.895894745262	-0.189971923828125	-0.1898193359375	-1.45538330078125E-06	2.76259896736519E-07	130425.6640625	6.71838206471875E-05
2	340	100.996602745008	-0.179901123046875	-0.1796875	-1.3055419921875E-06	2.34589577985389E-07	137634.40625	6.70447916490957E-05
2	341	101.097310744754	-0.169830322265625	-0.16973876953125	-1.18377685546875E-06	2.0093281705158E-07	143387.46875	6.69194487272762E-05
2	342	101.1980187445	-0.159759521484375	-0.159637451171875	-1.0791015625E-06	1.72265004039218E-07	147935.53125	6.68054999550804E-05
2	343	101.298726744245	-0.149688720703125	-0.1495361328125	-9.87854003906249E-07	1.47719859455719E-07	151374.734375	6.67014246573672E-05
2	344	101.399434743991	-0.139617919921875	-0.13958740234375	-9.063720703125E-07	1.26518116871921E-07	154006.734375	6.66060441290028E-05
2	345	101.500142743737	-0.129547119140625	-0.129425048828125	-8.3038330078125E-07	1.07472395427521E-07	155861.828125	6.65185871184804E-05
2	346	101.600850743483	-0.119476318359375	-0.119384765625	-7.598876953125E-07	9.07190127463764E-08	157108.4375	6.64385152049363E-05
2	347	101.701558743228	-0.109405517578125	-0.10931396484375	-6.90612792968751E-07	7.54936166913467E-08	158285.46875	6.63654718664475E-05
2	348	101.802266742974	-0.099334716796875	-0.09918212890625	-6.20422363281251E-07	6.15348056953735E-08	159862.28125	6.6299457103014E-05
2	349	101.90297474272	-0.089263916015625	-0.0892333984375	-5.462646484375E-07	4.87450506625464E-08	163351.953125	6.62407110212371E-05
2	350	102.003682742465	-0.079193115234375	-0.079193115234375	-4.656982421875E-07	3.68800954220205E-08	170052.421875	6.61897502141073E-05
2	351	102.104390742211	-0.069122314453125	-0.069091796875	-3.7384033203125E-07	2.58292995880538E-08	184816.328125	6.61474769003689E-05
2	352	102.205098741957	-0.059051513671875	-0.0589599609375	-2.67639160156249E-07	1.57799942002157E-08	220296.453125	6.61151789245196E-05
2	353	102.305806741703	-0.048980712890625	-0.0488555908203125	-1.39465332031249E-07	6.81366119081872E-09	350306.375	6.60946825519204E-05
2	354	102.406514741448	-0.038909912109375	-0.0387908935546875	1.46484375000006E-08	-5.68225966279812E-10	-2648125	6.60883961245418E-05
2	355	102.507222741194	-0.028839111328125	-0.02872314453125	1.97753906250001E-07	-5.68011415680303E-09	-145246.921875	6.60990917822346E-05
2	356	102.60793074094	-0.018768310546875	-0.0186614990234375	4.06494140624999E-07	-7.58578977411162E-09	-45908.41015625	6.61295125610195E-05
2	357	102.708638740686	-0.008697509765625	-0.0085906982421875	6.32324218749999E-07	-5.43210632031332E-09	-13585.9072265625	6.61818266962655E-05
2	358	102.809346740431	0.001373291015625	0.00146484375	8.587646484375E-07	1.25795596161993E-09	1705.75695800781	6.62569073028862E-05
2	359	102.910054740177	0.011444091796875	0.0115478515625	1.06781005859375E-06	1.2330911403069E-08	10814.5185546875	6.63539176457562E-05
2	360	103.010762739923	0.021514892578125	0.0216064453125	1.2396240234375E-06	2.67838675682697E-08	17429.837890625	6.64701074128971E-05
2	361	103.111470739669	0.031585693359375	0.0316802978515625	1.36199951171875E-06	4.31485460694603E-08	23260.138671875	6.66011110297404E-05
2	362	103.212178739414	0.041656494140625	0.0417266845703125	1.43310546875E-06	5.97987437345182E-08	29116.26953125	6.67418498778716E-05
2	363	103.31288673916	0.051727294921875	0.051788330078125	1.456298828125E-06	7.54192868157588E-08	35561.609375	6.68873472022824E-05
2	364	103.413594738906	0.061798095703125	0.0618896484375	1.4434814453125E-06	8.93365594833995E-08	42875.265625	6.70333611196838E-05
2	365	103.514302738652	0.071868896484375	0.071929931640625	1.40777587890625E-06	1.01261214524584E-07	51094.734375	6.71769303153269E-05
2	366	103.615010738397	0.081939697265625	0.082000732421875	1.358642578125E-06	1.11409683256625E-07	60354.8984375	6.73162357998081E-05
2	367	103.715718738143	0.092010498046875	0.092010498046875	1.30523681640625E-06	1.20095478450821E-07	70493.3359375	6.74503680784255E-05
2	368	103.816426737889	0.102081298828125	0.102081298828125	1.25244140625E-06	1.27850839248822E-07	81505.8515625	6.75791598041542E-05
2	369	103.917134737634	0.112152099609375	0.112213134765625	1.20361328125E-06	1.35061213768495E-07	93230.2265625	6.77028292557225E-05
2	370	104.01784273738	0.122222900390625	0.12225341796875	1.15997314453125E-06	1.41810673426335E-07	105393.328125	6.78218493703753E-05
2	371	104.118550737126	0.132293701171875	0.13232421875	1.121826171875E-06	1.48444769365597E-07	117954.3046875	6.79367440170608E-05
2	372	104.219258736872	0.142364501953125	0.14239501953125	1.0882568359375E-06	1.54962350507049E-07	130846.890625	6.80480297887698E-05
2	373	104.319966736617	0.152435302734375	0.152496337890625	1.05865478515625E-06	1.61440979695726E-07	144047.28125	6.81561359670013E-05
2	374	104.420674736363	0.162506103515625	0.162567138671875	1.03302001953125E-06	1.67935098716043E-07	157370.75	6.82614627294242E-05
2	375	104.521382736109	0.172576904296875	0.172637939453125	1.009521484375E-06	1.74281709064417E-07	171009.671875	6.83643156662583E-05
2	376	104.622090735855	0.182647705078125	0.182708740234375	9.8907470703125E-07	1.80712589781251E-07	184726.9375	6.84649494360201E-05
2	377	104.7227987356	0.192718505859375	0.192718505859375	9.716796875E-07	1.87260653206067E-07	198335.421875	6.85636841808446E-05
2	378	104.823506735346	0.202789306640625	0.2027587890625	9.5703125E-07	1.94046492651978E-07	211862.25	6.86607963871211E-05
2	379	104.924214735092	0.212860107421875	0.21282958984375	9.43603515624999E-07	2.00826747231986E-07	225549.8125	6.87565043335781E-05
2	380	105.024922734838	0.222930908203125	0.222930908203125	9.31701660156251E-07	2.07705099342093E-07	239272.84375	6.88509317114949E-05
2	381	105.125630734583	0.233001708984375	0.233001708984375	9.21020507812501E-07	2.14599353398626E-07	252982.109375	6.8944224040024E-05
2	382	105.226338734329	0.243072509765625	0.243011474609375	9.112548828125E-07	2.2144539002511E-07	266677.84375	6.90364904585294E-05
2	383	105.327046734075	0.253143310546875	0.253143310546875	9.014892578125E-07	2.28205962571337E-07	280805.6875	6.91277673467994E-05
2	384	105.427754733821	0.263214111328125	0.26318359375	8.93554687500001E-07	2.35168926110418E-07	294535.53125	6.92181565682404E-05
2	385	105.528462733566	0.273284912109375	0.273345947265625	8.8623046875E-07	2.42247494952608E-07	308436.65625	6.93077745381743E-05
2	386	105.629170733312	0.283355712890625	0.28338623046875	8.80126953125E-07	2.49415847974888E-07	321983.34375	6.939671584405E-05
2	387	105.729878733058	0.293426513671875	0.293426513671875	8.75244140625001E-07	2.56819816968346E-07	335251.0625	6.94851041771472E-05
2	388	105.830586732803	0.303497314453125	0.303497314453125	8.7127685546875E-07	2.64430184415687E-07	348336.25	6.95730486768298E-05
2	389	105.931294732549	0.313568115234375	0.313629150390625	8.67309570312499E-07	2.7201355123907E-07	361611.5625	6.96605929988436E-05
2	390	106.032002732295	0.323638916015625	0.32366943359375	8.6395263671875E-07	2.79635059996508E-07	374637.9375	6.97477735229768E-05
2	391	106.132710732041	0.333709716796875	0.33367919921875	8.612060546875E-07	2.87366532347733E-07	387455.71875	6.98346411809325E-05
2	392	106.233418731786	0.343780517578125	0.343780517578125	8.59680175781249E-07	2.95541298100943E-07	399893.53125	6.99212905601598E-05
2	393	106.334126731532	0.353851318359375	0.35382080078125	8.58459472656251E-07	3.03740790741358E-07	412157.84375	7.00078089721501E-05
2	394	106.434834731278	0.363922119140625	0.363983154296875	8.5906982421875E-07	3.12686950110219E-07	423694.5	7.00942910043523E-05
2	395	106.535542731024	0.373992919921875	0.373992919921875	8.59985351562501E-07	3.21628419897024E-07	434882.90625	7.01808530720882E-05
2	396	106.636250730769	0.384063720703125	0.384063720703125	8.6090087890625E-07	3.30640773427149E-07	446118.40625	7.02675097272731E-05
2	397	106.736958730515	0.394134521484375	0.394134521484375	8.6212158203125E-07	3.39791881742713E-07	457168.15625	7.03542682458647E-05
2	398	106.837666730261	0.404205322265625	0.404205322265625	8.636474609375E-07	3.49090868212443E-07	468021.21875	7.04411722836085E-05
2	399	106.938374730007	0.414276123046875	0.414306640625	8.642578125E-07	3.58067751449198E-07	479378.53125	7.05281781847589E-05
2	400	107.039082729752	0.424346923828125	0.42437744140625	8.65783691406249E-07	3.6741906228599E-07	490165.6875	7.06152932252735E-05
2	401	107.139790729498	0.434417724609375	0.434417724609375	8.6822509765625E-07	3.77172369780965E-07	500351.5	7.07026047166437E-05
2	402	107.240498729244	0.444488525390625	0.44451904296875	8.70666503906251E-07	3.87027824899633E-07	510550.3125	7.07901635905728E-05
2	403	107.34120672899	0.454559326171875	0.454620361328125	8.72802734375E-07	3.96793893742142E-07	520874.125	7.08779552951455E-05
2	404	107.441914728735	0.464630126953125	0.464599609375	8.7493896484375E-07	4.06496297955528E-07	531008	7.09659580024891E-05
2	405	107.542622728481	0.474700927734375	0.47467041015625	8.7738037109375E-07	4.16466491515166E-07	541008.75	7.10542008164339E-05
2	406	107.643330728227	0.484771728515625	0.48480224609375	8.8043212890625E-07	4.26835441658113E-07	550641.25	7.11427128408104E-05
2	407	107.744038727972	0.494842529296875	0.494781494140625	8.84399414062501E-07	4.37584475321273E-07	559454.8125	7.12315741111524E-05
2	408	107.844746727718	0.504913330078125	0.5048828125	8.8958740234375E-07	4.49137388613963E-07	567547.1875	7.13209010427818E-05
2	409	107.945454727464	0.514984130859375	0.514923095703125	8.9752197265625E-07	4.62154787328473E-07	573716.4375	7.1410890086554E-05
2	410	108.04616272721	0.525054931640625	0.5250244140625	9.0667724609375E-07	4.76027679496838E-07	579064.3125	7.15017376933247E-05
2	411	108.146870726955	0.535125732421875	0.53515625	9.19494628906251E-07	4.92073297664319E-07	582011.3125	7.15936985216103E-05
2	412	108.247578726701	0.545196533203125	0.545257568359375	9.3536376953125E-07	5.10014160681749E-07	582936.375	7.1687092713546E-05
2	413	108.348286726447	0.555267333984375	0.555267333984375	9.5794677734375E-07	5.31916555246426E-07	579643.1875	7.17824295861647E-05
2	414	108.448994726193	0.565338134765625	0.565338134765625	9.89685058593751E-07	5.59506702302315E-07	571230.3125	7.18805022188462E-05
2	415	108.549702725938	0.575408935546875	0.575439453125	1.033935546875E-06	5.94967275446834E-07	556552.5625	7.19824020052329E-05
2	416	108.650410725684	0.585479736328125	0.58544921875	1.09649658203125E-06	6.41943074697338E-07	533927.0625	7.20896787242964E-05
2	417	108.75111872543	0.595550537109375	0.595550537109375	1.18408203125E-06	7.05180639215541E-07	502963.9375	7.2204515163321E-05
2	418	108.851826725176	0.605621337890625	0.605621337890625	1.3031005859375E-06	7.89185548910609E-07	464754.09375	7.23297489457764E-05
2	419	108.952534724921	0.615692138671875	0.615631103515625	1.45965576171875E-06	8.98609471278178E-07	421764.59375	7.24688652553596E-05
2	420	109.053242724667	0.625762939453125	0.625701904296875	1.656494140625E-06	1.0364715308242E-06	377726.625	7.2625778557267E-05
2	421	109.153950724413	0.635833740234375	0.6357421875	1.89239501953125E-06	1.2030752714054E-06	335945.8125	7.28044760762714E-05
2	422	109.254658724159	0.645904541015625	0.645904541015625	2.16094970703125E-06	1.39576718538592E-06	298898.46875	7.30085812392645E-05
2	423	109.355366723904	0.655975341796875	0.65594482421875	2.4462890625E-06	1.604630597285E-06	268138.71875	7.32405751477927E-05
2	424	109.45607472365	0.666046142578125	0.665985107421875	2.72979736328125E-06	1.818004307097E-06	243968.71875	7.35012072254904E-05
2	425	109.556782723396	0.676116943359375	0.676055908203125	2.9852294921875E-06	2.0181819309073E-06	226466.984375	7.37889859010465E-05
2	426	109.657490723141	0.686187744140625	0.686126708984375	3.19183349609375E-06	2.19000207835052E-06	214963.1875	7.41000258130953E-05
2	427	109.758198722887	0.696258544921875	0.696197509765625	3.3349609375E-06	2.32179149861622E-06	208757.328125	7.44286735425703E-05
2	428	109.858906722633	0.706329345703125	0.706268310546875	3.41278076171875E-06	2.41033876591246E-06	206948.046875	7.47684534871951E-05
2	429	109.959614722379	0.716400146484375	0.716278076171875	3.4344482421875E-06	2.4600199139968E-06	208556.953125	7.51132392906584E-05
2	430	110.060322722124	0.726470947265625	0.726409912109375	3.4197998046875E-06	2.48417632064957E-06	212413	7.54583743400872E-05
2	431	110.16103072187	0.736541748046875	0.736419677734375	3.38775634765625E-06	2.49481036007637E-06	217376.8125	7.58011592552066E-05
2	432	110.261738721616	0.746612548828125	0.74652099609375	3.35693359375E-06	2.50602147389145E-06	222381.8125	7.61407864047214E-05
2	433	110.362446721362	0.756683349609375	0.75653076171875	3.3416748046875E-06	2.52807967626723E-06	226392.703125	7.64780852477998E-05
2	434	110.463154721107	0.766754150390625	0.7666015625	3.3551025390625E-06	2.57202691500424E-06	228488.265625	7.68152967793867E-05
2	435	110.563862720853	0.776824951171875	0.77728271484375	3.4075927734375E-06	2.64866298493871E-06	228103.171875	7.71558261476457E-05
2	436	110.664570720599	0.786895751953125	0.78704833984375	3.50616455078125E-06	2.75952083939046E-06	224475.59375	7.75039588916115E-05
2	437	110.765278720345	0.796966552734375	0.79742431640625	3.6566162109375E-06	2.91587457468268E-06	218077.125	7.78646353865042E-05
2	438	110.86598672009	0.807037353515625	0.80718994140625	3.856201171875E-06	3.11268672703591E-06	209322.578125	7.82429342507385E-05
2	439	110.966694719836	0.817108154296875	0.81695556640625	4.0960693359375E-06	3.34630635734356E-06	199448.6875	7.86433665780351E-05
2	440	111.067402719582	0.827178955078125	0.82763671875	4.356689453125E-06	3.60575609192892E-06	189969.1875	7.90689955465496E-05
2	441	111.168110719328	0.837249755859375	0.8380126953125	4.6136474609375E-06	3.86629517379333E-06	181637.78125	7.95206869952381E-05
2	442	111.268818719073	0.847320556640625	0.84747314453125	4.84283447265625E-06	4.10417169405264E-06	174995.28125	7.99968547653407E-05
2	443	111.369526718819	0.857391357421875	0.85784912109375	5.023193359375E-06	4.3091417865071E-06	170777.640625	8.04936498752795E-05
2	444	111.470234718565	0.867462158203125	0.8673095703125	5.13916015625E-06	4.45724253950175E-06	168764.859375	8.1005367974285E-05
2	445	111.57094271831	0.877532958984375	0.877685546875	5.1910400390625E-06	4.55610052085831E-06	169077.03125	8.15255334600806E-05
2	446	111.671650718056	0.887603759765625	0.8880615234375	5.1910400390625E-06	4.6099626160867E-06	171075.84375	8.20483110146597E-05
2	447	111.772358717802	0.897674560546875	0.89752197265625	5.1666259765625E-06	4.63716014564852E-06	173715.3125	8.25698662083596E-05
2	448	111.873066717548	0.907745361328125	0.9075927734375	5.1361083984375E-06	4.66149504063651E-06	176708.25	8.30886492622085E-05
2	449	111.973774717293	0.917816162109375	0.91827392578125	5.126953125E-06	4.70794748252956E-06	179107.140625	8.36054314277135E-05
2	450	112.074482717039	0.927886962890625	0.927734375	5.1544189453125E-06	4.78193169328733E-06	179988.15625	8.41231376398355E-05
2	451	112.175190716785	0.937957763671875	0.9381103515625	5.242919921875E-06	4.91843729832908E-06	178928.984375	8.46466864459217E-05
2	452	112.275898716531	0.948028564453125	0.9478759765625	5.4046630859375E-06	5.1229503696959E-06	175381.140625	8.51828372105956E-05
2	453	112.376606716276	0.958099365234375	0.95794677734375	5.645751953125E-06	5.40832979822881E-06	169675.671875	8.57392660691403E-05
2	454	112.477314716022	0.968170166015625	0.96771240234375	5.96923828125E-06	5.77650553168496E-06	162116.578125	8.63241293700412E-05
2	455	112.578022715768	0.978240966796875	0.97808837890625	6.3629150390625E-06	6.2234930737759E-06	153717.03125	8.69451032485813E-05
2	456	112.678730715514	0.988311767578125	0.98846435546875	6.79931640625E-06	6.72088208375499E-06	145377.015625	8.76078775036149E-05
2	457	112.779438715259	0.998382568359375	0.9979248046875	7.2540283203125E-06	7.23897483112523E-06	137568.359375	8.83155153132975E-05
2	458	112.880146715005	1.00845336914063	1.00860595703125	7.6934814453125E-06	7.75969056121539E-06	131098.78125	8.90681840246543E-05
2	459	112.980854714751	1.01852416992188	1.0186767578125	8.0841064453125E-06	8.23509162728442E-06	126009.8125	8.9862645836547E-05
2	460	113.081562714496	1.02859497070313	1.02874755859375	8.38623046875E-06	8.6273139459081E-06	122671.03125	9.06919958651997E-05
2	461	113.182270714242	1.03866577148438	1.03851318359375	8.575439453125E-06	8.90570663614199E-06	121103.2109375	9.15460841497406E-05
2	462	113.282978713988	1.04873657226563	1.048583984375	8.642578125E-06	9.06246896192897E-06	121327.6875	9.24130799830891E-05
2	463	113.383686713734	1.05880737304688	1.05865478515625	8.59375E-06	9.09781465452397E-06	123188.921875	9.32809998630546E-05
2	464	113.484394713479	1.06887817382813	1.0687255859375	8.4503173828125E-06	9.03107047633966E-06	126471.65625	9.41392354434356E-05
2	465	113.585102713225	1.07894897460938	1.0784912109375	8.2550048828125E-06	8.90294995770091E-06	130646.9453125	9.4980416179169E-05
2	466	113.685810712971	1.08901977539063	1.0888671875	8.0322265625E-06	8.74602756084641E-06	135562.3125	9.58005402935669E-05
2	467	113.786518712717	1.09909057617188	1.09893798828125	7.806396484375E-06	8.57874510984402E-06	140774.046875	9.65980798355304E-05
2	468	113.887226712462	1.10916137695313	1.1090087890625	7.5927734375E-06	8.42045210447395E-06	146061.09375	9.73734931903891E-05
2	469	113.987934712208	1.11923217773438	1.119384765625	7.3974609375E-06	8.28060456115054E-06	151320.140625	9.81283083092421E-05
2	470	114.088642711954	1.12930297851563	1.12884521484375	7.220458984375E-06	8.15078055893537E-06	156339.8125	9.8864380561281E-05
2	471	114.1893507117	1.13937377929688	1.13922119140625	7.061767578125E-06	8.044915375649E-06	161322.390625	9.95835434878245E-05
2	472	114.290058711445	1.14944458007813	1.1492919921875	6.92138671875E-06	7.95469441072783E-06	166049.390625	0.000100287652458064
2	473	114.390766711191	1.15951538085938	1.15966796875	6.793212890625E-06	7.87787121225847E-06	170709.796875	0.000100978235423099
2	474	114.491474710937	1.16958618164063	1.16943359375	6.67724609375E-06	7.80859591031913E-06	175137.109375	0.000101656529295724
2	475	114.592182710683	1.17965698242188	1.1798095703125	6.573486328125E-06	7.75546232034685E-06	179480.046875	0.000102323756436817
2	476	114.692890710428	1.18972778320313	1.18988037109375	6.48193359375E-06	7.71272516431054E-06	183568.75	0.000102981146483216
2	477	114.793598710174	1.19979858398438	1.199951171875	6.3995361328125E-06	7.67913024901645E-06	187505.96875	0.000103629783552606
2	478	114.89430670992	1.20986938476563	1.20941162109375	6.3262939453125E-06	7.6510932558449E-06	191172.21875	0.000104270577139687
2	479	114.995014709665	1.21994018554688	1.219482421875	6.26220703125E-06	7.63665138947545E-06	194736.84375	0.000104904458567034
2	480	115.095722709411	1.23001098632813	1.22955322265625	6.201171875E-06	7.62467061576899E-06	198277.5625	0.000105532039015088
2	481	115.196430709157	1.24008178710938	1.2396240234375	6.1492919921875E-06	7.62281024435651E-06	201588.09375	0.000106153936940245
2	482	115.297138708903	1.25015258789063	1.2493896484375	6.1004638671875E-06	7.62185663916171E-06	204802.40625	0.000106770763522945
2	483	115.397846708648	1.26022338867188	1.26007080078125	6.0577392578125E-06	7.63317984819878E-06	208010.078125	0.000107382977148518
2	484	115.498554708394	1.27029418945313	1.270751953125	6.01806640625E-06	7.64746982895304E-06	211156.1875	0.000107991043478251
2	485	115.59926270814	1.28036499023438	1.2799072265625	5.9844970703125E-06	7.65960066928528E-06	213870.484375	0.000108595420897473
2	486	115.699970707886	1.29043579101563	1.2908935546875	5.950927734375E-06	7.68201425671577E-06	216923.078125	0.000109196414996404
2	487	115.800678707631	1.30050659179688	1.30035400390625	5.92041015625E-06	7.69862890592776E-06	219639.1875	0.000109794185846113
2	488	115.901386707377	1.31057739257813	1.3104248046875	5.8929443359375E-06	7.72226030676393E-06	222371.84375	0.00011038903176086
2	489	116.002094707123	1.32064819335938	1.32049560546875	5.865478515625E-06	7.74533782532671E-06	225130.078125	0.000110981120087672
2	490	116.102802706869	1.33071899414063	1.33056640625	5.841064453125E-06	7.77192417444894E-06	227795.203125	0.000111570589069743
2	491	116.203510706614	1.34078979492188	1.34063720703125	5.8197021484375E-06	7.80210939410608E-06	230361.828125	0.00011215775157325
2	492	116.30421870636	1.35086059570313	1.35101318359375	5.79833984375E-06	7.83363338996423E-06	233000	0.000112742767669261
2	493	116.404926706106	1.36093139648438	1.36077880859375	5.780029296875E-06	7.86534110375214E-06	235427.65625	0.000113325782876927
2	494	116.505634705852	1.37100219726563	1.37054443359375	5.76171875E-06	7.89669138612226E-06	237870.765625	0.000113906957267318
2	495	116.606342705597	1.38107299804688	1.38153076171875	5.7464599609375E-06	7.93891103967326E-06	240414.234375	0.000114486443635542
2	496	116.707050705343	1.39114379882813	1.39129638671875	5.7281494140625E-06	7.96955282567069E-06	242887.59375	0.000115064234705642
2	497	116.807758705089	1.40121459960938	1.4013671875	5.712890625E-06	8.00585712568136E-06	245299.15625	0.000115640337753575
2	498	116.908466704834	1.41128540039063	1.4111328125	5.6976318359375E-06	8.04011506261304E-06	247670.0625	0.000116214905574452
2	499	117.00917470458	1.42135620117188	1.4215087890625	5.6854248046875E-06	8.08188087830786E-06	250026.84375	0.000116788083687425
2	500	117.109882704326	1.43142700195313	1.43096923828125	5.6732177734375E-06	8.11820063972846E-06	252232.375	0.000117360039439518
2	501	117.210590704072	1.44149780273438	1.44134521484375	5.6640625E-06	8.16386909718858E-06	254471.984375	0.000117930918349884
2	502	117.311298703817	1.45156860351563	1.45172119140625	5.6549072265625E-06	8.20934837975074E-06	256718.84375	0.000118500873213634
2	503	117.412006703563	1.46163940429688	1.4617919921875	5.645751953125E-06	8.25291499495506E-06	258918.921875	0.000119069904030766
2	504	117.512714703309	1.47171020507813	1.47125244140625	5.6365966796875E-06	8.29285636427812E-06	261017.875	0.000119638018077239
2	505	117.613422703055	1.48178100585938	1.48193359375	5.633544921875E-06	8.34853926789947E-06	263055.25	0.000120205513667315
2	506	117.7141307028	1.49185180664063	1.49200439453125	5.6304931640625E-06	8.40072061691899E-06	264986.46875	0.000120772703667171
2	507	117.814838702546	1.50192260742188	1.50146484375	5.633544921875E-06	8.45856902742526E-06	266522.21875	0.000121339893667027
2	508	117.915546702292	1.49185180664063	1.4923095703125	5.4931640625E-06	8.19750130176544E-06	271666.6875	0.000121900164231192
2	509	118.016254702038	1.48178100585938	1.4813232421875	5.3924560546875E-06	7.98797009338159E-06	274702.90625	0.000122448298498057
2	510	118.116962701783	1.47171020507813	1.47186279296875	5.303955078125E-06	7.80669415689772E-06	277502.875	0.000122986908536404
2	511	118.217670701529	1.46163940429688	1.4617919921875	5.230712890625E-06	7.64621381676989E-06	279463.25	0.000123517369502224
2	512	118.318378701275	1.45156860351563	1.451416015625	5.1666259765625E-06	7.49892342355452E-06	280921.46875	0.00012404091830831
2	513	118.419086701021	1.44149780273438	1.441650390625	5.108642578125E-06	7.36487663743901E-06	282198.3125	0.000124558311654255
2	514	118.519794700766	1.43142700195313	1.43096923828125	5.0537109375E-06	7.23170478522661E-06	283152.15625	0.00012507002975326
2	515	118.620502700512	1.42135620117188	1.42120361328125	5.0048828125E-06	7.11295706423698E-06	283963.4375	0.000125576523714699
2	516	118.721210700258	1.41128540039063	1.41143798828125	4.9591064453125E-06	6.9994707700971E-06	284615.40625	0.000126078244647942
2	517	118.821918700003	1.40121459960938	1.4013671875	4.91546630859375E-06	6.88837280904409E-06	285093.46875	0.000126575469039381
2	518	118.922626699749	1.39114379882813	1.3916015625	4.8736572265625E-06	6.78218884786475E-06	285535.40625	0.000127068400615826
2	519	119.023334699495	1.38107299804688	1.38092041015625	4.83428955078125E-06	6.67576887281029E-06	285651.15625	0.000127557228552178
2	520	119.124042699241	1.37100219726563	1.37115478515625	4.796142578125E-06	6.5762537815317E-06	285887	0.000128042156575248
2	521	119.224750698986	1.36093139648438	1.36077880859375	4.7607421875E-06	6.47831711830804E-06	285833.3125	0.00012852338841185
2	522	119.325458698732	1.35086059570313	1.35040283203125	4.7271728515625E-06	6.38358778815018E-06	285668.1875	0.000129001142340712
2	523	119.426166698478	1.34078979492188	1.34124755859375	4.69635009765625E-06	6.29896794634988E-06	285593.59375	0.000129475651192479
2	524	119.526874698224	1.33071899414063	1.33087158203125	4.66583251953125E-06	6.20962373432121E-06	285237.75	0.000129947075038217
2	525	119.627582697969	1.32064819335938	1.32080078125	4.6368408203125E-06	6.12434314462007E-06	284849.28125	0.000130415501189418
2	526	119.728290697715	1.31057739257813	1.309814453125	4.6087646484375E-06	6.03662601861288E-06	284200.78125	0.000130881060613319
2	527	119.828998697461	1.30050659179688	1.30096435546875	4.58160400390625E-06	5.96050313106389E-06	283953.9375	0.000131343826069497
2	528	119.929706697207	1.29043579101563	1.290283203125	4.5562744140625E-06	5.87888416703208E-06	283188.21875	0.000131803957629018
2	529	120.030414696952	1.28036499023438	1.28082275390625	4.5330810546875E-06	5.80607274969225E-06	282550.1875	0.00013226164446678
2	530	120.131122696698	1.27029418945313	1.27044677734375	4.51080322265625E-06	5.73073521081824E-06	281645.375	0.000132717046653852
2	531	120.231830696444	1.26022338867188	1.2603759765625	4.4903564453125E-06	5.65953723707935E-06	280685.0625	0.000133170280605555
2	532	120.33253869619	1.25015258789063	1.25030517578125	4.4708251953125E-06	5.58989540877519E-06	279658.71875	0.000133621520944871
2	533	120.433246695935	1.24008178710938	1.240234375	4.45068359375E-06	5.51989023733768E-06	278661.5625	0.000134070753119886
2	534	120.533954695681	1.23001098632813	1.2298583984375	4.43145751953125E-06	5.45006514585111E-06	277529.09375	0.00013451800623443
2	535	120.634662695427	1.21994018554688	1.2200927734375	4.41131591796875E-06	5.3822145673621E-06	276582.5	0.000134963265736587
2	536	120.735370695172	1.20986938476563	1.209716796875	4.39208984375E-06	5.31318437424488E-06	275430.8125	0.000135406560730189
2	537	120.836078694918	1.19979858398438	1.19964599609375	4.3731689453125E-06	5.24625465914141E-06	274319.625	0.000135847920319065
2	538	120.936786694664	1.18972778320313	1.18988037109375	4.354248046875E-06	5.18103388458258E-06	273268.875	0.000136287388158962
2	539	121.03749469441	1.17965698242188	1.1798095703125	4.33441162109375E-06	5.11378038936527E-06	272196	0.000136724891490303
2	540	121.138202694155	1.16958618164063	1.16912841796875	4.3121337890625E-06	5.0414378165442E-06	271125.28125	0.000137160284793936
2	541	121.238910693901	1.15951538085938	1.15966796875	4.28741455078125E-06	4.9719769776857E-06	270481.90625	0.000137593306135386
2	542	121.339618693647	1.14944458007813	1.14959716796875	4.25933837890625E-06	4.89652347823721E-06	269900.40625	0.00013802366447635
2	543	121.440326693393	1.13937377929688	1.13922119140625	4.2266845703125E-06	4.81512824990205E-06	269530.71875	0.000138450966915116
2	544	121.541034693138	1.12930297851563	1.12945556640625	4.188232421875E-06	4.73042200610507E-06	269673.59375	0.000138874689582735
2	545	121.641742692884	1.11923217773438	1.11907958984375	4.14215087890625E-06	4.63539663542178E-06	270168.71875	0.000139294163091108
2	546	121.74245069263	1.10916137695313	1.1090087890625	4.08355712890625E-06	4.52870062872535E-06	271579.09375	0.000139708354254253
2	547	121.843158692376	1.09909057617188	1.0992431640625	4.00665283203125E-06	4.40428584624897E-06	274354.46875	0.000140115735121071
2	548	121.943866692121	1.08901977539063	1.08917236328125	3.9044189453125E-06	4.2525853132247E-06	278958.875	0.000140514093800448
2	549	122.044574691867	1.07894897460938	1.07940673828125	3.76861572265625E-06	4.06786921303137E-06	286419.96875	0.000140900461701676
2	550	122.145282691613	1.06887817382813	1.0687255859375	3.58795166015625E-06	3.83453561880742E-06	297865.09375	0.00014127089525573
2	551	122.245990691359	1.05880737304688	1.05865478515625	3.35296630859375E-06	3.54963367499295E-06	315736.78125	0.000141620388603769
2	552	122.346698691104	1.04873657226563	1.04888916015625	3.05328369140625E-06	3.20255594488117E-06	343528.25	0.000141942975460552
2	553	122.44740669085	1.03866577148438	1.038818359375	2.68768310546875E-06	2.79201458397438E-06	386510.75	0.000142232049256563
2	554	122.548114690596	1.02859497070313	1.02874755859375	2.2564697265625E-06	2.32133766076004E-06	455910.1875	0.00014248100342229
2	555	122.648822690341	1.01852416992188	1.01837158203125	1.773681640625E-06	1.80626693691011E-06	574156.9375	0.000142683944432065
2	556	122.749530690087	1.00845336914063	1.00860595703125	1.25823974609375E-06	1.2690680932792E-06	801600.75	0.000142836608574726
2	557	122.850238689833	0.998382568359375	0.99884033203125	7.40661621093749E-07	7.39802715088445E-07	1348578.5	0.00014293726417236
2	558	122.950946689579	0.988311767578125	0.98876953125	2.5146484375E-07	2.48640759537011E-07	3932039	0.000142987220897339
2	559	123.051654689324	0.978240966796875	0.9783935546875	-1.7364501953125E-07	-1.69893169754687E-07	-5634446.5	0.000142991135362536
2	560	123.15236268907	0.968170166015625	0.968017578125	-5.05981445312501E-07	-4.89798878788861E-07	-1913148.5	0.000142956923809834
2	561	123.253070688816	0.958099365234375	0.9576416015625	-7.24182128906251E-07	-6.93506876814354E-07	-1322376.875	0.000142894976306707
2	562	123.353778688562	0.948028564453125	0.94757080078125	-8.258056640625E-07	-7.82509346208826E-07	-1147450.125	0.000142816934385337
2	563	123.454486688307	0.937957763671875	0.93780517578125	-8.2550048828125E-07	-7.74158593230823E-07	-1136044.375	0.000142733784741722
2	564	123.555194688053	0.927886962890625	0.927734375	-7.525634765625E-07	-6.98178951097361E-07	-1232765.625	0.00014265431673266
2	565	123.655902687799	0.917816162109375	0.91766357421875	-6.40258789062501E-07	-5.87542103858141E-07	-1433269.875	0.000142584176501259
2	566	123.756610687545	0.907745361328125	0.90789794921875	-5.2154541015625E-07	-4.73510027632074E-07	-1740784.125	0.000142525677802041
2	567	123.85731868729	0.897674560546875	0.897216796875	-4.2388916015625E-07	-3.80320472004314E-07	-2116630.75	0.000142478078487329
2	568	123.958026687036	0.887603759765625	0.88775634765625	-3.65295410156249E-07	-3.24293296216638E-07	-2430242.5	0.000142438337206841
2	569	124.058734686782	0.877532958984375	0.87738037109375	-3.60717773437499E-07	-3.16486676865679E-07	-2432318.25	0.000142401782795787
2	570	124.159442686528	0.867462158203125	0.86761474609375	-4.17175292968749E-07	-3.61947428473286E-07	-2079736.75	0.000142362609039992
2	571	124.260150686273	0.857391357421875	0.85723876953125	-5.340576171875E-07	-4.57814905985288E-07	-1605142.875	0.00014231470413506
2	572	124.360858686019	0.847320556640625	0.84747314453125	-7.0037841796875E-07	-5.935518743172E-07	-1210021.875	0.00014225255290512
2	573	124.461566685765	0.837249755859375	0.83770751953125	-8.96301269531249E-07	-7.50838296426082E-07	-934627.1875	0.000142172153573483
2	574	124.56227468551	0.827178955078125	0.82672119140625	-1.09710693359375E-06	-9.07001492578274E-07	-753546.625	0.000142071774462238
2	575	124.662982685256	0.817108154296875	0.8172607421875	-1.27838134765625E-06	-1.04477089735155E-06	-639293.375	0.000141952157719061
2	576	124.763690685002	0.807037353515625	0.806884765625	-1.4154052734375E-06	-1.1420688679209E-06	-570073.3125	0.000141816519317217
2	577	124.864398684748	0.796966552734375	0.7977294921875	-1.4996337890625E-06	-1.19630203698762E-06	-531949.5625	0.000141669734148309
2	578	124.965106684493	0.786895751953125	0.78704833984375	-1.52679443359375E-06	-1.20166100714414E-06	-515490.6875	0.000141517346492037
2	579	125.065814684239	0.776824951171875	0.77728271484375	-1.507568359375E-06	-1.17180672987161E-06	-515587.0625	0.000141364551382139
2	580	125.166522683985	0.766754150390625	0.76690673828125	-1.45721435546875E-06	-1.11754752651905E-06	-526282.75	0.000141215263283812
2	581	125.267230683731	0.756683349609375	0.7574462890625	-1.39312744140625E-06	-1.05521917248552E-06	-543702.125	0.000141071737743914
2	582	125.367938683476	0.746612548828125	0.74652099609375	-1.33148193359375E-06	-9.93979256236344E-07	-560669.25	0.000140934542287141
2	583	125.468646683222	0.736541748046875	0.7364501953125	-1.2847900390625E-06	-9.46183831729286E-07	-573206.6875	0.000140802803798579
2	584	125.569354682968	0.726470947265625	0.72637939453125	-1.26678466796875E-06	-9.20166201012762E-07	-573404.0625	0.000140674310387112
2	585	125.670062682714	0.716400146484375	0.71630859375	-1.285400390625E-06	-9.20743332244456E-07	-557265	0.00014054580242373
2	586	125.770770682459	0.706329345703125	0.706268310546875	-1.34765625E-06	-9.51806839566416E-07	-524071.59375	0.000140413219924085
2	587	125.871478682205	0.696258544921875	0.696197509765625	-1.456298828125E-06	-1.01387161066668E-06	-478059.5	0.000140272022690624
2	588	125.972186681951	0.686187744140625	0.6861572265625	-1.60491943359375E-06	-1.10122698515625E-06	-427533.78125	0.000140117888804525
2	589	126.072894681697	0.676116943359375	0.676055908203125	-1.78497314453125E-06	-1.20674155823508E-06	-378748.53125	0.000139947194838896
2	590	126.173602681442	0.666046142578125	0.665985107421875	-1.978759765625E-06	-1.31782451262552E-06	-336566.9375	0.000139757670694962
2	591	126.274310681188	0.655975341796875	0.65594482421875	-2.16339111328125E-06	-1.41906514272705E-06	-303202.15625	0.000139549098093994
2	592	126.375018680934	0.645904541015625	0.6458740234375	-2.3150634765625E-06	-1.49523941672669E-06	-278987.59375	0.0001393235870637
2	593	126.475726680679	0.635833740234375	0.635772705078125	-2.41607666015625E-06	-1.53607550146262E-06	-263142.625	0.000139085357659496
2	594	126.576434680425	0.625762939453125	0.625732421875	-2.457275390625E-06	-1.53759685872501E-06	-254644.8125	0.000138839968713
2	595	126.677142680171	0.615692138671875	0.615692138671875	-2.4407958984375E-06	-1.50277890043071E-06	-252250.5625	0.000138593328301795
2	596	126.777850679917	0.605621337890625	0.6055908203125	-2.37762451171875E-06	-1.43986756029335E-06	-254704.15625	0.000138350704219192
2	597	126.878558679662	0.595550537109375	0.59552001953125	-2.2833251953125E-06	-1.35976586079778E-06	-260812.625	0.000138115996378474
2	598	126.979266679408	0.585479736328125	0.585418701171875	-2.17193603515625E-06	-1.27149189665943E-06	-269537.75	0.000137891664053313
2	599	127.079974679154	0.575408935546875	0.575408935546875	-2.05322265625E-06	-1.18144271255005E-06	-280246.71875	0.000137678915052675
2	600	127.1806826789	0.565338134765625	0.5653076171875	-1.9366455078125E-06	-1.09480049559352E-06	-291900.40625	0.000137477996759117
2	601	127.281390678645	0.555267333984375	0.555267333984375	-1.8267822265625E-06	-1.01435250599025E-06	-303959.25	0.000137288501719013
2	602	127.382098678391	0.545196533203125	0.545166015625	-1.72393798828125E-06	-9.39832432322874E-07	-316232.96875	0.000137109702336602
2	603	127.482806678137	0.535125732421875	0.535064697265625	-1.630859375E-06	-8.72615203206806E-07	-328087.59375	0.000136940783704631
2	604	127.583514677883	0.525054931640625	0.52508544921875	-1.5460205078125E-06	-8.11792858712579E-07	-339636.8125	0.000136780814500526
2	605	127.684222677628	0.514984130859375	0.5150146484375	-1.4691162109375E-06	-7.56616373109864E-07	-350560.875	0.000136628979817033
2	606	127.784930677374	0.504913330078125	0.5048828125	-1.3983154296875E-06	-7.05985371496354E-07	-361065.0625	0.000136484595714137
2	607	127.88563867712	0.494842529296875	0.49481201171875	-1.33544921875E-06	-6.60796274587483E-07	-370521.03125	0.000136346949147992
2	608	127.986346676866	0.484771728515625	0.484710693359375	-1.27838134765625E-06	-6.19645106780808E-07	-379159.71875	0.000136215327074751
2	609	128.087054676611	0.474700927734375	0.4747314453125	-1.22711181640625E-06	-5.82548523198057E-07	-386868.96875	0.000136089161969721
2	610	128.187762676357	0.464630126953125	0.464599609375	-1.18072509765625E-06	-5.48564457858447E-07	-393486.6875	0.000135967915412039
2	611	128.288470676103	0.454559326171875	0.454559326171875	-1.1383056640625E-06	-5.174274519959E-07	-399329.78125	0.000135851150844246
2	612	128.389178675848	0.444488525390625	0.444488525390625	-1.09893798828125E-06	-4.88465332182386E-07	-404470.96875	0.000135738489916548
2	613	128.489886675594	0.434417724609375	0.4344482421875	-1.06231689453125E-06	-4.6152169375091E-07	-408962.9375	0.00013562967069447
2	614	128.59059467534	0.424346923828125	0.424346923828125	-1.02874755859375E-06	-4.36545860793558E-07	-412488.875	0.000135524373035878
2	615	128.691302675086	0.414276123046875	0.41424560546875	-9.9700927734375E-07	-4.13006688404494E-07	-415488.21875	0.000135422364110127
2	616	128.792010674831	0.404205322265625	0.404205322265625	-9.686279296875E-07	-3.91524537235455E-07	-417296.8125	0.000135323396534659
2	617	128.892718674577	0.394134521484375	0.394195556640625	-9.429931640625E-07	-3.71723700709481E-07	-418025.90625	0.000135227135615423
2	618	128.993426674323	0.384063720703125	0.384063720703125	-9.1827392578125E-07	-3.526756984229E-07	-418245.28125	0.000135133406729437
2	619	129.094134674069	0.373992919921875	0.373992919921875	-8.9447021484375E-07	-3.34525509515515E-07	-418116.6875	0.000135042137117125
2	620	129.194842673814	0.363922119140625	0.363861083984375	-8.72192382812501E-07	-3.1735686434331E-07	-417179.875	0.000134953166707419
2	621	129.29555067356	0.353851318359375	0.353851318359375	-8.502197265625E-07	-3.00851354495535E-07	-416188.09375	0.000134866437292658
2	622	129.396258673306	0.343780517578125	0.343780517578125	-8.29467773437501E-07	-2.85154840184987E-07	-414459.1875	0.000134781861561351
2	623	129.496966673052	0.333709716796875	0.333709716796875	-8.09631347656251E-07	-2.70181828909699E-07	-412174.90625	0.000134699323098175
2	624	129.597674672797	0.323638916015625	0.32366943359375	-7.916259765625E-07	-2.56225121120224E-07	-408866.625	0.00013461870548781
2	625	129.698382672543	0.313568115234375	0.313568115234375	-7.7484130859375E-07	-2.42965512597948E-07	-404686.90625	0.000134539819555357
2	626	129.799090672289	0.303497314453125	0.303558349609375	-7.59277343750001E-07	-2.30484971552869E-07	-399799.03125	0.000134462577989325
2	627	129.899798672035	0.293426513671875	0.293426513671875	-7.4462890625E-07	-2.18493866555036E-07	-394057.375	0.000134386849822477
2	628	130.00050667178	0.283355712890625	0.283416748046875	-7.29980468749999E-07	-2.06888685738704E-07	-388252.5	0.000134312591399066
2	629	130.101214671526	0.273284912109375	0.27325439453125	-7.1624755859375E-07	-1.95717788642469E-07	-381508.3125	0.000134239773615263
2	630	130.201922671272	0.263214111328125	0.263214111328125	-7.04040527343749E-07	-1.85313396627862E-07	-373862.15625	0.000134168250951916
2	631	130.302630671017	0.253143310546875	0.25311279296875	-6.93359374999999E-07	-1.75498129806329E-07	-365052.8125	0.000134097892441787
2	632	130.403338670763	0.243072509765625	0.243072509765625	-6.8389892578125E-07	-1.66237029475269E-07	-355421.6875	0.000134028538013808
2	633	130.504046670509	0.233001708984375	0.232940673828125	-6.7596435546875E-07	-1.57459581373587E-07	-344605	0.000133960056700744
2	634	130.604754670255	0.222930908203125	0.2230224609375	-6.6864013671875E-07	-1.49121760273374E-07	-333546.34375	0.000133892361191101
2	635	130.70546267	0.212860107421875	0.212921142578125	-6.6192626953125E-07	-1.40938098525112E-07	-321668.96875	0.000133825349621475
2	636	130.806170669746	0.202789306640625	0.202880859375	-6.55517578125001E-07	-1.32991971213414E-07	-309497.21875	0.000133759021991864
2	637	130.906878669492	0.192718505859375	0.1927490234375	-6.50634765624999E-07	-1.25409215456784E-07	-296247.65625	0.000133693247335032
2	638	131.007586669238	0.182647705078125	0.182708740234375	-6.47583007812499E-07	-1.18319064768002E-07	-282139.5	0.000133627880131826
2	639	131.108294668983	0.172576904296875	0.17266845703125	-6.45751953125E-07	-1.1150098799817E-07	-267391.3125	0.000133562745759264
2	640	131.209002668729	0.162506103515625	0.16253662109375	-6.4727783203125E-07	-1.05206353850917E-07	-251107.96875	0.000133497640490532
2	641	131.309710668475	0.152435302734375	0.1524658203125	-6.4971923828125E-07	-9.90599673400538E-08	-234664.171875	0.000133432331494987
2	642	131.410418668221	0.142364501953125	0.142425537109375	-6.55212402343749E-07	-9.33189738816509E-08	-217373.09375	0.000133366629597731
2	643	131.511126667966	0.132293701171875	0.132354736328125	-6.6375732421875E-07	-8.78514256896779E-08	-199402.296875	0.000133300214656629
2	644	131.611834667712	0.122222900390625	0.12225341796875	-6.76879882812501E-07	-8.27508799261523E-08	-180613.15625	0.000133232708321884
2	645	131.712542667458	0.112152099609375	0.112152099609375	-6.9580078125E-07	-7.80355122742549E-08	-161184.21875	0.00013316358672455
2	646	131.813250667204	0.102081298828125	0.1021728515625	-7.2296142578125E-07	-7.386702804979E-08	-141325.453125	0.000133092136820778
2	647	131.913958666949	0.092010498046875	0.092041015625	-7.6141357421875E-07	-7.00812776699422E-08	-120881.765625	0.000133017398184165
2	648	132.014666666695	0.081939697265625	0.082000732421875	-8.14208984375001E-07	-6.67657360509111E-08	-100712.140625	0.00013293806114234
2	649	132.115374666441	0.071868896484375	0.071868896484375	-8.837890625E-07	-6.35169428164772E-08	-81319.0625	0.000132852554088458
2	650	132.216082666186	0.061798095703125	0.061859130859375	-9.7381591796875E-07	-6.02394010229546E-08	-63522.41015625	0.00013275901437737
2	651	132.316790665932	0.051727294921875	0.051788330078125	-1.0888671875E-06	-5.63906112915902E-08	-47561.66015625	0.000132655157358386
2	652	132.417498665678	0.041656494140625	0.0417510986328125	-1.2310791015625E-06	-5.13989029116146E-08	-33914.23046875	0.000132538334582932
2	653	132.518206665424	0.031585693359375	0.0316680908203125	-1.40228271484375E-06	-4.44076135863725E-08	-22583.2421875	0.000132405737531371
2	654	132.618914665169	0.021514892578125	0.0215850830078125	-1.5960693359375E-06	-3.44512862682222E-08	-13523.900390625	0.000132254761410877
2	655	132.719622664915	0.011444091796875	0.0115478515625	-1.80145263671875E-06	-2.0802907840789E-08	-6410.2998046875	0.000132083674543537
2	656	132.820330664661	0.001373291015625	0.00148925781250001	-2.00042724609375E-06	-2.97915181413089E-09	-744.469848632813	0.000131892244098708
2	657	132.921038664407	-0.008697509765625	-0.0085906982421875	-2.1728515625E-06	1.86663111634289E-08	3953.65185546875	0.000131682099890895
2	658	133.021746664152	-0.018768310546875	-0.018670654296875	-2.30377197265625E-06	4.30129283301994E-08	8104.384765625	0.000131456690724008
2	659	133.122454663898	-0.028839111328125	-0.02869873046875	-2.384033203125E-06	6.84187284605287E-08	12037.890625	0.000131220629555173
2	660	133.223162663644	-0.038909912109375	-0.038800048828125	-2.41455078125E-06	9.36846831223193E-08	16069.2626953125	0.000130979009554721
2	661	133.32387066339	-0.048980712890625	-0.048828125	-2.4041748046875E-06	1.1739133753963E-07	20309.724609375	0.000130736370920204
2	662	133.424578663135	-0.059051513671875	-0.0589599609375	-2.3663330078125E-06	1.39518888886414E-07	24916.173828125	0.000130496147903614
2	663	133.525286662881	-0.069122314453125	-0.06903076171875	-2.31109619140625E-06	1.59536725163889E-07	29869.2734375	0.000130260625155643
2	664	133.625994662627	-0.079193115234375	-0.079132080078125	-2.24945068359375E-06	1.78003702444585E-07	35178.40625	0.000130030981381424
2	665	133.726702662373	-0.089263916015625	-0.08917236328125	-2.18536376953125E-06	1.94874047565463E-07	40804.359375	0.000129807667690329
2	666	133.827410662118	-0.099334716796875	-0.099273681640625	-2.12432861328125E-06	2.10889922414026E-07	46731.79296875	0.000129590654978529
2	667	133.928118661864	-0.109405517578125	-0.1092529296875	-2.0672607421875E-06	2.25854293489647E-07	52849.12890625	0.000129379594000056
2	668	134.02882666161	-0.119476318359375	-0.11932373046875	-2.01629638671875E-06	2.40591987221705E-07	59179.66015625	0.00012917397543788
2	669	134.129534661355	-0.129547119140625	-0.12945556640625	-1.97174072265625E-06	2.552527860189E-07	65655.4765625	0.000128973159007728
2	670	134.230242661101	-0.139617919921875	-0.139404296875	-1.9342041015625E-06	2.69636331040601E-07	72073.2109375	0.000128776475321501
2	671	134.330950660847	-0.149688720703125	-0.14959716796875	-1.90216064453125E-06	2.84557842178401E-07	78645.9140625	0.000128583298646845
2	672	134.431658660593	-0.159759521484375	-0.15966796875	-1.87652587890625E-06	2.99621063959421E-07	85087.0078125	0.000128393032355234
2	673	134.532366660338	-0.169830322265625	-0.169647216796875	-1.85516357421875E-06	3.14723337169198E-07	91445.9609375	0.00012820512347389
2	674	134.633074660084	-0.179901123046875	-0.17974853515625	-1.83868408203125E-06	3.30500768086495E-07	97759.3359375	0.000128019120893441
2	675	134.73378265983	-0.189971923828125	-0.189849853515625	-1.8280029296875E-06	3.47046068327472E-07	103856.4296875	0.000127834486193024
2	676	134.834490659576	-0.200042724609375	-0.199951171875	-1.822509765625E-06	3.64412954922955E-07	109711.9921875	0.000127650680951774
2	677	134.935198659321	-0.189971923828125	-0.189788818359375	-1.59576416015625E-06	3.02858182976706E-07	118932.875	0.000127478546346538
