Potential - Start -0.2 V, Upper Vertex 1.5 V, Lower Vertex -0.2 V, Stop -0.19 V; Scan - # end cross 5, Rate 0.1 Vps, Step 0.01 V 
Scan	Index	Time (s)	Potential applied (V)	WE(1).Potential (V)	WE(1).Current (A)	WE(1).Power (W)	WE(1).Resistance (Ω)	WE(1).Charge (C)
1	1	66.4345828322688	-0.189971923828125	-0.1898193359375	-2.08435058593751E-07	3.95650019413551E-08	910688.1875	0
1	2	66.5352908320145	-0.179901123046875	-0.179779052734375	-1.76391601562501E-07	3.17115151915459E-08	1019204.1875	-1.93775608892111E-08
1	3	66.6359988317603	-0.169830322265625	-0.169677734375	-1.5106201171875E-07	2.56318593017113E-08	1123232.375	-3.58661615962319E-08
1	4	66.736706831506	-0.159759521484375	-0.159637451171875	-1.29089355468751E-07	2.06074961539571E-08	1236643	-4.9972900484363E-08
1	5	66.8374148312517	-0.149688720703125	-0.14959716796875	-1.08947753906249E-07	1.62982747298202E-08	1373109.25	-6.19590210249044E-08
1	6	66.9381228309975	-0.139617919921875	-0.139556884765625	-9.06372070312494E-08	1.26490462548645E-08	1539730.625	-7.20089232686405E-08
1	7	67.0388308307432	-0.129547119140625	-0.129486083984375	-7.29370117187503E-08	9.44432798632988E-09	1775313.75	-8.02455417669989E-08
1	8	67.139538830489	-0.119476318359375	-0.119354248046875	-5.52368164062497E-08	6.5927485692896E-09	2160773.5	-8.66996074933013E-08
1	9	67.2402468302347	-0.109405517578125	-0.109283447265625	-3.69262695312497E-08	4.03543021221253E-09	2959504	-9.13403823687986E-08
1	10	67.3409548299804	-0.099334716796875	-0.0992431640625	-1.70898437499997E-08	1.69605007815932E-09	5807143.5	-9.40603115395788E-08
1	11	67.4416628297262	-0.089263916015625	-0.089202880859375	6.103515625E-09	-5.44451150830128E-10	-14615000	-9.46135187973596E-08
1	12	67.5423708294719	-0.079193115234375	-0.079132080078125	3.32641601562503E-08	-2.63226196395294E-09	-2378899.25	-9.26311969351445E-08
1	13	67.6430788292176	-0.069122314453125	-0.069061279296875	6.7138671875E-08	-4.63668259342853E-09	-1028636.375	-8.75755148399548E-08
1	14	67.7437868289634	-0.059051513671875	-0.05902099609375	1.11083984375E-07	-6.55628751289328E-09	-531318.6875	-7.86012890330312E-08
1	15	67.8444948287091	-0.048980712890625	-0.048858642578125	1.690673828125E-07	-8.26040214008117E-09	-288989.1875	-6.44945501449001E-08
1	16	67.9452028284549	-0.038909912109375	-0.038751220703125	2.4688720703125E-07	-9.5671808253428E-09	-156959.21875	-4.35495728368096E-08
1	17	68.0459108282006	-0.028839111328125	-0.02869873046875	3.50341796875001E-07	-1.00543653402951E-08	-81916.3828125	-1.34767033088679E-08
1	18	68.1466188279463	-0.018768310546875	-0.01864013671875	4.8675537109375E-07	-9.07318664644663E-09	-38294.671875	2.86744867850075E-08
1	19	68.2473268276921	-0.008697509765625	-0.0085723876953125	6.610107421875E-07	-5.66644020594254E-09	-12968.60546875	8.64691003243934E-08
1	20	68.3480348274378	0.001373291015625	0.00147705078125	8.740234375E-07	1.29097710299675E-09	1689.94421386719	1.63764212857131E-07
1	21	68.4487428271835	0.011444091796875	0.01153564453125	1.11846923828125E-06	1.29022632577858E-08	10313.779296875	2.64094182966801E-07
1	22	68.5494508269293	0.021514892578125	0.02164306640625	1.378173828125E-06	2.982790903161E-08	15704.1630859375	3.89810139722613E-07
1	23	68.650158826675	0.031585693359375	0.031671142578125	1.629638671875E-06	5.16125204796936E-08	19434.458984375	5.41265535503044E-07
1	24	68.7508668264207	0.041656494140625	0.041754150390625	1.84844970703125E-06	7.71804451460412E-08	22588.740234375	7.16401189038152E-07
1	25	68.8515748261665	0.051727294921875	0.0517578125	2.01202392578125E-06	1.04137960477146E-07	25724.251953125	9.107914706874E-07
1	26	68.9522828259122	0.061798095703125	0.0618896484375	2.11151123046875E-06	1.3068067516997E-07	29310.595703125	1.11842791739036E-06
1	27	69.052990825658	0.071868896484375	0.071929931640625	2.14813232421875E-06	1.54515007011469E-07	33484.87109375	1.33291803194879E-06
1	28	69.1536988254037	0.081939697265625	0.08203125	2.13592529296875E-06	1.75212619524245E-07	38405.484375	1.54863744228351E-06
1	29	69.2544068251494	0.092010498046875	0.092041015625	2.0892333984375E-06	1.92295146916877E-07	44054.92578125	1.76139110408258E-06
1	30	69.3551148248952	0.102081298828125	0.102142333984375	2.0220947265625E-06	2.06541457714593E-07	50513.1328125	1.96841301658424E-06
1	31	69.4558228246409	0.112152099609375	0.112213134765625	1.94671630859375E-06	2.18447141264733E-07	57642.26171875	2.16825833376788E-06
1	32	69.5565308243866	0.122222900390625	0.122283935546875	1.8701171875E-06	2.28685280490026E-07	65388.3828125	2.36045116253081E-06
1	33	69.6572388241324	0.132293701171875	0.132354736328125	1.79595947265625E-06	2.37703730476824E-07	73695.8359375	2.54505289376539E-06
1	34	69.7579468238781	0.142364501953125	0.142425537109375	1.72760009765625E-06	2.46054355557135E-07	82441.265625	2.72247825705563E-06
1	35	69.8586548236239	0.152435302734375	0.15252685546875	1.66534423828125E-06	2.54009705713543E-07	91588.7890625	2.89332660941E-06
1	36	69.9593628233696	0.162506103515625	0.16253662109375	1.60888671875E-06	2.6150300413974E-07	101024.28125	3.05819708046329E-06
1	37	70.0600708231153	0.172576904296875	0.172576904296875	1.55914306640625E-06	2.6907207484328E-07	110687.0234375	3.2177201774175E-06
1	38	70.1607788228611	0.182647705078125	0.18267822265625	1.51397705078125E-06	2.76570631285722E-07	120661.15625	3.37246387971391E-06
1	39	70.2614868226068	0.192718505859375	0.192779541015625	1.474609375E-06	2.84274506157089E-07	130732.6171875	3.52295137417968E-06
1	40	70.3621948223525	0.202789306640625	0.202850341796875	1.4385986328125E-06	2.91820214215477E-07	141005.515625	3.66964286513394E-06
1	41	70.4629028220983	0.212860107421875	0.212890625	1.40655517578125E-06	2.99442405093941E-07	151356.046875	3.81290783479926E-06
1	42	70.563610821844	0.222930908203125	0.222991943359375	1.3775634765625E-06	3.07185530346032E-07	161874.171875	3.95309916711994E-06
1	43	70.6643188215897	0.233001708984375	0.233062744140625	1.3519287109375E-06	3.15084207613836E-07	172392.78125	4.09054018746247E-06
1	44	70.7650268213355	0.243072509765625	0.243072509765625	1.32843017578125E-06	3.22904838867544E-07	182977.265625	4.22550692746881E-06
1	45	70.8657348210812	0.253143310546875	0.25311279296875	1.30706787109375E-06	3.30835575823585E-07	193649.328125	4.35821493738331E-06
1	46	70.966442820827	0.263214111328125	0.263153076171875	1.287841796875E-06	3.38899525331726E-07	204336.5	4.48887885795557E-06
1	47	71.0671508205727	0.273284912109375	0.273284912109375	1.2701416015625E-06	3.4711052876446E-07	215161	4.61768377135741E-06
1	48	71.1678588203184	0.283355712890625	0.283416748046875	1.253662109375E-06	3.55308827693079E-07	226071.09375	4.74476701128879E-06
1	49	71.2685668200642	0.293426513671875	0.293365478515625	1.239013671875E-06	3.63483820819965E-07	236773.40625	4.87028319184901E-06
1	50	71.3692748198099	0.303497314453125	0.30352783203125	1.22528076171875E-06	3.71906793361632E-07	247721.0625	4.99437055623275E-06
1	51	71.4699828195556	0.313568115234375	0.3135986328125	1.21307373046875E-06	3.80418242684755E-07	258515.734375	5.1171514314774E-06
1	52	71.5706908193014	0.323638916015625	0.3236083984375	1.20208740234375E-06	3.89005549550347E-07	269205.40625	5.23876451552496E-06
1	53	71.6713988190471	0.333709716796875	0.333740234375	1.19232177734375E-06	3.97925731476789E-07	279907.875	5.35933259016019E-06
1	54	71.7721068187928	0.343780517578125	0.34381103515625	1.18316650390625E-06	4.06785687800948E-07	290585.53125	5.47894796909532E-06
1	55	71.8728148185386	0.353851318359375	0.3538818359375	1.1749267578125E-06	4.15785223140119E-07	301194.8125	5.59768704988528E-06
1	56	71.9735228182843	0.363922119140625	0.363922119140625	1.1676025390625E-06	4.24916379415663E-07	311683.25	5.71564305573702E-06
1	57	72.0742308180301	0.373992919921875	0.373931884765625	1.16119384765625E-06	4.34207407806753E-07	322023.65625	5.83290693612071E-06
1	58	72.1749388177758	0.384063720703125	0.384063720703125	1.15570068359375E-06	4.43862660404193E-07	332321.125	5.94957191424328E-06
1	59	72.2756468175215	0.394134521484375	0.39422607421875	1.151123046875E-06	4.53802698530126E-07	342470.84375	6.06572984906961E-06
1	60	72.3763548172673	0.404205322265625	0.404205322265625	1.1468505859375E-06	4.63563083030749E-07	352448.125	6.18144213149208E-06
1	61	72.477062817013	0.414276123046875	0.414215087890625	1.14410400390625E-06	4.73905117814866E-07	362043.21875	6.29680062047555E-06
1	62	72.5777708167587	0.424346923828125	0.424346923828125	1.141357421875E-06	4.84331508232572E-07	371791.4375	6.41188262306969E-06
1	63	72.6784788165045	0.434417724609375	0.4344482421875	1.13861083984375E-06	4.9466746077087E-07	381559.90625	6.52668813927448E-06
1	64	72.7791868162502	0.444488525390625	0.44451904296875	1.1370849609375E-06	5.05455886923301E-07	390928.625	6.64127855998231E-06
1	65	72.879894815996	0.454559326171875	0.454559326171875	1.1358642578125E-06	5.16317641086061E-07	400188.09375	6.75573073749547E-06
1	66	72.9806028157417	0.464630126953125	0.464630126953125	1.13555908203125E-06	5.27614929524134E-07	409164.21875	6.87010606270633E-06
1	67	73.0813108154874	0.474700927734375	0.4747314453125	1.1358642578125E-06	5.39230427420989E-07	417947.375	6.98448138791719E-06
1	68	73.1820188152332	0.484771728515625	0.4847412109375	1.136474609375E-06	5.5089606121328E-07	426530.625	7.09890264261048E-06
1	69	73.2827268149789	0.494842529296875	0.494781494140625	1.13739013671875E-06	5.62759566946625E-07	435014.78125	7.21340074960608E-06
1	70	73.3834348147246	0.504913330078125	0.50494384765625	1.13922119140625E-06	5.75242722788971E-07	443236.03125	7.32803709979635E-06
1	71	73.4841428144704	0.514984130859375	0.514984130859375	1.142578125E-06	5.88409591273376E-07	450721.1875	7.44293492971337E-06
1	72	73.5848508142161	0.525054931640625	0.5250244140625	1.14593505859375E-06	6.01643876052549E-07	458162.46875	7.55817063691211E-06
1	73	73.6855588139618	0.535125732421875	0.535125732421875	1.1505126953125E-06	6.15668909631495E-07	465119.40625	7.67380606703227E-06
1	74	73.7862668137076	0.545196533203125	0.545135498046875	1.1553955078125E-06	6.29847079380852E-07	471817.25	7.78991761762882E-06
1	75	73.8869748134533	0.555267333984375	0.555267333984375	1.16180419921875E-06	6.45111924768571E-07	477935.375	7.90659851190867E-06
1	76	73.9876828131991	0.565338134765625	0.56536865234375	1.17034912109375E-06	6.61678654978459E-07	483076.96875	8.02403155830689E-06
1	77	74.0883908129448	0.575408935546875	0.575408935546875	1.1810302734375E-06	6.79575350659434E-07	487209.3125	8.14243230706779E-06
1	78	74.1890988126905	0.585479736328125	0.585479736328125	1.1944580078125E-06	6.99330882980576E-07	490163.5625	8.26204814075027E-06
1	79	74.2898068124363	0.595550537109375	0.59552001953125	1.212158203125E-06	7.21864466868283E-07	491289.03125	8.3832310338039E-06
1	80	74.390514812182	0.605621337890625	0.605621337890625	1.2353515625E-06	7.48155230212433E-07	490242.09375	8.50647302286234E-06
1	81	74.4912228119277	0.615692138671875	0.615631103515625	1.26678466796875E-06	7.79871982103941E-07	485979.3125	8.63246532389894E-06
1	82	74.5919308116735	0.625762939453125	0.625762939453125	1.30950927734375E-06	8.19442334432097E-07	477860.65625	8.76219201018102E-06
1	83	74.6926388114192	0.635833740234375	0.635772705078125	1.36749267578125E-06	8.69414463977591E-07	464918.5625	8.89699003892019E-06
1	84	74.793346811165	0.645904541015625	0.645904541015625	1.444091796875E-06	9.32745365389565E-07	447273.90625	9.03856380318757E-06
1	85	74.8940548109107	0.655975341796875	0.655975341796875	1.54266357421875E-06	1.01194927992765E-06	425222.5625	9.18895966606215E-06
1	86	74.9947628106564	0.666046142578125	0.665985107421875	1.66015625E-06	1.10563928501506E-06	401158.125	9.35023399506463E-06
1	87	75.0954708104022	0.676116943359375	0.676055908203125	1.78955078125E-06	1.20983634133154E-06	377779.6875	9.52394020714564E-06
1	88	75.1961788101479	0.686187744140625	0.686126708984375	1.92047119140625E-06	1.31768649680453E-06	357270	9.71075496636331E-06
1	89	75.2968868098936	0.696258544921875	0.696258544921875	2.04010009765625E-06	1.42043711548467E-06	341286.46875	9.91018532658927E-06
1	90	75.3975948096394	0.706329345703125	0.70623779296875	2.13531494140625E-06	1.50803998621996E-06	330741.75	1.01204341262928E-05
1	91	75.4983028093851	0.716400146484375	0.71630859375	2.1978759765625E-06	1.57435749770229E-06	325909.46875	1.03386282717111E-05
1	92	75.5990108091308	0.726470947265625	0.726409912109375	2.22869873046875E-06	1.61894877237501E-06	325934.5625	1.05615235952428E-05
1	93	75.6997188088766	0.736541748046875	0.736480712890625	2.2320556640625E-06	1.64386585765897E-06	329956.28125	1.07861405922449E-05
1	94	75.8004268086223	0.746612548828125	0.746551513671875	2.21588134765625E-06	1.65426956755255E-06	336909.53125	1.10101118480088E-05
1	95	75.9011348083681	0.756683349609375	0.75714111328125	2.1875E-06	1.65624624060001E-06	346121.65625	1.12318393803434E-05
1	96	76.0018428081138	0.766754150390625	0.76629638671875	2.15423583984375E-06	1.6507830196133E-06	355716.125	1.14504637167556E-05
1	97	76.1025508078595	0.776824951171875	0.7769775390625	2.12127685546875E-06	1.64818436587666E-06	366278.25	1.16657529360964E-05
1	98	76.2032588076053	0.786895751953125	0.78704833984375	2.09014892578125E-06	1.64504820077127E-06	376551.34375	1.18778152682353E-05
1	99	76.303966807351	0.796966552734375	0.79681396484375	2.06512451171875E-06	1.64551988746098E-06	385843.09375	1.20870490718517E-05
1	100	76.4046748070967	0.807037353515625	0.80718994140625	2.04620361328125E-06	1.65167489285523E-06	394481.75	1.22940709843533E-05
1	101	76.5053828068425	0.817108154296875	0.8172607421875	2.03338623046875E-06	1.66180666383298E-06	401921.0625	1.2499494914664E-05
1	102	76.6060908065882	0.827178955078125	0.82733154296875	2.02728271484375E-06	1.67723476351966E-06	408098.78125	1.27039656945271E-05
1	103	76.7067988063339	0.837249755859375	0.8380126953125	2.02667236328125E-06	1.69837710473075E-06	413491.96875	1.2908099051856E-05
1	104	76.8075068060797	0.847320556640625	0.84716796875	2.03155517578125E-06	1.7210684291058E-06	417004.65625	1.31124470499344E-05
1	105	76.9082148058254	0.857391357421875	0.8575439453125	2.037353515625E-06	1.74712010903022E-06	420910.75	1.33173325593816E-05
1	106	77.0089228055712	0.867462158203125	0.86761474609375	2.04376220703125E-06	1.77319816430099E-06	424518.4375	1.35228328872472E-05
1	107	77.1096308053169	0.877532958984375	0.87799072265625	2.04742431640625E-06	1.79761946128565E-06	428826.96875	1.37288407131564E-05
1	108	77.2103388050626	0.887603759765625	0.88775634765625	2.0477294921875E-06	1.81788470854372E-06	433532.0625	1.39350477184053E-05
1	109	77.3110468048084	0.897674560546875	0.897216796875	2.0452880859375E-06	1.83506676876277E-06	438675.03125	1.41411474032793E-05
1	110	77.4117548045541	0.907745361328125	0.908203125	2.041015625E-06	1.85365661309334E-06	444976.09375	1.4346909665619E-05
1	111	77.5124628042998	0.917816162109375	0.91796875	2.03704833984375E-06	1.86994668638363E-06	450636.71875	1.455225628888E-05
1	112	77.6131708040456	0.927886962890625	0.9283447265625	2.03399658203125E-06	1.88824992619629E-06	456414.125	1.47572500281967E-05
1	113	77.7138788037913	0.937957763671875	0.93780517578125	2.034912109375E-06	1.90835112334753E-06	460857.84375	1.49621355376439E-05
1	114	77.8145868035371	0.948028564453125	0.94818115234375	2.04071044921875E-06	1.93496316569508E-06	464632.90625	1.51673593791202E-05
1	115	77.9152948032828	0.958099365234375	0.9576416015625	2.05413818359375E-06	1.96712812794431E-06	466201.1875	1.53735509229591E-05
1	116	78.0160028030285	0.968170166015625	0.96832275390625	2.0770263671875E-06	2.01123179977003E-06	466206.3125	1.5581572370138E-05
1	117	78.1167108027743	0.978240966796875	0.97808837890625	2.110595703125E-06	2.06434901883767E-06	463418.15625	1.57924350787653E-05
1	118	78.21741880252	0.988311767578125	0.98876953125	2.154541015625E-06	2.13034445550875E-06	458923.53125	1.60072031576419E-05
1	119	78.3181268022657	0.998382568359375	0.99884033203125	2.208251953125E-06	2.20569108932978E-06	452321.71875	1.6226886145887E-05
1	120	78.4188348020115	1.00845336914063	1.00860595703125	2.26654052734375E-06	2.28604608309979E-06	444998	1.64522098202724E-05
1	121	78.5195428017572	1.01852416992188	1.0186767578125	2.32513427734375E-06	2.36855998991814E-06	438115.28125	1.66834197443677E-05
1	122	78.6202508015029	1.02859497070313	1.02874755859375	2.3748779296875E-06	2.44314969677362E-06	433179.15625	1.69200829986949E-05
1	123	78.7209588012487	1.03866577148438	1.0382080078125	2.4114990234375E-06	2.5036376882781E-06	430523.90625	1.71610972756753E-05
1	124	78.8216668009944	1.04873657226563	1.04888916015625	2.4310302734375E-06	2.54988117376342E-06	431458.71875	1.74049382621888E-05
1	125	78.9223748007402	1.05880737304688	1.0589599609375	2.4359130859375E-06	2.57953433902003E-06	434728.125	1.76500070665497E-05
1	126	79.0230828004859	1.06887817382813	1.06903076171875	2.42828369140625E-06	2.59590979112545E-06	440241.3125	1.78949394467054E-05
1	127	79.1237908002316	1.07894897460938	1.07879638671875	2.412109375E-06	2.60217484537861E-06	447241.90625	1.81386731128441E-05
1	128	79.2244987999774	1.08901977539063	1.08917236328125	2.391357421875E-06	2.60460046774824E-06	455461.96875	1.8380545952823E-05
1	129	79.3252067997231	1.09909057617188	1.09893798828125	2.369384765625E-06	2.60380693362094E-06	463807.34375	1.86202687473269E-05
1	130	79.4259147994688	1.10916137695313	1.1090087890625	2.34710693359375E-06	2.602962013043E-06	472500.34375	1.88577632798115E-05
1	131	79.5266227992146	1.11923217773438	1.11907958984375	2.32574462890625E-06	2.60269325735862E-06	481170.4375	1.90930604730966E-05
1	132	79.6273307989603	1.12930297851563	1.13006591796875	2.30621337890625E-06	2.60617298408761E-06	490009.3125	1.93262967513874E-05
1	133	79.7280387987061	1.13937377929688	1.13922119140625	2.2894287109375E-06	2.60816568697919E-06	497600.625	1.95577067643171E-05
1	134	79.8287467984518	1.14944458007813	1.14990234375	2.2747802734375E-06	2.61577497440157E-06	505500.4375	1.97875324374763E-05
1	135	79.9294547981975	1.15951538085938	1.15997314453125	2.261962890625E-06	2.6238162718073E-06	512817.0625	2.00159756786888E-05
1	136	80.0301627979433	1.16958618164063	1.16943359375	2.25189208984375E-06	2.63343827100471E-06	519311.5625	2.02432656806195E-05
1	137	80.130870797689	1.17965698242188	1.17919921875	2.24334716796875E-06	2.64535310634528E-06	525642.75	2.04696189030074E-05
1	138	80.2315787974347	1.18972778320313	1.1895751953125	2.236328125E-06	2.66028041551181E-06	531932.3125	2.06951881409623E-05
1	139	80.3322867971805	1.19979858398438	1.20025634765625	2.23114013671875E-06	2.67794007413613E-06	537956.5	2.09201443794882E-05
1	140	80.4329947969262	1.20986938476563	1.21002197265625	2.2271728515625E-06	2.6949280709232E-06	543299.5	2.11446385947056E-05
1	141	80.5337027966719	1.21994018554688	1.2200927734375	2.2247314453125E-06	2.71437875198899E-06	548422.5	2.13688090298092E-05
1	142	80.6344107964177	1.23001098632813	1.2298583984375	2.22412109375E-06	2.73535397354863E-06	552963.75	2.15928266698029E-05
1	143	80.7351187961634	1.24008178710938	1.2396240234375	2.22412109375E-06	2.75707384389534E-06	557354.5625	2.18168133869767E-05
1	144	80.8358267959092	1.25015258789063	1.2506103515625	2.2259521484375E-06	2.78379866358591E-06	561831.625	2.20408928726101E-05
1	145	80.9365347956549	1.26022338867188	1.26068115234375	2.2283935546875E-06	2.80929361906601E-06	565735.4375	2.22651869989932E-05
1	146	81.0372427954006	1.27029418945313	1.27044677734375	2.23236083984375E-06	2.83609574580623E-06	569104.5625	2.24898030865006E-05
1	147	81.1379507951464	1.28036499023438	1.2799072265625	2.236328125E-06	2.86229260382243E-06	572325.3125	2.27148193516769E-05
1	148	81.2386587948921	1.29043579101563	1.29058837890625	2.2418212890625E-06	2.89326840174908E-06	575687.4375	2.29403121920768E-05
1	149	81.3393667946378	1.30050659179688	1.3006591796875	2.2479248046875E-06	2.92378399535664E-06	578604.375	2.31663889280753E-05
1	150	81.4400747943836	1.31057739257813	1.31011962890625	2.25555419921875E-06	2.95504582936701E-06	580841.5625	2.33931568800472E-05
1	151	81.5407827941293	1.32064819335938	1.32049560546875	2.26409912109375E-06	2.98973282042425E-06	583232.25	2.36207397392718E-05
1	152	81.6414907938751	1.33071899414063	1.33056640625	2.2735595703125E-06	3.02512171401759E-06	585234.9375	2.38492284552194E-05
1	153	81.7421987936208	1.34078979492188	1.3409423828125	2.283935546875E-06	3.06262609228725E-06	587119.1875	2.4078717615339E-05
1	154	81.8429067933665	1.35086059570313	1.35101318359375	2.29522705078125E-06	3.10088194055425E-06	588618.5625	2.43092963501113E-05
1	155	81.9436147931123	1.36093139648438	1.36138916015625	2.308349609375E-06	3.1425622637471E-06	589767.3125	2.45411047217203E-05
1	156	82.044322792858	1.37100219726563	1.370849609375	2.322998046875E-06	3.18448087455181E-06	590120.875	2.47743118961807E-05
1	157	82.1450307926037	1.38107299804688	1.380615234375	2.3406982421875E-06	3.23160338666639E-06	589830.5625	2.50091470661573E-05
1	158	82.2457387923495	1.39114379882813	1.3909912109375	2.36175537109375E-06	3.28518103742681E-06	588965	2.52459340117639E-05
1	159	82.3464467920952	1.40121459960938	1.40167236328125	2.38677978515625E-06	3.34548303726478E-06	587265.0625	2.54850419878494E-05
1	160	82.4471547918409	1.41128540039063	1.4117431640625	2.4169921875E-06	3.41217219101964E-06	584090.9375	2.57269311987329E-05
1	161	82.5478627915867	1.42135620117188	1.4215087890625	2.45361328125E-06	3.48783282788645E-06	579353.25	2.5972185540013E-05
1	162	82.6485707913324	1.43142700195313	1.43157958984375	2.49847412109375E-06	3.57676435669418E-06	572981.5625	2.62215435213875E-05
1	163	82.7492787910782	1.44149780273438	1.4410400390625	2.554931640625E-06	3.68175869880361E-06	564022.9375	2.64760019490495E-05
1	164	82.8499867908239	1.45156860351563	1.4520263671875	2.626953125E-06	3.81440509045206E-06	552741.625	2.673693052202E-05
1	165	82.9506947905696	1.46163940429688	1.4617919921875	2.71575927734375E-06	3.96987479689415E-06	538262.75	2.70059590548044E-05
1	166	83.0514027903154	1.47171020507813	1.47186279296875	2.82318115234375E-06	4.15533531850087E-06	521349.03125	2.72848665190395E-05
1	167	83.1521107900611	1.48178100585938	1.48162841796875	2.94830322265625E-06	4.36828941019485E-06	502536	2.75754828180652E-05
1	168	83.2528187898068	1.49185180664063	1.4923095703125	3.0908203125E-06	4.61246054328512E-06	482819.9375	2.78795778285712E-05
1	169	83.3535267895526	1.50192260742188	1.50146484375	3.248291015625E-06	4.87719489683514E-06	462232.25	2.81987777270842E-05
1	170	83.4542347892983	1.49185180664063	1.49169921875	2.8802490234375E-06	4.29646524935379E-06	517906.34375	2.85073729173746E-05
1	171	83.554942789044	1.48178100585938	1.48162841796875	2.61138916015625E-06	3.86910824090592E-06	567371.75	2.87838993244804E-05
1	172	83.6556507887898	1.47171020507813	1.4715576171875	2.4017333984375E-06	3.53428890775831E-06	612706.5	2.90363295789575E-05
1	173	83.7563587885355	1.46163940429688	1.4617919921875	2.2308349609375E-06	3.2610166726954E-06	655266.75	2.92695985990576E-05
1	174	83.8570667882813	1.45156860351563	1.45172119140625	2.09014892578125E-06	3.03431352222105E-06	694553.9375	2.94871770165628E-05
1	175	83.957774788027	1.44149780273438	1.4410400390625	1.9732666015625E-06	2.8435561034712E-06	730281.5	2.96917860396206E-05
1	176	84.0584827877727	1.43142700195313	1.43157958984375	1.875E-06	2.68421172222588E-06	763509.125	2.98855629807804E-05
1	177	84.1591907875185	1.42135620117188	1.4215087890625	1.7926025390625E-06	2.54820020018087E-06	792986.0625	3.00702413369436E-05
1	178	84.2598987872642	1.41128540039063	1.41143798828125	1.72149658203125E-06	2.42978558162577E-06	819890.125	3.02471889881417E-05
1	179	84.3606067870099	1.40121459960938	1.4013671875	1.66107177734375E-06	2.32777142628038E-06	843652.375	3.04175155179109E-05
1	180	84.4613147867557	1.39114379882813	1.39068603515625	1.60888671875E-06	2.23745632865757E-06	864377.875	3.05821704387199E-05
1	181	84.5620227865014	1.38107299804688	1.38092041015625	1.563720703125E-06	2.15937370739994E-06	883099.1875	3.07419250020757E-05
1	182	84.6627307862472	1.37100219726563	1.37054443359375	1.5252685546875E-06	2.0904483335471E-06	898559.4375	3.08974667859729E-05
1	183	84.7634387859929	1.36093139648438	1.36077880859375	1.4910888671875E-06	2.0290419797675E-06	912607.5	3.1049352401169E-05
1	184	84.8641467857386	1.35086059570313	1.35040283203125	1.46148681640625E-06	1.97359599951596E-06	923992.5	3.11980256810784E-05
1	185	84.9648547854844	1.34078979492188	1.34063720703125	1.43524169921875E-06	1.92413835975458E-06	934084.6875	3.13438904413488E-05
1	186	85.0655627852301	1.33071899414063	1.33087158203125	1.4117431640625E-06	1.87884882052458E-06	942715.125	3.14872449962422E-05
1	187	85.1662707849758	1.32064819335938	1.3201904296875	1.39129638671875E-06	1.83677616405475E-06	948892.3125	3.16283912979998E-05
1	188	85.2669787847216	1.31057739257813	1.31103515625	1.3720703125E-06	1.7988323861573E-06	955516	3.17675367114134E-05
1	189	85.3676867844673	1.30050659179688	1.30096435546875	1.35467529296875E-06	1.76238427229691E-06	960351.4375	3.19048376695719E-05
1	190	85.468394784213	1.29043579101563	1.290283203125	1.339111328125E-06	1.72783290963707E-06	963536.875	3.20404833473731E-05
1	191	85.5691027839588	1.28036499023438	1.280517578125	1.3238525390625E-06	1.69521638326842E-06	967266	3.21745719702449E-05
1	192	85.6698107837045	1.27029418945313	1.2701416015625	1.30889892578125E-06	1.66248685218306E-06	970389.4375	3.23071435559541E-05
1	193	85.7705187834503	1.26022338867188	1.2603759765625	1.29486083984375E-06	1.63201139002922E-06	973367.9375	3.24382526741829E-05
1	194	85.871226783196	1.25015258789063	1.25030517578125	1.28204345703125E-06	1.60294553097629E-06	975244.0625	3.25680084642954E-05
1	195	85.9719347829417	1.24008178710938	1.24053955078125	1.26953125E-06	1.57490376295755E-06	977163.4375	3.26964909618255E-05
1	196	86.0726427826875	1.23001098632813	1.23016357421875	1.2567138671875E-06	1.54596364154713E-06	978873.25	3.28237001667731E-05
1	197	86.1733507824332	1.21994018554688	1.21978759765625	1.24481201171875E-06	1.51840617945709E-06	979897.0625	3.29496615449898E-05
1	198	86.2740587821789	1.20986938476563	1.2091064453125	1.23291015625E-06	1.49071956911939E-06	980693.125	3.30744223902002E-05
1	199	86.3747667819247	1.19979858398438	1.19964599609375	1.22222900390625E-06	1.4662421108369E-06	981523.125	3.31980481860228E-05
1	200	86.4754747816704	1.18972778320313	1.1895751953125	1.2109375E-06	1.44050125072681E-06	982358.875	3.3320568036288E-05
1	201	86.5761827814162	1.17965698242188	1.1798095703125	1.1993408203125E-06	1.41499367600773E-06	983715.0625	3.34419346472714E-05
1	202	86.6768907811619	1.16958618164063	1.16973876953125	1.18804931640625E-06	1.38970733587485E-06	984587.75	3.35621516569518E-05
1	203	86.7775987809076	1.15951538085938	1.15966796875	1.1767578125E-06	1.36464836941741E-06	985477.1875	3.36812299792655E-05
1	204	86.8783067806534	1.14944458007813	1.14959716796875	1.16455078125E-06	1.33876426389179E-06	987159.3125	3.37991223204881E-05
1	205	86.9790147803991	1.13937377929688	1.1395263671875	1.151123046875E-06	1.3117349908498E-06	989925.8125	3.3915726817213E-05
1	206	87.0797227801448	1.12930297851563	1.129150390625	1.1370849609375E-06	1.28393992326892E-06	993022	3.40309452440124E-05
1	207	87.1804307798906	1.11923217773438	1.11907958984375	1.12060546875E-06	1.25404676509788E-06	998638.3125	3.4144632081734E-05
1	208	87.2811387796363	1.10916137695313	1.10931396484375	1.1016845703125E-06	1.22211406505812E-06	1006925.1875	3.42565326718614E-05
1	209	87.381846779382	1.09909057617188	1.0992431640625	1.0791015625E-06	1.18619493605365E-06	1018665.25	3.43663414241746E-05
1	210	87.4825547791278	1.08901977539063	1.0894775390625	1.05194091796875E-06	1.14606598344835E-06	1035683.25	3.44736508850474E-05
1	211	87.5832627788735	1.07894897460938	1.0791015625	1.01776123046875E-06	1.09826771677035E-06	1060269.875	3.45778680639341E-05
1	212	87.6839707786193	1.06887817382813	1.06903076171875	9.75952148437501E-07	1.04332286809949E-06	1095372.125	3.46782580891158E-05
1	213	87.784678778365	1.05880737304688	1.0589599609375	9.2376708984375E-07	9.78232378656685E-07	1146349.5	3.47739187418483E-05
1	214	87.8853867781107	1.04873657226563	1.04888916015625	8.6090087890625E-07	9.02989597761916E-07	1218362.375	3.48637804563623E-05
1	215	87.9860947778565	1.03866577148438	1.03851318359375	7.8887939453125E-07	8.19261629203538E-07	1316441	3.49468537024222E-05
1	216	88.0868027776022	1.02859497070313	1.02874755859375	7.110595703125E-07	7.31500790607242E-07	1446781.125	3.50223817804363E-05
1	217	88.1875107773479	1.01852416992188	1.01806640625	6.3446044921875E-07	6.45922852982039E-07	1604617.625	3.50901354977395E-05
1	218	88.2882187770937	1.00845336914063	1.0089111328125	5.6610107421875E-07	5.7114567653116E-07	1782210.375	3.5150587791577E-05
1	219	88.3889267768394	0.998382568359375	0.99822998046875	5.1300048828125E-07	5.12092469762138E-07	1945865.625	3.52049246430397E-05
1	220	88.4896347765851	0.988311767578125	0.98846435546875	4.78210449218749E-07	4.72693983510908E-07	2067007.125	3.5254837712273E-05
1	221	88.5903427763309	0.978240966796875	0.9783935546875	4.60205078125001E-07	4.50261666173901E-07	2125994.75	3.53020914189983E-05
1	222	88.6910507760766	0.968170166015625	0.96832275390625	4.56848144531249E-07	4.42376460796368E-07	2119572.5	3.53482682839967E-05
1	223	88.7917587758224	0.958099365234375	0.958251953125	4.61730957031251E-07	4.42454563653882E-07	2075347.125	3.53945215465501E-05
1	224	88.8924667755681	0.948028564453125	0.9478759765625	4.6875E-07	4.44316839320891E-07	2022135.5	3.54413750756066E-05
1	225	88.9931747753138	0.937957763671875	0.93780517578125	4.76684570312499E-07	4.47037251660731E-07	1967349.625	3.54889816662762E-05
1	226	89.0938827750596	0.927886962890625	0.92864990234375	4.82788085937499E-07	4.4834112600256E-07	1923514.5	3.55372940248344E-05
1	227	89.1945907748053	0.917816162109375	0.91827392578125	4.8553466796875E-07	4.45853828523468E-07	1891263.375	3.55860538547859E-05
1	228	89.295298774551	0.907745361328125	0.90789794921875	4.8492431640625E-07	4.40261800349617E-07	1872246.625	3.56349191861227E-05
1	229	89.3960067742968	0.897674560546875	0.89813232421875	4.7882080078125E-07	4.30044394761353E-07	1875717.125	3.56834498234093E-05
1	230	89.4967147740425	0.887603759765625	0.8880615234375	4.6722412109375E-07	4.14923761127284E-07	1900718.5	3.57310855179094E-05
1	231	89.5974227737883	0.877532958984375	0.877685546875	4.51049804687501E-07	3.9587987998857E-07	1945872.875	3.57773242285475E-05
1	232	89.698130773534	0.867462158203125	0.86761474609375	4.3212890625E-07	3.74921398815786E-07	2007768.375	3.58217948814854E-05
1	233	89.7988387732797	0.857391357421875	0.85784912109375	4.1168212890625E-07	3.53161141219971E-07	2083765.75	3.58642864739522E-05
1	234	89.8995467730255	0.847320556640625	0.84686279296875	3.9337158203125E-07	3.33131765728467E-07	2152831.75	3.59048244717997E-05
1	235	90.0002547727712	0.837249755859375	0.83770751953125	3.7841796875E-07	3.17003554073381E-07	2213709.75	3.5943685361417E-05
1	236	90.1009627725169	0.827178955078125	0.82733154296875	3.680419921875E-07	3.04492743907758E-07	2247927	3.59812729584519E-05
1	237	90.2016707722627	0.817108154296875	0.8172607421875	3.6163330078125E-07	2.95548687745395E-07	2259915.75	3.60180165444035E-05
1	238	90.3023787720084	0.807037353515625	0.8074951171875	3.570556640625E-07	2.8832070597673E-07	2261538.5	3.60542035195976E-05
1	239	90.4030867717541	0.796966552734375	0.797119140625	3.52783203125E-07	2.8121021955485E-07	2259515.75	3.60899466613773E-05
1	240	90.5037947714999	0.786895751953125	0.78704833984375	3.45764160156251E-07	2.72133121370643E-07	2276257.75	3.61251222784631E-05
1	241	90.6045027712456	0.776824951171875	0.7769775390625	3.3416748046875E-07	2.59640614785894E-07	2325114.25	3.61593592970166E-05
1	242	90.7052107709914	0.766754150390625	0.76690673828125	3.143310546875E-07	2.41062622308164E-07	2439805.75	3.61920137947891E-05
1	243	90.8059187707371	0.756683349609375	0.7568359375	2.8411865234375E-07	2.15031192851711E-07	2663802.5	3.62221471732482E-05
1	244	90.9066267704828	0.746612548828125	0.74658203125	2.37426757812501E-07	1.77258542066738E-07	3144473.25	3.62484097422566E-05
1	245	91.0073347702286	0.736541748046875	0.736480712890625	1.7242431640625E-07	1.26987174553506E-07	4271327.5	3.62690479960293E-05
1	246	91.1080427699743	0.726470947265625	0.7264404296875	8.57543945312497E-08	6.22954559048594E-08	8471174	3.6282046494307E-05
1	247	91.20875076972	0.716400146484375	0.71636962890625	-2.41088867187503E-08	-1.72708727319559E-08	-29713926	3.62851533282083E-05
1	248	91.3094587694658	0.706329345703125	0.706298828125	-1.507568359375E-07	-1.0647937642716E-07	-4685020.5	3.62763457815163E-05
1	249	91.4101667692115	0.696258544921875	0.6961669921875	-2.87475585937499E-07	-2.00131012206839E-07	-2421656	3.62542814400513E-05
1	250	91.5108747689573	0.686187744140625	0.686126708984375	-4.180908203125E-07	-2.86863269138848E-07	-1641094.875	3.62187529390212E-05
1	251	91.611582768703	0.676116943359375	0.675994873046875	-5.31005859375E-07	-3.58957237267532E-07	-1273046	3.61709608114325E-05
1	252	91.7122907684487	0.666046142578125	0.665985107421875	-6.1187744140625E-07	-4.07501261179277E-07	-1088428.875	3.61134116246831E-05
1	253	91.8129987681945	0.655975341796875	0.655975341796875	-6.591796875E-07	-4.32405585115703E-07	-995138.9375	3.60494086635299E-05
1	254	91.9137067679402	0.645904541015625	0.645904541015625	-6.72302246093751E-07	-4.34243077052088E-07	-960735.375	3.5982364352094E-05
1	255	92.0144147676859	0.635833740234375	0.635772705078125	-6.5948486328125E-07	-4.19282457642112E-07	-964044.4375	3.59153018507641E-05
1	256	92.1151227674317	0.625762939453125	0.625701904296875	-6.28662109375E-07	-3.93355094274739E-07	-995291.25	3.58504403266124E-05
1	257	92.2158307671774	0.615692138671875	0.61572265625	-5.865478515625E-07	-3.61150796379661E-07	-1049739.875	3.57892495230772E-05
1	258	92.3165387669231	0.605621337890625	0.605560302734375	-5.413818359375E-07	-3.27839359215432E-07	-1118545.625	3.57324533979408E-05
1	259	92.4172467666689	0.595550537109375	0.59552001953125	-4.9468994140625E-07	-2.94597754191273E-07	-1203824.875	3.56802811438683E-05
1	260	92.5179547664146	0.585479736328125	0.58544921875	-4.49523925781251E-07	-2.63173433268094E-07	-1302376.125	3.56327363988385E-05
1	261	92.6186627661604	0.575408935546875	0.575408935546875	-4.08020019531249E-07	-2.34778354979426E-07	-1410246.875	3.55895572283771E-05
1	262	92.7193707659061	0.565338134765625	0.565338134765625	-3.6895751953125E-07	-2.08585746008794E-07	-1532258.125	3.55504344042856E-05
1	263	92.8200787656518	0.555267333984375	0.555267333984375	-3.326416015625E-07	-1.84705015726649E-07	-1669266	3.551510599209E-05
1	264	92.9207867653976	0.545196533203125	0.545135498046875	-2.99072265625E-07	-1.63034911793147E-07	-1822755.125	3.54832955054007E-05
1	265	93.0214947651433	0.535125732421875	0.535064697265625	-2.6702880859375E-07	-1.42877695452626E-07	-2003771.375	3.54547883034684E-05
1	266	93.122202764889	0.525054931640625	0.525054931640625	-2.35595703124999E-07	-1.2370068702694E-07	-2228627	3.54294825228862E-05
1	267	93.2229107646348	0.514984130859375	0.514984130859375	-2.0599365234375E-07	-1.06083454909367E-07	-2500000	3.54072435584385E-05
1	268	93.3236187643805	0.504913330078125	0.5048828125	-1.7852783203125E-07	-9.01356287386079E-08	-2828034.25	3.53878822352272E-05
1	269	93.4243267641262	0.494842529296875	0.494842529296875	-1.5380859375E-07	-7.61110285907307E-08	-3217262	3.53711475327145E-05
1	270	93.525034763872	0.484771728515625	0.484771728515625	-1.324462890625E-07	-6.4206219008156E-08	-3660138.25	3.53567338606808E-05
1	271	93.6257427636177	0.474700927734375	0.4747314453125	-1.141357421875E-07	-5.41838218737212E-08	-4159358.5	3.53443174390122E-05
1	272	93.7264507633635	0.464630126953125	0.464630126953125	-9.82666015624995E-08	-4.56576216834037E-08	-4728261	3.53336217813194E-05
1	273	93.8271587631092	0.454559326171875	0.45458984375	-8.33129882812506E-08	-3.78732352146471E-08	-5456410.5	3.53244795405772E-05
1	274	93.9278667628549	0.444488525390625	0.44451904296875	-7.08007812499994E-08	-3.14722967686976E-08	-6278448.5	3.53167197317816E-05
1	275	94.0285747626007	0.434417724609375	0.434417724609375	-5.98144531249997E-08	-2.59844590289049E-08	-7262755	3.53101422660984E-05
1	276	94.1292827623464	0.424346923828125	0.424407958984375	-5.035400390625E-08	-2.13706403684455E-08	-8428485	3.53045943484176E-05
1	277	94.2299907620921	0.414276123046875	0.414276123046875	-4.05883789062506E-08	-1.68147966661536E-08	-10206767	3.53000141330995E-05
1	278	94.3306987618379	0.404205322265625	0.40423583984375	-3.204345703125E-08	-1.29531132486704E-08	-12615239	3.52963579643983E-05
1	279	94.4314067615836	0.394134521484375	0.394134521484375	-2.47192382812497E-08	-9.7427053091792E-09	-15944444	3.5293498513056E-05
1	280	94.5321147613294	0.384063720703125	0.384063720703125	-1.678466796875E-08	-6.44638209479353E-09	-22881818	3.52914103132207E-05
1	281	94.6328227610751	0.373992919921875	0.37408447265625	-1.068115234375E-08	-3.99565314168626E-09	-35022860	3.5290027881274E-05
1	282	94.7335307608208	0.363922119140625	0.363922119140625	-4.57763671875E-09	-1.66590319317095E-09	-79500000	3.52892602677457E-05
1	283	94.8342387605666	0.353851318359375	0.35382080078125	1.22070312500028E-09	4.31910146536651E-10	289850016	3.52890892827418E-05
1	284	94.9349467603123	0.343780517578125	0.343780517578125	7.01904296875056E-09	2.41301023606866E-09	48978264	3.52895040123258E-05
1	285	95.035654760058	0.333709716796875	0.333770751953125	1.15966796875006E-08	3.87063225915085E-09	28781580	3.5290442610858E-05
1	286	95.1363627598038	0.323638916015625	0.323638916015625	1.58691406249994E-08	5.13587128381232E-09	20394230	3.52918250428047E-05
1	287	95.2370707595495	0.313568115234375	0.3135986328125	1.92260742187506E-08	6.02927041626344E-09	16311112	3.52935931005049E-05
1	288	95.3377787592952	0.303497314453125	0.303497314453125	2.288818359375E-08	6.94650248433959E-09	13260000	3.52957140421495E-05
1	289	95.438486759041	0.293426513671875	0.29345703125	2.593994140625E-08	7.61225749101868E-09	11312942	3.52981696778443E-05
1	290	95.5391947587867	0.283355712890625	0.283355712890625	2.86865234375003E-08	8.12848988118731E-09	9877660	3.53009236278012E-05
1	291	95.6399027585325	0.273284912109375	0.27325439453125	3.08227539062497E-08	8.42245295729072E-09	8865346	3.53039176843595E-05
1	292	95.7406107582782	0.263214111328125	0.263214111328125	3.23486328124997E-08	8.51461567918932E-09	8136793	3.53071009158157E-05
1	293	95.8413187580239	0.253143310546875	0.253143310546875	3.35693359375E-08	8.49785308787432E-09	7540909	3.53104187524877E-05
1	294	95.9420267577697	0.243072509765625	0.2430419921875	3.41796874999994E-08	8.30709900867532E-09	7110715	3.53138311766088E-05
1	295	96.0427347575154	0.233001708984375	0.233001708984375	3.41796874999994E-08	7.96392463087159E-09	6816965	3.53172727045603E-05
1	296	96.1434427572611	0.222930908203125	0.222991943359375	3.38745117187497E-08	7.553742520372E-09	6582883	3.53206996805966E-05
1	297	96.2441507570069	0.212860107421875	0.212890625	3.29589843750006E-08	7.01665836544407E-09	6459259.5	3.53240648109931E-05
1	298	96.3448587567526	0.202789306640625	0.20281982421875	3.0517578125E-08	6.18956930154013E-09	6646000.5	3.53272625943646E-05
1	299	96.4455667564984	0.192718505859375	0.1927490234375	2.80761718749994E-08	5.4116546799321E-09	6865217.5	3.53302129951771E-05
1	300	96.5462747562441	0.182647705078125	0.182647705078125	2.41088867187503E-08	4.40343272956056E-09	7575949.5	3.53328396158759E-05
1	301	96.6469827559898	0.172576904296875	0.172637939453125	1.73950195312494E-08	3.00304026090714E-09	9924562	3.53349278157111E-05
1	302	96.7476907557356	0.162506103515625	0.16253662109375	8.23974609374945E-09	1.33926048029309E-09	19725926	3.53362192981876E-05
1	303	96.8483987554813	0.152435302734375	0.152557373046875	-4.27246093750028E-09	-6.51795450945514E-10	-35707140	3.5336419387022E-05
1	304	96.949106755227	0.142364501953125	0.14239501953125	-2.16674804687497E-08	-3.08534131576721E-09	-6571831	3.53351133526303E-05
1	305	97.0498147549728	0.132293701171875	0.13238525390625	-4.57763671875E-08	-6.06011596460121E-09	-2892000	3.53317154804245E-05
1	306	97.1505227547185	0.122222900390625	0.12225341796875	-7.99560546874995E-08	-9.77490088871491E-09	-1529007.625	3.53253853973001E-05
1	307	97.2512307544642	0.112152099609375	0.112213134765625	-1.2786865234375E-07	-1.43485419101808E-08	-877565.6875	3.53149225702509E-05
1	308	97.35193875421	0.102081298828125	0.1021728515625	-1.9500732421875E-07	-1.99244531984277E-08	-523943.6875	3.5298664442962E-05
1	309	97.4526467539557	0.092010498046875	0.092041015625	-2.85949707031249E-07	-2.6319101564809E-08	-321878.34375	3.52744464180432E-05
1	310	97.5533547537015	0.081939697265625	0.08197021484375	-4.08935546875E-07	-3.35205321277954E-08	-200447.765625	3.52394563378766E-05
1	311	97.6540627534472	0.071868896484375	0.071868896484375	-5.6884765625E-07	-4.08824547548647E-08	-126341.1953125	3.51902199327014E-05
1	312	97.7547707531929	0.061798095703125	0.06182861328125	-7.67822265625E-07	-4.74733852229292E-08	-80524.640625	3.51229136867914E-05
1	313	97.8554787529387	0.051727294921875	0.051788330078125	-1.002197265625E-06	-5.1902119935221E-08	-51674.7890625	3.50337868439965E-05
1	314	97.9561867526844	0.041656494140625	0.041748046875	-1.25823974609375E-06	-5.25290531072642E-08	-33179.72265625	3.49199617630802E-05
1	315	98.0568947524301	0.031585693359375	0.0316680908203125	-1.51763916015625E-06	-4.80607305064495E-08	-20866.6796875	3.47801869793329E-05
1	316	98.1576027521759	0.021514892578125	0.0215972900390625	-1.75079345703125E-06	-3.78123949928977E-08	-12335.7158203125	3.46156084560789E-05
1	317	98.2583107519216	0.011444091796875	0.0115386962890625	-1.93511962890625E-06	-2.23287575096265E-08	-5962.7822265625	3.44300060532987E-05
1	318	98.3590187516673	0.001373291015625	0.00144348144531251	-2.05535888671875E-06	-2.96687230338932E-09	-702.301391601563	3.42290695698466E-05
1	319	98.4597267514131	-0.008697509765625	-0.00861511230468751	-2.1099853515625E-06	1.81777579655318E-08	4083.02001953125	3.40193291776814E-05
1	320	98.5604347511588	-0.018768310546875	-0.018646240234375	-2.10845947265625E-06	3.93148411603761E-08	8843.537109375	3.38069148710929E-05
1	321	98.6611427509046	-0.028839111328125	-0.028704833984375	-2.06787109375E-06	5.93578945995432E-08	13881.345703125	3.35966178681701E-05
1	322	98.7618507506503	-0.038909912109375	-0.0387847900390625	-2.00225830078125E-06	7.76571695837447E-08	19370.5234375	3.33916723320726E-05
1	323	98.862558750396	-0.048980712890625	-0.0488189697265625	-1.92596435546875E-06	9.40235977964221E-08	25347.8046875	3.31938681483734E-05
1	324	98.9632667501418	-0.059051513671875	-0.058990478515625	-1.84661865234375E-06	1.08932916020876E-07	31945.134765625	3.30039038090035E-05
1	325	99.0639747498875	-0.069122314453125	-0.069091796875	-1.7706298828125E-06	1.22336004437784E-07	39021.02734375	3.28217611240689E-05
1	326	99.1646827496332	-0.079193115234375	-0.07916259765625	-1.700439453125E-06	1.34611198632228E-07	46554.203125	3.26469817082398E-05
1	327	99.265390749379	-0.089263916015625	-0.089202880859375	-1.636962890625E-06	1.46021790214945E-07	54492.91796875	3.2478928915225E-05
1	328	99.3660987491247	-0.099334716796875	-0.09930419921875	-1.58050537109375E-06	1.56950818563928E-07	62830.6640625	3.23169151670299E-05
1	329	99.4668067488705	-0.109405517578125	-0.109283447265625	-1.53167724609375E-06	1.67386957627969E-07	71348.875	3.21602055919357E-05
1	330	99.5675147486162	-0.119476318359375	-0.119415283203125	-1.48895263671875E-06	1.77803698875323E-07	80200.859375	3.200810533599E-05
1	331	99.6682227483619	-0.129547119140625	-0.129425048828125	-1.45233154296875E-06	1.8796806955379E-07	89115.359375	3.18599995807745E-05
1	332	99.7689307481077	-0.139617919921875	-0.139495849609375	-1.42059326171875E-06	1.98166858922377E-07	98195.4921875	3.17153353535105E-05
1	333	99.8696387478534	-0.149688720703125	-0.149566650390625	-1.39312744140625E-06	2.0836539249558E-07	107360.3515625	3.15736542688683E-05
1	334	99.9703467475991	-0.159759521484375	-0.15966796875	-1.36962890625E-06	2.18685855202239E-07	116577.5390625	3.14345379592851E-05
1	335	100.071054747345	-0.169830322265625	-0.169708251953125	-1.35040283203125E-06	2.29174503374452E-07	125672.3125	3.12975716951769E-05
1	336	100.171762747091	-0.179901123046875	-0.1798095703125	-1.334228515625E-06	2.39907052446142E-07	134766.703125	3.1162391678663E-05
1	337	100.272470746836	-0.189971923828125	-0.1898193359375	-1.32110595703125E-06	2.5077144982788E-07	143682.140625	3.10286850435659E-05
1	338	100.373178746582	-0.200042724609375	-0.199920654296875	-1.31072998046875E-06	2.62041993437379E-07	152526.1875	3.08961607515812E-05
1	339	100.473886746328	-0.189971923828125	-0.189849853515625	-1.1614990234375E-06	2.20510415260833E-07	163452.453125	3.07716727547813E-05
2	340	100.574594746074	-0.179901123046875	-0.179779052734375	-1.05682373046875E-06	1.89994779020708E-07	170112.609375	3.06599722534884E-05
2	341	100.675302745819	-0.169830322265625	-0.169647216796875	-9.72900390625001E-07	1.65049840461506E-07	174372.65625	3.05577668768819E-05
2	342	100.776010745565	-0.159759521484375	-0.159637451171875	-9.0087890625E-07	1.43814006037246E-07	177201.90625	3.046341589652E-05
2	343	100.876718745311	-0.149688720703125	-0.149627685546875	-8.3770751953125E-07	1.25344229218172E-07	178615.671875	3.03758715745062E-05
2	344	100.977426745057	-0.139617919921875	-0.139495849609375	-7.8155517578125E-07	1.09023702066224E-07	178484.96875	3.02943353744922E-05
2	345	101.078134744802	-0.129547119140625	-0.12945556640625	-7.28759765625001E-07	9.43420062071709E-08	177638.203125	3.02182852465194E-05
2	346	101.178842744548	-0.119476318359375	-0.119384765625	-6.8023681640625E-07	8.12099116842546E-08	175504.71875	3.01473355648341E-05
2	347	101.279550744294	-0.109405517578125	-0.10931396484375	-6.3323974609375E-07	6.92219472853139E-08	172626.515625	3.00811971101211E-05
2	348	101.380258744039	-0.099334716796875	-0.099212646484375	-5.8746337890625E-07	5.82837955676041E-08	168883.125	3.00197298201965E-05
2	349	101.480966743785	-0.089263916015625	-0.089141845703125	-5.40771484374999E-07	4.82053650330272E-08	164842	2.9962919143145E-05
2	350	101.581674743531	-0.079193115234375	-0.079132080078125	-4.9102783203125E-07	3.88560543740368E-08	161156	2.99109633488115E-05
2	351	101.682382743277	-0.069122314453125	-0.069061279296875	-4.364013671875E-07	3.01384375234193E-08	158251.75	2.98642644338543E-05
2	352	101.783090743022	-0.059051513671875	-0.058929443359375	-3.72924804687499E-07	2.19762501529885E-08	158019.640625	2.98235117952572E-05
2	353	101.883798742768	-0.048980712890625	-0.0488250732421875	-2.9632568359375E-07	1.44681235880739E-08	164768.28125	2.97898113785777E-05
2	354	101.984506742514	-0.038909912109375	-0.038739013671875	-2.01416015625E-07	7.80265807520664E-09	192333.34375	2.97647475235863E-05
2	355	102.08521474226	-0.028839111328125	-0.0287353515625	-8.05664062500003E-08	2.31510388637446E-09	356666.6875	2.97505484923022E-05
2	356	102.185922742005	-0.018768310546875	-0.01864013671875	7.29370117187503E-08	-1.35955591229475E-09	-255564.84375	2.9750164685538E-05
2	357	102.286630741751	-0.008697509765625	-0.0085784912109375	2.6275634765625E-07	-2.25405294429493E-09	-32648.083984375	2.97670685540652E-05
2	358	102.387338741497	0.001373291015625	0.001434326171875	4.90417480468749E-07	7.03418601144534E-10	2924.70458984375	2.98049944831291E-05
2	359	102.488046741243	0.011444091796875	0.0115447998046875	7.5042724609375E-07	8.66353122574992E-09	15384.302734375	2.98674749501515E-05
2	360	102.588754740988	0.021514892578125	0.0216339111328125	1.0260009765625E-06	2.21964153723775E-08	21085.6640625	2.99569255730603E-05
2	361	102.689462740734	0.031585693359375	0.0316986083984375	1.292724609375E-06	4.09775680054736E-08	24520.7734375	3.00736828648951E-05
2	362	102.79017074048	0.041656494140625	0.0417816162109375	1.52496337890625E-06	6.37154329297118E-08	27398.439453125	3.02155640383717E-05
2	363	102.890878740226	0.051727294921875	0.0517578125	1.70196533203125E-06	8.80899975186367E-08	30410.615234375	3.0378052542801E-05
2	364	102.991586739971	0.061798095703125	0.0618896484375	1.81304931640625E-06	1.12208979885509E-07	34135.66796875	3.0555049306713E-05
2	365	103.092294739717	0.071868896484375	0.071868896484375	1.8603515625E-06	1.33701405502507E-07	38631.890625	3.07400187011808E-05
2	366	103.193002739463	0.081939697265625	0.08203125	1.85699462890625E-06	1.52331580238751E-07	44174.19921875	3.09272036247421E-05
2	367	103.293710739208	0.092010498046875	0.09210205078125	1.81671142578125E-06	1.67322838251494E-07	50697.12890625	3.11121875711251E-05
2	368	103.394418738954	0.102081298828125	0.10211181640625	1.756591796875E-06	1.79368768726818E-07	58130.6484375	3.12921183649451E-05
2	369	103.4951267387	0.112152099609375	0.1121826171875	1.68670654296875E-06	1.89219150570352E-07	66509.8671875	3.14655007969122E-05
2	370	103.595834738446	0.122222900390625	0.12225341796875	1.6156005859375E-06	1.97512690647272E-07	75670.5703125	3.16317855322268E-05
2	371	103.696542738191	0.132293701171875	0.13232421875	1.546630859375E-06	2.0465671468628E-07	85556.4296875	3.17910162266344E-05
2	372	103.797250737937	0.142364501953125	0.142425537109375	1.48345947265625E-06	2.11282497275533E-07	96009.0546875	3.19435930578038E-05
2	373	103.897958737683	0.152435302734375	0.152557373046875	1.42608642578125E-06	2.17560000237427E-07	106976.2421875	3.2090101740323E-05
2	374	103.998666737429	0.162506103515625	0.162567138671875	1.37481689453125E-06	2.23500038032398E-07	118246.3984375	3.22311389027163E-05
2	375	104.099374737174	0.172576904296875	0.172576904296875	1.329345703125E-06	2.29414354180335E-07	129820.9453125	3.2367304811487E-05
2	376	104.20008273692	0.182647705078125	0.1826171875	1.28936767578125E-06	2.35460703379431E-07	141633.140625	3.24991669913288E-05
2	377	104.300790736666	0.192718505859375	0.192779541015625	1.253662109375E-06	2.41680396584343E-07	153773.140625	3.26272165693808E-05
2	378	104.401498736412	0.202789306640625	0.202880859375	1.2225341796875E-06	2.48028783289556E-07	165951.078125	3.27519046550151E-05
2	379	104.502206736157	0.212860107421875	0.21282958984375	1.1944580078125E-06	2.54215990480589E-07	178180.90625	3.28736095980275E-05
2	380	104.602914735903	0.222930908203125	0.222991943359375	1.16973876953125E-06	2.60842313082321E-07	190633.96875	3.2992655178532E-05
2	381	104.703622735649	0.233001708984375	0.23297119140625	1.14837646484375E-06	2.67538638354381E-07	202870.0625	3.31093833665363E-05
2	382	104.804330735395	0.243072509765625	0.2430419921875	1.129150390625E-06	2.74430959734673E-07	215243.234375	3.32240670104511E-05
2	383	104.90503873514	0.253143310546875	0.253143310546875	1.11175537109375E-06	2.81433415239007E-07	227696.96875	3.33369025611319E-05
2	384	105.005746734886	0.263214111328125	0.263275146484375	1.09588623046875E-06	2.88519601099324E-07	240239.5	3.34480682795402E-05
2	385	105.106454734632	0.273284912109375	0.273284912109375	1.08184814453125E-06	2.95652768045329E-07	252609.3125	3.35577242367435E-05
2	386	105.207162734377	0.283355712890625	0.283355712890625	1.0687255859375E-06	3.02829477050182E-07	265134.21875	3.36660159518942E-05
2	387	105.307870734123	0.293426513671875	0.29339599609375	1.05712890625E-06	3.10157389549204E-07	277540.40625	3.37730598403141E-05
2	388	105.408578733869	0.303497314453125	0.303436279296875	1.04736328125E-06	3.17808030558808E-07	289714.4375	3.38790305249859E-05
2	389	105.509286733615	0.313568115234375	0.3135986328125	1.03759765625E-06	3.25389180488855E-07	302235.3125	3.39840153174009E-05
2	390	105.60999473336	0.323638916015625	0.323638916015625	1.02935791015625E-06	3.33140292241296E-07	314408.53125	3.4088094253093E-05
2	391	105.710702733106	0.333709716796875	0.333770751953125	1.02081298828125E-06	3.40717519975442E-07	326965.625	3.41913291777018E-05
2	392	105.811410732852	0.343780517578125	0.343780517578125	1.01409912109375E-06	3.48627509083599E-07	339000.90625	3.42937964887824E-05
2	393	105.912118732598	0.353851318359375	0.353851318359375	1.00860595703125E-06	3.5689654964699E-07	350832.0625	3.43956489814445E-05
2	394	106.012826732343	0.363922119140625	0.36395263671875	1.0028076171875E-06	3.64974482636171E-07	362933.65625	3.4496930311434E-05
2	395	106.113534732089	0.373992919921875	0.3740234375	9.991455078125E-07	3.73703841205497E-07	374343.3125	3.45977350661997E-05
2	396	106.214242731835	0.384063720703125	0.38409423828125	9.94873046875E-07	3.82125023179469E-07	386073.625	3.46981432812754E-05
2	397	106.314950731581	0.394134521484375	0.394195556640625	9.918212890625E-07	3.90971536035067E-07	397446.15625	3.47981804225128E-05
2	398	106.415658731326	0.404205322265625	0.40423583984375	9.89379882812499E-07	3.99942791773356E-07	408574.96875	3.48979410773609E-05
2	399	106.516366731072	0.414276123046875	0.414306640625	9.87548828125E-07	4.09148015023675E-07	419530.3125	3.49974870914593E-05
2	400	106.617074730818	0.424346923828125	0.42431640625	9.857177734375E-07	4.18256206557999E-07	430464.40625	3.50968512066174E-05
2	401	106.717782730563	0.434417724609375	0.43438720703125	9.8480224609375E-07	4.27785494139243E-07	441090.8125	3.5196073440602E-05
2	402	106.818490730309	0.444488525390625	0.444549560546875	9.8388671875E-07	4.37386404428253E-07	451830.03125	3.52952047251165E-05
2	403	106.919198730055	0.454559326171875	0.45458984375	9.83581542968751E-07	4.47126183189539E-07	462178.09375	3.53942741639912E-05
2	404	107.019906729801	0.464630126953125	0.464599609375	9.832763671875E-07	4.5682980953643E-07	472501.5625	3.54933144990355E-05
2	405	107.120614729546	0.474700927734375	0.4747314453125	9.8388671875E-07	4.67081946453618E-07	482506.21875	3.5592369385995E-05
2	406	107.221322729292	0.484771728515625	0.484771728515625	9.8541259765625E-07	4.7770015498827E-07	491947.96875	3.56915297743399E-05
2	407	107.322030729038	0.494842529296875	0.494781494140625	9.8602294921875E-07	4.8786586148708E-07	501795.15625	3.5790799302049E-05
2	408	107.422738728784	0.504913330078125	0.50494384765625	9.87854003906249E-07	4.98810777571634E-07	511152.34375	3.58901925210375E-05
2	409	107.523446728529	0.514984130859375	0.5150146484375	9.9090576171875E-07	5.1033094905506E-07	519741.3125	3.5989833122585E-05
2	410	107.624154728275	0.525054931640625	0.5250244140625	9.94262695312501E-07	5.22012157944118E-07	528054	3.60897938662674E-05
2	411	107.724862728021	0.535125732421875	0.535064697265625	9.979248046875E-07	5.33954334969167E-07	536177.375	3.61901074938942E-05
2	412	107.825570727767	0.545196533203125	0.54510498046875	1.0028076171875E-06	5.46635419595987E-07	543578.8125	3.6290854040999E-05
2	413	107.926278727512	0.555267333984375	0.55523681640625	1.00921630859375E-06	5.60354010303854E-07	550166.375	3.63921644748189E-05
2	414	108.026986727258	0.565338134765625	0.565338134765625	1.0174560546875E-06	5.75206684061413E-07	555638.875	3.64942170563154E-05
2	415	108.127694727004	0.575408935546875	0.575408935546875	1.02691650390625E-06	5.90896945595887E-07	560326.875	3.65971609426197E-05
2	416	108.22840272675	0.585479736328125	0.585479736328125	1.04034423828125E-06	6.09100425208453E-07	562775.0625	3.6701254430227E-05
2	417	108.329110726495	0.595550537109375	0.595458984375	1.05804443359375E-06	6.30022043424106E-07	562792.0625	3.68069158867002E-05
2	418	108.429818726241	0.605621337890625	0.60552978515625	1.0821533203125E-06	6.55276039651653E-07	559560.0625	3.69146837329026E-05
2	419	108.530526725987	0.615692138671875	0.61566162109375	1.1138916015625E-06	6.85780321418861E-07	552712.3125	3.7025263736723E-05
2	420	108.631234725732	0.625762939453125	0.625701904296875	1.1572265625E-06	7.24078802250006E-07	540690.9375	3.71396236005239E-05
2	421	108.731942725478	0.635833740234375	0.6357421875	1.2164306640625E-06	7.73336296333582E-07	522629.21875	3.72591457562521E-05
2	422	108.832650725224	0.645904541015625	0.6458740234375	1.29486083984375E-06	8.36316928598535E-07	498798.03125	3.73856018995866E-05
2	423	108.93335872497	0.655975341796875	0.655914306640625	1.39373779296875E-06	9.14172517241241E-07	470615.28125	3.75209820049349E-05
2	424	109.034066724715	0.666046142578125	0.666015625	1.51275634765625E-06	1.00751935860899E-06	440266.3125	3.76673342543654E-05
2	425	109.134774724461	0.676116943359375	0.67608642578125	1.64306640625E-06	1.11085489606921E-06	411478.46875	3.7826244806638E-05
2	426	109.235482724207	0.686187744140625	0.68609619140625	1.77490234375E-06	1.21775372008415E-06	386554.34375	3.79983539460227E-05
2	427	109.336190723953	0.696258544921875	0.6961669921875	1.89544677734375E-06	1.31954743665119E-06	367283.84375	3.81831705453806E-05
2	428	109.436898723698	0.706329345703125	0.706268310546875	1.990966796875E-06	1.40615668442479E-06	354736.375	3.83788647013716E-05
2	429	109.537606723444	0.716400146484375	0.716339111328125	2.05535888671875E-06	1.47233390634938E-06	348522.65625	3.85826133424416E-05
2	430	109.63831472319	0.726470947265625	0.726348876953125	2.08831787109375E-06	1.51684730553825E-06	347815.28125	3.87912659789436E-05
2	431	109.739022722936	0.736541748046875	0.736419677734375	2.0928955078125E-06	1.54124950313417E-06	351866.4375	3.90018067264464E-05
2	432	109.839730722681	0.746612548828125	0.74658203125	2.07855224609375E-06	1.55180964611645E-06	359183.6875	3.92118563468102E-05
2	433	109.940438722427	0.756683349609375	0.75714111328125	2.0526123046875E-06	1.55411714786169E-06	368867.09375	3.94198759749997E-05
2	434	110.041146722173	0.766754150390625	0.76690673828125	2.02178955078125E-06	1.55052396166866E-06	379320.78125	3.96250361518469E-05
2	435	110.141854721919	0.776824951171875	0.77728271484375	1.98944091796875E-06	1.54635790750035E-06	390704.125	3.98270203731954E-05
2	436	110.242562721664	0.786895751953125	0.78704833984375	1.96044921875E-06	1.54296833443368E-06	401463.25	4.00259123125579E-05
2	437	110.34327072141	0.796966552734375	0.79681396484375	1.93572998046875E-06	1.54241661221022E-06	411634.90625	4.02221012336668E-05
2	438	110.443978721156	0.807037353515625	0.806884765625	1.9158935546875E-06	1.54590532019938E-06	421153.21875	4.04160455218516E-05
2	439	110.544686720901	0.817108154296875	0.81695556640625	1.9024658203125E-06	1.55423003889155E-06	429419.3125	4.06083163397852E-05
2	440	110.645394720647	0.827178955078125	0.82733154296875	1.895751953125E-06	1.56841531406826E-06	436413.40625	4.07995685236529E-05
2	441	110.746102720393	0.837249755859375	0.83740234375	1.89300537109375E-06	1.58520708737342E-06	442366.59375	4.09903477702755E-05
2	442	110.846810720139	0.847320556640625	0.84747314453125	1.89422607421875E-06	1.60530566972739E-06	447398.125	4.11810506193433E-05
2	443	110.947518719884	0.857391357421875	0.85784912109375	1.89666748046875E-06	1.62705453021772E-06	452292.84375	4.13719390053302E-05
2	444	111.04822671963	0.867462158203125	0.86761474609375	1.89971923828125E-06	1.64822438364354E-06	456706.84375	4.15631002397276E-05
2	445	111.148934719376	0.877532958984375	0.87738037109375	1.900634765625E-06	1.66757956776564E-06	461624.9375	4.17544652009383E-05
2	446	111.249642719122	0.887603759765625	0.88775634765625	1.89971923828125E-06	1.68648784892866E-06	467309.25	4.19458265241701E-05
2	447	111.350350718867	0.897674560546875	0.8978271484375	1.89727783203125E-06	1.7034275288097E-06	473218.59375	4.21370205003768E-05
2	448	111.451058718613	0.907745361328125	0.90789794921875	1.8939208984375E-06	1.71948681781942E-06	479374.8125	4.2327923438279E-05
2	449	111.551766718359	0.917816162109375	0.91827392578125	1.88995361328125E-06	1.735495061439E-06	485871.15625	4.25184553023428E-05
2	450	111.652474718105	0.927886962890625	0.927734375	1.88995361328125E-06	1.75337481778115E-06	490876.8125	4.2708790715551E-05
2	451	111.75318271785	0.937957763671875	0.9375	1.8927001953125E-06	1.7744064280123E-06	495324.09375	4.28992607339751E-05
2	452	111.853890717596	0.948028564453125	0.9478759765625	1.9012451171875E-06	1.80214442480064E-06	498555.40625	4.30903019150719E-05
2	453	111.954598717342	0.958099365234375	0.958251953125	1.91680908203125E-06	1.8367859411228E-06	499920.4375	4.32825581810903E-05
2	454	112.055306717088	0.968170166015625	0.9686279296875	1.94122314453125E-06	1.88032277037564E-06	498978.1875	4.34768226114102E-05
2	455	112.156014716833	0.978240966796875	0.97808837890625	1.97601318359375E-06	1.93271557691332E-06	494980.6875	4.36740738223307E-05
2	456	112.256722716579	0.988311767578125	0.98846435546875	2.02117919921875E-06	1.99786359189602E-06	489053.3125	4.38753486378118E-05
2	457	112.357430716325	0.998382568359375	0.9991455078125	2.073974609375E-06	2.07220250558748E-06	481753.96875	4.40815529145766E-05
2	458	112.45813871607	1.00845336914063	1.0089111328125	2.13226318359375E-06	2.1512639705179E-06	473164.46875	4.42933560407255E-05
2	459	112.558846715816	1.01852416992188	1.01806640625	2.1893310546875E-06	2.22888434109336E-06	465012.53125	4.45109653810505E-05
2	460	112.659554715562	1.02859497070313	1.0284423828125	2.23846435546875E-06	2.30213163376902E-06	459441.0625	4.47339225502219E-05
2	461	112.760262715308	1.03866577148438	1.038818359375	2.274169921875E-06	2.36244954976428E-06	456790.125	4.49611507065129E-05
2	462	112.860970715053	1.04873657226563	1.04888916015625	2.29339599609375E-06	2.40551821661938E-06	457351.96875	4.5191147364676E-05
2	463	112.961678714799	1.05880737304688	1.05926513671875	2.29766845703125E-06	2.43383988163259E-06	461017.4375	4.54223263659514E-05
2	464	113.062386714545	1.06887817382813	1.06903076171875	2.28973388671875E-06	2.44779585045762E-06	466879.90625	4.56533198303077E-05
2	465	113.163094714291	1.07894897460938	1.07940673828125	2.2735595703125E-06	2.45409523813578E-06	474765.125	4.58830982097425E-05
2	466	113.263802714036	1.08901977539063	1.0888671875	2.25311279296875E-06	2.45334058490698E-06	483272.375	4.61110357719008E-05
2	467	113.364510713782	1.09909057617188	1.09893798828125	2.2308349609375E-06	2.45154933509184E-06	492612.84375	4.63368196506053E-05
2	468	113.465218713528	1.10916137695313	1.10870361328125	2.20794677734375E-06	2.44795842263557E-06	502142.40625	4.65603297925554E-05
2	469	113.565926713274	1.11923217773438	1.1187744140625	2.186279296875E-06	2.44595344156551E-06	511725.28125	4.67815953015815E-05
2	470	113.666634713019	1.12930297851563	1.12945556640625	2.16552734375E-06	2.44586681219516E-06	521561.4375	4.70007289550267E-05
2	471	113.767342712765	1.13937377929688	1.13922119140625	2.14813232421875E-06	2.44719785769121E-06	530331	4.72179381176829E-05
2	472	113.868050712511	1.14944458007813	1.1492919921875	2.13226318359375E-06	2.45059277403925E-06	539001.0625	4.74334738100879E-05
2	473	113.968758712257	1.15951538085938	1.15966796875	2.117919921875E-06	2.4560838483012E-06	547550.4375	4.76474851893727E-05
2	474	114.069466712002	1.16958618164063	1.16943359375	2.105712890625E-06	2.4624912384752E-06	555362.3125	4.78601650684141E-05
2	475	114.170174711748	1.17965698242188	1.17919921875	2.0965576171875E-06	2.47225921157224E-06	562445.4375	4.80717644677497E-05
2	476	114.270882711494	1.18972778320313	1.18988037109375	2.08831787109375E-06	2.48484843723418E-06	569779.375	4.82824907521717E-05
2	477	114.371590711239	1.19979858398438	1.19964599609375	2.081298828125E-06	2.49682170760934E-06	576392.9375	4.84924457850866E-05
2	478	114.472298710985	1.20986938476563	1.209716796875	2.07733154296875E-06	2.5129829737125E-06	582341.6875	4.87018514832016E-05
2	479	114.573006710731	1.21994018554688	1.2200927734375	2.073974609375E-06	2.53044140663405E-06	588287.1875	4.89108861074783E-05
2	480	114.673714710477	1.23001098632813	1.23016357421875	2.07275390625E-06	2.54982637670764E-06	593492.375	4.91196879011113E-05
2	481	114.774422710222	1.24008178710938	1.2396240234375	2.071533203125E-06	2.56792213804147E-06	598409	4.93283696414437E-05
2	482	114.875130709968	1.25015258789063	1.25	2.07305908203125E-06	2.59132366409176E-06	602973.6875	4.95370659336913E-05
2	483	114.975838709714	1.26022338867188	1.26007080078125	2.07550048828125E-06	2.61527725342603E-06	607116.625	4.97459659527522E-05
2	484	115.07654670946	1.27029418945313	1.26983642578125	2.07916259765625E-06	2.64019649875991E-06	610744.125	4.9955167924054E-05
2	485	115.177254709205	1.28036499023438	1.280517578125	2.08465576171875E-06	2.66943834503763E-06	614258.5	5.01648319186643E-05
2	486	115.277962708951	1.29043579101563	1.29058837890625	2.09136962890625E-06	2.6990974220098E-06	617102	5.03751143696718E-05
2	487	115.378670708697	1.30050659179688	1.3006591796875	2.099609375E-06	2.73087607638445E-06	619476.8125	5.05861462443136E-05
2	488	115.479378708443	1.31057739257813	1.3104248046875	2.1087646484375E-06	2.76337755167333E-06	621418.25	5.07980548718479E-05
2	489	115.580086708188	1.32064819335938	1.32080078125	2.1197509765625E-06	2.79976870842802E-06	623092.4375	5.10109748574905E-05
2	490	115.680794707934	1.33071899414063	1.33056640625	2.1319580078125E-06	2.83671147371933E-06	624105.375	5.1225066272309E-05
2	491	115.78150270768	1.34078979492188	1.34033203125	2.1453857421875E-06	2.87552916233835E-06	624751.0625	5.14404491696041E-05
2	492	115.882210707426	1.35086059570313	1.35040283203125	2.15972900390625E-06	2.9165039450163E-06	625265	5.16572290507611E-05
2	493	115.982918707171	1.36093139648438	1.3604736328125	2.17498779296875E-06	2.95901350000349E-06	625508.6875	5.18754968652502E-05
2	494	116.083626706917	1.37100219726563	1.3714599609375	2.19268798828125E-06	3.00718375001452E-06	625469.6875	5.20954272360541E-05
2	495	116.184334706663	1.38107299804688	1.3812255859375	2.2125244140625E-06	3.0559951937903E-06	624275.875	5.23172493558377E-05
2	496	116.285042706408	1.39114379882813	1.3909912109375	2.235107421875E-06	3.1090146421775E-06	622337.5625	5.25412033312023E-05
2	497	116.385750706154	1.40121459960938	1.40106201171875	2.2625732421875E-06	3.17000535687839E-06	619233.875	5.2767682063859E-05
2	498	116.4864587059	1.41128540039063	1.4111328125	2.294921875E-06	3.23843960359227E-06	614893.625	5.29971694049891E-05
2	499	116.587166705646	1.42135620117188	1.42181396484375	2.333984375E-06	3.31849173562659E-06	609178.875	5.32302510691807E-05
2	500	116.687874705391	1.43142700195313	1.4312744140625	2.38037109375E-06	3.40696442435728E-06	601282.0625	5.34676401002798E-05
2	501	116.788582705137	1.44149780273438	1.44134521484375	2.43743896484375E-06	3.51319090441393E-06	591335.9375	5.37102350790519E-05
2	502	116.889290704883	1.45156860351563	1.4520263671875	2.50701904296875E-06	3.64025754606701E-06	579184.4375	5.39592074346729E-05
2	503	116.989998704629	1.46163940429688	1.46240234375	2.59368896484375E-06	3.79301650355046E-06	563831.0625	5.42160487384535E-05
2	504	117.090706704374	1.47171020507813	1.4715576171875	2.6983642578125E-06	3.9707983887638E-06	545351.75	5.44825270480942E-05
2	505	117.19141470412	1.48178100585938	1.4813232421875	2.821044921875E-06	4.17887895309832E-06	525097.375	5.4760450439062E-05
2	506	117.292122703866	1.49185180664063	1.49200439453125	2.9595947265625E-06	4.41572819909197E-06	504124.5625	5.50515287613962E-05
2	507	117.392830703612	1.50192260742188	1.5020751953125	3.11370849609375E-06	4.67702420792193E-06	482407.15625	5.53573445358779E-05
2	508	117.493538703357	1.49185180664063	1.49139404296875	2.7642822265625E-06	4.12263398175128E-06	539523.125	5.56533232156653E-05
2	509	117.594246703103	1.48178100585938	1.48162841796875	2.5103759765625E-06	3.71944429389259E-06	590201.8125	5.59189247724134E-05
2	510	117.694954702849	1.47171020507813	1.47186279296875	2.31170654296875E-06	3.40251494890254E-06	636699.6875	5.61617343919352E-05
2	511	117.795662702595	1.46163940429688	1.4617919921875	2.15087890625E-06	3.14413750857057E-06	679625.4375	5.63864450668916E-05
2	512	117.89637070234	1.45156860351563	1.451416015625	2.01873779296875E-06	2.93002813123167E-06	718972.0625	5.65964000998065E-05
2	513	117.997078702086	1.44149780273438	1.441650390625	1.90887451171875E-06	2.75192974186211E-06	755235.8125	5.67941715416964E-05
2	514	118.097786701832	1.43142700195313	1.4312744140625	1.81732177734375E-06	2.60108618022059E-06	787573.5	5.69818002986722E-05
2	515	118.198494701577	1.42135620117188	1.42120361328125	1.74041748046875E-06	2.47348771154066E-06	816587.75	5.71609452890698E-05
2	516	118.299202701323	1.41128540039063	1.4117431640625	1.67510986328125E-06	2.36482492255163E-06	842776.5	5.7332930737175E-05
2	517	118.399910701069	1.40121459960938	1.4007568359375	1.61956787109375E-06	2.26862061936117E-06	864895.4375	5.74988334847149E-05
2	518	118.500618700815	1.39114379882813	1.3916015625	1.57196044921875E-06	2.18754257730325E-06	885265	5.76595375605393E-05
2	519	118.60132670056	1.38107299804688	1.38092041015625	1.531982421875E-06	2.11554583984253E-06	901394.4375	5.78158360440284E-05
2	520	118.702034700306	1.37100219726563	1.370849609375	1.49627685546875E-06	2.05117044060898E-06	916173.8125	5.79683182877488E-05
2	521	118.802742700052	1.36093139648438	1.3604736328125	1.46728515625E-06	1.99620262719691E-06	927204.6875	5.81175481784157E-05
2	522	118.903450699798	1.35086059570313	1.3507080078125	1.44073486328125E-06	1.94601216207957E-06	937513.25	5.82639768254012E-05
2	523	119.004158699543	1.34078979492188	1.34063720703125	1.41815185546875E-06	1.90122705134854E-06	945341.125	5.84079352847766E-05
2	524	119.104866699289	1.33071899414063	1.33087158203125	1.397705078125E-06	1.86016598036076E-06	952183.375	5.85497218708042E-05
2	525	119.205574699035	1.32064819335938	1.32049560546875	1.37847900390625E-06	1.82027542905416E-06	957936.75	5.86895148444455E-05
2	526	119.306282698781	1.31057739257813	1.31134033203125	1.361083984375E-06	1.7848442439572E-06	963452.9375	5.88274633628316E-05
2	527	119.406990698526	1.30050659179688	1.3006591796875	1.34490966796875E-06	1.74926901763683E-06	967097.8125	5.89637202210724E-05
2	528	119.507698698272	1.29043579101563	1.2908935546875	1.3287353515625E-06	1.71525573477993E-06	971520.5	5.90983509027865E-05
2	529	119.608406698018	1.28036499023438	1.280517578125	1.31317138671875E-06	1.6815389471958E-06	975133.6875	5.92313808738254E-05
2	530	119.709114697764	1.27029418945313	1.2701416015625	1.29913330078125E-06	1.65008316344029E-06	977683.875	5.93629192735534E-05
2	531	119.809822697509	1.26022338867188	1.2603759765625	1.28509521484375E-06	1.61970308454329E-06	980764.6875	5.94930461375043E-05
2	532	119.910530697255	1.25015258789063	1.24969482421875	1.27166748046875E-06	1.58919624482223E-06	982721.4375	5.96217905695084E-05
2	533	120.011238697001	1.24008178710938	1.240234375	1.258544921875E-06	1.56089060965314E-06	985451.0625	5.97491962253116E-05
2	534	120.111946696746	1.23001098632813	1.23016357421875	1.2451171875E-06	1.53169776240247E-06	987990.25	5.98752667428926E-05
2	535	120.212654696492	1.21994018554688	1.2200927734375	1.23260498046875E-06	1.5038924630062E-06	989849	6.0000027588103E-05
2	536	120.313362696238	1.20986938476563	1.20941162109375	1.22039794921875E-06	1.47596347233048E-06	990997.75	6.01235478825402E-05
2	537	120.414070695984	1.19979858398438	1.19964599609375	1.2078857421875E-06	1.44903526688722E-06	993178.375	6.02458203502465E-05
2	538	120.514778695729	1.18972778320313	1.1895751953125	1.1956787109375E-06	1.42234966915566E-06	994895.375	6.03668486292008E-05
2	539	120.615486695475	1.17965698242188	1.17950439453125	1.182861328125E-06	1.39519011099765E-06	997162.0625	6.04866181674879E-05
2	540	120.716194695221	1.16958618164063	1.1700439453125	1.1700439453125E-06	1.36900280267582E-06	1000000.0625	6.06050962232985E-05
2	541	120.816902694967	1.15951538085938	1.15997314453125	1.15692138671875E-06	1.34199774493027E-06	1002637.8125	6.07222682447173E-05
2	542	120.917610694712	1.14944458007813	1.14990234375	1.1431884765625E-06	1.31455510654632E-06	1005872.9375	6.08380905759986E-05
2	543	121.018318694458	1.13937377929688	1.1395263671875	1.1285400390625E-06	1.28600106563681E-06	1009735	6.095247954363E-05
2	544	121.119026694204	1.12930297851563	1.129150390625	1.11236572265625E-06	1.25602809930569E-06	1015089.1875	6.10653150943108E-05
2	545	121.21973469395	1.11923217773438	1.1187744140625	1.094970703125E-06	1.22502513022482E-06	1021739.125	6.11764698987827E-05
2	546	121.320442693695	1.10916137695313	1.1090087890625	1.07452392578125E-06	1.1916564517378E-06	1032093.1875	6.1285711126402E-05
2	547	121.421150693441	1.09909057617188	1.09893798828125	1.05072021484375E-06	1.15467639716371E-06	1045890.1875	6.13927259109914E-05
2	548	121.521858693187	1.08901977539063	1.0888671875	1.02142333984375E-06	1.11219424070441E-06	1066029.375	6.14970631431788E-05
2	549	121.622566692933	1.07894897460938	1.07879638671875	9.86328124999999E-07	1.06404718280828E-06	1093750	6.15981625742279E-05
2	550	121.723274692678	1.06887817382813	1.06842041015625	9.429931640625E-07	1.00751310583291E-06	1133009.75	6.16953111602925E-05
2	551	121.823982692424	1.05880737304688	1.05865478515625	8.89892578125E-07	9.4208900236481E-07	1189643.375	6.17876066826284E-05
2	552	121.92469069217	1.04873657226563	1.048583984375	8.26416015625001E-07	8.66566608692665E-07	1268833.125	6.18740305071697E-05
2	553	122.025398691915	1.03866577148438	1.038818359375	7.5408935546875E-07	7.83361826961482E-07	1377580	6.19536149315536E-05
2	554	122.126106691661	1.02859497070313	1.0284423828125	6.76574707031249E-07	6.95818073381815E-07	1520072.125	6.20256541878916E-05
2	555	122.226814691407	1.01852416992188	1.01837158203125	5.9967041015625E-07	6.10687266089371E-07	1698218.875	6.20899154455401E-05
2	556	122.327522691153	1.00845336914063	1.00799560546875	5.30090332031249E-07	5.34328762569203E-07	1901554.375	6.21468061581254E-05
2	557	122.428230690898	0.998382568359375	0.99945068359375	4.7637939453125E-07	4.76117691050604E-07	2098014.25	6.21974832029082E-05
2	558	122.528938690644	0.988311767578125	0.98846435546875	4.3914794921875E-07	4.34082068068165E-07	2250868.75	6.22435836703517E-05
2	559	122.62964669039	0.978240966796875	0.9783935546875	4.19006347656251E-07	4.0995311678671E-07	2335032.75	6.22867955826223E-05
2	560	122.730354690136	0.968170166015625	0.9686279296875	4.12902832031251E-07	3.99949215079687E-07	2345898	6.23286832706071E-05
2	561	122.831062689881	0.958099365234375	0.95794677734375	4.1473388671875E-07	3.9729297895974E-07	2309786.75	6.23703599558212E-05
2	562	122.931770689627	0.948028564453125	0.948486328125	4.20532226562501E-07	3.98869048012784E-07	2255442.75	6.24124222667888E-05
2	563	123.032478689373	0.937957763671875	0.93780517578125	4.2724609375E-07	4.0067357076623E-07	2195000	6.24551103101112E-05
2	564	123.133186689119	0.927886962890625	0.9283447265625	4.32434082031249E-07	4.01447891817952E-07	2146789	6.2498394981958E-05
2	565	123.233894688864	0.917816162109375	0.91766357421875	4.35791015625001E-07	3.99909538373322E-07	2105742.25	6.25421162112616E-05
2	566	123.33460268861	0.907745361328125	0.908203125	4.35791015625001E-07	3.95786742046766E-07	2084033.625	6.25860047875904E-05
2	567	123.435310688356	0.897674560546875	0.89752197265625	4.3060302734375E-07	3.86475676350528E-07	2084337.375	6.2629631429445E-05
2	568	123.536018688102	0.887603759765625	0.88836669921875	4.22058105468751E-07	3.74942345615636E-07	2104844.5	6.26725668553263E-05
2	569	123.636726687847	0.877532958984375	0.877685546875	4.0863037109375E-07	3.5864897540705E-07	2147871.5	6.27143963356502E-05
2	570	123.737434687593	0.867462158203125	0.86761474609375	3.924560546875E-07	3.40500662332488E-07	2210731	6.27547342446633E-05
2	571	123.838142687339	0.857391357421875	0.8575439453125	3.74450683593749E-07	3.21107904710516E-07	2290138.5	6.27933477517217E-05
2	572	123.938850687084	0.847320556640625	0.84716796875	3.57971191406251E-07	3.03261714407199E-07	2366581.5	6.2830229580868E-05
2	573	124.03955868683	0.837249755859375	0.83709716796875	3.43933105468749E-07	2.87905407958533E-07	2433895.25	6.28655689070001E-05
2	574	124.140266686576	0.827178955078125	0.82763671875	3.33251953124999E-07	2.75811544270255E-07	2483516.75	6.28996713203378E-05
2	575	124.240974686322	0.817108154296875	0.8172607421875	3.265380859375E-07	2.66866749143446E-07	2502803.75	6.29328933428042E-05
2	576	124.341682686067	0.807037353515625	0.80718994140625	3.21044921874999E-07	2.59144229630692E-07	2514258.5	6.29655041848309E-05
2	577	124.442390685813	0.796966552734375	0.797119140625	3.16467285156249E-07	2.52262111644086E-07	2518804.5	6.29976057098247E-05
2	578	124.543098685559	0.786895751953125	0.787353515625	3.0853271484375E-07	2.42924329540983E-07	2551928.75	6.30290742265061E-05
2	579	124.643806685305	0.776824951171875	0.77728271484375	2.9571533203125E-07	2.29854407507446E-07	2628483	6.30595022812486E-05
2	580	124.74451468505	0.766754150390625	0.76690673828125	2.7496337890625E-07	2.1087127777264E-07	2789123.25	6.3088235037867E-05
2	581	124.845222684796	0.756683349609375	0.75653076171875	2.42919921875E-07	1.8377639321443E-07	3114321.5	6.31143120699562E-05
2	582	124.945930684542	0.746612548828125	0.746551513671875	1.96228027343751E-07	1.46494329555935E-07	3804510	6.31364309811033E-05
2	583	125.046638684288	0.736541748046875	0.7364501953125	1.30310058593749E-07	9.59668682298798E-08	5651522.5	6.31528673693538E-05
2	584	125.147346684033	0.726470947265625	0.7264404296875	4.30297851562497E-08	3.12585726192083E-08	16882270	6.31615985184908E-05
2	585	125.248054683779	0.716400146484375	0.716278076171875	-6.62231445312494E-08	-4.7434188132911E-08	-10816129	6.31604270893149E-05
2	586	125.348762683525	0.706329345703125	0.706298828125	-1.92871093749999E-07	-1.36224628022319E-07	-3662025.5	6.31473812973127E-05
2	587	125.449470683271	0.696258544921875	0.6961669921875	-3.28979492187501E-07	-2.29024664122335E-07	-2116141	6.31211078143679E-05
2	588	125.550178683016	0.686187744140625	0.686126708984375	-4.59899902343749E-07	-3.15549613105759E-07	-1491904.5	6.30813810857944E-05
2	589	125.650886682762	0.676116943359375	0.676055908203125	-5.72509765625E-07	-3.87048601169226E-07	-1180863.625	6.30293943686411E-05
2	590	125.751594682508	0.666046142578125	0.66595458984375	-6.561279296875E-07	-4.36951381743711E-07	-1014976.8125	6.29675341770053E-05
2	591	125.852302682253	0.655975341796875	0.65594482421875	-7.049560546875E-07	-4.62412259594203E-07	-930476.1875	6.28989946562797E-05
2	592	125.953010681999	0.645904541015625	0.64581298828125	-7.19604492187501E-07	-4.64729936311414E-07	-897455.5	6.28272609901614E-05
2	593	126.053718681745	0.635833740234375	0.635772705078125	-7.08923339843751E-07	-4.50714111366324E-07	-896814.5	6.27553308731876E-05
2	594	126.154426681491	0.625762939453125	0.625732421875	-6.79931640625001E-07	-4.25455283448173E-07	-920287.25	6.26853943686001E-05
2	595	126.255134681236	0.615692138671875	0.615631103515625	-6.39953613281249E-07	-3.93975341239639E-07	-961993.3125	6.26189357717521E-05
2	596	126.355842680982	0.605621337890625	0.605621337890625	-5.950927734375E-07	-3.6040088957634E-07	-1017692.3125	6.25567481620237E-05
2	597	126.456550680728	0.595550537109375	0.59552001953125	-5.48706054687501E-07	-3.26765444924604E-07	-1085317	6.24991516815498E-05
2	598	126.557258680474	0.585479736328125	0.58544921875	-5.04455566406251E-07	-2.95333109079365E-07	-1160556.625	6.24461172265001E-05
2	599	126.657966680219	0.575408935546875	0.5753173828125	-4.608154296875E-07	-2.6511511919125E-07	-1248476.875	6.23975138296373E-05
2	600	126.758674679965	0.565338134765625	0.5653076171875	-4.21142578125E-07	-2.38075102743096E-07	-1342318.875	6.23531013843603E-05
2	601	126.859382679711	0.555267333984375	0.5552978515625	-3.83911132812501E-07	-2.13185018083095E-07	-1446422.875	6.23125670244917E-05
2	602	126.960090679457	0.545196533203125	0.545166015625	-3.4759521484375E-07	-1.89497086466872E-07	-1568393.375	6.22757288510911E-05
2	603	127.060798679202	0.535125732421875	0.535125732421875	-3.11889648437499E-07	-1.66900164799699E-07	-1715753.5	6.224252138054E-05
2	604	127.161506678948	0.525054931640625	0.525054931640625	-2.79846191406249E-07	-1.46934610256721E-07	-1876226.875	6.22127263341099E-05
2	605	127.262214678694	0.514984130859375	0.514984130859375	-2.50854492187499E-07	-1.29186091157862E-07	-2052919.625	6.2186001741793E-05
2	606	127.36292267844	0.504913330078125	0.504852294921875	-2.2552490234375E-07	-1.13856764016873E-07	-2238565.75	6.21620201854967E-05
2	607	127.463630678185	0.494842529296875	0.494842529296875	-2.03552246093749E-07	-1.00726310847676E-07	-2431034.5	6.21404105913825E-05
2	608	127.564338677931	0.484771728515625	0.4847412109375	-1.8463134765625E-07	-8.94984211186056E-08	-2625454.5	6.21208673692308E-05
2	609	127.665046677677	0.474700927734375	0.474639892578125	-1.66015625E-07	-7.87976404126312E-08	-2859007.25	6.21032086201012E-05
2	610	127.765754677422	0.464630126953125	0.464599609375	-1.495361328125E-07	-6.94744315410389E-08	-3106938.75	6.20873179286718E-05
2	611	127.866462677168	0.454559326171875	0.454559326171875	-1.3397216796875E-07	-6.08982944072523E-08	-3392938.5	6.20730424998328E-05
2	612	127.967170676914	0.444488525390625	0.444488525390625	-1.19934082031251E-07	-5.33093249543981E-08	-3706106.75	6.20602586423047E-05
2	613	128.06787867666	0.434417724609375	0.434417724609375	-1.0650634765625E-07	-4.62682407942339E-08	-4078796.75	6.20488572167233E-05
2	614	128.168586676405	0.424346923828125	0.42431640625	-9.49096679687497E-08	-4.02717290626242E-08	-4470739.5	6.20387145318091E-05
2	615	128.269294676151	0.414276123046875	0.414306640625	-8.42285156249997E-08	-3.48964306340349E-08	-4918841	6.20296923443675E-05
2	616	128.370002675897	0.404205322265625	0.40423583984375	-7.38525390624995E-08	-2.98538438414653E-08	-5473553.5	6.20217324467376E-05
2	617	128.470710675643	0.394134521484375	0.394134521484375	-6.50024414062506E-08	-2.56197054682161E-08	-6063380.5	6.20147402514704E-05
2	618	128.571418675388	0.384063720703125	0.384033203125	-5.67626953124997E-08	-2.17987583539525E-08	-6765591.5	6.20086138951592E-05
2	619	128.672126675134	0.373992919921875	0.373992919921875	-4.8828125E-08	-1.82613728583192E-08	-7659375	6.20032951701432E-05
2	620	128.77283467488	0.363922119140625	0.36395263671875	-4.15039062499997E-08	-1.51054564412334E-08	-8769118	6.19987476966344E-05
2	621	128.873542674626	0.353851318359375	0.35382080078125	-3.509521484375E-08	-1.24174173166125E-08	-10081739	6.19948914390989E-05
2	622	128.974250674371	0.343780517578125	0.34381103515625	-2.899169921875E-08	-9.96766580385611E-09	-11858948	6.19916609139182E-05
2	623	129.074958674117	0.333709716796875	0.333740234375	-2.288818359375E-08	-7.63870744435735E-09	-14581333	6.19890488451347E-05
2	624	129.175666673863	0.323638916015625	0.32373046875	-1.80053710937503E-08	-5.82888715072727E-09	-17979660	6.19869897491299E-05
2	625	129.276374673609	0.313568115234375	0.3135986328125	-1.40380859374997E-08	-4.40232428289278E-09	-22339132	6.19853744865395E-05
2	626	129.377082673354	0.303497314453125	0.303497314453125	-9.76562499999944E-09	-2.96384095044289E-09	-31078126	6.19841739535332E-05
2	627	129.4777906731	0.293426513671875	0.29339599609375	-6.40869140624972E-09	-1.8802843726462E-09	-45780952	6.1983366322238E-05
2	628	129.578498672846	0.283355712890625	0.283416748046875	-3.0517578125E-09	-8.64919247334228E-10	-92870000	6.19828861090355E-05
2	629	129.679206672591	0.273284912109375	0.273284912109375	0	0	∞	6.19827333139256E-05
2	630	129.779914672337	0.263214111328125	0.26318359375	3.0517578125E-09	8.03172583996314E-10	86240000	6.19828861090355E-05
2	631	129.880622672083	0.253143310546875	0.253143310546875	4.57763671875E-09	1.15879805751007E-09	55300004	6.1983271734789E-05
2	632	129.981330671829	0.243072509765625	0.243072509765625	5.79833984375028E-09	1.40941691650909E-09	41921056	6.19837956037372E-05
2	633	130.082038671574	0.233001708984375	0.23297119140625	6.40869140624972E-09	1.49304046903609E-09	36352380	6.19844067841768E-05
2	634	130.18274667132	0.222930908203125	0.222930908203125	6.40869140624972E-09	1.42869538422019E-09	34785716	6.19850543444045E-05
2	635	130.283454671066	0.212860107421875	0.21282958984375	5.79833984375028E-09	1.23405818897027E-09	36705264	6.19856655248441E-05
2	636	130.384162670812	0.202789306640625	0.202789306640625	4.57763671875E-09	9.28295718072292E-10	44300004	6.19861893937923E-05
2	637	130.484870670557	0.192718505859375	0.19268798828125	1.83105468749972E-09	3.52822243643303E-10	105233336	6.19865095359273E-05
2	638	130.585578670303	0.182647705078125	0.18267822265625	-2.74658203125028E-09	-5.01740704539344E-10	-66511112	6.19864658801816E-05
2	639	130.686286670049	0.172576904296875	0.172637939453125	-8.85009765625028E-09	-1.52786261420346E-09	-19506896	6.19858838035725E-05
2	640	130.786994669795	0.162506103515625	0.162506103515625	-1.77001953125006E-08	-2.87638979301619E-09	-9181035	6.19845450273715E-05
2	641	130.88770266954	0.152435302734375	0.152435302734375	-3.0517578125E-08	-4.6519561536229E-09	-4995000.5	6.19821148575284E-05
2	642	130.988410669286	0.142364501953125	0.142425537109375	-4.76074218749997E-08	-6.78051259583867E-09	-2991666.75	6.19781858404167E-05
2	643	131.089118669032	0.132293701171875	0.13226318359375	-7.23266601562494E-08	-9.56615409108963E-09	-1828692.125	6.19721467955969E-05
2	644	131.189826668778	0.122222900390625	0.122314453125	-1.07727050781251E-07	-1.31765744981749E-08	-1135410.75	6.19630809524097E-05
2	645	131.290534668523	0.112152099609375	0.11224365234375	-1.56249999999999E-07	-1.75380705513817E-08	-718359.375	6.19497877778485E-05
2	646	131.391242668269	0.102081298828125	0.102142333984375	-2.24914550781249E-07	-2.2973296154305E-08	-454138.40625	6.19305938016623E-05
2	647	131.491950668015	0.092010498046875	0.092010498046875	-3.1768798828125E-07	-2.92306285842869E-08	-289625.375	6.19032725808211E-05
2	648	131.59265866776	0.081939697265625	0.08197021484375	-4.437255859375E-07	-3.63722811869138E-08	-184731.78125	6.18649282841943E-05
2	649	131.693366667506	0.071868896484375	0.071929931640625	-6.072998046875E-07	-4.36830340788674E-08	-118442.2109375	6.18120102444664E-05
2	650	131.794074667252	0.061798095703125	0.0618896484375	-8.099365234375E-07	-5.01266868013772E-08	-76412.9609375	6.17406403762288E-05
2	651	131.894782666998	0.051727294921875	0.051788330078125	-1.04827880859375E-06	-5.42886091636774E-08	-49403.203125	6.16470788372681E-05
2	652	131.995490666743	0.041656494140625	0.041705322265625	-1.30828857421875E-06	-5.45625944425865E-08	-31877.76953125	6.15284152445383E-05
2	653	132.096198666489	0.031585693359375	0.0316741943359375	-1.56890869140625E-06	-4.96939165373078E-08	-20188.681640625	6.13835363765247E-05
2	654	132.196906666235	0.021514892578125	0.0216094970703125	-1.80267333984375E-06	-3.89548624468716E-08	-11987.47265625	6.12137591815554E-05
2	655	132.297614665981	0.011444091796875	0.0115509033203125	-1.98516845703125E-06	-2.29304877308323E-08	-5818.60107421875	6.10230272286572E-05
2	656	132.398322665726	0.001373291015625	0.0014801025390625	-2.1038818359375E-06	-3.1139608669406E-09	-703.510314941406	6.08171285421122E-05
2	657	132.499030665472	-0.008697509765625	-0.008624267578125	-2.156982421875E-06	1.86023942916336E-08	3998.30224609375	6.0602578741964E-05
2	658	132.599738665218	-0.018768310546875	-0.0186676025390625	-2.154541015625E-06	4.02201152382986E-08	8664.306640625	6.03854750806931E-05
2	659	132.700446664964	-0.028839111328125	-0.028704833984375	-2.11212158203125E-06	6.06280963211248E-08	13590.521484375	6.01706306042615E-05
2	660	132.801154664709	-0.038909912109375	-0.03878173828125	-2.047119140625E-06	7.93908370155805E-08	18944.544921875	5.99611958023161E-05
2	661	132.901862664455	-0.048980712890625	-0.0488189697265625	-1.9708251953125E-06	9.6213653932864E-08	24770.826171875	5.97588768869173E-05
2	662	133.002570664201	-0.059051513671875	-0.058990478515625	-1.8927001953125E-06	1.11651289103065E-07	31167.365234375	5.95643323322292E-05
2	663	133.103278663947	-0.069122314453125	-0.06903076171875	-1.817626953125E-06	1.25472169543173E-07	37978.51171875	5.9377503930591E-05
2	664	133.203986663692	-0.079193115234375	-0.0791015625	-1.749267578125E-06	1.38369799174143E-07	45219.8203125	5.91978969168849E-05
2	665	133.304694663438	-0.089263916015625	-0.08917236328125	-1.6876220703125E-06	1.50489242400909E-07	52839.0625	5.90248346270528E-05
2	666	133.405402663184	-0.099334716796875	-0.099212646484375	-1.63360595703125E-06	1.62074371701237E-07	60732.30078125	5.88575967412908E-05
2	667	133.506110662929	-0.109405517578125	-0.10931396484375	-1.58721923828125E-06	1.73505227962778E-07	68871.375	5.86954156460706E-05
2	668	133.606818662675	-0.119476318359375	-0.119384765625	-1.546630859375E-06	1.84644164846759E-07	77190.2109375	5.85376146773342E-05
2	669	133.707526662421	-0.129547119140625	-0.129425048828125	-1.51214599609375E-06	1.95709574768443E-07	85590.3125	5.83835935685784E-05
2	670	133.808234662167	-0.139617919921875	-0.1395263671875	-1.48406982421875E-06	2.07066861435123E-07	94016.0390625	5.82327229494695E-05
2	671	133.908942661912	-0.149688720703125	-0.149627685546875	-1.4599609375E-06	2.18450566080719E-07	102487.4609375	5.80844789510593E-05
2	672	134.009650661658	-0.159759521484375	-0.159637451171875	-1.4398193359375E-06	2.29849078436928E-07	110873.2578125	5.7938461395679E-05
2	673	134.110358661404	-0.169830322265625	-0.169708251953125	-1.424560546875E-06	2.41759664731944E-07	119130.25	5.77942300878931E-05
2	674	134.21106666115	-0.179901123046875	-0.17974853515625	-1.41265869140625E-06	2.53923332138584E-07	127241.3046875	5.76513630221598E-05
2	675	134.311774660895	-0.189971923828125	-0.189788818359375	-1.40350341796875E-06	2.66369255541576E-07	135225.0625	5.75095582462382E-05
2	676	134.412482660641	-0.200042724609375	-0.19989013671875	-1.39801025390625E-06	2.79448443052388E-07	142981.890625	5.73684919800144E-05
2	677	134.513190660387	-0.189971923828125	-0.189788818359375	-1.23870849609375E-06	2.3509301172453E-07	153215.078125	5.72357203054707E-05
