Potential - OCP -0.0243472529392616 V
Time (s)	WE(1).Potential (V)
7.32831698149778	-0.0243560791015625
7.4283169812453	-0.024359130859375
7.52831698099283	-0.024359130859375
7.62831698074035	-0.0243621826171875
7.72831698048788	-0.0243621826171875
7.8283169802354	-0.0243621826171875
7.92831697998292	-0.0243621826171875
8.02831697973045	-0.0243621826171875
8.12831697947797	-0.0243621826171875
8.2283169792255	-0.0243621826171875
8.32831697897302	-0.024365234375
8.42831697872055	-0.0243682861328125
8.52831697846807	-0.024371337890625
8.62831697821559	-0.024371337890625
8.72831697796312	-0.0243743896484375
8.82831697771064	-0.02437744140625
8.92831697745817	-0.0243804931640625
9.02831697720569	-0.0243804931640625
9.12831697695322	-0.024383544921875
9.22831697670074	-0.0243865966796875
9.32831697644826	-0.0243865966796875
9.42831697619579	-0.0243927001953125
9.52831697594331	-0.0243927001953125
9.62831697569084	-0.024395751953125
9.72831697543836	-0.024395751953125
9.82831697518588	-0.0243988037109375
9.92831697493341	-0.0243988037109375
10.0283169746809	-0.02440185546875
10.1283169744285	-0.0244049072265625
10.228316974176	-0.0244049072265625
10.3283169739235	-0.024407958984375
10.428316973671	-0.024407958984375
10.5283169734186	-0.0244110107421875
10.6283169731661	-0.0244140625
10.7283169729136	-0.0244171142578125
10.8283169726611	-0.024420166015625
10.9283169724087	-0.0244171142578125
11.0283169721562	-0.024420166015625
11.1283169719037	-0.024420166015625
11.2283169716512	-0.024420166015625
11.3283169713987	-0.024420166015625
11.4283169711463	-0.0244232177734375
11.5283169708938	-0.0244232177734375
11.6283169706413	-0.0244232177734375
11.7283169703888	-0.02442626953125
11.8283169701364	-0.024432373046875
11.9283169698839	-0.024432373046875
12.0283169696314	-0.024432373046875
12.1283169693789	-0.024432373046875
12.2283169691265	-0.0244354248046875
12.328316968874	-0.0244354248046875
12.4283169686215	-0.0244354248046875
12.528316968369	-0.0244384765625
12.6283169681166	-0.0244384765625
12.7283169678641	-0.0244384765625
12.8283169676116	-0.0244384765625
12.9283169673591	-0.0244415283203125
13.0283169671067	-0.0244415283203125
13.1283169668542	-0.0244415283203125
13.2283169666017	-0.0244415283203125
13.3283169663492	-0.024444580078125
13.4283169660968	-0.024444580078125
13.5283169658443	-0.024444580078125
13.6283169655918	-0.024444580078125
13.7283169653393	-0.0244476318359375
13.8283169650869	-0.0244476318359375
13.9283169648344	-0.02445068359375
14.0283169645819	-0.02445068359375
14.1283169643294	-0.02445068359375
14.228316964077	-0.02445068359375
14.3283169638245	-0.0244537353515625
14.428316963572	-0.0244537353515625
14.5283169633195	-0.0244537353515625
14.628316963067	-0.02445068359375
14.7283169628146	-0.0244537353515625
14.8283169625621	-0.0244537353515625
14.9283169623096	-0.0244537353515625
15.0283169620571	-0.02445068359375
15.1283169618047	-0.024444580078125
15.2283169615522	-0.0244476318359375
15.3283169612997	-0.0244476318359375
15.4283169610472	-0.02445068359375
15.5283169607948	-0.02445068359375
15.6283169605423	-0.024456787109375
15.7283169602898	-0.02445068359375
15.8283169600373	-0.0244476318359375
15.9283169597849	-0.024444580078125
16.0283169595324	-0.0244415283203125
16.1283169592799	-0.0244415283203125
16.2283169590274	-0.0244415283203125
16.328316958775	-0.0244415283203125
16.4283169585225	-0.0244415283203125
16.52831695827	-0.0244384765625
16.6283169580175	-0.0244384765625
16.7283169577651	-0.0244354248046875
16.8283169575126	-0.0244354248046875
16.9283169572601	-0.0244354248046875
17.0283169570076	-0.024432373046875
17.1283169567552	-0.024432373046875
17.2283169565027	-0.0244293212890625
17.3283169562502	-0.0244293212890625
17.4283169559977	-0.02442626953125
17.5283169557453	-0.0244232177734375
17.6283169554928	-0.0244232177734375
17.7283169552403	-0.0244232177734375
17.8283169549878	-0.024420166015625
17.9283169547354	-0.024420166015625
18.0283169544829	-0.024420166015625
18.1283169542304	-0.0244171142578125
18.2283169539779	-0.0244171142578125
18.3283169537254	-0.0244171142578125
18.428316953473	-0.0244171142578125
18.5283169532205	-0.0244171142578125
18.628316952968	-0.0244110107421875
18.7283169527155	-0.0244110107421875
18.8283169524631	-0.024407958984375
18.9283169522106	-0.024407958984375
19.0283169519581	-0.0244049072265625
19.1283169517056	-0.0244049072265625
19.2283169514532	-0.02440185546875
19.3283169512007	-0.0243988037109375
19.4283169509482	-0.024395751953125
19.5283169506957	-0.024395751953125
19.6283169504433	-0.0243927001953125
19.7283169501908	-0.0243927001953125
19.8283169499383	-0.0243927001953125
19.9283169496858	-0.0243927001953125
20.0283169494334	-0.0243927001953125
20.1283169491809	-0.02440185546875
20.2283169489284	-0.0244049072265625
20.3283169486759	-0.0243927001953125
20.4283169484235	-0.0243988037109375
20.528316948171	-0.0244110107421875
20.6283169479185	-0.02440185546875
20.728316947666	-0.02440185546875
20.8283169474136	-0.0243988037109375
20.9283169471611	-0.0243927001953125
21.0283169469086	-0.0243682861328125
21.1283169466561	-0.0243621826171875
21.2283169464037	-0.024365234375
21.3283169461512	-0.024371337890625
21.4283169458987	-0.02437744140625
21.5283169456462	-0.02437744140625
21.6283169453937	-0.0243743896484375
21.7283169451413	-0.0243743896484375
21.8283169448888	-0.0243804931640625
21.9283169446363	-0.0243743896484375
22.0283169443838	-0.0243682861328125
22.1283169441314	-0.0243865966796875
22.2283169438789	-0.0243927001953125
22.3283169436264	-0.0243804931640625
22.4283169433739	-0.0243621826171875
22.5283169431215	-0.0243621826171875
22.628316942869	-0.024371337890625
22.7283169426165	-0.0243621826171875
22.828316942364	-0.0243682861328125
22.9283169421116	-0.0243743896484375
23.0283169418591	-0.024371337890625
23.1283169416066	-0.02437744140625
23.2283169413541	-0.0243804931640625
23.3283169411017	-0.0243743896484375
23.4283169408492	-0.0243408203125
23.5283169405967	-0.0243408203125
23.6283169403442	-0.0243408203125
23.7283169400918	-0.0243072509765625
23.8283169398393	-0.024285888671875
23.9283169395868	-0.0242919921875
24.0283169393343	-0.0243011474609375
24.1283169390819	-0.0243072509765625
24.2283169388294	-0.0243133544921875
24.3283169385769	-0.02431640625
24.4283169383244	-0.024322509765625
24.528316938072	-0.0243194580078125
24.6283169378195	-0.0243255615234375
24.728316937567	-0.02432861328125
24.8283169373145	-0.02432861328125
24.928316937062	-0.024334716796875
25.0283169368096	-0.0243316650390625
25.1283169365571	-0.024322509765625
25.2283169363046	-0.024322509765625
25.3283169360521	-0.024322509765625
25.4283169357997	-0.0243194580078125
25.5283169355472	-0.024322509765625
25.6283169352947	-0.0243194580078125
25.7283169350422	-0.0243194580078125
25.8283169347898	-0.0243194580078125
25.9283169345373	-0.024322509765625
26.0283169342848	-0.024322509765625
26.1283169340323	-0.024322509765625
26.2283169337799	-0.024322509765625
26.3283169335274	-0.024322509765625
26.4283169332749	-0.024322509765625
26.5283169330224	-0.0243255615234375
26.62831693277	-0.02432861328125
26.7283169325175	-0.0243255615234375
26.828316932265	-0.024322509765625
26.9283169320125	-0.024322509765625
27.0283169317601	-0.0243255615234375
27.1283169315076	-0.0243255615234375
27.2283169312551	-0.02432861328125
27.3283169310026	-0.02432861328125
27.4283169307502	-0.02432861328125
27.5283169304977	-0.02432861328125
27.6283169302452	-0.02432861328125
27.7283169299927	-0.0243316650390625
27.8283169297403	-0.0243377685546875
27.9283169294878	-0.0243377685546875
28.0283169292353	-0.0243377685546875
28.1283169289828	-0.0243377685546875
28.2283169287304	-0.024334716796875
28.3283169284779	-0.0243316650390625
28.4283169282254	-0.024334716796875
28.5283169279729	-0.0243377685546875
28.6283169277204	-0.0243377685546875
28.728316927468	-0.024334716796875
28.8283169272155	-0.0243316650390625
28.928316926963	-0.024334716796875
29.0283169267105	-0.0243377685546875
29.1283169264581	-0.024334716796875
29.2283169262056	-0.0243072509765625
29.3283169259531	-0.0243072509765625
29.4283169257006	-0.02432861328125
29.5283169254482	-0.0243408203125
29.6283169251957	-0.0243255615234375
29.7283169249432	-0.024334716796875
29.8283169246907	-0.024346923828125
29.9283169244383	-0.024346923828125
30.0283169241858	-0.0243408203125
30.1283169239333	-0.0243377685546875
30.2283169236808	-0.02432861328125
30.3283169234284	-0.0243408203125
30.4283169231759	-0.024334716796875
30.5283169229234	-0.024334716796875
30.6283169226709	-0.0243316650390625
30.7283169224185	-0.024334716796875
30.828316922166	-0.024334716796875
30.9283169219135	-0.0243408203125
31.028316921661	-0.0243408203125
31.1283169214086	-0.0243377685546875
31.2283169211561	-0.024334716796875
31.3283169209036	-0.024334716796875
31.4283169206511	-0.024334716796875
31.5283169203987	-0.0243377685546875
31.6283169201462	-0.0243408203125
31.7283169198937	-0.0243438720703125
31.8283169196412	-0.0243438720703125
31.9283169193887	-0.0243438720703125
32.0283169191363	-0.0243438720703125
32.1283169188838	-0.0243438720703125
32.2283169186313	-0.0243438720703125
32.3283169183788	-0.0243438720703125
32.4283169181264	-0.0243377685546875
32.5283169178739	-0.0243408203125
32.6283169176214	-0.0243377685546875
32.7283169173689	-0.0243316650390625
32.8283169171165	-0.02435302734375
32.928316916864	-0.0243499755859375
33.0283169166115	-0.0243499755859375
33.128316916359	-0.0243499755859375
33.2283169161066	-0.0243499755859375
33.3283169158541	-0.024346923828125
33.4283169156016	-0.024346923828125
33.5283169153491	-0.024346923828125
33.6283169150967	-0.024346923828125
33.7283169148442	-0.024346923828125
33.8283169145917	-0.024346923828125
33.9283169143392	-0.0243438720703125
34.0283169140868	-0.0243408203125
34.1283169138343	-0.0243438720703125
34.2283169135818	-0.0243438720703125
34.3283169133293	-0.0243438720703125
34.4283169130769	-0.0243438720703125
34.5283169128244	-0.024346923828125
34.6283169125719	-0.024346923828125
34.7283169123194	-0.0243438720703125
34.828316912067	-0.0243438720703125
34.9283169118145	-0.0243499755859375
35.028316911562	-0.0243438720703125
35.1283169113095	-0.0243377685546875
35.228316911057	-0.0243377685546875
35.3283169108046	-0.02432861328125
35.4283169105521	-0.0243408203125
35.5283169102996	-0.0243621826171875
35.6283169100471	-0.0243499755859375
35.7283169097947	-0.0243499755859375
35.8283169095422	-0.0243499755859375
35.9283169092897	-0.0243499755859375
36.0283169090372	-0.0243499755859375
36.1283169087848	-0.0243499755859375
36.2283169085323	-0.02435302734375
36.3283169082798	-0.02435302734375
36.4283169080273	-0.0243499755859375
36.5283169077749	-0.0243499755859375
36.6283169075224	-0.0243560791015625
36.7283169072699	-0.0243560791015625
36.8283169070174	-0.0243560791015625
36.928316906765	-0.0243560791015625
37.0283169065125	-0.0243560791015625
37.12831690626	-0.024359130859375
37.2283169060075	-0.024359130859375
