Potential,Current,Normalized_Potential,Normalized_Current
1.50497436523438,5.98449707031251e-07,1.46530151367188,0.09214359552673636
1.49993896484375,6.44226074218748e-07,1.46026611328125,0.0991918052814582
1.49490356445313,6.3079833984375e-07,1.45523071289063,0.0971243304200733
1.4898681640625,6.14624023437499e-07,1.4501953125,0.0946339629734046
1.48483276367188,5.99365234374999e-07,1.44515991210938,0.0922845597218305
1.47979736328125,5.85632324218751e-07,1.44012451171875,0.09017009679541411
1.47476196289063,5.73120117187501e-07,1.43508911132813,0.08824358612912335
1.4697265625,5.62133789062502e-07,1.4300537109375,0.08655201578799016
1.46469116210938,5.52978515624999e-07,1.42501831054688,0.08514237383704523
1.45965576171875,5.45043945312501e-07,1.41998291015625,0.08392068414622701
1.45462036132813,5.37109375e-07,1.41494750976563,0.08269899445540833
1.4495849609375,5.3009033203125e-07,1.409912109375,0.08161826895968424
1.44454956054688,5.2490234375e-07,1.40487670898438,0.08081947185414905
1.43951416015625,5.19409179687499e-07,1.39984130859375,0.0799736866835822
1.43447875976563,5.157470703125e-07,1.39480590820313,0.07940982990320458
1.429443359375,5.11779785156249e-07,1.3897705078125,0.07879898505779517
1.42440795898438,5.0872802734375e-07,1.38473510742188,0.0783291044074805
1.41937255859375,5.05981445312498e-07,1.37969970703125,0.07790621182219686
1.41433715820313,5.04150390624999e-07,1.37466430664063,0.07762428343200813
1.4093017578125,5.02319335937498e-07,1.36962890625,0.07734235504181906
1.40426635742188,5.01098632812502e-07,1.36459350585938,0.07715440278169376
1.39923095703125,4.99572753906249e-07,1.35955810546875,0.07691946245653589
1.39419555664063,4.99267578125001e-07,1.35452270507813,0.07687247439150471
1.38916015625,4.99267578124999e-07,1.3494873046875,0.07687247439150441
1.38412475585938,4.9896240234375e-07,1.34445190429688,0.07682548632647307
1.37908935546875,4.99267578125001e-07,1.33941650390625,0.07687247439150471
1.37405395507813,4.9896240234375e-07,1.33438110351563,0.07682548632647307
1.3690185546875,4.99572753906252e-07,1.329345703125,0.07691946245653634
1.36398315429688,4.99877929687501e-07,1.32431030273438,0.07696645052156767
1.35894775390625,5.0048828125e-07,1.31927490234375,0.07706042665163049
1.35391235351563,5.0201416015625e-07,1.31423950195313,0.07729536697678789
1.348876953125,5.02929687499998e-07,1.3092041015625,0.07743633117188203
1.34384155273438,5.035400390625e-07,1.30416870117188,0.07753030730194531
1.33880615234375,5.0506591796875e-07,1.29913330078125,0.07776524762710271
1.33377075195313,5.06591796875e-07,1.29409790039063,0.07800018795226012
1.3287353515625,5.07812499999999e-07,1.2890625,0.0781881402123859
1.32369995117188,5.0811767578125e-07,1.28402709960938,0.07823512827741753
1.31866455078125,5.10559082031251e-07,1.27899169921875,0.07861103279766954
1.31362915039063,5.12084960937501e-07,1.27395629882813,0.07884597312282696
1.30859375,5.133056640625e-07,1.2689208984375,0.07903392538295273
1.30355834960938,5.15136718749998e-07,1.26388549804688,0.0793158537731413
1.29852294921875,5.16662597656251e-07,1.25885009765625,0.07955079409829918
1.29348754882813,5.17578125000001e-07,1.25381469726563,0.07969175829339363
1.2884521484375,5.18798828125e-07,1.248779296875,0.0798797105535194
1.28341674804688,5.20019531250002e-07,1.24374389648438,0.08006766281364563
1.27838134765625,5.20629882812501e-07,1.23870849609375,0.08016163894370845
1.27334594726563,5.23071289062499e-07,1.23367309570313,0.08053754346396
1.268310546875,5.23986816406252e-07,1.2286376953125,0.08067850765905492
1.26327514648438,5.25207519531248e-07,1.22360229492188,0.08086645991918022
1.25823974609375,5.26123046874999e-07,1.21856689453125,0.08100742411427482
1.25320434570313,5.27038574218749e-07,1.21353149414063,0.08114838830936925
1.2481689453125,5.27648925781249e-07,1.20849609375,0.08124236443943224
1.24313354492188,5.28259277343749e-07,1.20346069335938,0.0813363405694952
1.23809814453125,5.2886962890625e-07,1.19842529296875,0.08143031669955832
1.23306274414063,5.29174804687499e-07,1.19338989257813,0.08147730476458963
1.22802734375,5.29174804687501e-07,1.1883544921875,0.08147730476458995
1.22299194335938,5.29174804687499e-07,1.18331909179688,0.08147730476458963
1.21795654296875,5.29174804687499e-07,1.17828369140625,0.08147730476458963
1.21292114257813,5.29785156250001e-07,1.17324829101563,0.0815712808946529
1.2078857421875,5.28869628906251e-07,1.168212890625,0.08143031669955847
1.20285034179688,5.28259277343748e-07,1.16317749023438,0.08133634056949503
1.19781494140625,5.27648925781252e-07,1.15814208984375,0.0812423644394327
1.19277954101563,5.27648925781249e-07,1.15310668945313,0.08124236443943224
1.187744140625,5.26733398437499e-07,1.1480712890625,0.08110140024433778
1.18270874023438,5.25512695312499e-07,1.14303588867188,0.08091344798421185
1.17767333984375,5.2490234375e-07,1.13800048828125,0.08081947185414905
1.17263793945313,5.242919921875e-07,1.13296508789063,0.08072549572408608
1.1676025390625,5.23681640625002e-07,1.1279296875,0.08063151959402341
1.16256713867188,5.23071289062499e-07,1.12289428710938,0.08053754346396
1.15753173828125,5.22766113281248e-07,1.11785888671875,0.08049055539892835
1.15249633789063,5.22766113281251e-07,1.11282348632813,0.08049055539892883
1.1474609375,5.22460937499999e-07,1.1077880859375,0.08044356733389704
1.14242553710938,5.218505859375e-07,1.10275268554688,0.08034959120383423
1.13739013671875,5.23071289062499e-07,1.09771728515625,0.08053754346396
1.13235473632813,5.22766113281251e-07,1.09268188476563,0.08049055539892883
1.1273193359375,5.23071289062502e-07,1.087646484375,0.08053754346396046
1.12228393554688,5.242919921875e-07,1.08261108398438,0.08072549572408608
1.11724853515625,5.2642822265625e-07,1.07757568359375,0.08105441217930646
1.11221313476563,5.27954101562499e-07,1.07254028320313,0.08128935250446372
1.107177734375,5.30090332031249e-07,1.0675048828125,0.08161826895968409
1.10214233398438,5.3253173828125e-07,1.06246948242188,0.0819941734799361
1.09710693359375,5.34973144531251e-07,1.05743408203125,0.0823700780001881
1.09207153320313,5.39855957031252e-07,1.05239868164063,0.08312188704069197
1.0870361328125,5.44433593749999e-07,1.04736328125,0.08382670801616374
1.08200073242188,5.499267578125e-07,1.04232788085938,0.08467249318673058
1.07696533203125,5.56640624999998e-07,1.03729248046875,0.08570623061742286
1.07192993164063,5.63659667968749e-07,1.03225708007813,0.0867869561131471
1.06689453125,5.72509765625001e-07,1.0272216796875,0.0881496099990604
1.06185913085938,5.83496093750002e-07,1.02218627929688,0.0898411803401939
1.05682373046875,5.95703125e-07,1.01715087890625,0.09172070294145286
1.05178833007813,6.10046386718752e-07,1.01211547851563,0.09392914199793284
1.0467529296875,6.2774658203125e-07,1.007080078125,0.09665444976975848
1.04171752929688,6.48193359374999e-07,1.00204467773438,0.09980265012686762
1.03668212890625,6.72607421874999e-07,0.99700927734375,0.10356169532938617
1.03164672851563,7.00073242187499e-07,0.9919738769531301,0.10779062118221956
1.026611328125,7.34252929687501e-07,0.9869384765625,0.11305328446574585
1.02157592773438,7.74230957031249e-07,0.9819030761718801,0.11920872098486969
1.01654052734375,8.20007324218749e-07,0.97686767578125,0.126256930739592
1.01150512695313,8.7493896484375e-07,0.9718322753906301,0.1347147824452589
1.0064697265625,9.393310546875e-07,0.966796875,0.14462926416690158
1.00143432617188,1.0162353515625e-06,0.9617614746093801,0.15647025655483507
0.99639892578125,1.10595703125e-06,0.95672607421875,0.17028474767409077
0.991363525390625,1.21124267578125e-06,0.951690673828125,0.18649563010995207
0.986328125,1.3360595703125e-06,0.9466552734375,0.2057137487078282
0.981292724609375,1.48193359375e-06,0.941619873046875,0.2281740437928766
0.97625732421875,1.6510009765625e-06,0.93658447265625,0.25420543182031763
0.971221923828125,1.84783935546875e-06,0.931549072265625,0.2845127337656235
0.9661865234375,2.0751953125e-06,0.926513671875,0.3195188422140776
0.961151123046875,2.33642578125e-06,0.921478271484375,0.35974062588102623
0.95611572265625,2.63336181640625e-06,0.91644287109375,0.4054600131566582
0.951080322265625,2.9669189453125e-06,0.911407470703125,0.456817968236068
0.946044921875,3.3428955078125e-06,0.9063720703125,0.5147072643548538
0.941009521484375,3.75274658203125e-06,0.901336669921875,0.5778122356921341
0.93597412109375,4.20135498046875e-06,0.89630126953125,0.6468846912884126
0.930938720703125,4.681396484375e-06,0.891265869140625,0.720796917582934
0.9259033203125,5.19012451171875e-06,0.88623046875,0.7991260219904144
0.920867919921875,5.7135009765625e-06,0.881195068359375,0.879710553519406
0.91583251953125,6.24755859375e-06,0.87615966796875,0.9619396673244996
0.910797119140625,6.77825927734375e-06,0.871124267578125,1.0436519124142467
0.90576171875,7.2930908203125e-06,0.8660888671875,1.122920778122357
0.900726318359375,7.77313232421875e-06,0.861053466796875,1.196833004416878
0.89569091796875,8.20831298828125e-06,0.85601806640625,1.2638379851517714
0.890655517578125,8.58612060546875e-06,0.850982666015625,1.322009209660746
0.8856201171875,8.8897705078125e-06,0.845947265625,1.3687623343670707
0.880584716796875,9.11468505859375e-06,0.840911865234375,1.403392538295273
0.87554931640625,9.25323486328125e-06,0.83587646484375,1.4247251198195656
0.870513916015625,9.298095703125e-06,0.830841064453125,1.4316323653791936
0.865478515625,9.2559814453125e-06,0.8258056640625,1.4251480124048492
0.860443115234375,9.1217041015625e-06,0.820770263671875,1.4044732637909971
0.85540771484375,8.9080810546875e-06,0.81573486328125,1.3715816182689595
0.850372314453125,8.6273193359375e-06,0.810699462890625,1.3283525984399962
0.8453369140625,8.29437255859375e-06,0.8056640625,1.2770886194906492
0.840301513671875,7.9193115234375e-06,0.800628662109375,1.219340287566958
0.83526611328125,7.53021240234375e-06,0.79559326171875,1.1594305046518183
0.830230712890625,7.1429443359375e-06,0.790557861328125,1.0998026501268676
0.8251953125,6.7803955078125e-06,0.7855224609375,1.043980828869467
0.820159912109375,6.45965576171875e-06,0.780487060546875,0.9945963725213796
0.81512451171875,6.20330810546875e-06,0.77545166015625,0.9551263978949347
0.810089111328125,6.02783203125e-06,0.770416259765625,0.9281082605018325
0.8050537109375,5.94085693359375e-06,0.765380859375,0.9147166619678602
0.800018310546875,5.9588623046875e-06,0.760345458984375,0.9174889578047175
0.79498291015625,6.07635498046875e-06,0.75531005859375,0.9355793628418382
0.789947509765625,6.30767822265625e-06,0.750274658203125,0.9711963161357016
0.784912109375,6.64581298828125e-06,0.7452392578125,1.0232590921905835
0.779876708984375,7.0843505859375e-06,0.740203857421875,1.0907809416408232
0.77484130859375,7.62237548828125e-06,0.73516845703125,1.1736209002913258
0.769805908203125,8.24127197265625e-06,0.730133056640625,1.2689126961751716
0.7647705078125,8.92822265625e-06,0.72509765625,1.3746828305610375
0.759735107421875,9.66705322265625e-06,0.720062255859375,1.4884409360022552
0.75469970703125,1.044189453125e-05,0.71502685546875,1.6077436331171882
0.749664306640625,1.1236572265625e-05,0.709991455078125,1.7301005544591674
0.74462890625,1.20086669921875e-05,0.7049560546875,1.8489803589888167
0.739593505859375,1.27593994140625e-05,0.699920654296875,1.9645709989662625
0.73455810546875,1.34674072265625e-05,0.69488525390625,2.073583309839301
0.729522705078125,1.41204833984375e-05,0.689849853515625,2.174137769006672
0.7244873046875,1.47064208984375e-05,0.684814453125,2.2643548538671174
0.719451904296875,1.52105712890625e-05,0.679779052734375,2.3419791372991257
0.71441650390625,1.56350708007813e-05,0.67474365234375,2.407339535757925
0.709381103515625,1.59701538085938e-05,0.669708251953125,2.4589324311624923
0.704345703125,1.620849609375e-05,0.6646728515625,2.495630109952072
0.699310302734375,1.63461303710938e-05,0.659637451171875,2.516821727281278
0.69427490234375,1.638916015625e-05,0.65460205078125,2.5234470444507093
0.689239501953125,1.63314819335938e-05,0.649566650390625,2.514566300159767
0.6842041015625,1.61648559570312e-05,0.64453125,2.488910816652562
0.679168701171875,1.589111328125e-05,0.639495849609375,2.4467625223193306
0.67413330078125,1.55120849609375e-05,0.63446044921875,2.38840334555023
0.669097900390625,1.50192260742188e-05,0.629425048828125,2.3125176205243942
0.6640625,1.44113159179688e-05,0.6243896484375,2.2189173949816823
0.659027099609375,1.36996459960937e-05,0.619354248046875,2.109341227328251
0.65399169921875,1.2900390625e-05,0.61431884765625,1.9862794850108072
0.648956298828125,1.20159912109375e-05,0.609283447265625,1.8501080725495722
0.6439208984375,1.10671997070313e-05,0.604248046875,1.7040221783667024
0.638885498046875,1.00857543945313e-05,0.599212646484375,1.5529085612254563
0.63385009765625,9.0924072265625e-06,0.59417724609375,1.3999624095479746
0.628814697265625,8.114013671875e-06,0.589141845703125,1.2493186730570436
0.623779296875,7.1783447265625e-06,0.5841064453125,1.1052532656705196
0.618743896484375,6.30096435546875e-06,0.579071044921875,0.9701625787050088
0.61370849609375,5.50262451171875e-06,0.57403564453125,0.847241800582652
0.608673095703125,4.77691650390625e-06,0.569000244140625,0.7355041819377878
0.6036376953125,4.13482666015625e-06,0.56396484375,0.6366412931115496
0.598602294921875,3.57421875e-06,0.558929443359375,0.5503242176487172
0.59356689453125,3.0865478515625e-06,0.55389404296875,0.47523728972840895
0.588531494140625,2.6708984375e-06,0.548858642578125,0.41123954515553046
0.58349609375,2.3138427734375e-06,0.5438232421875,0.3562635090686965
0.578460693359375,2.01812744140625e-06,0.538787841796875,0.3107320740531905
0.57342529296875,1.77093505859375e-06,0.53375244140625,0.27267174137769007
0.568389892578125,1.566162109375e-06,0.528717041015625,0.24114274974156563
0.5633544921875,1.395263671875e-06,0.523681640625,0.2148294333239357
0.558319091796875,1.25213623046875e-06,0.518646240234375,0.19279203082417065
0.55328369140625,1.136474609375e-06,0.51361083984375,0.174983554177239
0.548248291015625,1.04217529296875e-06,0.508575439453125,0.16046424208251103
0.543212890625,9.6405029296875e-07,0.5035400390625,0.14843529743445164
0.538177490234375,9.01794433593749e-07,0.498504638671875,0.13884973216802918
0.53314208984375,8.5113525390625e-07,0.49346923828125,0.1310497133728033
0.528106689453125,8.087158203125e-07,0.488433837890625,0.1245183723334273
0.5230712890625,7.75146484375e-07,0.4833984375,0.11934968517996428
0.518035888671875,7.47070312500001e-07,0.478363037109375,0.11502678319706809
0.51300048828125,7.24182128906251e-07,0.47332763671875,0.11150267831970694
0.507965087890625,7.061767578125e-07,0.468292236328125,0.10873038248284936
0.5029296875,6.9091796875e-07,0.4632568359375,0.10638097923127525
0.497894287109375,6.793212890625e-07,0.458221435546875,0.10459543276007893
0.49285888671875,6.69250488281251e-07,0.45318603515625,0.10304482661404019
0.487823486328125,6.61315917968749e-07,0.448150634765625,0.10182313692322134
0.4827880859375,6.56433105468751e-07,0.443115234375,0.10107132788271794
0.477752685546875,6.512451171875e-07,0.438079833984375,0.1002725307771826
0.47271728515625,6.48193359375e-07,0.43304443359375,0.09980265012686776
0.467681884765625,6.45751953125e-07,0.428009033203125,0.09942674560661592
0.462646484375,6.44836425781251e-07,0.4229736328125,0.09928578141152163
0.457611083984375,6.4422607421875e-07,0.417938232421875,0.0991918052814585
0.45257568359375,6.43920898437502e-07,0.41290283203125,0.09914481721642733
0.447540283203125,6.44836425781251e-07,0.407867431640625,0.09928578141152163
0.4425048828125,6.4544677734375e-07,0.40283203125,0.09937975754158443
0.437469482421875,6.4666748046875e-07,0.397796630859375,0.09956770980171037
0.43243408203125,6.47583007812501e-07,0.39276123046875,0.09970867399680497
0.427398681640625,6.48193359375e-07,0.387725830078125,0.09980265012686776
0.42236328125,6.4971923828125e-07,0.3826904296875,0.10003759045202518
0.417327880859375,6.49719238281249e-07,0.377655029296875,0.10003759045202504
0.41229248046875,6.50634765625e-07,0.37261962890625,0.10017855464711962
0.407257080078125,6.5155029296875e-07,0.367584228515625,0.10031951884221407
0.4022216796875,6.5155029296875e-07,0.362548828125,0.10031951884221407
0.397186279296875,6.50939941406249e-07,0.357513427734375,0.10022554271215095
0.39215087890625,6.52160644531249e-07,0.35247802734375,0.10041349497227689
0.387115478515625,6.5185546875e-07,0.347442626953125,0.10036650690724556
0.382080078125,6.52160644531249e-07,0.3424072265625,0.10041349497227689
0.377044677734375,6.51855468750001e-07,0.337371826171875,0.1003665069072457
0.37200927734375,6.5277099609375e-07,0.33233642578125,0.10050747110234
0.366973876953125,6.536865234375e-07,0.327301025390625,0.10064843529743446
0.3619384765625,6.5521240234375e-07,0.322265625,0.10088337562259185
0.356903076171875,6.5643310546875e-07,0.317230224609375,0.10107132788271779
0.35186767578125,6.57348632812499e-07,0.31219482421875,0.10121229207781209
0.346832275390625,6.5887451171875e-07,0.307159423828125,0.10144723240296964
0.341796875,6.61010742187501e-07,0.3021240234375,0.10177614885819017
0.336761474609375,6.640625e-07,0.297088623046875,0.10224602950850484
0.33172607421875,6.65893554687499e-07,0.29205322265625,0.10252795789869358
0.326690673828125,6.68945312500001e-07,0.287017822265625,0.10299783854900871
0.3216552734375,6.7291259765625e-07,0.281982421875,0.10360868339441781
0.316619873046875,6.76879882812501e-07,0.276947021484375,0.10421952823982723
0.31158447265625,6.8023681640625e-07,0.27191162109375,0.10473639695517338
0.306549072265625,6.8511962890625e-07,0.266876220703125,0.1054882059956771
0.301513671875,6.89392089843749e-07,0.2618408203125,0.10614603890611769
0.296478271484375,6.95190429687499e-07,0.256805419921875,0.10703881214171584
0.29144287109375,7.000732421875e-07,0.25177001953125,0.1077906211822197
0.286407470703125,7.06787109375e-07,0.246734619140625,0.10882435861291231
0.2813720703125,7.1258544921875e-07,0.24169921875,0.10971713184851047
0.276336669921875,7.1990966796875e-07,0.236663818359375,0.11084484540926604
0.27130126953125,7.26928710937499e-07,0.23162841796875,0.11192557090498997
0.266265869140625,7.3394775390625e-07,0.226593017578125,0.1130062964007142
0.26123046875,7.42187499999999e-07,0.2215576171875,0.11427497415656407
0.256195068359375,7.5103759765625e-07,0.216522216796875,0.11563762804247721
0.25115966796875,7.5958251953125e-07,0.21148681640625,0.11695329386335869
0.246124267578125,7.70874023437501e-07,0.206451416015625,0.11869185226952368
0.2410888671875,7.8155517578125e-07,0.201416015625,0.12033643454562541
0.236053466796875,7.94067382812501e-07,0.196380615234375,0.12226294521191632
0.23101806640625,8.06579589843751e-07,0.19134521484375,0.12418945587820708
0.225982666015625,8.21533203125001e-07,0.186309814453125,0.1264918710647497
0.220947265625,8.3740234375e-07,0.1812744140625,0.1289352504463866
0.215911865234375,8.55407714843749e-07,0.176239013671875,0.1317075462832439
0.21087646484375,8.7554931640625e-07,0.17120361328125,0.13480875857532187
0.205841064453125,8.97827148437501e-07,0.166168212890625,0.1382388873226202
0.2008056640625,9.22546386718751e-07,0.1611328125,0.14204492059017024
0.195770263671875,9.49401855468751e-07,0.156097412109375,0.14617987031294066
0.19073486328125,9.796142578125e-07,0.15106201171875,0.1508316887510572
0.185699462890625,1.0137939453125e-06,0.146026611328125,0.15609435203458322
0.1806640625,1.05072021484375e-06,0.1409912109375,0.16177990790339256
0.175628662109375,1.09283447265625e-06,0.135955810546875,0.16826426087773705
0.17059326171875,1.13922119140625e-06,0.13092041015625,0.17540644676252232
0.165557861328125,1.19171142578125e-06,0.125885009765625,0.18348839394793723
0.1605224609375,1.24969482421875e-06,0.120849609375,0.1924161263039188
0.155487060546875,1.31622314453125e-06,0.115814208984375,0.2026595244807819
0.15045166015625,1.3916015625e-06,0.11077880859375,0.21426557654355793
0.145416259765625,1.47705078125e-06,0.105743408203125,0.2274222347523729
0.140380859375,1.575927734375e-06,0.1007080078125,0.24264636782257304
