Potential - Start -0.2 V, Upper Vertex 1.5 V, Lower Vertex -0.2 V, Stop -0.19 V; Scan - # end cross 5, Rate 0.1 Vps, Step 0.01 V 
Scan	Index	Time (s)	Potential applied (V)	WE(1).Potential (V)	WE(1).Current (A)	WE(1).Power (W)	WE(1).Resistance (Ω)	WE(1).Charge (C)
1	1	66.1115758330843	-0.189971923828125	-0.189849853515625	-2.3345947265625E-07	4.43222454293846E-08	813202.6875	0
1	2	66.2122838328301	-0.179901123046875	-0.179718017578125	-1.97753906250001E-07	3.55399407681034E-08	908796.3125	-2.17133173663342E-08
1	3	66.3129918325758	-0.169830322265625	-0.169708251953125	-1.6937255859375E-07	2.8743921021146E-08	1001982	-4.01996018695172E-08
1	4	66.4136998323215	-0.159759521484375	-0.15960693359375	-1.4617919921875E-07	2.33312125175189E-08	1091858.125	-5.6088897082418E-08
1	5	66.5144078320673	-0.149688720703125	-0.14959716796875	-1.2481689453125E-07	1.86722530770567E-08	1198533	-6.97346322908743E-08
1	6	66.615115831813	-0.139617919921875	-0.1395263671875	-1.0528564453125E-07	1.46901228958995E-08	1325217.375	-8.13212182038114E-08
1	7	66.7158238315587	-0.129547119140625	-0.12945556640625	-8.57543945312497E-08	1.11013838122176E-08	1509608.5	-9.09408441884807E-08
1	8	66.8165318313045	-0.119476318359375	-0.119415283203125	-6.77490234374994E-08	8.09026889925235E-09	1762612.625	-9.86703554417545E-08
1	9	66.9172398310502	-0.109405517578125	-0.109283447265625	-4.82177734375006E-08	5.26940446832214E-09	2266455.75	-1.04509751963633E-07
1	10	67.0179478307959	-0.099334716796875	-0.099273681640625	-2.83813476562506E-08	2.81752088326925E-09	3497849.5	-1.08366819517869E-07
1	11	67.1186558305417	-0.089263916015625	-0.089202880859375	-5.18798828124945E-09	4.62783505961184E-10	17194118	-1.10057172264533E-07
1	12	67.2193638302874	-0.079193115234375	-0.079132080078125	2.19726562499994E-08	-1.73874192821444E-09	-3601389.25	-1.09211995891201E-07
1	13	67.3200718300332	-0.069122314453125	-0.069061279296875	5.58471679687506E-08	-3.85687659587575E-09	-1236612	-1.05293459284894E-07
1	14	67.4207798297789	-0.059051513671875	-0.05902099609375	9.918212890625E-08	-5.85382764484166E-09	-595076.9375	-9.74871099401753E-08
1	15	67.5214878295246	-0.048980712890625	-0.048834228515625	1.5716552734375E-07	-7.675057034362E-09	-310718.4375	-8.45789784875706E-08
1	16	67.6221958292704	-0.038909912109375	-0.038751220703125	2.3468017578125E-07	-9.09414321625945E-09	-165123.546875	-6.48479812070946E-08
1	17	67.7229038290161	-0.028839111328125	-0.0287200927734375	3.387451171875E-07	-9.72879110605618E-09	-84783.78125	-3.59737271082849E-08
1	18	67.8236118287618	-0.018768310546875	-0.0186798095703125	4.7607421875E-07	-8.89297524508947E-09	-39237.1796875	5.05568520381416E-09
1	19	67.9243198285076	-0.008697509765625	-0.008624267578125	6.5460205078125E-07	-5.64546320802606E-09	-13174.8251953125	6.19897591036533E-08
1	20	68.0250278282533	0.001373291015625	0.0014678955078125	8.76770019531251E-07	1.28700672341608E-09	1674.20812988281	1.3910046448018E-07
1	21	68.1257358279991	0.011444091796875	0.01153564453125	1.138916015625E-06	1.31381296952782E-08	10128.6171875	2.40598325262908E-07
1	22	68.2264438277448	0.021514892578125	0.0215911865234375	1.42730712890625E-06	3.08172545260277E-08	15127.21875	3.69817911405335E-07
1	23	68.3271518274905	0.031585693359375	0.03167724609375	1.71783447265625E-06	5.44162617188704E-08	18440.220703125	5.28188365933602E-07
1	24	68.4278598272363	0.041656494140625	0.041729736328125	1.98486328125E-06	8.28278245990077E-08	21023.986328125	7.14633983989188E-07
1	25	68.528567826982	0.051727294921875	0.051788330078125	2.19879150390625E-06	1.13871735152316E-07	23553.08984375	9.25297740650421E-07
1	26	68.6292758267277	0.061798095703125	0.061798095703125	2.34375E-06	1.44839276572384E-07	26367.189453125	1.15403292966221E-06
1	27	68.7299838264735	0.071868896484375	0.071929931640625	2.41546630859375E-06	1.73744325593361E-07	29778.900390625	1.39367841711646E-06
1	28	68.8306918262192	0.081939697265625	0.08203125	2.42431640625E-06	1.98869699374882E-07	33836.859375	1.63738081937481E-06
1	29	68.9313998259649	0.092010498046875	0.092010498046875	2.38494873046875E-06	2.19440309479069E-07	38579.65625	1.87954663033452E-06
1	30	69.0321078257107	0.102081298828125	0.10211181640625	2.3162841796875E-06	2.36519966279047E-07	44084.32421875	2.11627252610924E-06
1	31	69.1328158254564	0.112152099609375	0.11224365234375	2.232666015625E-06	2.50602596452154E-07	50273.375	2.34533035836648E-06
1	32	69.2335238252022	0.122222900390625	0.122283935546875	2.144775390625E-06	2.62271584006157E-07	57014.796875	2.56575208368304E-06
1	33	69.3342318249479	0.132293701171875	0.13232421875	2.05780029296875E-06	2.72296801995253E-07	64303.7265625	2.77736853604438E-06
1	34	69.4349398246936	0.142364501953125	0.1424560546875	1.97662353515625E-06	2.815819755142E-07	72070.40625	2.98051782010589E-06
1	35	69.5356478244394	0.152435302734375	0.1524658203125	1.90216064453125E-06	2.90014469328526E-07	80154.015625	3.1758302156959E-06
1	36	69.6363558241851	0.162506103515625	0.16253662109375	1.834716796875E-06	2.98208647109277E-07	88589.4921875	3.36399693878775E-06
1	37	69.7370638239308	0.172576904296875	0.172576904296875	1.7742919921875E-06	3.06201798139227E-07	97265.2265625	3.5457248941384E-06
1	38	69.8377718236766	0.182647705078125	0.182647705078125	1.72027587890625E-06	3.14204413598418E-07	106173.5	3.72169029105862E-06
1	39	69.9384798234223	0.192718505859375	0.192779541015625	1.67236328125E-06	3.22397426089083E-07	115273.71875	3.89252318200306E-06
1	40	70.039187823168	0.202789306640625	0.202850341796875	1.629638671875E-06	3.30572760276482E-07	124475.65625	4.05879245590768E-06
1	41	70.1398958229138	0.212860107421875	0.212890625	1.590576171875E-06	3.38618747264263E-07	133844.96875	4.22094308305532E-06
1	42	70.2406038226595	0.222930908203125	0.222991943359375	1.55670166015625E-06	3.47131901889952E-07	143246.421875	4.3794211705972E-06
1	43	70.3413118224053	0.233001708984375	0.2330322265625	1.5252685546875E-06	3.55436725385516E-07	152781.109375	4.53461052529747E-06
1	44	70.442019822151	0.243072509765625	0.243072509765625	1.49749755859375E-06	3.64000470653991E-07	162319.140625	4.68681901111268E-06
1	45	70.5427278218967	0.253143310546875	0.25311279296875	1.47216796875E-06	3.72624526789878E-07	171932.015625	4.83635358250467E-06
1	46	70.6434358216425	0.263214111328125	0.263214111328125	1.448974609375E-06	3.81390549364369E-07	181655.4375	4.98344479638035E-06
1	47	70.7441438213882	0.273284912109375	0.273284912109375	1.42822265625E-06	3.90311697628931E-07	191346.15625	5.12832320964662E-06
1	48	70.8448518211339	0.283355712890625	0.2833251953125	1.40899658203125E-06	3.99204225232097E-07	201082.953125	5.27118845639052E-06
1	49	70.9455598208797	0.293426513671875	0.293365478515625	1.39129638671875E-06	4.08158314257889E-07	210857.65625	5.41219424121664E-06
1	50	71.0462678206254	0.303497314453125	0.303497314453125	1.37542724609375E-06	4.17438485555977E-07	220656.75	5.55150973013951E-06
1	51	71.1469758203712	0.313568115234375	0.3135986328125	1.36138916015625E-06	4.26929744890003E-07	230351.953125	5.6893195505836E-06
1	52	71.2476838201169	0.323638916015625	0.323638916015625	1.34765625E-06	4.36153982263932E-07	240149.46875	5.82573102292372E-06
1	53	71.3483918198626	0.333709716796875	0.333709716796875	1.3360595703125E-06	4.45856045416804E-07	249771.59375	5.96086647419725E-06
1	54	71.4490998196084	0.343780517578125	0.343780517578125	1.32537841796875E-06	4.55639280971809E-07	259382.90625	6.09488051850349E-06
1	55	71.5498078193541	0.353851318359375	0.3538818359375	1.3153076171875E-06	4.65463472210104E-07	269048.71875	6.22785000814474E-06
1	56	71.6505158190998	0.363922119140625	0.36395263671875	1.30706787109375E-06	4.75710777436689E-07	278449.6875	6.35989681541105E-06
1	57	71.7512238188456	0.373992919921875	0.3740234375	1.2994384765625E-06	4.86020439893764E-07	287834.6875	6.4911450863292E-06
1	58	71.8519318185913	0.384063720703125	0.384124755859375	1.292724609375E-06	4.96567508889711E-07	297143.53125	6.62167076370679E-06
1	59	71.952639818337	0.394134521484375	0.394134521484375	1.28662109375E-06	5.07101788116415E-07	306333	6.75155115459347E-06
1	60	72.0533478180828	0.404205322265625	0.40423583984375	1.28204345703125E-06	5.18247873060318E-07	315305.90625	6.88089357936406E-06
1	61	72.1540558178285	0.414276123046875	0.414306640625	1.278076171875E-06	5.29515432390326E-07	324164.28125	7.0098058131407E-06
1	62	72.2547638175743	0.424346923828125	0.424346923828125	1.27532958984375E-06	5.41182146207575E-07	332735.125	7.13838016963564E-06
1	63	72.35547181732	0.434417724609375	0.4344482421875	1.2725830078125E-06	5.52871426862112E-07	341390.90625	7.26667758499389E-06
1	64	72.4561798170657	0.444488525390625	0.4444580078125	1.27044677734375E-06	5.64660240343073E-07	349843.875	7.39472943678265E-06
1	65	72.5568878168115	0.454559326171875	0.454498291015625	1.26953125E-06	5.76999809709378E-07	358004.8125	7.52262758396682E-06
1	66	72.6575958165572	0.464630126953125	0.464630126953125	1.26922607421875E-06	5.89720627885981E-07	366073.59375	7.65046388551127E-06
1	67	72.7583038163029	0.474700927734375	0.474639892578125	1.26922607421875E-06	6.02425302531628E-07	373960.09375	7.77828518039314E-06
1	68	72.8590118160487	0.484771728515625	0.4847412109375	1.270751953125E-06	6.15985811691644E-07	381460.15625	7.90618287282996E-06
1	69	72.9597198157944	0.494842529296875	0.49481201171875	1.27349853515625E-06	6.30142324098415E-07	388545.4375	8.0342961155111E-06
1	70	73.0604278155402	0.504913330078125	0.5048828125	1.27716064453125E-06	6.44816452677333E-07	395316.59375	8.16273222881136E-06
1	71	73.1611358152859	0.514984130859375	0.51495361328125	1.282958984375E-06	6.60664341012307E-07	401379.65625	8.29164491733536E-06
1	72	73.2618438150316	0.525054931640625	0.525054931640625	1.29058837890625E-06	6.77629770962085E-07	406833.78125	8.42123336042278E-06
1	73	73.3625518147774	0.535125732421875	0.53509521484375	1.30096435546875E-06	6.96139750289149E-07	411306.59375	8.55172766023315E-06
1	74	73.4632598145231	0.545196533203125	0.545196533203125	1.31500244140625E-06	7.16934778210998E-07	414597.34375	8.68345250637503E-06
1	75	73.5639678142688	0.555267333984375	0.555267333984375	1.33392333984375E-06	7.40684015454462E-07	416266.34375	8.81683627085295E-06
1	76	73.6646758140146	0.565338134765625	0.5653076171875	1.35955810546875E-06	7.68568497733213E-07	415802.5	8.95246375876013E-06
1	77	73.7653838137603	0.575408935546875	0.575408935546875	1.3958740234375E-06	8.031983611545E-07	412221.28125	9.0912108134944E-06
1	78	73.866091813506	0.585479736328125	0.585479736328125	1.44683837890625E-06	8.47094554501382E-07	404661.46875	9.23435254662763E-06
1	79	73.9667998132518	0.595550537109375	0.59552001953125	1.52008056640625E-06	9.05238380255469E-07	391768.71875	9.38374887482496E-06
1	80	74.0675078129975	0.605621337890625	0.6055908203125	1.6253662109375E-06	9.84306780082989E-07	372587.3125	9.54213464865461E-06
1	81	74.1682158127433	0.615692138671875	0.615570068359375	1.77459716796875E-06	1.09238885670493E-06	346878.78125	9.71333702182164E-06
1	82	74.268923812489	0.625762939453125	0.625762939453125	1.98150634765625E-06	1.23995323519921E-06	315801.625	9.90247190202354E-06
1	83	74.3696318122347	0.635833740234375	0.635772705078125	2.26226806640625E-06	1.43828822274372E-06	281033.3125	1.01161622296786E-05
1	84	74.4703398119805	0.645904541015625	0.645782470703125	2.62664794921875E-06	1.69624320278672E-06	245858.015625	1.03623387985863E-05
1	85	74.5710478117262	0.655975341796875	0.65594482421875	3.08380126953125E-06	2.02280352823436E-06	212706.59375	1.06498828245094E-05
1	86	74.6717558114719	0.666046142578125	0.665985107421875	3.62884521484375E-06	2.41675684264919E-06	183525.359375	1.09878919829498E-05
1	87	74.7724638112177	0.676116943359375	0.676055908203125	4.2425537109375E-06	2.86820340988925E-06	159351.171875	1.1384247954993E-05
1	88	74.8731718109634	0.686187744140625	0.686065673828125	4.89501953125E-06	3.3583048661967E-06	140155.859375	1.184436132462E-05
1	89	74.9738798107091	0.696258544921875	0.69610595703125	5.535888671875E-06	3.85356497645262E-06	125744.2109375	1.23695990623673E-05
1	90	75.0745878104549	0.706329345703125	0.706146240234375	6.121826171875E-06	4.32290471508168E-06	115348.953125	1.29566114992485E-05
1	91	75.1752958102006	0.716400146484375	0.71624755859375	6.6009521484375E-06	4.72791589345434E-06	108506.703125	1.35972550197039E-05
1	92	75.2760038099464	0.726470947265625	0.726348876953125	6.9305419921875E-06	5.03399132867344E-06	104804.0546875	1.42786193464417E-05
1	93	75.3767118096921	0.736541748046875	0.736328125	7.1014404296875E-06	5.22899017596501E-06	103687.15625	1.49851857713656E-05
1	94	75.4774198094378	0.746612548828125	0.7464599609375	7.122802734375E-06	5.3168869271758E-06	104798.6328125	1.57014328578953E-05
1	95	75.5781278091836	0.756683349609375	0.7568359375	7.03125E-06	5.3215026127873E-06	107638.890625	1.64141474670032E-05
1	96	75.6788358089293	0.766754150390625	0.76690673828125	6.8756103515625E-06	5.27295196661726E-06	111540.171875	1.71144129126333E-05
1	97	75.779543808675	0.776824951171875	0.7769775390625	6.695556640625E-06	5.20229696121532E-06	116043.7578125	1.77977744897362E-05
1	98	75.8802518084208	0.786895751953125	0.7867431640625	6.5216064453125E-06	5.13082932229736E-06	120636.40625	1.84633117896738E-05
1	99	75.9809598081665	0.796966552734375	0.79681396484375	6.3812255859375E-06	5.08464927406749E-06	124868.484375	1.91130220628111E-05
1	100	76.0816678079123	0.807037353515625	0.806884765625	6.2896728515625E-06	5.07504137203796E-06	128287.234375	1.97510526049882E-05
1	101	76.182375807658	0.817108154296875	0.81695556640625	6.256103515625E-06	5.11095868205302E-06	130585.3671875	2.03827821678715E-05
1	102	76.2830838074037	0.827178955078125	0.82733154296875	6.28662109375E-06	5.20112007507123E-06	131601.9375	2.10143589356449E-05
1	103	76.3837918071495	0.837249755859375	0.83740234375	6.3812255859375E-06	5.34365290150163E-06	131229.078125	2.16522348637227E-05
1	104	76.4844998068952	0.847320556640625	0.84747314453125	6.5277099609375E-06	5.53205882170005E-06	129827.0234375	2.23022507270798E-05
1	105	76.5852078066409	0.857391357421875	0.85784912109375	6.70166015625E-06	5.74901287109242E-06	128005.46875	2.29684028454358E-05
1	106	76.6859158063867	0.867462158203125	0.8673095703125	6.878662109375E-06	5.96592963120202E-06	126086.953125	2.36522264458472E-05
1	107	76.7866238061324	0.877532958984375	0.8782958984375	7.025146484375E-06	6.17015712123248E-06	125021.7265625	2.43523390963674E-05
1	108	76.8873318058781	0.887603759765625	0.88775634765625	7.1197509765625E-06	6.32060391581035E-06	124689.2421875	2.50645916821668E-05
1	109	76.9880398056239	0.897674560546875	0.8978271484375	7.1502685546875E-06	6.41970473225228E-06	125565.5234375	2.57831434282707E-05
1	110	77.0887478053696	0.907745361328125	0.908203125	7.122802734375E-06	6.46895114186918E-06	127506.4375	2.65018497884739E-05
1	111	77.1894558051154	0.917816162109375	0.91827392578125	7.049560546875E-06	6.47342722004396E-06	130259.7421875	2.721548480622E-05
1	112	77.2901638048611	0.927886962890625	0.92803955078125	6.951904296875E-06	6.45164209345239E-06	133494.296875	2.7920514185098E-05
1	113	77.3908718046068	0.937957763671875	0.93841552734375	6.8511962890625E-06	6.42926897853613E-06	136971.046875	2.86155554931611E-05
1	114	77.4915798043526	0.948028564453125	0.94818115234375	6.756591796875E-06	6.40647294858354E-06	140334.234375	2.93007633445086E-05
1	115	77.5922878040983	0.958099365234375	0.9576416015625	6.6864013671875E-06	6.40317603028961E-06	143222.28125	2.99776711472077E-05
1	116	77.692995803844	0.968170166015625	0.9686279296875	6.65283203125E-06	6.44411875327933E-06	145596.328125	3.06493566313293E-05
1	117	77.7937038035898	0.978240966796875	0.97869873046875	6.6650390625E-06	6.52306516712997E-06	146840.65625	3.13199634547345E-05
1	118	77.8944118033355	0.988311767578125	0.98876953125	6.7291259765625E-06	6.65355446471949E-06	146938.78125	3.19944119837601E-05
1	119	77.9951198030813	0.998382568359375	0.99884033203125	6.8450927734375E-06	6.83715461491374E-06	145920.640625	3.26779299939517E-05
1	120	78.095827802827	1.00845336914063	1.0089111328125	7.0037841796875E-06	7.06619584889268E-06	144052.296875	3.33752759615891E-05
1	121	78.1965358025727	1.01852416992188	1.0186767578125	7.1868896484375E-06	7.32111720935791E-06	141740.984375	3.40898332069628E-05
1	122	78.2972438023185	1.02859497070313	1.02813720703125	7.373046875E-06	7.58050373406149E-06	139445.375	3.48229841620196E-05
1	123	78.3979518020642	1.03866577148438	1.038818359375	7.525634765625E-06	7.81776725489181E-06	138037.3125	3.5573189961724E-05
1	124	78.4986598018099	1.04873657226563	1.048583984375	7.62939453125E-06	8.00006091594696E-06	137440	3.63363069482148E-05
1	125	78.5993678015557	1.05880737304688	1.05865478515625	7.672119140625E-06	8.12212510936661E-06	137987.28125	3.71068017557263E-05
1	126	78.7000758013014	1.06887817382813	1.06842041015625	7.65380859375E-06	8.17748514236882E-06	139593.3125	3.78785225620959E-05
1	127	78.8007838010471	1.07894897460938	1.07879638671875	7.5836181640625E-06	8.18117950984742E-06	142253.53125	3.86457868444268E-05
1	128	78.9014918007929	1.08901977539063	1.0888671875	7.4798583984375E-06	8.14457234810106E-06	145573.234375	3.9404294511769E-05
1	129	79.0021998005386	1.09909057617188	1.09893798828125	7.3577880859375E-06	8.0857525972533E-06	149357.109375	4.01514298573602E-05
1	130	79.1029078002844	1.10916137695313	1.10931396484375	7.232666015625E-06	8.02329668658786E-06	153375.53125	4.08861160394736E-05
1	131	79.2036158000301	1.11923217773438	1.119384765625	7.1075439453125E-06	7.95607593317982E-06	157492.484375	4.1608203900978E-05
1	132	79.3043237997758	1.12930297851563	1.129150390625	6.9915771484375E-06	7.89454134064727E-06	161501.53125	4.23181518272031E-05
1	133	79.4050317995216	1.13937377929688	1.1395263671875	6.8817138671875E-06	7.84189433034044E-06	165587.59375	4.30167274316773E-05
1	134	79.5057397992673	1.14944458007813	1.14959716796875	6.7840576171875E-06	7.79893343860749E-06	169455.703125	4.37048511230387E-05
1	135	79.606447799013	1.15951538085938	1.15997314453125	6.695556640625E-06	7.76666547608329E-06	173245.21875	4.4383603380993E-05
1	136	79.7071557987588	1.16958618164063	1.16973876953125	6.6162109375E-06	7.73923784436192E-06	176798.90625	4.50539046141785E-05
1	137	79.8078637985045	1.17965698242188	1.18011474609375	6.54296875E-06	7.72145358496346E-06	180363.8125	4.57165224361233E-05
1	138	79.9085717982503	1.18972778320313	1.19049072265625	6.4788818359375E-06	7.71304803492967E-06	183749.421875	4.63722244603559E-05
1	139	80.009279797996	1.19979858398438	1.199951171875	6.4239501953125E-06	7.70842689234996E-06	186793.34375	4.70219347334933E-05
1	140	80.1099877977417	1.20986938476563	1.21002197265625	6.3720703125E-06	7.710345016676E-06	189894.640625	4.76662644359749E-05
1	141	80.2106957974875	1.21994018554688	1.2200927734375	6.3262939453125E-06	7.71866507420782E-06	192860.59375	4.83056792290881E-05
1	142	80.3114037972332	1.23001098632813	1.2298583984375	6.28662109375E-06	7.73165356804384E-06	195631.0625	4.89407902932726E-05
1	143	80.4121117969789	1.24008178710938	1.2396240234375	6.2469482421875E-06	7.74386717239395E-06	198436.75	4.9571903218748E-05
1	144	80.5128197967247	1.25015258789063	1.25	6.2103271484375E-06	7.76290835347027E-06	201277.65625	5.0199178076582E-05
1	145	80.6135277964704	1.26022338867188	1.26007080078125	6.1798095703125E-06	7.78699723014142E-06	203901.234375	5.08230696141254E-05
1	146	80.7142357962161	1.27029418945313	1.27044677734375	6.15234375E-06	7.8162256613723E-06	206498.015625	5.14440434926655E-05
1	147	80.8149437959619	1.28036499023438	1.280517578125	6.1248779296875E-06	7.84301391831832E-06	209068.265625	5.20622525073122E-05
1	148	80.9156517957076	1.29043579101563	1.29058837890625	6.1004638671875E-06	7.87318822403904E-06	211555.78125	5.26778458151966E-05
1	149	81.0163597954534	1.30050659179688	1.3006591796875	6.0760498046875E-06	7.9028695836314E-06	214063.296875	5.32909834873863E-05
1	150	81.1170677951991	1.31057739257813	1.31011962890625	6.0546875E-06	7.9323644968099E-06	216381.0625	5.39018146810122E-05
1	151	81.2177757949448	1.32064819335938	1.32110595703125	6.0333251953125E-06	7.97066149971215E-06	218968.140625	5.45104921911843E-05
1	152	81.3184837946906	1.33071899414063	1.33056640625	6.0150146484375E-06	8.00337602413492E-06	221207.515625	5.51171760889702E-05
1	153	81.4191917944363	1.34078979492188	1.34063720703125	5.999755859375E-06	8.04349565441953E-06	223448.640625	5.57221683266107E-05
1	154	81.519899794182	1.35086059570313	1.35009765625	5.9844970703125E-06	8.07965534477262E-06	225599.1875	5.63256216992158E-05
1	155	81.6206077939278	1.36093139648438	1.361083984375	5.9722900390625E-06	8.1287880675518E-06	227899.859375	5.69276926398743E-05
1	156	81.7213157936735	1.37100219726563	1.37115478515625	5.963134765625E-06	8.17638101580087E-06	229938.59375	5.75286903767847E-05
1	157	81.8220237934192	1.38107299804688	1.3812255859375	5.95703125E-06	8.2280039350735E-06	231864.765625	5.81289168621879E-05
1	158	81.922731793165	1.39114379882813	1.3909912109375	5.950927734375E-06	8.27768781164195E-06	233743.59375	5.87285321671516E-05
1	159	82.0234397929107	1.40121459960938	1.40106201171875	5.950927734375E-06	8.33761805552058E-06	235435.90625	5.93278382439166E-05
1	160	82.1241477926565	1.41128540039063	1.41143798828125	5.950927734375E-06	8.39936546981335E-06	237179.5	5.99271443206817E-05
1	161	82.2248557924022	1.42135620117188	1.42120361328125	5.9539794921875E-06	8.46181683300529E-06	238698.109375	6.05266031925566E-05
1	162	82.3255637921479	1.43142700195313	1.43157958984375	5.95703125E-06	8.52796438266523E-06	240317.625	6.11263676546514E-05
1	163	82.4262717918937	1.44149780273438	1.441650390625	5.963134765625E-06	8.59675583342323E-06	241760.484375	6.17265977780335E-05
1	164	82.5269797916394	1.45156860351563	1.451416015625	5.9722900390625E-06	8.66827667778125E-06	243025.046875	6.2327591876965E-05
1	165	82.6276877913851	1.46163940429688	1.4617919921875	5.9844970703125E-06	8.74808938533533E-06	244263.140625	6.29296700935811E-05
1	166	82.7283957911309	1.47171020507813	1.47186279296875	5.999755859375E-06	8.8308170234086E-06	245320.453125	6.35331234661862E-05
1	167	82.8291037908766	1.48178100585938	1.48223876953125	6.0211181640625E-06	8.92473508429248E-06	246173.34375	6.41384176560678E-05
1	168	82.9298117906224	1.49185180664063	1.49169921875	6.048583984375E-06	9.02266765478998E-06	246619.578125	6.47461783955805E-05
1	169	83.0305197903681	1.50192260742188	1.5020751953125	6.0821533203125E-06	9.13585154194152E-06	246964.390625	6.53570095892064E-05
1	170	83.1312277901138	1.49185180664063	1.49169921875	5.8685302734375E-06	8.75408204592532E-06	254186.171875	6.59587749396451E-05
1	171	83.2319357898596	1.48178100585938	1.48193359375	5.7159423828125E-06	8.4706471170648E-06	259263.21875	6.65420957375318E-05
1	172	83.3326437896053	1.47171020507813	1.4715576171875	5.5908203125E-06	8.22721449367236E-06	263209.59375	6.71114394208416E-05
1	173	83.433351789351	1.46163940429688	1.46209716796875	5.4901123046875E-06	8.02707745606313E-06	266314.625	6.76694107824005E-05
1	174	83.5340597890968	1.45156860351563	1.45172119140625	5.401611328125E-06	7.84163330536103E-06	268757.0625	6.82178506394848E-05
1	175	83.6347677888425	1.44149780273438	1.441650390625	5.3253173828125E-06	7.67724577599438E-06	270716.34375	6.8757995904889E-05
1	176	83.7354757885882	1.43142700195313	1.4312744140625	5.2581787109375E-06	7.525896307925E-06	272199.65625	6.92909161443822E-05
1	177	83.836183788334	1.42135620117188	1.4215087890625	5.1971435546875E-06	7.38778498998727E-06	273517.34375	6.98173826094717E-05
1	178	83.9368917880797	1.41128540039063	1.4117431640625	5.1422119140625E-06	7.25948211766081E-06	274540.0625	7.03380137565546E-05
1	179	84.0375997878255	1.40121459960938	1.4013671875	5.0933837890625E-06	7.13770077709341E-06	275134.8125	7.08534134901129E-05
1	180	84.1383077875712	1.39114379882813	1.39129638671875	5.047607421875E-06	7.02271790942177E-06	275634.8125	7.13640547473915E-05
1	181	84.2390157873169	1.38107299804688	1.3812255859375	5.0079345703125E-06	6.91708692102111E-06	275807.4375	7.18703886377625E-05
1	182	84.3397237870627	1.37100219726563	1.3714599609375	4.9664306640625E-06	6.81126039125957E-06	276146	7.2372640715912E-05
1	183	84.4404317868084	1.36093139648438	1.3604736328125	4.92950439453125E-06	6.70646068101632E-06	275985.875	7.2870941949077E-05
1	184	84.5411397865541	1.35086059570313	1.3507080078125	4.8956298828125E-06	6.61256672174204E-06	275900.75	7.3365677963011E-05
1	185	84.6418477862999	1.34078979492188	1.34033203125	4.86297607421875E-06	6.51800246487255E-06	275619.71875	7.38570597604848E-05
1	186	84.7425557860456	1.33071899414063	1.33056640625	4.83306884765625E-06	6.43071916783811E-06	275304.65625	7.43452910683118E-05
1	187	84.8432637857914	1.32064819335938	1.32049560546875	4.80377197265625E-06	6.34335947324871E-06	274887.25	7.48305465094745E-05
1	188	84.9439717855371	1.31057739257813	1.31072998046875	4.775390625E-06	6.25924758423935E-06	274475.96875	7.53128988435492E-05
1	189	85.0446797852828	1.30050659179688	1.3006591796875	4.74853515625E-06	6.17622572463006E-06	273907.46875	7.57924644858576E-05
1	190	85.1453877850286	1.29043579101563	1.28997802734375	4.72259521484375E-06	6.09204380452866E-06	273150.25	7.62693744036369E-05
1	191	85.2460957847743	1.28036499023438	1.28021240234375	4.69757080078125E-06	6.0138881963212E-06	272526.5	7.67437159083784E-05
1	192	85.34680378452	1.27029418945313	1.2701416015625	4.67315673828125E-06	5.93557069805684E-06	271795.21875	7.72155690356158E-05
1	193	85.4475117842658	1.26022338867188	1.26007080078125	4.65057373046875E-06	5.86005216973717E-06	270949.53125	7.76850574766286E-05
1	194	85.5482197840115	1.25015258789063	1.25	4.627685546875E-06	5.784606855741E-06	270113.4375	7.81522539909929E-05
1	195	85.6489277837572	1.24008178710938	1.2396240234375	4.60540771484375E-06	5.70897373108892E-06	269167.0625	7.86171804065816E-05
1	196	85.749635783503	1.23001098632813	1.23016357421875	4.5849609375E-06	5.64025140192825E-06	268304.0625	7.90799531387165E-05
1	197	85.8503437832487	1.21994018554688	1.21978759765625	4.56390380859375E-06	5.5669929679425E-06	267268.5	7.95406303950585E-05
1	198	85.9510517829945	1.20986938476563	1.209716796875	4.5428466796875E-06	5.49555761608644E-06	266290.5	7.99991903477348E-05
1	199	86.0517597827402	1.19979858398438	1.19964599609375	4.522705078125E-06	5.42564475836116E-06	265249.6875	8.04556766524911E-05
1	200	86.1524677824859	1.18972778320313	1.1895751953125	4.5013427734375E-06	5.35468552698148E-06	264271.1875	8.09100747574121E-05
1	201	86.2531757822317	1.17965698242188	1.17950439453125	4.4793701171875E-06	5.28343662153929E-06	263319.25	8.13622900750488E-05
1	202	86.3538837819774	1.16958618164063	1.16943359375	4.45709228515625E-06	5.21227320859907E-06	262375.90625	8.18122789496556E-05
1	203	86.4545917817231	1.15951538085938	1.15966796875	4.43145751953125E-06	5.13901932208682E-06	261689.96875	8.22598522063345E-05
1	204	86.5552997814689	1.14944458007813	1.14990234375	4.4024658203125E-06	5.06240530739888E-06	261195.078125	8.27046751510352E-05
1	205	86.6560077812146	1.13937377929688	1.1395263671875	4.36981201171875E-06	4.9795157792687E-06	260772.40625	8.31463912618347E-05
1	206	86.7567157809603	1.12930297851563	1.129150390625	4.33013916015625E-06	4.88937803311273E-06	260765.40625	8.3584469393827E-05
1	207	86.8574237807061	1.11923217773438	1.11907958984375	4.28009033203125E-06	4.7897615331749E-06	261461.6875	8.4018029156141E-05
1	208	86.9581317804518	1.10916137695313	1.10931396484375	4.2169189453125E-06	4.67788731839391E-06	263062.65625	8.4445891843643E-05
1	209	87.0588397801976	1.09909057617188	1.09954833984375	4.13421630859375E-06	4.54577093478292E-06	265962.9375	8.48664058139548E-05
1	210	87.1595477799433	1.08901977539063	1.0888671875	4.0264892578125E-06	4.38431197835598E-06	270425.96875	8.5277330072131E-05
1	211	87.260255779689	1.07894897460938	1.0791015625	3.88641357421875E-06	4.19383513872162E-06	277660	8.56757760629989E-05
1	212	87.3609637794348	1.06887817382813	1.06903076171875	3.7066650390625E-06	3.96253881262965E-06	288407.71875	8.6058113083709E-05
1	213	87.4616717791805	1.05880737304688	1.0589599609375	3.48663330078125E-06	3.69220492757449E-06	303719.90625	8.64203248056583E-05
1	214	87.5623797789262	1.04873657226563	1.048583984375	3.22845458984375E-06	3.38530571752926E-06	324794.40625	8.67584603838623E-05
1	215	87.663087778672	1.03866577148438	1.038818359375	2.945556640625E-06	3.05989829030295E-06	352673.03125	8.70693475008011E-05
1	216	87.7637957784177	1.02859497070313	1.0284423828125	2.65838623046875E-06	2.73399700745358E-06	386867.1875	8.73515236889943E-05
1	217	87.8645037781635	1.01852416992188	1.01837158203125	2.3931884765625E-06	2.43715498982056E-06	425529.21875	8.76058911671862E-05
1	218	87.9652117779092	1.00845336914063	1.00860595703125	2.1746826171875E-06	2.19339767681959E-06	463794.5625	8.78359060152434E-05
1	219	88.0659197776549	0.998382568359375	0.99884033203125	2.02178955078125E-06	2.01944476430072E-06	494037.75	8.80472143762745E-05
1	220	88.1666277774007	0.988311767578125	0.98846435546875	1.9366455078125E-06	1.91430513041269E-06	510400.25	8.82465319591574E-05
1	221	88.2673357771464	0.978240966796875	0.97808837890625	1.9110107421875E-06	1.86913734978589E-06	511817.3125	8.84402834344655E-05
1	222	88.3680437768921	0.968170166015625	0.9686279296875	1.92291259765625E-06	1.86258682788321E-06	503729.5625	8.86333364178427E-05
1	223	88.4687517766379	0.958099365234375	0.958251953125	1.95159912109375E-06	1.87012346941628E-06	491008.65625	8.88284339453094E-05
1	224	88.5694597763836	0.948028564453125	0.9478759765625	1.97784423828125E-06	1.87475109214574E-06	479247.03125	8.90262963366695E-05
1	225	88.6701677761293	0.937957763671875	0.9381103515625	1.9873046875E-06	1.86431100246409E-06	472051.625	8.92259558895603E-05
1	226	88.7708757758751	0.927886962890625	0.9283447265625	1.9671630859375E-06	1.8262055618834E-06	471920.5625	8.94250770215876E-05
1	227	88.8715837756208	0.917816162109375	0.91827392578125	1.9085693359375E-06	1.75258935541933E-06	481132.125	8.96202400326729E-05
1	228	88.9722917753666	0.907745361328125	0.908203125	1.80389404296875E-06	1.63830213750771E-06	503468.125	8.98071739356965E-05
1	229	89.0729997751123	0.897674560546875	0.89813232421875	1.64703369140625E-06	1.47925413784833E-06	545302.9375	8.9980945631396E-05
1	230	89.173707774858	0.887603759765625	0.88775634765625	1.44195556640625E-06	1.28010515254573E-06	615661.375	9.01364837773144E-05
1	231	89.2744157746038	0.877532958984375	0.87738037109375	1.1968994140625E-06	1.05013600659731E-06	733044.375	9.02693645912223E-05
1	232	89.3751237743495	0.867462158203125	0.867919921875	9.32922363281249E-07	8.09701873549784E-07	930323.875	9.03766049304977E-05
1	233	89.4758317740952	0.857391357421875	0.858154296875	6.744384765625E-07	5.78772244352876E-07	1272398.25	9.04575426829979E-05
1	234	89.576539773841	0.847320556640625	0.84747314453125	4.5135498046875E-07	3.8251121736721E-07	1877620.125	9.051422966877E-05
1	235	89.6772477735867	0.837249755859375	0.83770751953125	2.8045654296875E-07	2.3494054346429E-07	2986942.5	9.05510823940858E-05
1	236	89.7779557733325	0.827178955078125	0.8270263671875	1.7242431640625E-07	1.42599446917302E-07	4796460.5	9.05738852452487E-05
1	237	89.8786637730782	0.817108154296875	0.81787109375	1.2359619140625E-07	1.01085753101415E-07	6617284	9.05887936824001E-05
1	238	89.9793717728239	0.807037353515625	0.80718994140625	1.18408203125001E-07	9.55779100308973E-08	6817010.5	9.06009809114039E-05
1	239	90.0800797725697	0.796966552734375	0.7965087890625	1.35192871093751E-07	1.0768230396252E-07	5891648	9.06137502170168E-05
1	240	90.1807877723154	0.786895751953125	0.78704833984375	1.507568359375E-07	1.18652913272399E-07	5220648	9.06281493371353E-05
1	241	90.2814957720611	0.776824951171875	0.77667236328125	1.41296386718751E-07	1.09740994957974E-07	5496760.5	9.06428540474735E-05
1	242	90.3822037718069	0.766754150390625	0.76690673828125	8.75854492187494E-08	6.71698714427293E-08	8756098	9.06543791643344E-05
1	243	90.4829117715526	0.756683349609375	0.75714111328125	-3.0517578125E-08	-2.31061108024733E-08	-24810002	9.0657253167592E-05
1	244	90.5836197712983	0.746612548828125	0.74652099609375	-2.2735595703125E-07	-1.69725993259817E-07	-3283490	9.06442655832507E-05
1	245	90.6843277710441	0.736541748046875	0.73651123046875	-5.1727294921875E-07	-3.8097732613096E-07	-1423834.75	9.06067725736648E-05
1	246	90.7850357707898	0.726470947265625	0.726409912109375	-9.02404785156249E-07	-6.55515748348989E-07	-804971.3125	9.05352862901054E-05
1	247	90.8857437705356	0.716400146484375	0.716339111328125	-1.375732421875E-06	-9.85490942184697E-07	-520696.5625	9.04205735423602E-05
1	248	90.9864517702813	0.706329345703125	0.706298828125	-1.91558837890625E-06	-1.3529778470911E-06	-368711.15625	9.02548417798243E-05
1	249	91.087159770027	0.696258544921875	0.6961669921875	-2.4847412109375E-06	-1.72979480339563E-06	-280176.875	9.00332670425996E-05
1	250	91.1878677697728	0.686187744140625	0.6861572265625	-3.031005859375E-06	-2.07974653676501E-06	-226379.390625	8.9755529188551E-05
1	251	91.2885757695185	0.676116943359375	0.676025390625	-3.5076904296875E-06	-2.37128779190243E-06	-192726.640625	8.9426277554594E-05
1	252	91.3892837692642	0.666046142578125	0.66595458984375	-3.8653564453125E-06	-2.57415172200126E-06	-172288.03125	8.90550145413727E-05
1	253	91.48999176901	0.655975341796875	0.655914306640625	-4.07684326171875E-06	-2.67405971499102E-06	-160887.796875	8.86550915311091E-05
1	254	91.5906997687557	0.645904541015625	0.645904541015625	-4.13543701171875E-06	-2.67109749074734E-06	-156187.734375	8.82415697560646E-05
1	255	91.6914077685014	0.635833740234375	0.63580322265625	-4.06341552734375E-06	-2.5835327051027E-06	-156470.15625	8.78287246450782E-05
1	256	91.7921157682472	0.625762939453125	0.62567138671875	-3.89801025390625E-06	-2.43887348005956E-06	-160510.453125	8.74278339324519E-05
1	257	91.8928237679929	0.615692138671875	0.61566162109375	-3.6785888671875E-06	-2.26476595344138E-06	-167363.53125	8.70463263709098E-05
1	258	91.9935317677387	0.605621337890625	0.605682373046875	-3.43597412109375E-06	-2.08110895982827E-06	-176276.75	8.66880800458603E-05
1	259	92.0942397674844	0.595550537109375	0.5955810546875	-3.19244384765625E-06	-1.90135904176714E-06	-186559.609375	8.63543100422248E-05
1	260	92.1949477672301	0.585479736328125	0.58544921875	-2.9608154296875E-06	-1.7334070889774E-06	-197732.421875	8.60444706631824E-05
1	261	92.2956557669759	0.575408935546875	0.57537841796875	-2.74505615234375E-06	-1.57944600687188E-06	-209605.34375	8.57571576489136E-05
1	262	92.3963637667216	0.565338134765625	0.5653076171875	-2.5482177734375E-06	-1.4405268302653E-06	-221844.3125	8.54906174936332E-05
1	263	92.4970717664673	0.555267333984375	0.555267333984375	-2.3712158203125E-06	-1.31665865410469E-06	-234169.890625	8.52429075166583E-05
1	264	92.5977797662131	0.545196533203125	0.545166015625	-2.2113037109375E-06	-1.20552761018189E-06	-246536.03125	8.50121577968821E-05
1	265	92.6984877659588	0.535125732421875	0.535125732421875	-2.06756591796875E-06	-1.10640769435122E-06	-258819.1875	8.47967021400109E-05
1	266	92.7991957657046	0.525054931640625	0.525054931640625	-1.9384765625E-06	-1.01780665318074E-06	-270859.5625	8.45949762151577E-05
1	267	92.8999037654503	0.514984130859375	0.51495361328125	-1.82220458984375E-06	-9.38350808610267E-07	-282599.21875	8.44056121422909E-05
1	268	93.000611765196	0.504913330078125	0.5048828125	-1.71661376953125E-06	-8.66688765199797E-07	-294115.5625	8.4227416664362E-05
1	269	93.1013197649418	0.494842529296875	0.49481201171875	-1.61956787109375E-06	-8.0138158864429E-07	-305521.03125	8.40594293549657E-05
1	270	93.2020277646875	0.484771728515625	0.48480224609375	-1.53167724609375E-06	-7.42560530397895E-07	-316517.25	8.39007552713156E-05
1	271	93.3027357644332	0.474700927734375	0.474700927734375	-1.4508056640625E-06	-6.88698776230012E-07	-327198.15625	8.37505722302012E-05
1	272	93.403443764179	0.464630126953125	0.464630126953125	-1.37603759765625E-06	-6.39348513686855E-07	-337658.03125	8.36082326713949E-05
1	273	93.5041517639247	0.454559326171875	0.45458984375	-1.3067626953125E-06	-5.94041011936497E-07	-347874.84375	8.34731399663724E-05
1	274	93.6048597636704	0.444488525390625	0.44451904296875	-1.24359130859375E-06	-5.52800031528022E-07	-357447.84375	8.33447193144821E-05
1	275	93.7055677634162	0.434417724609375	0.434326171875	-1.18408203125E-06	-5.14277758156823E-07	-366804.15625	8.32224759506062E-05
1	276	93.8062757631619	0.424346923828125	0.424346923828125	-1.1285400390625E-06	-4.78892502542294E-07	-376014.0625	8.31060242489912E-05
1	277	93.9069837629077	0.414276123046875	0.41424560546875	-1.077880859375E-06	-4.4650738573182E-07	-384314.84375	8.29949276521802E-05
1	278	94.0076917626534	0.404205322265625	0.40423583984375	-1.02874755859375E-06	-4.15856618474209E-07	-392939.78125	8.28888441901654E-05
1	279	94.1083997623991	0.394134521484375	0.394195556640625	-9.8419189453125E-07	-3.8796406442998E-07	-400527.15625	8.27874901005998E-05
1	280	94.2091077621449	0.384063720703125	0.38409423828125	-9.41162109375E-07	-3.61494954859154E-07	-408106.34375	8.26905379653908E-05
1	281	94.3098157618906	0.373992919921875	0.3740234375	-9.0087890625E-07	-3.3694982448651E-07	-415176.15625	8.25977840577252E-05
1	282	94.4105237616363	0.363922119140625	0.363983154296875	-8.62731933593749E-07	-3.14019871439086E-07	-421896.03125	8.25089809950441E-05
1	283	94.5112317613821	0.353851318359375	0.353851318359375	-8.2672119140625E-07	-2.92536384449704E-07	-428017.71875	8.24239104986191E-05
1	284	94.6119397611278	0.343780517578125	0.343780517578125	-7.92541503906249E-07	-2.72460312089606E-07	-433769.75	8.23423688416369E-05
1	285	94.7126477608736	0.333709716796875	0.333709716796875	-7.5958251953125E-07	-2.53480067158307E-07	-439333.0625	8.2264217780903E-05
1	286	94.8133557606193	0.323638916015625	0.323638916015625	-7.293701171875E-07	-2.36052542845755E-07	-443723.875	8.21892390376888E-05
1	287	94.914063760365	0.313568115234375	0.3135986328125	-7.0068359375E-07	-2.1973340835757E-07	-447560.96875	8.21172361611389E-05
1	288	95.0147717601108	0.303497314453125	0.30352783203125	-6.73828125000001E-07	-2.04525576918968E-07	-450452.9375	8.20480199763551E-05
1	289	95.1154797598565	0.293426513671875	0.293426513671875	-6.47888183593751E-07	-1.90107556363728E-07	-452896.875	8.19814667920582E-05
1	290	95.2161877596022	0.283355712890625	0.283355712890625	-6.23168945312499E-07	-1.76578481614342E-07	-454701.28125	8.19174674688838E-05
1	291	95.316895759348	0.273284912109375	0.27337646484375	-6.0089111328125E-07	-1.64269479796531E-07	-454951.75	8.18558255559765E-05
1	292	95.4176037590937	0.263214111328125	0.263214111328125	-5.79223632812501E-07	-1.52459833202556E-07	-454425.71875	8.17964028101414E-05
1	293	95.5183117588394	0.253143310546875	0.253082275390625	-5.5877685546875E-07	-1.41416506949099E-07	-452921.90625	8.17391046439297E-05
1	294	95.6190197585852	0.243072509765625	0.24310302734375	-5.3985595703125E-07	-1.31240611267458E-07	-450310.9375	8.16837782622315E-05
1	295	95.7197277583309	0.233001708984375	0.23297119140625	-5.218505859375E-07	-1.21576150036162E-07	-446432.78125	8.16303218016401E-05
1	296	95.8204357580767	0.222930908203125	0.22296142578125	-5.0506591796875E-07	-1.12610209157538E-07	-441450.1875	8.15786115708761E-05
1	297	95.9211437578224	0.212860107421875	0.212890625	-4.901123046875E-07	-1.04340315942864E-07	-434371.09375	8.15285020507872E-05
1	298	96.0218517575681	0.202789306640625	0.202789306640625	-4.7576904296875E-07	-9.64808748449286E-08	-426234.78125	8.14798622741364E-05
1	299	96.1225597573139	0.192718505859375	0.192779541015625	-4.64477539062499E-07	-8.9541764225487E-08	-415046	8.14325176179409E-05
1	300	96.2232677570596	0.182647705078125	0.18267822265625	-4.5501708984375E-07	-8.31217121799455E-08	-401475.53125	8.13862206996419E-05
1	301	96.3239757568053	0.172576904296875	0.172637939453125	-4.47998046875001E-07	-7.73414612353918E-08	-385354.21875	8.13407459645532E-05
1	302	96.4246837565511	0.162506103515625	0.162506103515625	-4.44946289062501E-07	-7.23064843555221E-08	-365226.34375	8.12957805464976E-05
1	303	96.5253917562968	0.152435302734375	0.152435302734375	-4.4677734375E-07	-6.81046401496133E-08	-341188.53125	8.12508806120604E-05
1	304	96.6260997560425	0.142364501953125	0.1424560546875	-4.559326171875E-07	-6.49503562044629E-08	-312449.8125	8.12054277048446E-05
1	305	96.7268077557883	0.132293701171875	0.13232421875	-4.73937988281251E-07	-6.27134753017344E-08	-279201.5625	8.11586069175974E-05
1	306	96.827515755534	0.122222900390625	0.122283935546875	-5.047607421875E-07	-6.17241298073168E-08	-242261.1875	8.11093195807189E-05
1	307	96.9282237552798	0.112152099609375	0.11212158203125	-5.523681640625E-07	-6.19323898831681E-08	-202983.4375	8.10560959507711E-05
1	308	97.0289317550255	0.102081298828125	0.10211181640625	-6.21948242187501E-07	-6.35082670896736E-08	-164180.578125	8.09969642432407E-05
1	309	97.1296397547712	0.092010498046875	0.092041015625	-7.21130371093751E-07	-6.6373566198763E-08	-127634.3671875	8.09293342172168E-05
1	310	97.230347754517	0.081939697265625	0.082061767578125	-8.563232421875E-07	-7.02713975897495E-08	-95830.3671875	8.08499025879428E-05
1	311	97.3310557542627	0.071868896484375	0.0718994140625	-1.03271484375E-06	-7.42515950946654E-08	-69621.75	8.07547767180949E-05
1	312	97.4317637540084	0.061798095703125	0.061798095703125	-1.25244140625E-06	-7.73984965007912E-08	-49342.10546875	8.06397147243842E-05
1	313	97.5324717537542	0.051727294921875	0.0517578125	-1.50909423828125E-06	-7.81074120936864E-08	-34297.26953125	8.0500656622462E-05
1	314	97.6331797534999	0.041656494140625	0.0417205810546875	-1.78863525390625E-06	-7.46229034120915E-08	-23325.37109375	8.03346047177911E-05
1	315	97.7338877532457	0.031585693359375	0.031695556640625	-2.06817626953125E-06	-6.5551994055113E-08	-15325.365234375	8.01404021331109E-05
1	316	97.8345957529914	0.021514892578125	0.021600341796875	-2.31781005859375E-06	-5.00654877555462E-08	-9319.2890625	7.991954771569E-05
1	317	97.9353037527371	0.011444091796875	0.011553955078125	-2.51251220703125E-06	-2.90294526195112E-08	-4598.56689453125	7.96763197286054E-05
1	318	98.0360117524829	0.001373291015625	0.0014495849609375	-2.63671875E-06	-3.82214748739784E-09	-549.7685546875	7.94170337030664E-05
1	319	98.1367197522286	-0.008697509765625	-0.008587646484375	-2.69073486328125E-06	2.31070789169507E-08	3191.56176757813	7.91487764217891E-05
1	320	98.2374277519743	-0.018768310546875	-0.01866455078125	-2.68402099609375E-06	5.00960446458976E-08	6953.951171875	7.88781399023719E-05
1	321	98.3381357517201	-0.028839111328125	-0.028704833984375	-2.63336181640625E-06	7.55902078708459E-08	10900.4521484375	7.861038466217E-05
1	322	98.4388437514658	-0.038909912109375	-0.038763427734375	-2.55767822265625E-06	9.91443656062074E-08	15155.7099609375	7.83489958848804E-05
1	323	98.5395517512115	-0.048980712890625	-0.0488433837890625	-2.469482421875E-06	1.20617869470152E-07	19778.794921875	7.80958580435254E-05
1	324	98.6402597509573	-0.059051513671875	-0.0589599609375	-2.37884521484375E-06	1.40256616987244E-07	24785.119140625	7.78517278376967E-05
1	325	98.740967750703	-0.069122314453125	-0.069061279296875	-2.2906494140625E-06	1.58195163635355E-07	30149.216796875	7.76165979914367E-05
1	326	98.8416757504488	-0.079193115234375	-0.079132080078125	-2.2100830078125E-06	1.74888469928192E-07	35805.02734375	7.73899664636701E-05
1	327	98.9423837501945	-0.089263916015625	-0.08917236328125	-2.13592529296875E-06	1.90465513583149E-07	41748.8203125	7.71711274865083E-05
1	328	99.0430917499402	-0.099334716796875	-0.09930419921875	-2.0709228515625E-06	2.05651332407797E-07	47951.6640625	7.6959295256529E-05
1	329	99.143799749686	-0.109405517578125	-0.10931396484375	-2.01385498046875E-06	2.20142482021402E-07	54280.94921875	7.67536112107337E-05
1	330	99.2445077494317	-0.119476318359375	-0.119354248046875	-1.96441650390625E-06	2.34461452919277E-07	60758.1171875	7.65532895457E-05
1	331	99.3452157491774	-0.129547119140625	-0.12945556640625	-1.9207763671875E-06	2.48655197765402E-07	67397.5234375	7.63576535973698E-05
1	332	99.4459237489232	-0.139617919921875	-0.139556884765625	-1.883544921875E-06	2.62861647115642E-07	74092.6796875	7.61660921853036E-05
1	333	99.5466317486689	-0.149688720703125	-0.14959716796875	-1.851806640625E-06	2.77025009154386E-07	80784.4453125	7.59780014050193E-05
1	334	99.6473397484147	-0.159759521484375	-0.159637451171875	-1.826171875E-06	2.91525424245265E-07	87416.4453125	7.57927991799079E-05
1	335	99.7480477481604	-0.169830322265625	-0.169708251953125	-1.8048095703125E-06	3.06291070728548E-07	94031.1171875	7.56099689169787E-05
1	336	99.8487557479061	-0.179901123046875	-0.179779052734375	-1.78924560546875E-06	3.21668863989544E-07	100477.578125	7.54289940232411E-05
1	337	99.9494637476519	-0.189971923828125	-0.18988037109375	-1.77703857421875E-06	3.37424722829383E-07	106852.140625	7.52494161133654E-05
1	338	100.050171747398	-0.200042724609375	-0.199859619140625	-1.77001953125E-06	3.53755410742451E-07	112913.796875	7.50708059058525E-05
1	339	100.150879747143	-0.189971923828125	-0.189788818359375	-1.56768798828125E-06	2.97529652470985E-07	121062.8828125	7.49027385609224E-05
2	340	100.251587746889	-0.179901123046875	-0.179840087890625	-1.4215087890625E-06	2.55644266644595E-07	126513.53125	7.47522208257578E-05
2	341	100.352295746635	-0.169830322265625	-0.169677734375	-1.30279541015625E-06	2.21055358906597E-07	130241.28125	7.46150399209E-05
2	342	100.453003746381	-0.159759521484375	-0.159637451171875	-1.202392578125E-06	1.91946881500371E-07	132766.5	7.44888966437429E-05
2	343	100.553711746126	-0.149688720703125	-0.1495361328125	-1.11419677734375E-06	1.66612664997956E-07	134209.8125	7.43722484912723E-05
2	344	100.654419745872	-0.139617919921875	-0.13946533203125	-1.03607177734375E-06	1.44496098641866E-07	134609.71875	7.42639749660157E-05
2	345	100.755127745618	-0.129547119140625	-0.12945556640625	-9.6435546875E-07	1.24841179172108E-07	134240.515625	7.41632466088049E-05
2	346	100.855835745363	-0.119476318359375	-0.119415283203125	-8.98132324218751E-07	1.07250727410246E-07	132959.5625	7.40694595151581E-05
2	347	100.956543745109	-0.109405517578125	-0.10931396484375	-8.35571289062501E-07	9.13396078772166E-08	130825.421875	7.39821625757031E-05
2	348	101.057251744855	-0.099334716796875	-0.09930419921875	-7.7484130859375E-07	7.69449925996923E-08	128160.6953125	7.3901072028093E-05
2	349	101.157959744601	-0.089263916015625	-0.0892333984375	-7.1441650390625E-07	6.37498089872679E-08	124903.890625	7.38260787329637E-05
2	350	101.258667744346	-0.079193115234375	-0.0791015625	-6.5155029296875E-07	5.15386453514566E-08	121405.1484375	7.37572991056368E-05
2	351	101.359375744092	-0.069122314453125	-0.069091796875	-5.82275390625001E-07	4.02304536351039E-08	118658.28125	7.36951697035693E-05
2	352	101.460083743838	-0.059051513671875	-0.05902099609375	-5.04150390624999E-07	2.97554567652014E-08	117070.2265625	7.36404617782682E-05
2	353	101.560791743584	-0.048980712890625	-0.048834228515625	-4.107666015625E-07	2.005946875272E-08	118885.5859375	7.35943976906128E-05
2	354	101.661499743329	-0.038909912109375	-0.0387420654296875	-2.9571533203125E-07	1.14566223174961E-08	131011.3515625	7.35588182578795E-05
2	355	101.762207743075	-0.028839111328125	-0.0286895751953125	-1.5228271484375E-07	4.36892610977679E-09	188396.796875	7.35362627892755E-05
2	356	101.862915742821	-0.018768310546875	-0.0186553955078125	2.92968749999997E-08	-5.46544753898814E-10	-636770.8125	7.35300709493458E-05
2	357	101.963623742567	-0.008697509765625	-0.00859375	2.5146484375E-07	-2.16102580274935E-09	-34174.76171875	7.35442081349902E-05
2	358	102.064331742312	0.001373291015625	0.0014617919921875	5.1544189453125E-07	7.53468787362266E-10	2835.998046875	7.35828216420487E-05
2	359	102.165039742058	0.011444091796875	0.0115478515625	8.135986328125E-07	9.39531563659557E-09	14193.548828125	7.36497459001839E-05
2	360	102.265747741804	0.021514892578125	0.0216278076171875	1.12701416015625E-06	2.43748452533055E-08	19190.361328125	7.37474620109424E-05
2	361	102.36645574155	0.031585693359375	0.031658935546875	1.42913818359375E-06	4.52449917531794E-08	22152.466796875	7.38761737011373E-05
2	362	102.467163741295	0.041656494140625	0.0417449951171875	1.68975830078125E-06	7.05389524569E-08	24704.71484375	7.40332252462395E-05
2	363	102.567871741041	0.051727294921875	0.0517578125	1.88720703125E-06	9.76777059236156E-08	27425.615234375	7.42133415769786E-05
2	364	102.668579740787	0.061798095703125	0.061859130859375	2.00927734375E-06	1.24292142800186E-07	30786.755859375	7.44095450500026E-05
2	365	102.769287740532	0.071868896484375	0.071929931640625	2.060546875E-06	1.48214994055706E-07	34908.17578125	7.46144723962061E-05
2	366	102.869995740278	0.081939697265625	0.082000732421875	2.0538330078125E-06	1.68415809298494E-07	39925.70703125	7.48216480133124E-05
2	367	102.970703740024	0.092010498046875	0.092071533203125	2.008056640625E-06	1.84884839882216E-07	45851.06640625	7.50261824578047E-05
2	368	103.07141173977	0.102081298828125	0.102142333984375	1.94000244140625E-06	1.98156371311597E-07	52650.62109375	7.5224983447697E-05
2	369	103.172119739515	0.112152099609375	0.112213134765625	1.86187744140625E-06	2.08927104949908E-07	60268.80859375	7.54164211684838E-05
2	370	103.272827739261	0.122222900390625	0.122314453125	1.7828369140625E-06	2.18066716684007E-07	68606.640625	7.5599949923344E-05
2	371	103.373535739007	0.132293701171875	0.132354736328125	1.70745849609375E-06	2.25990206104143E-07	77515.640625	7.57757006795146E-05
2	372	103.474243738753	0.142364501953125	0.142364501953125	1.63726806640625E-06	2.33088854884045E-07	86952.46875	7.59441172704101E-05
2	373	103.574951738498	0.152435302734375	0.1524658203125	1.57501220703125E-06	2.40135534568253E-07	96802.9453125	7.6105869084131E-05
2	374	103.675659738244	0.162506103515625	0.162506103515625	1.5191650390625E-06	2.46873582909757E-07	106970.671875	7.62616764404811E-05
2	375	103.77636773799	0.172576904296875	0.172576904296875	1.4703369140625E-06	2.53746179623704E-07	117372.359375	7.64122087275609E-05
2	376	103.877075737736	0.182647705078125	0.1827392578125	1.42669677734375E-06	2.60713505895183E-07	128085.5703125	7.65580844017677E-05
2	377	103.977783737481	0.192718505859375	0.192779541015625	1.3885498046875E-06	2.67683986976408E-07	138835.171875	7.66998418839648E-05
2	378	104.078491737227	0.202789306640625	0.202850341796875	1.35589599609375E-06	2.75043959163668E-07	149606.125	7.68380414228886E-05
2	379	104.179199736973	0.212860107421875	0.212921142578125	1.3262939453125E-06	2.82396030115706E-07	160538.421875	7.69730977481231E-05
2	380	104.279907736719	0.222930908203125	0.222930908203125	1.30035400390625E-06	2.89889072746519E-07	171438.640625	7.71053601056337E-05
2	381	104.380615736464	0.233001708984375	0.232940673828125	1.27838134765625E-06	2.97787011049877E-07	182215.328125	7.72352068452165E-05
2	382	104.48132373621	0.243072509765625	0.243072509765625	1.25762939453125E-06	3.05695124325212E-07	193278.328125	7.7362907177303E-05
2	383	104.582031735956	0.253143310546875	0.253082275390625	1.2396240234375E-06	3.13726872036568E-07	204160.515625	7.74886575527489E-05
2	384	104.682739735701	0.263214111328125	0.26324462890625	1.22314453125E-06	3.21986220797044E-07	215219.5625	7.76126616983674E-05
2	385	104.783447735447	0.273284912109375	0.27325439453125	1.20941162109375E-06	3.3047703595912E-07	225939.953125	7.77351524448022E-05
2	386	104.884155735193	0.283355712890625	0.283355712890625	1.19720458984375E-06	3.39234759394458E-07	236681.109375	7.78563335188664E-05
2	387	104.984863734939	0.293426513671875	0.29339599609375	1.1859130859375E-06	3.47942147982394E-07	247400.921875	7.79763358877972E-05
2	388	105.085571734684	0.303497314453125	0.303436279296875	1.1761474609375E-06	3.56885806240825E-07	257991.703125	7.80952759669162E-05
2	389	105.18627973443	0.313568115234375	0.313568115234375	1.16790771484375E-06	3.66218614544778E-07	268487.0625	7.82133065513335E-05
2	390	105.286987734176	0.323638916015625	0.32366943359375	1.15966796875E-06	3.75349060277586E-07	279105.28125	7.83305076765828E-05
2	391	105.387695733922	0.333709716796875	0.333740234375	1.1541748046875E-06	3.85194567797953E-07	289159.1875	7.84470248618163E-05
2	392	105.488403733667	0.343780517578125	0.34375	1.14898681640625E-06	3.94964217775851E-07	299176.625	7.85629963502288E-05
2	393	105.589111733413	0.353851318359375	0.353912353515625	1.14410400390625E-06	4.04912526619228E-07	309335.84375	7.86784585216083E-05
2	394	105.689819733159	0.363922119140625	0.364013671875	1.141357421875E-06	4.15469713743732E-07	318930.46875	7.87935423431918E-05
2	395	105.790527732905	0.373992919921875	0.373931884765625	1.13861083984375E-06	4.25762891609338E-07	328410.59375	7.8908349678386E-05
2	396	105.89123573265	0.384063720703125	0.384063720703125	1.13616943359375E-06	4.36361460742773E-07	338033.84375	7.90228950791061E-05
2	397	105.991943732396	0.394134521484375	0.3941650390625	1.13525390625E-06	4.47477390252971E-07	347204.3125	7.91372658568434E-05
2	398	106.092651732142	0.404205322265625	0.40423583984375	1.1358642578125E-06	4.59157007526301E-07	355883.96875	7.92516293586232E-05
2	399	106.193359731888	0.414276123046875	0.414276123046875	1.1358642578125E-06	4.70561417387216E-07	364723.28125	7.93660219642334E-05
2	400	106.294067731633	0.424346923828125	0.424346923828125	1.13677978515625E-06	4.82388941236422E-07	373288.625	7.94804582255892E-05
2	401	106.394775731379	0.434417724609375	0.434478759765625	1.138916015625E-06	4.94834807795996E-07	381484.46875	7.9595047282055E-05
2	402	106.495483731125	0.444488525390625	0.44451904296875	1.14166259765625E-06	5.0749076763168E-07	389361.15625	7.97098837210797E-05
2	403	106.59619173087	0.454559326171875	0.454620361328125	1.14532470703125E-06	5.20687876814918E-07	396935.8125	7.98250403022394E-05
2	404	106.696899730616	0.464630126953125	0.464599609375	1.1492919921875E-06	5.33960587745241E-07	404248.5625	7.99405825091526E-05
2	405	106.797607730362	0.474700927734375	0.474639892578125	1.15509033203125E-06	5.4825193274155E-07	410911.5	8.00566194811836E-05
2	406	106.898315730108	0.484771728515625	0.48480224609375	1.162109375E-06	5.63393200536666E-07	417174.375	8.01732967374846E-05
2	407	106.999023729853	0.494842529296875	0.4947509765625	1.1712646484375E-06	5.79484321860946E-07	422407.5	8.02907961769961E-05
2	408	107.099731729599	0.504913330078125	0.50494384765625	1.182861328125E-06	5.97278528857714E-07	426883.40625	8.04093360784464E-05
2	409	107.200439729345	0.514984130859375	0.51495361328125	1.19659423828125E-06	6.16190504842962E-07	430349.40625	8.05291492724791E-05
2	410	107.301147729091	0.525054931640625	0.525054931640625	1.21551513671875E-06	6.38212213743827E-07	431960.84375	8.06506068329327E-05
2	411	107.401855728836	0.535125732421875	0.53515625	1.239013671875E-06	6.63065861772338E-07	431921.1875	8.07742035249248E-05
2	412	107.502563728582	0.545196533203125	0.545196533203125	1.27105712890625E-06	6.92975902438775E-07	428931.59375	8.09005941846408E-05
2	413	107.603271728328	0.555267333984375	0.55523681640625	1.31195068359375E-06	7.28443296793557E-07	423214.71875	8.10306592029519E-05
2	414	107.703979728074	0.565338134765625	0.5653076171875	1.365966796875E-06	7.72191413034307E-07	413851.65625	8.11655045254156E-05
2	415	107.804687727819	0.575408935546875	0.575439453125	1.43768310546875E-06	8.27299572847551E-07	400254.71875	8.13066799310036E-05
2	416	107.905395727565	0.585479736328125	0.585540771484375	1.5338134765625E-06	8.98110329217161E-07	381754.875	8.14563027233817E-05
2	417	108.006103727311	0.595550537109375	0.595550537109375	1.661376953125E-06	9.89433942777396E-07	358468.03125	8.16171959741041E-05
2	418	108.106811727057	0.605621337890625	0.6055908203125	1.8304443359375E-06	1.10850021428632E-06	330843.625	8.17930267658085E-05
2	419	108.207519726802	0.615692138671875	0.61566162109375	2.05322265625E-06	1.2640904287764E-06	299851.34375	8.19885826786049E-05
2	420	108.308227726548	0.625762939453125	0.625732421875	2.3388671875E-06	1.46350498653192E-06	267536.5625	8.22097426862456E-05
2	421	108.408935726294	0.635833740234375	0.6357421875	2.698974609375E-06	1.71585202224378E-06	235549.515625	8.24634189484641E-05
2	422	108.509643726039	0.645904541015625	0.6458740234375	3.138427734375E-06	2.02702881324512E-06	205795.40625	8.27573530841619E-05
2	423	108.610351725785	0.655975341796875	0.655975341796875	3.658447265625E-06	2.39985115513264E-06	179304.3125	8.30995995784178E-05
2	424	108.711059725531	0.666046142578125	0.666015625	4.246826171875E-06	2.82845235233253E-06	156826.6875	8.34976672194898E-05
2	425	108.811767725277	0.676116943359375	0.676055908203125	4.87579345703125E-06	3.29630893247668E-06	138655.5625	8.39570275275037E-05
2	426	108.912475725022	0.686187744140625	0.686126708984375	5.511474609375E-06	3.7815700579813E-06	124490.5859375	8.44800670165569E-05
2	427	109.013183724768	0.696258544921875	0.696075439453125	6.103515625E-06	4.24850713898195E-06	114045.0078125	8.50649303174578E-05
2	428	109.113891724514	0.706329345703125	0.70623779296875	6.6070556640625E-06	4.66615256300429E-06	106891.453125	8.57049526530318E-05
2	429	109.21459972426	0.716400146484375	0.716278076171875	6.976318359375E-06	4.9969839892583E-06	102672.796875	8.63889290485531E-05
2	430	109.315307724005	0.726470947265625	0.726348876953125	7.196044921875E-06	5.22683922099532E-06	100937.234375	8.71025695232674E-05
2	431	109.416015723751	0.736541748046875	0.736358642578125	7.2723388671875E-06	5.35504932486219E-06	101254.7265625	8.78311111591756E-05
2	432	109.516723723497	0.746612548828125	0.7464599609375	7.2296142578125E-06	5.39661732545937E-06	103250.3203125	8.85613408172503E-05
2	433	109.617431723243	0.756683349609375	0.7568359375	7.1075439453125E-06	5.37924461241346E-06	106483.46875	8.92832758836448E-05
2	434	109.718139722988	0.766754150390625	0.7666015625	6.951904296875E-06	5.32934063812718E-06	110272.171875	8.99912192835473E-05
2	435	109.818847722734	0.776824951171875	0.77728271484375	6.793212890625E-06	5.28024702362018E-06	114420.484375	9.06833447515965E-05
2	436	109.91955572248	0.786895751953125	0.78704833984375	6.65283203125E-06	5.23610015079612E-06	118302.7578125	9.13604089873843E-05
2	437	110.020263722226	0.796966552734375	0.79681396484375	6.549072265625E-06	5.2183922889526E-06	121668.21875	9.20251768548042E-05
2	438	110.120971721971	0.807037353515625	0.806884765625	6.4910888671875E-06	5.23756079928717E-06	124306.5390625	9.26818029256538E-05
2	439	110.221679721717	0.817108154296875	0.816650390625	6.488037109375E-06	5.29845783603378E-06	125870.1796875	9.33353512664326E-05
2	440	110.322387721463	0.827178955078125	0.8270263671875	6.536865234375E-06	5.40615974387038E-06	126517.28125	9.3991206085775E-05
2	441	110.423095721208	0.837249755859375	0.83740234375	6.6375732421875E-06	5.55831957171904E-06	126160.921875	9.46545915212482E-05
2	442	110.523803720954	0.847320556640625	0.84747314453125	6.768798828125E-06	5.73637498746393E-06	125202.8828125	9.53296548686922E-05
2	443	110.6245117207	0.857391357421875	0.85784912109375	6.9122314453125E-06	5.92965125179035E-06	124105.96875	9.60185498115607E-05
2	444	110.725219720446	0.867462158203125	0.86761474609375	7.037353515625E-06	6.1057116909069E-06	123287.078125	9.67209707596339E-05
2	445	110.825927720191	0.877532958984375	0.877685546875	7.122802734375E-06	6.2515805439034E-06	123221.9453125	9.74339855019934E-05
2	446	110.926635719937	0.887603759765625	0.88714599609375	7.159423828125E-06	6.35145397609449E-06	123913.046875	9.81531557044946E-05
2	447	111.027343719683	0.897674560546875	0.8978271484375	7.14111328125E-06	6.41148517388501E-06	125726.5	9.88732426776551E-05
2	448	111.128051719429	0.907745361328125	0.908203125	7.080078125E-06	6.43014891466009E-06	128275.8671875	9.9589342426043E-05
2	449	111.228759719174	0.917816162109375	0.91796875	6.9915771484375E-06	6.41804899714771E-06	131296.390625	0.000100297904282343
2	450	111.32946771892	0.927886962890625	0.92803955078125	6.89697265625E-06	6.40066309642862E-06	134557.53125	0.000100997247500345
2	451	111.430175718666	0.937957763671875	0.93780517578125	6.805419921875E-06	6.38215760773164E-06	137802.703125	0.000101687219284941
2	452	111.530883718412	0.948028564453125	0.94818115234375	6.7352294921875E-06	6.38621759208036E-06	140779.34375	0.000102369041997008
2	453	111.631591718157	0.958099365234375	0.9576416015625	6.6986083984375E-06	6.4148657656915E-06	142961.28125	0.000103045487776399
2	454	111.732299717903	0.968170166015625	0.9686279296875	6.7047119140625E-06	6.49437106403639E-06	144469.734375	0.000103720398328733
2	455	111.833007717649	0.978240966796875	0.97869873046875	6.756591796875E-06	6.61266767565394E-06	144850.953125	0.000104398233816028
2	456	111.933715717395	0.988311767578125	0.98846435546875	6.8572998046875E-06	6.77819616612396E-06	144147.765625	0.000105083745438606
2	457	112.03442371714	0.998382568359375	0.99884033203125	7.0037841796875E-06	6.99566180628608E-06	142614.375	0.000105781706224661
2	458	112.135131716886	1.00845336914063	1.00830078125	7.1746826171875E-06	7.2342381827184E-06	140535.9375	0.000106495652289595
2	459	112.235839716632	1.01852416992188	1.0186767578125	7.3516845703125E-06	7.48898992242175E-06	138563.71875	0.000107227111584507
2	460	112.336547716377	1.02859497070313	1.02874755859375	7.5103759765625E-06	7.72628118284047E-06	136976.84375	0.000107975472928956
2	461	112.437255716123	1.03866577148438	1.038818359375	7.6263427734375E-06	7.92238461144734E-06	136214.484375	0.00010873766586883
2	462	112.537963715869	1.04873657226563	1.048583984375	7.6812744140625E-06	8.0544605225441E-06	136511.734375	0.000109508466266561
2	463	112.638671715615	1.05880737304688	1.0589599609375	7.67822265625E-06	8.13092992757447E-06	137917.328125	0.000110281878733076
2	464	112.73937971536	1.06887817382813	1.0693359375	7.623291015625E-06	8.15185921965167E-06	140272.21875	0.000111052373540588
2	465	112.840087715106	1.07894897460938	1.0791015625	7.525634765625E-06	8.12092366686556E-06	143390.109375	0.000111815184936859
2	466	112.940795714852	1.08901977539063	1.0888671875	7.40966796875E-06	8.06814387033228E-06	146952.21875	0.000112567235191818
2	467	113.041503714598	1.09909057617188	1.09893798828125	7.281494140625E-06	8.00191082817037E-06	150922.046875	0.00011330698907841
2	468	113.142211714343	1.10916137695313	1.1090087890625	7.1502685546875E-06	7.92971059127012E-06	155100.3125	0.000114033689897042
2	469	113.242919714089	1.11923217773438	1.11907958984375	7.0281982421875E-06	7.865112820582E-06	159227.09375	0.000114747628686018
2	470	113.343627713835	1.12930297851563	1.129150390625	6.9091796875E-06	7.80150276114E-06	163427.578125	0.000115449431177694
2	471	113.444335713581	1.13937377929688	1.1395263671875	6.8023681640625E-06	7.75147782405838E-06	167519.078125	0.000116139868623577
2	472	113.545043713326	1.14944458007813	1.14990234375	6.70166015625E-06	7.70625410950743E-06	171584.703125	0.000116819850518368
2	473	113.645751713072	1.15951538085938	1.1590576171875	6.610107421875E-06	7.66149514674908E-06	175346.265625	0.000117490148113575
2	474	113.746459712818	1.16958618164063	1.16943359375	6.5277099609375E-06	7.63372372603044E-06	179149.140625	0.000118151692731772
2	475	113.847167712564	1.17965698242188	1.17950439453125	6.4544677734375E-06	7.61307273933198E-06	182742.328125	0.00011880539386766
2	476	113.947875712309	1.18972778320313	1.1895751953125	6.3873291015625E-06	7.59820795792621E-06	186239.84375	0.000119452030048706
2	477	114.048583712055	1.19979858398438	1.199951171875	6.3262939453125E-06	7.59124350224738E-06	189676.796875	0.000120092212455347
2	478	114.149291711801	1.20986938476563	1.21063232421875	6.2713623046875E-06	7.59231352276402E-06	193041.375	0.000120726552268025
2	479	114.249999711546	1.21994018554688	1.2200927734375	6.219482421875E-06	7.58834539738018E-06	196172.71875	0.000121355515148025
2	480	114.350707711292	1.23001098632813	1.23016357421875	6.170654296875E-06	7.59091381041799E-06	199357.078125	0.000121979413961526
2	481	114.451415711038	1.24008178710938	1.23992919921875	6.1309814453125E-06	7.60198236093856E-06	202239.9375	0.00012259885261301
2	482	114.552123710784	1.25015258789063	1.2506103515625	6.09130859375E-06	7.61785349823185E-06	205310.625	0.000123214282211848
2	483	114.652831710529	1.26022338867188	1.259765625	6.0577392578125E-06	7.63133175496478E-06	207959.703125	0.000123826044728048
2	484	114.753539710275	1.27029418945313	1.27044677734375	6.024169921875E-06	7.65338700148277E-06	210891.609375	0.000124434416648
2	485	114.854247710021	1.28036499023438	1.280517578125	5.99365234375E-06	7.67497749620816E-06	213645.625	0.000125039558042772
2	486	114.954955709767	1.29043579101563	1.28997802734375	5.9661865234375E-06	7.69624966778792E-06	216214.828125	0.000125641789054498
2	487	115.055663709512	1.30050659179688	1.3006591796875	5.9417724609375E-06	7.72822022554465E-06	218900.890625	0.000126241400721483
2	488	115.156371709258	1.31057739257813	1.31072998046875	5.9173583984375E-06	7.75605894887121E-06	221505.9375	0.000126838553114794
2	489	115.257079709004	1.32064819335938	1.32049560546875	5.89599609375E-06	7.78563662606757E-06	223964.8125	0.000127433406305499
2	490	115.35778770875	1.33071899414063	1.33087158203125	5.8746337890625E-06	7.81838298280491E-06	226545.453125	0.000128026105812751
2	491	115.458495708495	1.34078979492188	1.34033203125	5.8563232421875E-06	7.8494176705135E-06	228869.203125	0.000128616797155701
2	492	115.559203708241	1.35086059570313	1.35040283203125	5.841064453125E-06	7.8877892519813E-06	231191.234375	0.000129205815028399
2	493	115.659911707987	1.36093139648438	1.361083984375	5.8258056640625E-06	7.92941045801854E-06	233630.171875	0.000129793290398084
2	494	115.760619707733	1.37100219726563	1.37054443359375	5.8135986328125E-06	7.96779477241216E-06	235748.046875	0.000130379383335821
2	495	115.861327707478	1.38107299804688	1.38092041015625	5.8013916015625E-06	8.01126043370459E-06	238032.609375	0.000130964239360765
2	496	115.962035707224	1.39114379882813	1.3909912109375	5.7952880859375E-06	8.06119442131603E-06	240021.0625	0.000131548178615049
2	497	116.06274370697	1.40121459960938	1.4013671875	5.7891845703125E-06	8.11277277534828E-06	242066.4375	0.000132131506688893
2	498	116.163451706715	1.41128540039063	1.41143798828125	5.7861328125E-06	8.16676765680313E-06	243934.609375	0.00013271436910145
2	499	116.264159706461	1.42135620117188	1.4208984375	5.7830810546875E-06	8.21717003418598E-06	245699.21875	0.000133296925923787
2	500	116.364867706207	1.43142700195313	1.4312744140625	5.7830810546875E-06	8.27717576612486E-06	247493.421875	0.000133879322675057
2	501	116.465575705953	1.44149780273438	1.441650390625	5.7861328125E-06	8.3415798144415E-06	249156.125	0.000134461879497394
2	502	116.566283705698	1.45156860351563	1.451416015625	5.7891845703125E-06	8.40251504996559E-06	250711.65625	0.000135044741909951
2	503	116.666991705444	1.46163940429688	1.46148681640625	5.7952880859375E-06	8.46973671286833E-06	252185.359375	0.000135628069983795
2	504	116.76769970519	1.47171020507813	1.47186279296875	5.8013916015625E-06	8.53885285323486E-06	253708.578125	0.000136212009238079
2	505	116.868407704936	1.48178100585938	1.48193359375	5.810546875E-06	8.61084390635369E-06	255042.03125	0.00013679671974387
2	506	116.969115704681	1.49185180664063	1.49200439453125	5.8258056640625E-06	8.69212726684054E-06	256102.671875	0.00013738265261054
2	507	117.069823704427	1.50192260742188	1.50238037109375	5.841064453125E-06	8.77550064615207E-06	257210.046875	0.000137970127980225
2	508	117.170531704173	1.49185180664063	1.49139404296875	5.6640625E-06	8.44734859128948E-06	263308.1875	0.000138549454277381
2	509	117.271239703919	1.48178100585938	1.48193359375	5.535888671875E-06	8.20381956145866E-06	267695.6875	0.000139113413752057
2	510	117.371947703664	1.47171020507813	1.47186279296875	5.43212890625E-06	7.99534791440237E-06	270955.0625	0.000139665702590719
2	511	117.47265570341	1.46163940429688	1.4617919921875	5.3466796875E-06	7.81573362473864E-06	273401.8125	0.000140208459924906
2	512	117.573363703156	1.45156860351563	1.4520263671875	5.2703857421875E-06	7.65273944125511E-06	275506.65625	0.000140743068186566
2	513	117.674071702902	1.44149780273438	1.44134521484375	5.2032470703125E-06	7.49967512092553E-06	277008.8125	0.000141270458698273
2	514	117.774779702647	1.43142700195313	1.43157958984375	5.145263671875E-06	7.36585434424342E-06	278232.5	0.000141791548230685
2	515	117.875487702393	1.42135620117188	1.4215087890625	5.09033203125E-06	7.23595121598919E-06	279256.59375	0.000142306947964244
2	516	117.976195702139	1.41128540039063	1.4111328125	5.04150390625E-06	7.11423126631416E-06	279903.15625	0.000142817123560235
2	517	118.076903701884	1.40121459960938	1.4013671875	4.9957275390625E-06	7.00084865457029E-06	280513.125	0.000143322540679947
2	518	118.17761170163	1.39114379882813	1.3909912109375	4.95452880859375E-06	6.89170610712608E-06	280751.46875	0.000143823577673174
2	519	118.278319701376	1.38107299804688	1.380615234375	4.91546630859375E-06	6.78636706652469E-06	280871.6875	0.000144320569233969
2	520	118.379027701122	1.37100219726563	1.37176513671875	4.88037109375E-06	6.69472274239524E-06	281078.0625	0.000144813835504465
2	521	118.479735700867	1.36093139648438	1.3604736328125	4.84649658203125E-06	6.59353054288658E-06	280712.8125	0.000145303623867221
2	522	118.580443700613	1.35086059570313	1.35101318359375	4.81475830078125E-06	6.50480160402367E-06	280598.34375	0.000145790094393305
2	523	118.681151700359	1.34078979492188	1.34033203125	4.78424072265625E-06	6.41247061139438E-06	280155.65625	0.000146273450809531
2	524	118.781859700105	1.33071899414063	1.33026123046875	4.755859375E-06	6.32653518550796E-06	279709.96875	0.000146753824083135
2	525	118.88256769985	1.32064819335938	1.32080078125	4.727783203125E-06	6.24445965513587E-06	279370	0.000147231374285184
2	526	118.983275699596	1.31057739257813	1.31103515625	4.7015380859375E-06	6.16388115304289E-06	278852.40625	0.000147706174175255
2	527	119.083983699342	1.30050659179688	1.30035400390625	4.67559814453125E-06	6.0799325183325E-06	278115	0.000148178354720585
2	528	119.184691699088	1.29043579101563	1.2908935546875	4.65118408203125E-06	6.00418343310594E-06	277540.84375	0.00014864798868075
2	529	119.285399698833	1.28036499023438	1.27960205078125	4.62738037109375E-06	5.92120522924233E-06	276528.40625	0.000149115207022987
2	530	119.386107698579	1.27029418945313	1.2701416015625	4.6044921875E-06	5.84835697736708E-06	275848.375	0.000149580067954957
2	531	119.486815698325	1.26022338867188	1.2603759765625	4.58251953125E-06	5.77569744564244E-06	275039.96875	0.000150042673340067
2	532	119.587523698071	1.25015258789063	1.2506103515625	4.56085205078125E-06	5.70384827369708E-06	274205.4375	0.000150503066834062
2	533	119.688231697816	1.24008178710938	1.240234375	4.54071044921875E-06	5.63154526389553E-06	273136.625	0.00015096137940418
2	534	119.788939697562	1.23001098632813	1.23016357421875	4.52056884765625E-06	5.56103896087734E-06	272125.84375	0.00015141764015425
2	535	119.889647697308	1.21994018554688	1.2200927734375	4.500732421875E-06	5.49131073057652E-06	271087.625	0.000151871907291934
2	536	119.990355697053	1.20986938476563	1.21002197265625	4.481201171875E-06	5.42235147804604E-06	270021.8125	0.000152324180817232
2	537	120.091063696799	1.19979858398438	1.1993408203125	4.46197509765625E-06	5.35142908120179E-06	268791.46875	0.000152774504385889
2	538	120.191771696545	1.18972778320313	1.1895751953125	4.44244384765625E-06	5.284620783641E-06	267774.96875	0.000153222877997905
2	539	120.292479696291	1.17965698242188	1.17919921875	4.42230224609375E-06	5.21477522852365E-06	266648.28125	0.000153669257997535
2	540	120.393187696036	1.16958618164063	1.16943359375	4.40093994140625E-06	5.14660678163636E-06	265723.59375	0.000154113542521372
2	541	120.493895695782	1.15951538085938	1.15936279296875	4.37835693359375E-06	5.07610366184963E-06	264794.0625	0.000154555615154095
2	542	120.594603695528	1.14944458007813	1.1492919921875	4.35272216796875E-06	5.00254873259109E-06	264039.84375	0.000154995257616974
2	543	120.695311695274	1.13937377929688	1.1395263671875	4.32373046875E-06	4.92700473841978E-06	263551.65625	0.000155432149767876
2	544	120.796019695019	1.12930297851563	1.12945556640625	4.28802490234375E-06	4.84313341075904E-06	263397.625	0.000155865782289766
2	545	120.896727694765	1.11923217773438	1.119384765625	4.244384765625E-06	4.75109982289723E-06	263733.09375	0.000156295427586883
2	546	120.997435694511	1.10916137695313	1.10931396484375	4.1876220703125E-06	4.64538743472076E-06	264903.09375	0.000156720008817501
2	547	121.098143694257	1.09909057617188	1.0992431640625	4.114990234375E-06	4.52337462775176E-06	267131.40625	0.000157138085342012
2	548	121.198851694002	1.08901977539063	1.0894775390625	4.0185546875E-06	4.37812514064717E-06	271111.78125	0.0001575476344442
2	549	121.299559693748	1.07894897460938	1.07879638671875	3.89312744140625E-06	4.19989191868808E-06	277102.75	0.000157946022227407
2	550	121.400267693494	1.06887817382813	1.0687255859375	3.7310791015625E-06	3.98749943997245E-06	286438.75	0.000158329930854961
2	551	121.50097569324	1.05880737304688	1.0595703125	3.52752685546875E-06	3.73766260963748E-06	300372	0.000158695431309752
2	552	121.601683692985	1.04873657226563	1.048583984375	3.2843017578125E-06	3.44386626238702E-06	319271.5	0.0001590384345036
2	553	121.702391692731	1.03866577148438	1.03912353515625	3.0084228515625E-06	3.12612291963887E-06	345404.75	0.000159355302457698
2	554	121.803099692477	1.02859497070313	1.02813720703125	2.71942138671875E-06	2.79593814411783E-06	378072.0625	0.000159643721417524
2	555	121.903807692222	1.01852416992188	1.0186767578125	2.44171142578125E-06	2.48731453211803E-06	417197.875	0.000159903604071587
2	556	122.004515691968	1.00845336914063	1.00830078125	2.200927734375E-06	2.2191970856511E-06	458125.375	0.000160137380589731
2	557	122.105223691714	0.998382568359375	0.99822998046875	2.02056884765625E-06	2.01699253921106E-06	494034.125	0.000160349954967387
2	558	122.20593169146	0.988311767578125	0.98846435546875	1.91192626953125E-06	1.88987087312853E-06	516999.25	0.000160547962877899
2	559	122.306639691205	0.978240966796875	0.97869873046875	1.86859130859375E-06	1.82878795840224E-06	523762.875	0.000160738331032917
2	560	122.407347690951	0.968170166015625	0.96771240234375	1.87286376953125E-06	1.81239352059492E-06	516701.96875	0.000160926720127463
2	561	122.508055690697	0.958099365234375	0.95855712890625	1.9012451171875E-06	1.82245196356234E-06	504173.375	0.000161116768140346
2	562	122.608763690443	0.948028564453125	0.94757080078125	1.932373046875E-06	1.83106010354095E-06	490366.4375	0.00016130979929585
2	563	122.709471690188	0.937957763671875	0.938720703125	1.94976806640625E-06	1.83028748779179E-06	481452.53125	0.000161505289725028
2	564	122.810179689934	0.927886962890625	0.9283447265625	1.942138671875E-06	1.80297411134234E-06	478001.28125	0.000161701260367408
2	565	122.91088768968	0.917816162109375	0.91766357421875	1.89910888671875E-06	1.7427430520911E-06	483207.46875	0.000161894684424624
2	566	123.011595689426	0.907745361328125	0.90789794921875	1.8121337890625E-06	1.64523248713522E-06	501010.4375	0.000162081560119987
2	567	123.112303689171	0.897674560546875	0.8978271484375	1.67327880859375E-06	1.50231517181965E-06	536567.5625	0.000162257056217641
2	568	123.213011688917	0.887603759765625	0.88775634765625	1.48468017578125E-06	1.31803426484112E-06	597944.5	0.000162416079547256
2	569	123.313719688663	0.877532958984375	0.877685546875	1.25030517578125E-06	1.09737470666005E-06	701977.125	0.000162553798872977
2	570	123.414427688409	0.867462158203125	0.86761474609375	9.8724365234375E-07	8.56547160310583E-07	878825.375	0.000162666459800676
2	571	123.515135688154	0.857391357421875	0.8575439453125	7.19299316406249E-07	6.16830732269591E-07	1192193.5	0.000162752403412014
2	572	123.6158436879	0.847320556640625	0.84716796875	4.7607421875E-07	4.03314828645307E-07	1779487.25	0.000162812590133399
2	573	123.716551687646	0.837249755859375	0.83740234375	2.79846191406249E-07	2.34343843885654E-07	2992366.5	0.000162850657943636
2	574	123.817259687391	0.827178955078125	0.8270263671875	1.46484375E-07	1.21146428000429E-07	5645833.5	0.000162872122018598
2	575	123.917967687137	0.817108154296875	0.8172607421875	7.41577148437506E-08	6.06061831831539E-08	11020577	0.000162883225129917
2	576	124.018675686883	0.807037353515625	0.8074951171875	5.58471679687506E-08	4.50963142384353E-08	14459017	0.00016288977349177
2	577	124.119383686629	0.796966552734375	0.797119140625	6.98852539062503E-08	5.57068737805366E-08	11406114	0.000162896103574894
2	578	124.220091686374	0.786895751953125	0.78704833984375	9.21630859374994E-08	7.25367996778914E-08	8539735	0.000162904267199337
2	579	124.32079968612	0.776824951171875	0.77667236328125	9.918212890625E-08	7.70320127685409E-08	7830769.5	0.000162913900567219
2	580	124.421507685866	0.766754150390625	0.76690673828125	6.65283203125006E-08	5.10210149684553E-08	11527524	0.00016292225336656
2	581	124.522215685612	0.756683349609375	0.7568359375	-2.41088867187503E-08	-1.82464710007935E-08	-31392406	0.000162924377946183
2	582	124.622923685357	0.746612548828125	0.74658203125	-1.8951416015625E-07	-1.41487859650624E-07	-3939452.75	0.000162913624080829
2	583	124.723631685103	0.736541748046875	0.73651123046875	-4.4525146484375E-07	-3.27932696109201E-07	-1654146.75	0.000162881668074988
2	584	124.824339684849	0.726470947265625	0.726409912109375	-7.977294921875E-07	-5.79478580675641E-07	-910596.8125	0.000162819080287591
2	585	124.925047684595	0.716400146484375	0.71630859375	-1.2457275390625E-06	-8.92325317636278E-07	-575012.25	0.000162716183695011
2	586	125.02575568434	0.706329345703125	0.706268310546875	-1.7706298828125E-06	-1.25053975352785E-06	-398879.6875	0.000162564290803857
2	587	125.126463684086	0.696258544921875	0.696197509765625	-2.3406982421875E-06	-1.62958815508318E-06	-297431.5625	0.000162357275257818
2	588	125.227171683832	0.686187744140625	0.686126708984375	-2.9071044921875E-06	-1.99464193428867E-06	-236017.234375	0.000162093027029186
2	589	125.327879683578	0.676116943359375	0.676116943359375	-3.42010498046875E-06	-2.31239073400502E-06	-197688.953125	0.000161774427397177
2	590	125.428587683323	0.666046142578125	0.66607666015625	-3.82965087890625E-06	-2.55084091804747E-06	-173926.21875	0.000161409363499843
2	591	125.529295683069	0.655975341796875	0.655914306640625	-4.09942626953125E-06	-2.68887220045144E-06	-160001.5	0.000161010102601722
2	592	125.630003682815	0.645904541015625	0.6458740234375	-4.21295166015625E-06	-2.72103579845862E-06	-153306.78125	0.000160591545864008
2	593	125.73071168256	0.635833740234375	0.635772705078125	-4.1845703125E-06	-2.66043548435846E-06	-151932.625	0.000160168696311302
2	594	125.831419682306	0.625762939453125	0.625732421875	-4.0478515625E-06	-2.53287180385087E-06	-154583.84375	0.000159754155902192
2	595	125.932127682052	0.615692138671875	0.615692138671875	-3.8421630859375E-06	-2.36558958022215E-06	-160246.234375	0.000159356874064542
2	596	126.032835681798	0.605621337890625	0.605560302734375	-3.603515625E-06	-2.1821458631166E-06	-168047.09375	0.000158981943968683
2	597	126.133543681543	0.595550537109375	0.59552001953125	-3.35723876953125E-06	-1.99930286726158E-06	-177383.875	0.000158631446538493
2	598	126.234251681289	0.585479736328125	0.585540771484375	-3.11920166015625E-06	-1.82641974788567E-06	-187721.359375	0.000158305338118225
2	599	126.334959681035	0.575408935546875	0.57537841796875	-2.89703369140625E-06	-1.66689062552905E-06	-198609.5	0.000158002396347001
2	600	126.435667680781	0.565338134765625	0.565338134765625	-2.694091796875E-06	-1.52307279677188E-06	-209843.6875	0.000157720860443078
2	601	126.536375680526	0.555267333984375	0.555267333984375	-2.510986328125E-06	-1.39426856549107E-06	-221135.15625	0.000157458751345985
2	602	126.637083680272	0.545196533203125	0.545196533203125	-2.3455810546875E-06	-1.27880264244595E-06	-232435.609375	0.000157214206410572
2	603	126.737791680018	0.535125732421875	0.53515625	-2.19696044921875E-06	-1.17571710234188E-06	-243589.390625	0.000156985479407012
2	604	126.838499679764	0.525054931640625	0.5250244140625	-2.06298828125E-06	-1.08311917301762E-06	-254497.046875	0.000156770969624631
2	605	126.939207679509	0.514984130859375	0.514923095703125	-1.9427490234375E-06	-1.00036629646638E-06	-265048.71875	0.000156569265527651
2	606	127.039915679255	0.504913330078125	0.50494384765625	-1.83380126953125E-06	-9.25966617160157E-07	-275353.65625	0.000156379101099446
2	607	127.140623679001	0.494842529296875	0.494873046875	-1.7352294921875E-06	-8.58718294693972E-07	-285191.6875	0.000156199384946376
2	608	127.241331678747	0.484771728515625	0.4847412109375	-1.64459228515625E-06	-7.9720160783836E-07	-294748.5625	0.00015602920029778
2	609	127.342039678492	0.474700927734375	0.474700927734375	-1.5618896484375E-06	-7.41430426387524E-07	-303927.34375	0.000155867732246406
2	610	127.442747678238	0.464630126953125	0.464569091796875	-1.485595703125E-06	-6.90161868988071E-07	-312715.6875	0.000155714282300323
2	611	127.543455677984	0.454559326171875	0.454559326171875	-1.416015625E-06	-6.43663099708647E-07	-321012.9375	0.00015556818107143
2	612	127.644163677729	0.444488525390625	0.44451904296875	-1.35040283203125E-06	-6.00279804530146E-07	-329175.125	0.000155428875586949
2	613	127.744871677475	0.434417724609375	0.434417724609375	-1.290283203125E-06	-5.6052186891975E-07	-336684	0.000155295914737508
2	614	127.845579677221	0.424346923828125	0.42437744140625	-1.23443603515625E-06	-5.2386678817129E-07	-343782.46875	0.000155168774654157
2	615	127.946287676967	0.414276123046875	0.41424560546875	-1.181640625E-06	-4.89489423216583E-07	-350568.1875	0.000155047120642848
2	616	128.046995676712	0.404205322265625	0.404205322265625	-1.1328125E-06	-4.57888830851516E-07	-356815.75	0.000154930574353784
2	617	128.147703676458	0.394134521484375	0.3941650390625	-1.08642578125E-06	-4.28231061277984E-07	-362809	0.000154818830196746
2	618	128.248411676204	0.384063720703125	0.38409423828125	-1.043701171875E-06	-4.00879571316182E-07	-368011.71875	0.000154711568029597
2	619	128.34911967595	0.373992919921875	0.37396240234375	-1.00189208984375E-06	-3.74669980374165E-07	-373256.15625	0.000154608569573611
2	620	128.449827675695	0.363922119140625	0.36395263671875	-9.625244140625E-07	-3.50313285935044E-07	-378123.03125	0.000154509645653889
2	621	128.550535675441	0.353851318359375	0.3538818359375	-9.259033203125E-07	-3.27660359289439E-07	-382201.71875	0.000154414563439786
2	622	128.651243675187	0.343780517578125	0.34381103515625	-8.9080810546875E-07	-3.06269669181347E-07	-385954.09375	0.000154323075548746
2	623	128.751951674933	0.333709716796875	0.333740234375	-8.5784912109375E-07	-2.86298757146142E-07	-389043.0625	0.000154235036461614
2	624	128.852659674678	0.323638916015625	0.323699951171875	-8.2672119140625E-07	-2.67609607362829E-07	-391546.6875	0.000154150198795833
2	625	128.953367674424	0.313568115234375	0.3135986328125	-7.9681396484375E-07	-2.49879747116211E-07	-393565.6875	0.00015406844613608
2	626	129.05407567417	0.303497314453125	0.303497314453125	-7.6873779296875E-07	-2.33309847885721E-07	-394799.53125	0.000153989618411288
2	627	129.154783673916	0.293426513671875	0.29339599609375	-7.42492675781251E-07	-2.17844373651133E-07	-395150.03125	0.000153913526446559
2	628	129.255491673661	0.283355712890625	0.283355712890625	-7.1746826171875E-07	-2.03298725409695E-07	-394938.34375	0.000153840010170825
2	629	129.356199673407	0.273284912109375	0.27325439453125	-6.9427490234375E-07	-1.89713659892732E-07	-393582.4375	0.000153768924064934
2	630	129.456907673153	0.263214111328125	0.263214111328125	-6.72607421875E-07	-1.77039765958398E-07	-391333.9375	0.000153700093505904
2	631	129.557615672898	0.253143310546875	0.253173828125	-6.52160644531249E-07	-1.65109995009516E-07	-388207.78125	0.000153633387526497
2	632	129.658323672644	0.243072509765625	0.243072509765625	-6.329345703125E-07	-1.53848986883531E-07	-384040.53125	0.000153568675159477
2	633	129.75903167239	0.233001708984375	0.233062744140625	-6.146240234375E-07	-1.43245955541715E-07	-379195.625	0.000153505854541436
2	634	129.859739672136	0.222930908203125	0.222930908203125	-5.99060058593751E-07	-1.33549008296541E-07	-372134.5	0.000153444751049392
2	635	129.960447671881	0.212860107421875	0.212799072265625	-5.841064453125E-07	-1.24297301340448E-07	-364315.59375	0.000153385160956532
2	636	130.061155671627	0.202789306640625	0.2027587890625	-5.7037353515625E-07	-1.1564824120569E-07	-355484.21875	0.00015332704060711
2	637	130.161863671373	0.192718505859375	0.192718505859375	-5.5877685546875E-07	-1.07686638273208E-07	-344893.5	0.000153270171722397
2	638	130.262571671119	0.182647705078125	0.182708740234375	-5.48706054687501E-07	-1.00253394919037E-07	-332981.09375	0.000153214408783242
2	639	130.363279670864	0.172576904296875	0.172637939453125	-5.4168701171875E-07	-9.35157231651829E-08	-318704.25	0.000153159504407085
2	640	130.46398767061	0.162506103515625	0.1624755859375	-5.38024902343751E-07	-8.74159127306484E-08	-301985.25	0.000153105138451792
2	641	130.564695670356	0.152435302734375	0.15252685546875	-5.37719726562499E-07	-8.20166974335734E-08	-283654.9375	0.000153050976223312
2	642	130.665403670102	0.142364501953125	0.1424560546875	-5.43212890625E-07	-7.73839659018449E-08	-262247.1875	0.000152996537508443
2	643	130.766111669847	0.132293701171875	0.13232421875	-5.56640625E-07	-7.36570342496634E-08	-237719.3125	0.000152941152919084
2	644	130.866819669593	0.122222900390625	0.122283935546875	-5.8135986328125E-07	-7.1090973108312E-08	-210341.203125	0.00015288386202883
2	645	130.967527669339	0.112152099609375	0.112213134765625	-6.21337890625E-07	-6.97222688472721E-08	-180599.234375	0.000152823296957649
2	646	131.068235669085	0.102081298828125	0.102081298828125	-6.805419921875E-07	-6.94706088211205E-08	-150000	0.000152757740579545
2	647	131.16894366883	0.092010498046875	0.09210205078125	-7.6629638671875E-07	-7.05774638731782E-08	-120191.1640625	0.000152684879139997
2	648	131.269651668576	0.081939697265625	0.08197021484375	-8.8623046875E-07	-7.26445037457779E-08	-92493.1171875	0.000152601671288721
2	649	131.370359668322	0.071868896484375	0.071929931640625	-1.046142578125E-06	-7.52489626165698E-08	-68757.296875	0.000152504377183504
2	650	131.471067668067	0.061798095703125	0.061859130859375	-1.24908447265625E-06	-7.72672805737784E-08	-49523.578125	0.000152388791320845
2	651	131.571775667813	0.051727294921875	0.05181884765625	-1.49383544921875E-06	-7.74088277921692E-08	-34688.4609375	0.000152250679093413
2	652	131.672483667559	0.041656494140625	0.041741943359375	-1.76727294921875E-06	-7.37694065833239E-08	-23619.41015625	0.000152086475281976
2	653	131.773191667305	0.031585693359375	0.0316741943359375	-2.05047607421875E-06	-6.4947180078434E-08	-15447.240234375	0.000151894229929894
2	654	131.87389966705	0.021514892578125	0.021624755859375	-2.3138427734375E-06	-5.00362844491065E-08	-9345.8193359375	0.000151674466906115
2	655	131.974607666796	0.011444091796875	0.0115203857421875	-2.53082275390625E-06	-2.91560535714552E-08	-4552.03173828125	0.000151430518599227
2	656	132.075315666542	0.001373291015625	0.0014495849609375	-2.681884765625E-06	-3.88762000369525E-09	-540.509765625	0.000151168045704253
2	657	132.176023666288	-0.008697509765625	-0.008575439453125	-2.75909423828125E-06	2.36604442704902E-08	3108.0634765625	0.000150894062244333
2	658	132.276731666033	-0.018768310546875	-0.0186370849609375	-2.77191162109375E-06	5.16603506639512E-08	6723.5498046875	0.000150615553138778
2	659	132.377439665779	-0.028839111328125	-0.0287322998046875	-2.73529052734375E-06	7.85911851153287E-08	10504.294921875	0.000150338251842186
2	660	132.478147665525	-0.038909912109375	-0.03876953125	-2.66571044921875E-06	1.03348341440324E-07	14543.7900390625	0.000150066291098483
2	661	132.578855665271	-0.048980712890625	-0.0488433837890625	-2.58026123046875E-06	1.26028695035529E-07	18929.626953125	0.000149802130181342
2	662	132.679563665016	-0.059051513671875	-0.058990478515625	-2.48870849609375E-06	1.46810094747707E-07	23703.251953125	0.000149546889588237
2	663	132.780271664762	-0.069122314453125	-0.069091796875	-2.398681640625E-06	1.65729218792876E-07	28804.072265625	0.000149300787597895
2	664	132.880979664508	-0.079193115234375	-0.0791015625	-2.3138427734375E-06	1.83028575406752E-07	34186.23046875	0.000149063489516266
2	665	132.981687664254	-0.089263916015625	-0.089202880859375	-2.23724365234375E-06	1.99568560788066E-07	39871.78125	0.000148834325955249
2	666	133.082395663999	-0.099334716796875	-0.099212646484375	-2.16827392578125E-06	2.15120181223938E-07	45756.51171875	0.000148612496559508
2	667	133.183103663745	-0.109405517578125	-0.109283447265625	-2.1075439453125E-06	2.30319656679967E-07	51853.4609375	0.000148397186421789
2	668	133.283811663491	-0.119476318359375	-0.11944580078125	-2.05474853515625E-06	2.45431067469326E-07	58131.59375	0.000148187595186755
2	669	133.384519663236	-0.129547119140625	-0.129486083984375	-2.008056640625E-06	2.60015383446444E-07	64483.28515625	0.000147983024362475
2	670	133.485227662982	-0.139617919921875	-0.13946533203125	-1.96868896484375E-06	2.7456383122626E-07	70841.734375	0.000147782775457017
2	671	133.585935662728	-0.149688720703125	-0.149566650390625	-1.93572998046875E-06	2.89520642127172E-07	77266.28125	0.000147586179082282
2	672	133.686643662474	-0.159759521484375	-0.15960693359375	-1.90826416015625E-06	3.04572182585616E-07	83639.859375	0.000147392609505914
2	673	133.787351662219	-0.169830322265625	-0.169647216796875	-1.88629150390625E-06	3.20004090781367E-07	89936.90625	0.000147201542858966
2	674	133.888059661965	-0.179901123046875	-0.179779052734375	-1.86981201171875E-06	3.36153021862629E-07	96148.1953125	0.000147012411616743
2	675	133.988767661711	-0.189971923828125	-0.1898193359375	-1.85821533203125E-06	3.52725209040727E-07	102151.421875	0.000146824691910297
2	676	134.089475661457	-0.200042724609375	-0.199920654296875	-1.8524169921875E-06	3.70336408650473E-07	107924.21875	0.000146637845318764
2	677	134.190183661202	-0.189971923828125	-0.18975830078125	-1.6339111328125E-06	3.10048193341572E-07	116137.46875	0.000146462291013449
