Potential - Start -0.2 V, Upper Vertex 1.5 V, Lower Vertex -0.2 V, Stop -0.19 V; Scan - # end cross 5, Rate 0.1 Vps, Step 0.01 V 
Scan	Index	Time (s)	Potential applied (V)	WE(1).Potential (V)	WE(1).Current (A)	WE(1).Power (W)	WE(1).Resistance (Ω)	WE(1).Charge (C)
1	1	57.4994268548279	-0.189971923828125	-0.18975830078125	-2.11486816406251E-07	4.01313755560295E-08	897258.3125	0
1	2	57.6001348545736	-0.179901123046875	-0.179779052734375	-1.79138183593749E-07	3.22052926549077E-08	1003577.5	-1.96695300047622E-08
1	3	57.7008428543194	-0.169830322265625	-0.169708251953125	-1.52587890625E-07	2.58954244714005E-08	1112200	-3.63732652886029E-08
1	4	57.8015508540651	-0.159759521484375	-0.159576416015625	-1.300048828125E-07	2.0745712703274E-08	1227464.875	-5.06029422808751E-08
1	5	57.9022588538108	-0.149688720703125	-0.14959716796875	-1.08642578125E-07	1.62526205826907E-08	1376966.375	-6.26197973474518E-08
1	6	58.0029668535566	-0.139617919921875	-0.13946533203125	-8.81958007812503E-08	1.2300255924913E-08	1581315	-7.25313924476723E-08
1	7	58.1036748533023	-0.129547119140625	-0.129425048828125	-6.77490234374994E-08	8.76842065622441E-09	1910360.5	-8.03838418050873E-08
1	8	58.2043828530481	-0.119476318359375	-0.11932373046875	-4.66918945312506E-08	5.57145085622324E-09	2555555.5	-8.61464002355206E-08
1	9	58.3050908527938	-0.109405517578125	-0.10931396484375	-2.38037109375006E-08	2.60207810853785E-09	4592307.5	-8.96961367402582E-08
1	10	58.4057988525395	-0.099334716796875	-0.099334716796875	3.0517578125E-09	-3.03145480939904E-10	-32550000	-9.07410750983217E-08
1	11	58.5065068522853	-0.089263916015625	-0.08917236328125	3.60107421875006E-08	-3.21116311319258E-09	-2476271.25	-8.87741222754812E-08
1	12	58.607214852031	-0.079193115234375	-0.07904052734375	7.81249999999997E-08	-6.17504092303989E-09	-1011718.75	-8.30269328844224E-08
1	13	58.7079228517767	-0.069122314453125	-0.069061279296875	1.3275146484375E-07	-9.16798637007332E-09	-520229.875	-7.24084614489584E-08
1	14	58.8086308515225	-0.059051513671875	-0.058990478515625	2.0477294921875E-07	-1.20796537217416E-08	-288077.5	-5.54127552732098E-08
1	15	58.9093388512682	-0.048980712890625	-0.0488433837890625	2.99682617187499E-07	-1.4637512535387E-08	-162983.71875	-3.00113995876927E-08
1	16	59.010046851014	-0.038909912109375	-0.0387420654296875	4.25109863281251E-07	-1.64696327686897E-08	-91134.25	6.4847975878024E-09
1	17	59.1107548507597	-0.028839111328125	-0.028662109375	5.81970214843749E-07	-1.66804934309539E-08	-49250.1328125	5.71953044925522E-08
1	18	59.2114628505054	-0.018768310546875	-0.0186309814453125	7.7056884765625E-07	-1.4356452915365E-08	-24178.21875	1.25301056641547E-07
1	19	59.3121708502512	-0.008697509765625	-0.0086181640625	9.8388671875E-07	-8.47929726432994E-09	-8759.3046875	2.13644909763389E-07
1	20	59.4128788499969	0.001373291015625	0.00147094726562499	1.20635986328125E-06	1.77449166471888E-09	1219.3271484375	3.23932567880547E-07
1	21	59.5135868497426	0.011444091796875	0.0115753173828125	1.41693115234375E-06	1.64014277714841E-08	8169.287109375	4.56025759376644E-07
1	22	59.6142948494884	0.021514892578125	0.021612548828125	1.5960693359375E-06	3.44951267550186E-08	13541.109375	6.0774237908845E-07
1	23	59.7150028492341	0.031585693359375	0.0316497802734375	1.7242431640625E-06	5.45719167632797E-08	18355.751953125	7.74933425873314E-07
1	24	59.8157108489798	0.041656494140625	0.04173583984375	1.79718017578125E-06	7.50068238630774E-08	23222.95703125	9.52251184571651E-07
1	25	59.9164188487256	0.051727294921875	0.0517578125	1.81884765625E-06	9.41395725817529E-08	28456.376953125	1.13433259230078E-06
1	26	60.0171268484713	0.061798095703125	0.06182861328125	1.8011474609375E-06	1.11362446375551E-07	34327.34765625	1.31661386149062E-06
1	27	60.1178348482171	0.071868896484375	0.07196044921875	1.756591796875E-06	1.2640512636608E-07	40965.94921875	1.49576021613029E-06
1	28	60.2185428479628	0.081939697265625	0.08197021484375	1.6986083984375E-06	1.39235297069717E-07	48257.27734375	1.669743369348E-06
1	29	60.3192508477085	0.092010498046875	0.092041015625	1.63421630859375E-06	1.50414919630748E-07	56321.19921875	1.83756446858752E-06
1	30	60.4199588474543	0.102081298828125	0.102081298828125	1.57073974609375E-06	1.60343148536413E-07	64989.3125	1.99894680008583E-06
1	31	60.5206668472	0.112152099609375	0.112213134765625	1.50970458984375E-06	1.69408679084881E-07	74327.875	2.15405952985748E-06
1	32	60.6213748469457	0.122222900390625	0.122283935546875	1.45355224609375E-06	1.77746073859453E-07	84127.65625	2.30327123063034E-06
1	33	60.7220828466915	0.132293701171875	0.13232421875	1.4031982421875E-06	1.85677109243443E-07	94301.875	2.44712009589421E-06
1	34	60.8227908464372	0.142364501953125	0.1424560546875	1.35772705078125E-06	1.9341642598647E-07	104922.4609375	2.58614386439149E-06
1	35	60.923498846183	0.152435302734375	0.15252685546875	1.31744384765625E-06	2.00945549977405E-07	115774.8515625	2.72084935204475E-06
1	36	61.0242068459287	0.162506103515625	0.16259765625	1.28143310546875E-06	2.08358017061983E-07	126887.3515625	2.85171313407773E-06
1	37	61.1249148456744	0.172576904296875	0.172637939453125	1.248779296875E-06	2.15586680951674E-07	138245.359375	2.97911947200191E-06
1	38	61.2256228454202	0.182647705078125	0.1827392578125	1.21978759765625E-06	2.22903082658377E-07	149812.359375	3.10342170450895E-06
1	39	61.3263308451659	0.192718505859375	0.1927490234375	1.19354248046875E-06	2.30054126859613E-07	161493.234375	3.22494247484428E-06
1	40	61.4270388449116	0.202789306640625	0.202850341796875	1.17095947265625E-06	2.3752951960887E-07	173234.3125	3.34400465362705E-06
1	41	61.5277468446574	0.212860107421875	0.212921142578125	1.14990234375E-06	2.44838531671121E-07	185164.546875	3.46086926583666E-06
1	42	61.6284548444031	0.222930908203125	0.22296142578125	1.13128662109375E-06	2.52233263609014E-07	197086.59375	3.57573640030751E-06
1	43	61.7291628441488	0.233001708984375	0.23297119140625	1.114501953125E-06	2.5964683914026E-07	209036.140625	3.6888206977892E-06
1	44	61.8298708438946	0.243072509765625	0.243072509765625	1.0986328125E-06	2.67047425950295E-07	221250.015625	3.80026085622376E-06
1	45	61.9305788436403	0.253143310546875	0.253173828125	1.08489990234375E-06	2.74668252586707E-07	233361.46875	3.91021058021579E-06
1	46	62.0312868433861	0.263214111328125	0.263275146484375	1.07177734375E-06	2.82172322840779E-07	245643.515625	4.01880788558628E-06
1	47	62.1319948431318	0.273284912109375	0.27325439453125	1.0601806640625E-06	2.89699045197267E-07	257743.234375	4.1261605474574E-06
1	48	62.2327028428775	0.283355712890625	0.28338623046875	1.05010986328125E-06	2.97586666420102E-07	269863.40625	4.23242181568639E-06
1	49	62.3334108426233	0.293426513671875	0.293365478515625	1.0406494140625E-06	3.05290598134889E-07	281906.15625	4.33769992014277E-06
1	50	62.434118842369	0.303497314453125	0.303466796875	1.03179931640625E-06	3.13116828465354E-07	294114.15625	4.4420562517189E-06
1	51	62.5348268421147	0.313568115234375	0.3135986328125	1.024169921875E-06	3.21178276863066E-07	306197.84375	4.54558266937966E-06
1	52	62.6355348418605	0.323638916015625	0.32366943359375	1.0174560546875E-06	3.2931941973402E-07	318116.375	4.64838649349986E-06
1	53	62.7362428416062	0.333709716796875	0.33380126953125	1.01165771484375E-06	3.37692625862474E-07	329954.75	4.75056049253908E-06
1	54	62.8369508413519	0.343780517578125	0.343780517578125	1.00616455078125E-06	3.45899763942725E-07	341674.25	4.8521660573897E-06
1	55	62.9376588410977	0.353851318359375	0.3538818359375	1.0015869140625E-06	3.54443386640924E-07	353321.1875	4.95326412419672E-06
1	56	63.0383668408434	0.363922119140625	0.363983154296875	9.9822998046875E-07	3.6333889852358E-07	364628.53125	5.05396292282967E-06
1	57	63.1390748405892	0.373992919921875	0.3740234375	9.95483398437499E-07	3.72334085341208E-07	375720.4375	5.15435431225342E-06
1	58	63.2397828403349	0.384063720703125	0.384033203125	9.930419921875E-07	3.81361104473399E-07	386724.03125	5.25448467669776E-06
1	59	63.3404908400806	0.394134521484375	0.3941650390625	9.9151611328125E-07	3.90820986240215E-07	397537.6875	5.35441495230771E-06
1	60	63.4411988398264	0.404205322265625	0.404266357421875	9.89990234375E-07	4.00219732910045E-07	408353.90625	5.45419197806041E-06
1	61	63.5419068395721	0.414276123046875	0.41424560546875	9.8907470703125E-07	4.09719831395705E-07	418821.34375	5.55384576728102E-06
1	62	63.6426148393178	0.424346923828125	0.42425537109375	9.8846435546875E-07	4.19361299464072E-07	429206.5625	5.65342270419933E-06
1	63	63.7433228390636	0.434417724609375	0.434478759765625	9.88159179687501E-07	4.29334164664397E-07	439685	5.7529537116352E-06
1	64	63.8440308388093	0.444488525390625	0.444488525390625	9.8876953125E-07	4.3949671635346E-07	449537.03125	5.85249972573365E-06
1	65	63.9447388385551	0.454559326171875	0.45458984375	9.8876953125E-07	4.49484588216365E-07	459753.0625	5.95207666265196E-06
1	66	64.0454468383008	0.464630126953125	0.464599609375	9.89990234375E-07	4.59949063724707E-07	469297.1875	6.05171544520999E-06
1	67	64.1461548380465	0.474700927734375	0.474700927734375	9.91210937500001E-07	4.70528732421371E-07	478910.125	6.15147655480541E-06
1	68	64.2468628377923	0.484771728515625	0.4847412109375	9.9365234375E-07	4.81664187645947E-07	487837.875	6.25142274657264E-06
1	69	64.347570837538	0.494842529296875	0.494781494140625	9.967041015625E-07	4.93150764668826E-07	496417.625	6.35164496998186E-06
1	70	64.4482788372837	0.504913330078125	0.504913330078125	1.00006103515625E-06	5.04944125623297E-07	504882.5	6.45219006401021E-06
1	71	64.5489868370295	0.514984130859375	0.514984130859375	1.0040283203125E-06	5.17058595050912E-07	512917.96875	6.55310395814013E-06
1	72	64.6496948367752	0.525054931640625	0.525115966796875	1.00860595703125E-06	5.29635087787028E-07	520635.375	6.65444804326398E-06
1	73	64.7504028365209	0.535125732421875	0.53515625	1.01409912109375E-06	5.42701457106887E-07	527715.9375	6.75629962643143E-06
1	74	64.8511108362667	0.545196533203125	0.545196533203125	1.02081298828125E-06	5.56543682250776E-07	534080.6875	6.85876557326992E-06
1	75	64.9518188360124	0.555267333984375	0.555267333984375	1.0296630859375E-06	5.71738269172783E-07	539270.9375	6.96201504979399E-06
1	76	65.0525268357582	0.565338134765625	0.565338134765625	1.03973388671875E-06	5.87801196161308E-07	543733.5	7.06621767676552E-06
1	77	65.1532348355039	0.575408935546875	0.57537841796875	1.0528564453125E-06	6.05790887675539E-07	546492.75	7.17158764018677E-06
1	78	65.2539428352496	0.585479736328125	0.585479736328125	1.06964111328125E-06	6.26253154223377E-07	547360.9375	7.27846418158151E-06
1	79	65.3546508349954	0.595550537109375	0.59552001953125	1.09222412109375E-06	6.50441336347285E-07	545236.125	7.38732251193142E-06
1	80	65.4553588347411	0.605621337890625	0.6055908203125	1.1212158203125E-06	6.78997935210646E-07	540119.8125	7.49877835914958E-06
1	81	65.5560668344868	0.615692138671875	0.615692138671875	1.15875244140625E-06	7.13434758381482E-07	531340.5625	7.61358387535438E-06
1	82	65.6567748342326	0.625762939453125	0.625701904296875	1.207275390625E-06	7.55394466978032E-07	518276.0625	7.73272222431842E-06
1	83	65.7574828339783	0.635833740234375	0.635833740234375	1.268310546875E-06	8.06434570677084E-07	501323.40625	7.85737847763812E-06
1	84	65.8581908337241	0.645904541015625	0.645904541015625	1.34002685546875E-06	8.65529443672131E-07	482008.65625	7.98871860752115E-06
1	85	65.9588988334698	0.655975341796875	0.65594482421875	1.417236328125E-06	9.29628811263683E-07	462833.78125	8.1275575212203E-06
1	86	66.0596068332155	0.666046142578125	0.66595458984375	1.4947509765625E-06	9.95436266748584E-07	445528.8125	8.27418807602953E-06
1	87	66.1603148329613	0.676116943359375	0.676025390625	1.56158447265625E-06	1.05567073660495E-06	432909.90625	8.42808640300063E-06
1	88	66.261022832707	0.686187744140625	0.686187744140625	1.6131591796875E-06	1.10693008537055E-06	425368.90625	8.58794737723656E-06
1	89	66.3617308324527	0.696258544921875	0.69622802734375	1.64581298828125E-06	1.14586111976678E-06	423029.84375	8.75205023476155E-06
1	90	66.4624388321985	0.706329345703125	0.706298828125	1.661376953125E-06	1.17342858629854E-06	425128.59375	8.91858053364558E-06
1	91	66.5631468319442	0.716400146484375	0.71630859375	1.6607666015625E-06	1.18962134365574E-06	431312.03125	9.08586298464797E-06
1	92	66.6638548316899	0.726470947265625	0.726409912109375	1.65191650390625E-06	1.19996855119098E-06	439737.6875	9.25267067941604E-06
1	93	66.7645628314357	0.736541748046875	0.7364501953125	1.636962890625E-06	1.20554159366293E-06	449888.15625	9.41827875067247E-06
1	94	66.8652708311814	0.746612548828125	0.746551513671875	1.61956787109375E-06	1.20909078304976E-06	460957.25	9.58225791691802E-06
1	95	66.9659788309272	0.756683349609375	0.7568359375	1.6015625E-06	1.21211996884085E-06	472561	9.7444544735481E-06
1	96	67.0666868306729	0.766754150390625	0.76690673828125	1.58599853515625E-06	1.21631285310286E-06	483548.21875	9.90496118902229E-06
1	97	67.1673948304186	0.776824951171875	0.7769775390625	1.5728759765625E-06	1.2220892813275E-06	493985.28125	1.00640227174154E-05
1	98	67.2681028301644	0.786895751953125	0.78704833984375	1.56341552734375E-06	1.23048357636435E-06	503415.96875	1.02219473774312E-05
1	99	67.3688108299101	0.796966552734375	0.7977294921875	1.5570068359375E-06	1.24207031149126E-06	512348.09375	1.03790735010989E-05
1	100	67.4695188296558	0.807037353515625	0.8074951171875	1.55364990234375E-06	1.25456472233054E-06	519740.71875	1.05357075881329E-05
1	101	67.5702268294016	0.817108154296875	0.8172607421875	1.5533447265625E-06	1.26948759771039E-06	526129.6875	1.06921570477425E-05
1	102	67.6709348291473	0.827178955078125	0.8270263671875	1.5545654296875E-06	1.28566659896023E-06	531998.4375	1.08486528915819E-05
1	103	67.7716428288931	0.837249755859375	0.83740234375	1.5576171875E-06	1.30435216760816E-06	537617.5625	1.10053633761709E-05
1	104	67.8723508286388	0.847320556640625	0.84808349609375	1.558837890625E-06	1.32202467284515E-06	544048.5625	1.11622894110042E-05
1	105	67.9730588283845	0.857391357421875	0.8575439453125	1.56036376953125E-06	1.33808055124973E-06	549579.5	1.13193536890321E-05
1	106	68.0737668281303	0.867462158203125	0.86761474609375	1.561279296875E-06	1.35458890326845E-06	555707.5625	1.14765407488449E-05
1	107	68.174474827876	0.877532958984375	0.877685546875	1.56005859375E-06	1.36924086291401E-06	562597.8125	1.16337132567423E-05
1	108	68.2751828276217	0.887603759765625	0.88775634765625	1.5594482421875E-06	1.38440998398437E-06	569275.9375	1.17907929961802E-05
1	109	68.3758908273675	0.897674560546875	0.8978271484375	1.55792236328125E-06	1.39874498472636E-06	576297.75	1.19477645057486E-05
1	110	68.4765988271132	0.907745361328125	0.9075927734375	1.5582275390625E-06	1.41423606692115E-06	582452.0625	1.2104675079172E-05
1	111	68.5773068268589	0.917816162109375	0.91766357421875	1.56036376953125E-06	1.43188901802205E-06	588108.75	1.22617093438748E-05
1	112	68.6780148266047	0.927886962890625	0.92803955078125	1.5643310546875E-06	1.45176102250844E-06	593250.125	1.24190501082921E-05
1	113	68.7787228263504	0.937957763671875	0.9381103515625	1.5716552734375E-06	1.47438606745709E-06	596893.1875	1.25769593068981E-05
1	114	68.8794308260962	0.948028564453125	0.9478759765625	1.58294677734375E-06	1.50043717894732E-06	598804.6875	1.27358061945415E-05
1	115	68.9801388258419	0.958099365234375	0.95855712890625	1.597900390625E-06	1.53167877670057E-06	599885.4375	1.28959745779866E-05
1	116	69.0808468255876	0.968170166015625	0.968017578125	1.6180419921875E-06	1.56629312186851E-06	598264.8125	1.30579101096373E-05
1	117	69.1815548253334	0.978240966796875	0.97869873046875	1.64154052734375E-06	1.6065736190285E-06	596207.5	1.32220429804875E-05
1	118	69.2822628250791	0.988311767578125	0.98846435546875	1.66595458984375E-06	1.64673667768511E-06	593332.125	1.33885887407814E-05
1	119	69.3829708248248	0.998382568359375	0.9979248046875	1.6900634765625E-06	1.68655617471813E-06	590465.875	1.35575774038443E-05
1	120	69.4836788245706	1.00845336914063	1.00921630859375	1.710205078125E-06	1.72596685388271E-06	590114.1875	1.37287943289266E-05
1	121	69.5843868243163	1.01852416992188	1.0186767578125	1.72454833984375E-06	1.75675722857704E-06	590691.9375	1.39017483888892E-05
1	122	69.685094824062	1.02859497070313	1.02874755859375	1.73309326171875E-06	1.78291543306841E-06	593590.4375	1.40758538691443E-05
1	123	69.7858028238078	1.03866577148438	1.03851318359375	1.73492431640625E-06	1.80174174602143E-06	598592.8125	1.42504832183477E-05
1	124	69.8865108235535	1.04873657226563	1.04827880859375	1.73370361328125E-06	1.81740472271485E-06	604647.0625	1.44251425808761E-05
1	125	69.9872188232993	1.05880737304688	1.05865478515625	1.72943115234375E-06	1.83087047389563E-06	612140.5	1.45995245475206E-05
1	126	70.087926823045	1.06887817382813	1.0687255859375	1.7236328125E-06	1.84209045528405E-06	620042.5	1.47734008351108E-05
1	127	70.1886348227907	1.07894897460938	1.0784912109375	1.7181396484375E-06	1.85299847998976E-06	627708.6875	1.49467077790177E-05
1	128	70.2893428225365	1.08901977539063	1.08917236328125	1.71234130859375E-06	1.86503473287303E-06	636072	1.51194462887361E-05
1	129	70.3900508222822	1.09909057617188	1.09893798828125	1.70745849609375E-06	1.87639091109304E-06	643610.375	1.52916472870857E-05
1	130	70.4907588220279	1.10916137695313	1.1090087890625	1.70379638671875E-06	1.88952515145502E-06	650904.5625	1.54634162754519E-05
1	131	70.5914668217737	1.11923217773438	1.11968994140625	1.70135498046875E-06	1.90498997199029E-06	658116.625	1.56348796735983E-05
1	132	70.6921748215194	1.12930297851563	1.12945556640625	1.70013427734375E-06	1.9202261682949E-06	664333.1875	1.58061575348256E-05
1	133	70.7928828212652	1.13937377929688	1.13922119140625	1.70074462890625E-06	1.93752430277527E-06	669836.6875	1.59774062922224E-05
1	134	70.8935908210109	1.14944458007813	1.14990234375	1.70135498046875E-06	1.95639199773723E-06	675874.5	1.61487150762696E-05
1	135	70.9942988207566	1.15951538085938	1.15936279296875	1.70379638671875E-06	1.97531812773377E-06	680458.5625	1.6320178474416E-05
1	136	71.0950068205024	1.16958618164063	1.16973876953125	1.70684814453125E-06	1.99656642507762E-06	685320.9375	1.64919183589518E-05
1	137	71.1957148202481	1.17965698242188	1.17950439453125	1.7108154296875E-06	2.01791431209131E-06	689439.9375	1.66640111274319E-05
1	138	71.2964228199938	1.18972778320313	1.18927001953125	1.71630859375E-06	2.04115440283203E-06	692923.1875	1.68365804711357E-05
1	139	71.3971308197396	1.19979858398438	1.199951171875	1.7218017578125E-06	2.06607796826574E-06	696916	1.70097027876182E-05
1	140	71.4978388194853	1.20986938476563	1.209716796875	1.72882080078125E-06	2.0913835214742E-06	699735.25	1.71834562934237E-05
1	141	71.598546819231	1.21994018554688	1.2200927734375	1.73614501953125E-06	2.11825795304321E-06	702759.6875	1.7357930119033E-05
1	142	71.6992548189768	1.23001098632813	1.2298583984375	1.74468994140625E-06	2.1457215098053E-06	704915.1875	1.75332042999798E-05
1	143	71.7999628187225	1.24008178710938	1.23992919921875	1.75384521484375E-06	2.17464389606903E-06	706977.5625	1.77093697857345E-05
1	144	71.9006708184683	1.25015258789063	1.25	1.76300048828125E-06	2.20375068238354E-06	709018.5625	1.78864574991167E-05
1	145	72.001378818214	1.26022338867188	1.259765625	1.77337646484375E-06	2.23403867494198E-06	710376.875	1.80645274667768E-05
1	146	72.1020868179597	1.27029418945313	1.26983642578125	1.78436279296875E-06	2.26584893425752E-06	711647	1.82436742761638E-05
1	147	72.2027948177055	1.28036499023438	1.28021240234375	1.795654296875E-06	2.29881879931781E-06	712950.375	1.84239415830234E-05
1	148	72.3035028174512	1.29043579101563	1.29058837890625	1.80816650390625E-06	2.33359855883464E-06	713755.3125	1.86054094228894E-05
1	149	72.4042108171969	1.30050659179688	1.30035400390625	1.820068359375E-06	2.36673304243595E-06	714453.4375	1.87881050806027E-05
1	150	72.5049188169427	1.31057739257813	1.31103515625	1.83349609375E-06	2.40377789850754E-06	715046.625	1.89720776688773E-05
1	151	72.6056268166884	1.32064819335938	1.32080078125	1.84783935546875E-06	2.44062744059192E-06	714781.1875	1.91574472410139E-05
1	152	72.7063348164342	1.33071899414063	1.33026123046875	1.8634033203125E-06	2.47881325776689E-06	713888	1.93443229363766E-05
1	153	72.8070428161799	1.34078979492188	1.34063720703125	1.8792724609375E-06	2.51942242357472E-06	713381	1.95327811525203E-05
1	154	72.9077508159256	1.35086059570313	1.35040283203125	1.895751953125E-06	2.56002863352478E-06	712331	1.97228691831697E-05
1	155	73.0084588156714	1.36093139648438	1.361083984375	1.912841796875E-06	2.60353817793657E-06	711550.75	1.99146470549749E-05
1	156	73.1091668154171	1.37100219726563	1.370849609375	1.93145751953125E-06	2.64773780145333E-06	709748.75	2.01082220883109E-05
1	157	73.2098748151628	1.38107299804688	1.3812255859375	1.95098876953125E-06	2.69475549430354E-06	707961.875	2.03037197934464E-05
1	158	73.3105828149086	1.39114379882813	1.3909912109375	1.9732666015625E-06	2.74479634754243E-06	704918.0625	2.05013220693218E-05
1	159	73.4112908146543	1.40121459960938	1.40106201171875	1.99859619140625E-06	2.80015729003935E-06	701023.0625	2.07013199542416E-05
1	160	73.5119988144	1.41128540039063	1.4111328125	2.02911376953125E-06	2.86334920929221E-06	695442.875	2.09041318157688E-05
1	161	73.6127068141458	1.42135620117188	1.4208984375	2.0648193359375E-06	2.93389848593506E-06	688146.625	2.11102778848726E-05
1	162	73.7134148138915	1.43142700195313	1.4312744140625	2.108154296875E-06	3.01734712593316E-06	678923.0625	2.13204039027914E-05
1	163	73.8141228136373	1.44149780273438	1.44134521484375	2.1600341796875E-06	3.11335497826803E-06	667278.875	2.1535324776778E-05
1	164	73.914830813383	1.45156860351563	1.45172119140625	2.2235107421875E-06	3.22791743201378E-06	652896	2.17560536839301E-05
1	165	74.0155388131287	1.46163940429688	1.46148681640625	2.2991943359375E-06	3.36024208991148E-06	635651.75	2.19837893382646E-05
1	166	74.1162468128745	1.47171020507813	1.47186279296875	2.38800048828125E-06	3.51480889548839E-06	616357.8125	2.22198086703429E-05
1	167	74.2169548126202	1.48178100585938	1.48193359375	2.48748779296875E-06	3.68629162039724E-06	595755.125	2.24653085751925E-05
1	168	74.3176628123659	1.49185180664063	1.49139404296875	2.5946044921875E-06	3.86957754017203E-06	574805.9375	2.27212130994303E-05
1	169	74.4183708121117	1.50192260742188	1.50177001953125	2.70538330078125E-06	4.06286335419281E-06	555104.375	2.29880879487609E-05
1	170	74.5190788118574	1.49185180664063	1.49169921875	2.3828125E-06	3.55443944499712E-06	626024.625	2.32442980632186E-05
1	171	74.6197868116031	1.48178100585938	1.48193359375	2.1502685546875E-06	3.18655520459288E-06	689185.375	2.34725575865014E-05
1	172	74.7204948113489	1.47171020507813	1.47216796875	1.9677734375E-06	2.89689296550932E-06	748138.9375	2.36799169215374E-05
1	173	74.8212028110946	1.46163940429688	1.46240234375	1.8182373046875E-06	2.6589943900035E-06	804296.75	2.38705579249654E-05
1	174	74.9219108108404	1.45156860351563	1.45172119140625	1.6943359375E-06	2.45970340984059E-06	856808.375	2.4047430997598E-05
1	175	75.0226188105861	1.44149780273438	1.441650390625	1.58966064453125E-06	2.29173497245938E-06	906891.9375	2.42127935052849E-05
1	176	75.1233268103318	1.43142700195313	1.4312744140625	1.50146484375E-06	2.14900819628383E-06	953252.0625	2.4368442609557E-05
1	177	75.2240348100776	1.42135620117188	1.4208984375	1.4263916015625E-06	2.02675755645032E-06	996148.9375	2.45158735197037E-05
1	178	75.3247428098233	1.41128540039063	1.41082763671875	1.36138916015625E-06	1.92068523574562E-06	1036314.8125	2.46562485699542E-05
1	179	75.425450809569	1.40121459960938	1.4007568359375	1.30584716796875E-06	1.82917426627682E-06	1072680.5	2.47905554715544E-05
1	180	75.5261588093148	1.39114379882813	1.3909912109375	1.25762939453125E-06	1.74935144059418E-06	1106042.25	2.49196364165982E-05
1	181	75.6268668090605	1.38107299804688	1.38092041015625	1.2164306640625E-06	1.67979385423678E-06	1135223.25	2.50442153628683E-05
1	182	75.7275748088063	1.37100219726563	1.37115478515625	1.18011474609375E-06	1.61811999532802E-06	1161882.625	2.51648907578783E-05
1	183	75.828282808552	1.36093139648438	1.36077880859375	1.148681640625E-06	1.56310159127315E-06	1184644	2.52821537287673E-05
1	184	75.9289908082977	1.35086059570313	1.35040283203125	1.12060546875E-06	1.51326878494729E-06	1205065.375	2.5396422643098E-05
1	185	76.0296988080435	1.34078979492188	1.34063720703125	1.0955810546875E-06	1.46877675888391E-06	1223676.875	2.55080158240162E-05
1	186	76.1304068077892	1.33071899414063	1.33056640625	1.0736083984375E-06	1.42850717566034E-06	1239340.625	2.56172443187097E-05
1	187	76.2311148075349	1.32064819335938	1.32080078125	1.0540771484375E-06	1.39222584039089E-06	1253040	2.57243809755892E-05
1	188	76.3318228072807	1.31057739257813	1.31072998046875	1.036376953125E-06	1.35841037263162E-06	1264723.25	2.5829644073383E-05
1	189	76.4325308070264	1.30050659179688	1.3006591796875	1.0198974609375E-06	1.3265389497974E-06	1275284.25	2.59331845882116E-05
1	190	76.5332388067721	1.29043579101563	1.29058837890625	1.00494384765625E-06	1.29696877593233E-06	1284239.375	2.60351444012485E-05
1	191	76.6339468065179	1.28036499023438	1.280517578125	9.9090576171875E-07	1.26887221085781E-06	1292269.875	2.61356435657945E-05
1	192	76.7346548062636	1.27029418945313	1.27044677734375	9.783935546875E-07	1.24299697290553E-06	1298502.75	2.62348057731288E-05
1	193	76.8353628060094	1.26022338867188	1.26007080078125	9.6466064453125E-07	1.21554069210106E-06	1306232.125	2.63326455751667E-05
1	194	76.9360708057551	1.25015258789063	1.25	9.527587890625E-07	1.19094841011247E-06	1311979.625	2.64291957137175E-05
1	195	77.0367788055008	1.24008178710938	1.2396240234375	9.41162109375E-07	1.16668718419533E-06	1317120.625	2.65245616901666E-05
1	196	77.1374868052466	1.23001098632813	1.2298583984375	9.295654296875E-07	1.14323381694703E-06	1323046.625	2.66187598754186E-05
1	197	77.2381948049923	1.21994018554688	1.21978759765625	9.19189453124999E-07	1.12121585971181E-06	1327025.25	2.67118521151133E-05
1	198	77.338902804738	1.20986938476563	1.21002197265625	9.08813476562501E-07	1.09968425476836E-06	1331430.5	2.68039002548903E-05
1	199	77.4396108044838	1.19979858398438	1.199951171875	8.990478515625E-07	1.07881351141259E-06	1334691.125	2.68949333985802E-05
1	200	77.5403188042295	1.18972778320313	1.18988037109375	8.88977050781251E-07	1.05777633052639E-06	1338482.75	2.69849679170875E-05
1	201	77.6410268039753	1.17965698242188	1.18011474609375	8.795166015625E-07	1.03793047401268E-06	1341776.625	2.70740183623275E-05
1	202	77.741734803721	1.16958618164063	1.16973876953125	8.70361328124999E-07	1.01809541774855E-06	1343969.125	2.71621320280246E-05
1	203	77.8424428034667	1.15951538085938	1.15936279296875	8.6090087890625E-07	9.98096425064432E-07	1346685.625	2.72493070951896E-05
1	204	77.9431508032125	1.14944458007813	1.14959716796875	8.5174560546875E-07	9.79164269665489E-07	1349695.5	2.73355453828117E-05
1	205	78.0438588029582	1.13937377929688	1.138916015625	8.428955078125E-07	9.59987119131256E-07	1351194.875	2.74208778137108E-05
1	206	78.1445668027039	1.12930297851563	1.129150390625	8.331298828125E-07	9.40728966725146E-07	1355311.375	2.75052716460777E-05
1	207	78.2452748024497	1.11923217773438	1.119384765625	8.2366943359375E-07	9.2200303924983E-07	1359021.875	2.75886995950714E-05
1	208	78.3459828021954	1.10916137695313	1.109619140625	8.13903808593749E-07	9.03123236639658E-07	1363329.625	2.76711580227129E-05
1	209	78.4466908019411	1.09909057617188	1.0992431640625	8.038330078125E-07	8.83607867763203E-07	1367502	2.77526160061825E-05
1	210	78.5473988016869	1.08901977539063	1.0894775390625	7.92846679687501E-07	8.63788613969518E-07	1374134	2.78330153378192E-05
1	211	78.6481068014326	1.07894897460938	1.07940673828125	7.794189453125E-07	8.41310054511268E-07	1384886.5	2.79121868516086E-05
1	212	78.7488148011784	1.06887817382813	1.06903076171875	7.659912109375E-07	8.18868159058184E-07	1395617.5	2.79900032182923E-05
1	213	78.8495228009241	1.05880737304688	1.058349609375	7.489013671875E-07	7.92599450960552E-07	1413203	2.80662843579194E-05
1	214	78.9502308006698	1.04873657226563	1.04888916015625	7.2906494140625E-07	7.64708318001794E-07	1438677.25	2.8140706490376E-05
1	215	79.0509388004156	1.03866577148438	1.038818359375	7.05871582031251E-07	7.33272372599458E-07	1471681.875	2.82129603874637E-05
1	216	79.1516468001613	1.02859497070313	1.029052734375	6.78405761718751E-07	6.98115286468237E-07	1516869.125	2.82826640614076E-05
1	217	79.252354799907	1.01852416992188	1.0186767578125	6.47888183593751E-07	6.5998858644889E-07	1572303.375	2.83494482573587E-05
1	218	79.3530627996528	1.00845336914063	1.00830078125	6.1492919921875E-07	6.20033574705303E-07	1639702.25	2.84130364889279E-05
1	219	79.4537707993985	0.998382568359375	0.9991455078125	5.81970214843749E-07	5.81472932026372E-07	1716832.75	2.84733050648356E-05
1	220	79.5544787991442	0.988311767578125	0.9881591796875	5.51757812500001E-07	5.45224565939861E-07	1790929.25	2.85303940472659E-05
1	221	79.65518679889	0.978240966796875	0.9783935546875	5.27343750000001E-07	5.15949693635775E-07	1855324.125	2.85847308987286E-05
1	222	79.7558947986357	0.968170166015625	0.96832275390625	5.084228515625E-07	4.92317383304908E-07	1904561.875	2.86368849629071E-05
1	223	79.8566027983815	0.958099365234375	0.958251953125	4.96520996093749E-07	4.75792234055916E-07	1929932.375	2.86874874291243E-05
1	224	79.9573107981272	0.948028564453125	0.9478759765625	4.8980712890625E-07	4.64276411094033E-07	1935202.5	2.87371531157987E-05
1	225	80.0580187978729	0.937957763671875	0.93780517578125	4.8492431640625E-07	4.5476454602067E-07	1933920.625	2.87862349068746E-05
1	226	80.1587267976187	0.927886962890625	0.92803955078125	4.82788085937499E-07	4.48046449719186E-07	1922250.25	2.88349638140062E-05
1	227	80.2594347973644	0.917816162109375	0.91796875	4.81262207031249E-07	4.41783640781068E-07	1907419.25	2.88835071842186E-05
1	228	80.3601427971101	0.907745361328125	0.90789794921875	4.791259765625E-07	4.34997474485499E-07	1894904.5	2.89318668365013E-05
1	229	80.4608507968559	0.897674560546875	0.8978271484375	4.75463867187501E-07	4.26884355420043E-07	1888318.375	2.897993363149E-05
1	230	80.5615587966016	0.887603759765625	0.88775634765625	4.7027587890625E-07	4.17490383597396E-07	1887735.25	2.90275565930642E-05
1	231	80.6622667963474	0.877532958984375	0.87799072265625	4.62951660156249E-07	4.0646725096849E-07	1896506.375	2.90745483653154E-05
1	232	80.7629747960931	0.867462158203125	0.86761474609375	4.534912109375E-07	3.93455650282704E-07	1913189.875	2.9120694307494E-05
1	233	80.8636827958388	0.857391357421875	0.85693359375	4.4219970703125E-07	3.78935794742574E-07	1937888.25	2.91657961497549E-05
1	234	80.9643907955846	0.847320556640625	0.84716796875	4.29382324218749E-07	3.63758942967252E-07	1972992.25	2.92096829070942E-05
1	235	81.0650987953303	0.837249755859375	0.83740234375	4.15954589843751E-07	3.48321350429615E-07	2013206.125	2.92522490781266E-05
1	236	81.165806795076	0.827178955078125	0.8270263671875	4.0283203125E-07	3.33152712528317E-07	2053030.375	2.92934782919474E-05
1	237	81.2665147948218	0.817108154296875	0.81695556640625	3.90625E-07	3.1912327358441E-07	2091406.25	2.93334323941963E-05
1	238	81.3672227945675	0.807037353515625	0.806884765625	3.80554199218749E-07	3.07063373838901E-07	2120288.75	2.93722641799832E-05
1	239	81.4679307943132	0.796966552734375	0.797119140625	3.7200927734375E-07	2.96535716870494E-07	2142740	2.94101591862272E-05
1	240	81.568638794059	0.786895751953125	0.7867431640625	3.643798828125E-07	2.86673383698144E-07	2159129	2.94472392852185E-05
1	241	81.6693467938047	0.776824951171875	0.77728271484375	3.570556640625E-07	2.77533189319001E-07	2176923.25	2.94835663225967E-05
1	242	81.7700547935505	0.766754150390625	0.76629638671875	3.48510742187499E-07	2.67062517878003E-07	2198774.25	2.95190948236268E-05
1	243	81.8707627932962	0.756683349609375	0.75653076171875	3.375244140625E-07	2.5534760084156E-07	2241410.5	2.95536392513895E-05
1	244	81.9714707930419	0.746612548828125	0.746490478515625	3.216552734375E-07	2.40112598248743E-07	2320778	2.95868321700254E-05
1	245	82.0721787927877	0.736541748046875	0.7364501953125	3.0059814453125E-07	2.2137555788504E-07	2449949.25	2.96181642625015E-05
1	246	82.1728867925334	0.726470947265625	0.726409912109375	2.7191162109375E-07	1.9751928448386E-07	2671493	2.96469916065689E-05
1	247	82.2735947922791	0.716400146484375	0.716339111328125	2.3193359375E-07	1.66143095725602E-07	3088552.75	2.96723628707696E-05
1	248	82.3743027920249	0.706329345703125	0.706298828125	1.80969238281251E-07	1.27818367445798E-07	3902866.75	2.96931539196521E-05
1	249	82.4750107917706	0.696258544921875	0.696258544921875	1.16577148437499E-07	8.11678333434429E-08	5972513	2.97081369353691E-05
1	250	82.5757187915164	0.686187744140625	0.68609619140625	4.08935546875003E-08	2.80569114607943E-08	16777612	2.97160659101792E-05
1	251	82.6764267912621	0.676116943359375	0.6761474609375	-4.119873046875E-08	-2.7856415840688E-08	-16411853	2.97160513582639E-05
1	252	82.7771347910078	0.666046142578125	0.66595458984375	-1.2237548828125E-07	-8.14965162021508E-08	-5441895.5	2.97078149742447E-05
1	253	82.8778427907536	0.655975341796875	0.655914306640625	-1.94396972656249E-07	-1.27507746583433E-07	-3374097.5	2.9691864256165E-05
1	254	82.9785507904993	0.645904541015625	0.64581298828125	-2.48107910156251E-07	-1.60231309109804E-07	-2602952	2.96695816359716E-05
1	255	83.079258790245	0.635833740234375	0.6358642578125	-2.81372070312499E-07	-1.78914433490718E-07	-2259870	2.96429207082838E-05
1	256	83.1799667899908	0.625762939453125	0.625701904296875	-2.95104980468749E-07	-1.84647745982147E-07	-2120269	2.9613893275382E-05
1	257	83.2806747897365	0.615692138671875	0.615631103515625	-2.92358398437501E-07	-1.79984908754705E-07	-2105741.25	2.95843110507121E-05
1	258	83.3813827894822	0.605621337890625	0.605560302734375	-2.76794433593749E-07	-1.67615709756319E-07	-2187762	2.95556528726593E-05
1	259	83.482090789228	0.595550537109375	0.595550537109375	-2.532958984375E-07	-1.50850510749478E-07	-2351204.75	2.95289592031622E-05
1	260	83.5827987889737	0.585479736328125	0.585479736328125	-2.26440429687499E-07	-1.32576275291285E-07	-2585579.5	2.95048030238831E-05
1	261	83.6835067887195	0.575408935546875	0.575408935546875	-1.96228027343751E-07	-1.12911358485235E-07	-2932348.25	2.94835208478617E-05
1	262	83.7842147884652	0.565338134765625	0.56536865234375	-1.6448974609375E-07	-9.29973467123091E-08	-3437105.75	2.94653564196778E-05
1	263	83.8849227882109	0.555267333984375	0.555267333984375	-1.3275146484375E-07	-7.37125560590357E-08	-4182758.5	2.94503897748655E-05
1	264	83.9856307879567	0.545196533203125	0.545135498046875	-1.0528564453125E-07	-5.7394942132305E-08	-5177681	2.94384026346961E-05
1	265	84.0863387877024	0.535125732421875	0.53509521484375	-8.30078124999995E-08	-4.44170815683265E-08	-6446323.5	2.94289220619248E-05
1	266	84.1870467874481	0.525054931640625	0.52496337890625	-6.50024414062506E-08	-3.41239001500071E-08	-8076056.5	2.94214696623385E-05
1	267	84.2877547871939	0.514984130859375	0.51495361328125	-5.035400390625E-08	-2.59299763882836E-08	-10226667	2.94156598101836E-05
1	268	84.3884627869396	0.504913330078125	0.50494384765625	-3.69262695312497E-08	-1.8645692989594E-08	-13674380	2.94112651317846E-05
1	269	84.4891707866853	0.494842529296875	0.49481201171875	-2.53295898437506E-08	-1.25333849965159E-08	-19534940	2.94081310130423E-05
1	270	84.5898787864311	0.484771728515625	0.484771728515625	-1.52587890625E-08	-7.39702921137564E-09	-31770002	2.94060864689527E-05
1	271	84.6905867861768	0.474700927734375	0.47467041015625	-6.71386718749945E-09	-3.18687387590444E-09	-70700008	2.94049805233954E-05
1	272	84.7912947859226	0.464630126953125	0.46466064453125	1.22070312500028E-09	5.67212665725236E-10	380650016	2.9404704037006E-05
1	273	84.8920027856683	0.454559326171875	0.45458984375	7.62939453125E-09	3.46824502450715E-09	59584004	2.94051496894099E-05
1	274	84.992710785414	0.444488525390625	0.444549560546875	1.34277343750003E-08	5.96929350393793E-09	33106818	2.94062101602321E-05
1	275	85.0934187851598	0.434417724609375	0.434356689453125	1.86157226562497E-08	8.08586353429064E-09	23332788	2.94078236038331E-05
1	276	85.1941267849055	0.424346923828125	0.42431640625	2.25830078125003E-08	9.58234025461024E-09	18789190	2.94098972517531E-05
1	277	85.2948347846512	0.414276123046875	0.41424560546875	2.68554687500006E-08	1.11247597800457E-08	15425000	2.94123874482466E-05
1	278	85.395542784397	0.404205322265625	0.404205322265625	2.99072265625006E-08	1.20886598509173E-08	13515306	2.94152450805996E-05
1	279	85.4962507841427	0.394134521484375	0.394195556640625	3.26538085937494E-08	1.28719861436366E-08	12071963	2.94183955702465E-05
1	280	85.5969587838885	0.384063720703125	0.384033203125	3.54003906249997E-08	1.35949251856005E-08	10848276	2.94218225462828E-05
1	281	85.6976667836342	0.373992919921875	0.37396240234375	3.72314453124994E-08	1.39231604023848E-08	10044262	2.94254805339733E-05
1	282	85.7983747833799	0.363922119140625	0.363922119140625	3.93676757812503E-08	1.43267673280434E-08	9244187	2.94293367915088E-05
1	283	85.8990827831257	0.353851318359375	0.353912353515625	4.119873046875E-08	1.4580738394443E-08	8590371	2.94333931378787E-05
1	284	85.9997907828714	0.343780517578125	0.343780517578125	4.33349609374994E-08	1.48977150615792E-08	7933098.5	2.9437649573083E-05
1	285	86.1004987826171	0.333709716796875	0.333709716796875	4.48608398437494E-08	1.497049773036E-08	7438775.5	2.94420915452065E-05
1	286	86.2012067823629	0.323638916015625	0.323699951171875	4.66918945312506E-08	1.51141641424601E-08	6932679.5	2.94467008643551E-05
1	287	86.3019147821086	0.313568115234375	0.31365966796875	4.730224609375E-08	1.48368064500914E-08	6630968	2.94514338747831E-05
1	288	86.4026227818543	0.303497314453125	0.303466796875	4.79125976562494E-08	1.45398821871368E-08	6333758	2.94562287308509E-05
1	289	86.5033307816001	0.293426513671875	0.293426513671875	4.91333007812497E-08	1.44170124727339E-08	5972050	2.94611145363888E-05
1	290	86.6040387813458	0.283355712890625	0.283416748046875	4.8828125E-08	1.38387079573477E-08	5804375	2.94660476356512E-05
1	291	86.7047467810916	0.273284912109375	0.27325439453125	4.8828125E-08	1.33424995496512E-08	5596250	2.94709661829984E-05
1	292	86.8054547808373	0.263214111328125	0.263153076171875	4.85229492187503E-08	1.27689636642003E-08	5423270.5	2.94758683594409E-05
1	293	86.906162780583	0.253143310546875	0.25311279296875	4.730224609375E-08	1.19728031933164E-08	5350968	2.94806923193391E-05
1	294	87.0068707803288	0.243072509765625	0.24310302734375	4.66918945312506E-08	1.13509406318713E-08	5206536	2.94854253297672E-05
1	295	87.1075787800745	0.233001708984375	0.2330322265625	4.48608398437494E-08	1.04540216483429E-08	5194558	2.94900364679052E-05
1	296	87.2082867798202	0.222930908203125	0.222930908203125	4.2724609375E-08	9.52463530268233E-09	5217857.5	2.94944456982194E-05
1	297	87.308994779566	0.212860107421875	0.21282958984375	4.05883789062506E-08	8.63840821097028E-09	5243609	2.94986421067733E-05
1	298	87.4097027793117	0.202789306640625	0.202850341796875	3.78417968750003E-08	7.67622143627023E-09	5360484	2.95025911327684E-05
1	299	87.5104107790575	0.192718505859375	0.192840576171875	3.41796874999994E-08	6.59123022828112E-09	5641964.5	2.95062163786497E-05
1	300	87.6111187788032	0.182647705078125	0.182647705078125	3.02124023437503E-08	5.51822587624429E-09	6045454.5	2.95094596367562E-05
1	301	87.7118267785489	0.172576904296875	0.172576904296875	2.56347656250003E-08	4.42396830280245E-09	6732143	2.95122717943741E-05
1	302	87.8125347782947	0.162506103515625	0.1624755859375	1.89208984374994E-08	3.07418401845894E-09	8587097	2.95145146083087E-05
1	303	87.9132427780404	0.152435302734375	0.15252685546875	1.15966796875006E-08	1.76880499136445E-09	13152632	2.95160516543547E-05
1	304	88.0139507777861	0.142364501953125	0.14239501953125	1.22070312500028E-09	1.73822040094862E-10	116650000	2.95166973955929E-05
1	305	88.1146587775319	0.132293701171875	0.13226318359375	-1.15966796875006E-08	-1.53381374268236E-09	-11405264	2.95161753456341E-05
1	306	88.2153667772776	0.122222900390625	0.122344970703125	-2.74658203125E-08	-3.3603049232056E-09	-4454444.5	2.95142071990995E-05
1	307	88.3160747770233	0.112152099609375	0.112213134765625	-4.91333007812497E-08	-5.51340129106848E-09	-2283851	2.9510350941564E-05
1	308	88.4167827767691	0.102081298828125	0.102081298828125	-7.9345703125E-08	-8.0997120122106E-09	-1286538.5	2.95038807962555E-05
1	309	88.5174907765148	0.092010498046875	0.09210205078125	-1.1932373046875E-07	-1.09899600531094E-08	-771867	2.94938781735254E-05
1	310	88.6181987762606	0.081939697265625	0.082000732421875	-1.7547607421875E-07	-1.43891663029194E-08	-467304.34375	2.94790334010031E-05
1	311	88.7189067760063	0.071868896484375	0.071929931640625	-2.52380371093749E-07	-1.81537025412126E-08	-285006.03125	2.94574892905075E-05
1	312	88.819614775752	0.061798095703125	0.061798095703125	-3.53393554687501E-07	-2.18390479034269E-08	-174870.46875	2.942698483821E-05
1	313	88.9203227754978	0.051727294921875	0.051727294921875	-4.864501953125E-07	-2.51627518821351E-08	-106336.265625	2.93846969725564E-05
1	314	89.0210307752435	0.041656494140625	0.0417816162109375	-6.536865234375E-07	-2.73120797089632E-08	-63916.8984375	2.93272860290017E-05
1	315	89.1217387749892	0.031585693359375	0.0316619873046875	-8.52355957031251E-07	-2.69872817426631E-08	-37146.4375	2.92514505417785E-05
1	316	89.222446774735	0.021514892578125	0.0215850830078125	-1.0748291015625E-06	-2.32002754785299E-08	-20082.337890625	2.91544092760887E-05
1	317	89.3231547744807	0.011444091796875	0.0115447998046875	-1.30218505859375E-06	-1.5033466027603E-08	-8865.712890625	2.90347161353566E-05
1	318	89.4238627742264	0.001373291015625	0.001483154296875	-1.51275634765625E-06	-2.243650820688E-09	-980.431701660156	2.88929732050747E-05
1	319	89.5245707739722	-0.008697509765625	-0.00856628417968749	-1.6851806640625E-06	1.4435737050178E-08	5083.30322265625	2.8731943530147E-05
1	320	89.6252787737179	-0.018768310546875	-0.0186553955078125	-1.80419921875E-06	3.36580505688744E-08	10339.986328125	2.85562400677009E-05
1	321	89.7259867734637	-0.028839111328125	-0.02867431640625	-1.86737060546875E-06	5.3545573308611E-08	15355.4501953125	2.83713616227033E-05
1	322	89.8266947732094	-0.038909912109375	-0.0387359619140625	-1.87957763671875E-06	7.28072464539764E-08	20608.8671875	2.81826887658099E-05
1	323	89.9274027729551	-0.048980712890625	-0.0487884521484375	-1.85455322265625E-06	9.04807748725034E-08	26307.388671875	2.79946598311653E-05
1	324	90.0281107727009	-0.059051513671875	-0.058929443359375	-1.8072509765625E-06	1.06500287699873E-07	32607.228515625	2.78102725133067E-05
1	325	90.1288187724466	-0.069122314453125	-0.069061279296875	-1.74713134765625E-06	1.2065912358139E-07	39528.38671875	2.76312966889236E-05
1	326	90.2295267721923	-0.079193115234375	-0.079132080078125	-1.6851806640625E-06	1.33351846898222E-07	46957.625	2.74584654107457E-05
1	327	90.3302347719381	-0.089263916015625	-0.089141845703125	-1.62567138671875E-06	1.44915347277674E-07	54833.8671875	2.72917513939319E-05
1	328	90.4309427716838	-0.099334716796875	-0.099212646484375	-1.57135009765625E-06	1.55897794229531E-07	63138.4765625	2.71307671937393E-05
1	329	90.5316507714296	-0.109405517578125	-0.109283447265625	-1.52313232421875E-06	1.66453148153778E-07	71749.1484375	2.69749489234528E-05
1	330	90.6323587711753	-0.119476318359375	-0.119354248046875	-1.4825439453125E-06	1.76947906993519E-07	80506.3828125	2.68235999101307E-05
1	331	90.733066770921	-0.129547119140625	-0.129425048828125	-1.4483642578125E-06	1.8745460295122E-07	89359.46875	2.66760180238634E-05
1	332	90.8337747706668	-0.139617919921875	-0.13958740234375	-1.41998291015625E-06	1.98211708379858E-07	98302.1796875	2.65315848082537E-05
1	333	90.9344827704125	-0.149688720703125	-0.1495361328125	-1.396484375E-06	2.08824872061086E-07	107080.421875	2.63897636614274E-05
1	334	91.0351907701582	-0.159759521484375	-0.15960693359375	-1.37908935546875E-06	2.20112212900858E-07	115733.5703125	2.62500034295954E-05
1	335	91.135898769904	-0.169830322265625	-0.169647216796875	-1.36688232421875E-06	2.31887781865225E-07	124112.5234375	2.61117329500848E-05
1	336	91.2366067696497	-0.179901123046875	-0.1798095703125	-1.35833740234375E-06	2.44242073677015E-07	132374.75	2.59745065704919E-05
1	337	91.3373147693954	-0.189971923828125	-0.189849853515625	-1.35345458984375E-06	2.56953143207284E-07	140270.578125	2.58379568549572E-05
1	338	91.4380227691412	-0.200042724609375	-0.199920654296875	-1.3525390625E-06	2.70400477120347E-07	147811.375	2.57016999967163E-05
1	339	91.5387307688869	-0.189971923828125	-0.189788818359375	-1.18377685546875E-06	2.24667601855799E-07	160324.828125	2.55739851127146E-05
2	340	91.6394387686327	-0.179901123046875	-0.17974853515625	-1.06414794921875E-06	1.91279028172175E-07	168913.109375	2.54607930401107E-05
2	341	91.7401467683784	-0.169830322265625	-0.16961669921875	-9.674072265625E-07	1.64088419296604E-07	175331.234375	2.53584967140341E-05
2	342	91.8408547681241	-0.159759521484375	-0.15960693359375	-8.8531494140625E-07	1.41302407996591E-07	180282.65625	2.52652043855051E-05
2	343	91.9415627678699	-0.149688720703125	-0.1495361328125	-8.12683105468751E-07	1.21525488339103E-07	184003.015625	2.51797046075808E-05
2	344	92.0422707676156	-0.139617919921875	-0.1395263671875	-7.4737548828125E-07	1.04278583989981E-07	186688.453125	2.51011497311993E-05
2	345	92.1429787673613	-0.129547119140625	-0.12945556640625	-6.8817138671875E-07	8.90876137304986E-08	188115.296875	2.50288630923023E-05
2	346	92.2436867671071	-0.119476318359375	-0.119354248046875	-6.3140869140625E-07	7.53613065285208E-08	189028.515625	2.49624172283802E-05
2	347	92.3443947668528	-0.109405517578125	-0.10931396484375	-5.76171875000001E-07	6.29836307552978E-08	189724.578125	2.49016102316091E-05
2	348	92.4451027665986	-0.099334716796875	-0.099212646484375	-5.20935058593749E-07	5.16833438268804E-08	190451.09375	2.48463675234234E-05
2	349	92.5458107663443	-0.089263916015625	-0.089141845703125	-4.620361328125E-07	4.11867517868814E-08	192932.625	2.47968710027635E-05
2	350	92.64651876609	-0.079193115234375	-0.07916259765625	-3.95812988281249E-07	3.13335846158225E-08	200000	2.47536736424081E-05
2	351	92.7472267658358	-0.069122314453125	-0.06903076171875	-3.18603515625E-07	2.19934417344803E-08	216666.671875	2.47177013079636E-05
2	352	92.8479347655815	-0.059051513671875	-0.0589599609375	-2.25830078125E-07	1.33149322678605E-08	261081.078125	2.46902854996733E-05
2	353	92.9486427653272	-0.048980712890625	-0.048797607421875	-1.1016845703125E-07	5.37595701288751E-09	442936.28125	2.4673367079231E-05
2	354	93.049350765073	-0.038909912109375	-0.0387359619140625	3.32641601562503E-08	-1.28851918024253E-09	-1164495.5	2.46694944507908E-05
2	355	93.1500587648187	-0.028839111328125	-0.0287017822265625	2.0904541015625E-07	-5.99997562744647E-09	-137299.265625	2.46816962317098E-05
2	356	93.2507667645644	-0.018768310546875	-0.0186767578125	4.1534423828125E-07	-7.75728370427942E-09	-44966.9375	2.47131374635501E-05
2	357	93.3514747643102	-0.008697509765625	-0.00862731933593749	6.44836425781251E-07	-5.56320989275605E-09	-13379.0830078125	2.47665211645653E-05
2	358	93.4521827640559	0.001373291015625	0.00147094726562499	8.8470458984375E-07	1.30135380249641E-09	1662.64245605469	2.48435389949009E-05
2	359	93.5528907638017	0.011444091796875	0.0115570068359375	1.11236572265625E-06	1.285561790354E-08	10389.5751953125	2.49441000050865E-05
2	360	93.6535987635474	0.021514892578125	0.021649169921875	1.30523681640625E-06	2.82572933940628E-08	16586.39453125	2.50658358709188E-05
2	361	93.7543067632931	0.031585693359375	0.0316619873046875	1.4471435546875E-06	4.58194406860457E-08	21878.955078125	2.52044283115538E-05
2	362	93.8550147630389	0.041656494140625	0.0417816162109375	1.53167724609375E-06	6.39959480963626E-08	27278.34375	2.53544239967596E-05
2	363	93.9557227627846	0.051727294921875	0.051788330078125	1.56341552734375E-06	8.09666786949492E-08	33125.12109375	2.55102750088554E-05
2	364	94.0564307625303	0.061798095703125	0.061767578125	1.55303955078125E-06	9.59274899514639E-08	39772.05859375	2.56672010436887E-05
2	365	94.1571387622761	0.071868896484375	0.0718994140625	1.51580810546875E-06	1.08985716451571E-07	47433.05859375	2.58217296504881E-05
2	366	94.2578467620218	0.081939697265625	0.08203125	1.463623046875E-06	1.20062821906686E-07	56046.70703125	2.59717562585138E-05
2	367	94.3585547617676	0.092010498046875	0.092010498046875	1.405029296875E-06	1.29277438531972E-07	65486.53515625	2.61162040260388E-05
2	368	94.4592627615133	0.102081298828125	0.102081298828125	1.34552001953125E-06	1.37352429874227E-07	75867.546875	2.62547055172035E-05
2	369	94.559970761259	0.112152099609375	0.112213134765625	1.2896728515625E-06	1.4471822851192E-07	87008.9921875	2.63873971562134E-05
2	370	94.6606787610048	0.122222900390625	0.122314453125	1.2384033203125E-06	1.51474623066861E-07	98767.8671875	2.65146973106312E-05
2	371	94.7613867607505	0.132293701171875	0.13232421875	1.19232177734375E-06	1.57773044406895E-07	110980.296875	2.6637093469617E-05
2	372	94.8620947604962	0.142364501953125	0.142425537109375	1.15142822265625E-06	1.63992766033516E-07	123694.6796875	2.67551113211084E-05
2	373	94.962802760242	0.152435302734375	0.15240478515625	1.1151123046875E-06	1.69948435768674E-07	136672.140625	2.68692401732551E-05
2	374	95.0635107599877	0.162506103515625	0.1624755859375	1.0833740234375E-06	1.76021814013438E-07	149971.84375	2.69799420493655E-05
2	375	95.1642187597334	0.172576904296875	0.172637939453125	1.0552978515625E-06	1.82184450636669E-07	163591.671875	2.7087633498013E-05
2	376	95.2649267594792	0.182647705078125	0.182647705078125	1.02996826171875E-06	1.88121319411039E-07	177333.34375	2.71926346613327E-05
2	377	95.3656347592249	0.192718505859375	0.192779541015625	1.0076904296875E-06	1.94262099739717E-07	191308.296875	2.72952383966185E-05
2	378	95.4663427589707	0.202789306640625	0.202789306640625	9.87854003906249E-07	2.00326212507207E-07	205282.6875	2.73957230092492E-05
2	379	95.5670507587164	0.212860107421875	0.212860107421875	9.6954345703125E-07	2.06377109179812E-07	219546.75	2.74942849500803E-05
2	380	95.6677587584621	0.222930908203125	0.222930908203125	9.53369140625E-07	2.12535439914063E-07	233834.828125	2.75911115750205E-05
2	381	95.7684667582079	0.233001708984375	0.233001708984375	9.3963623046875E-07	2.18936847318218E-07	247970.125	2.76864320767345E-05
2	382	95.8691747579536	0.243072509765625	0.243133544921875	9.26513671875E-07	2.25266546749481E-07	262417.65625	2.77803992503323E-05
2	383	95.9698827576993	0.253143310546875	0.253143310546875	9.14916992187501E-07	2.31605113754085E-07	276684.46875	2.78731240541674E-05
2	384	96.0705907574451	0.263214111328125	0.263275146484375	9.04541015625E-07	2.38143158526327E-07	291059.40625	2.79647410934558E-05
2	385	96.1712987571908	0.273284912109375	0.2733154296875	8.95080566406251E-07	2.44639323909723E-07	305352.90625	2.80553595075617E-05
2	386	96.2720067569365	0.283355712890625	0.283355712890625	8.87451171875001E-07	2.51464371103793E-07	319291.625	2.81451157206902E-05
2	387	96.3727147566823	0.293426513671875	0.293487548828125	8.79821777343751E-07	2.5821674398685E-07	333576.15625	2.82341061392799E-05
2	388	96.473422756428	0.303497314453125	0.303497314453125	8.73718261718751E-07	2.65171138380538E-07	347362.90625	2.83224035229068E-05
2	389	96.5741307561738	0.313568115234375	0.31365966796875	8.685302734375E-07	2.72422909119996E-07	361138.4375	2.84101315628504E-05
2	390	96.6748387559195	0.323638916015625	0.32366943359375	8.63037109375001E-07	2.79338735253987E-07	375035.375	2.849732300092E-05
2	391	96.7755467556652	0.333709716796875	0.333648681640625	8.5906982421875E-07	2.86627511059123E-07	388383.65625	2.85840378637658E-05
2	392	96.876254755411	0.343780517578125	0.343780517578125	8.5601806640625E-07	2.94282330060014E-07	401604.28125	2.86703998426674E-05
2	393	96.9769627551567	0.353851318359375	0.3538818359375	8.53271484375E-07	3.01957271631181E-07	414735.34375	2.8756468964275E-05
2	394	97.0776707549024	0.363922119140625	0.363922119140625	8.514404296875E-07	3.09857995262064E-07	427419.375	2.88423088932177E-05
2	395	97.1783787546482	0.373992919921875	0.3740234375	8.50524902343749E-07	3.18116235575872E-07	439756.03125	2.89280105789658E-05
2	396	97.2790867543939	0.384063720703125	0.384063720703125	8.502197265625E-07	3.26538525996511E-07	451722.90625	2.90136486000847E-05
2	397	97.3797947541397	0.394134521484375	0.39410400390625	8.502197265625E-07	3.35074986423933E-07	463531.96875	2.90992720692884E-05
2	398	97.4805027538854	0.404205322265625	0.40423583984375	8.502197265625E-07	3.43689265491776E-07	475448.6875	2.91848973574815E-05
2	399	97.5812107536311	0.414276123046875	0.414306640625	8.502197265625E-07	3.52251674939907E-07	487293.625	2.92705208266852E-05
2	400	97.6819187533769	0.424346923828125	0.42431640625	8.50830078125001E-07	3.61021164962949E-07	498708.75	2.93561752187088E-05
2	401	97.7826267531226	0.434417724609375	0.43438720703125	8.52050781249999E-07	3.70119948911452E-07	509813.78125	2.9441922379192E-05
2	402	97.8833347528683	0.444488525390625	0.44451904296875	8.526611328125E-07	3.79024100993774E-07	521331.4375	2.95277604891453E-05
2	403	97.9840427526141	0.454559326171875	0.45458984375	8.53881835937501E-07	3.88166000675483E-07	532380.25	2.96136931865476E-05
2	404	98.0847507523598	0.464630126953125	0.464630126953125	8.55407714843751E-07	3.9744818991494E-07	543168.0625	2.96997623081552E-05
2	405	98.1854587521055	0.474700927734375	0.474700927734375	8.56933593750001E-07	4.06787165729838E-07	553953	2.97859860438621E-05
2	406	98.2861667518513	0.484771728515625	0.484771728515625	8.59680175781249E-07	4.16748633824682E-07	563897.8125	2.98724244203186E-05
2	407	98.386874751597	0.494842529296875	0.494873046875	8.62731933593749E-07	4.26942762032922E-07	573611.625	2.99591538350796E-05
2	408	98.4875827513428	0.504913330078125	0.50482177734375	8.6639404296875E-07	4.3737458099713E-07	582669.9375	3.00462215818698E-05
2	409	98.5882907510885	0.514984130859375	0.515045166015625	8.70666503906251E-07	4.48432558641798E-07	591552.75	3.01336913253181E-05
2	410	98.6889987508342	0.525054931640625	0.52496337890625	8.75244140625001E-07	4.59471095837216E-07	599790.8125	3.02216049021808E-05
2	411	98.78970675058	0.535125732421875	0.53509521484375	8.81042480468749E-07	4.71441609306567E-07	607343.25	3.03100405290024E-05
2	412	98.8904147503257	0.545196533203125	0.545196533203125	8.8775634765625E-07	4.84001645872922E-07	614128.625	3.03991055261577E-05
2	413	98.9911227500714	0.555267333984375	0.555267333984375	8.96606445312501E-07	4.97856262882124E-07	619298.875	3.04889563267352E-05
2	414	99.0918307498172	0.565338134765625	0.5653076171875	9.06982421874999E-07	5.127240569891E-07	623284	3.0579773010686E-05
2	415	99.1925387495629	0.575408935546875	0.57537841796875	9.2041015625E-07	5.2958409924031E-07	625132.625	3.06717920466326E-05
2	416	99.2932467493087	0.585479736328125	0.58551025390625	9.37805175781251E-07	5.49094522739324E-07	624341.0625	3.07653572235722E-05
2	417	99.3939547490544	0.595550537109375	0.59552001953125	9.6099853515625E-07	5.72293856748729E-07	619688.8125	3.08609705825802E-05
2	418	99.4946627488001	0.605621337890625	0.60552978515625	9.91210937500001E-07	6.00207727075031E-07	610899.0625	3.09592724079266E-05
2	419	99.5953707485459	0.615692138671875	0.61566162109375	1.0302734375E-06	6.34299794910476E-07	597571.0625	3.1061063054949E-05
2	420	99.6960787482916	0.625762939453125	0.625762939453125	1.0809326171875E-06	6.76407580613159E-07	578910.1875	3.11673720716499E-05
2	421	99.7967867480373	0.635833740234375	0.6357421875	1.143798828125E-06	7.27161193481152E-07	555816.4375	3.12793927150778E-05
2	422	99.8974947477831	0.645904541015625	0.645843505859375	1.21673583984375E-06	7.858208732614E-07	530800.125	3.1398256396642E-05
2	423	99.9982027475288	0.655975341796875	0.6558837890625	1.29547119140625E-06	8.49678542635957E-07	506289.75	3.15247561957221E-05
2	424	100.098910747275	0.666046142578125	0.665985107421875	1.37237548828125E-06	9.13981580197287E-07	485279.09375	3.16590922011528E-05
2	425	100.19961874702	0.676116943359375	0.67608642578125	1.4398193359375E-06	9.73442297436122E-07	469563.40625	3.18006968882401E-05
2	426	100.300326746766	0.686187744140625	0.6861572265625	1.49169921875E-06	1.02354022146756E-06	459983.625	3.19483115163166E-05
2	427	100.401034746512	0.696258544921875	0.69622802734375	1.5252685546875E-06	1.06193465398974E-06	456462.59375	3.2100229873322E-05
2	428	100.501742746257	0.706329345703125	0.7061767578125	1.5411376953125E-06	1.0883155709962E-06	458217.84375	3.22546329698525E-05
2	429	100.602450746003	0.716400146484375	0.71630859375	1.54327392578125E-06	1.10546034193248E-06	464148.71875	3.24099455610849E-05
2	430	100.703158745749	0.726470947265625	0.7264404296875	1.53564453125E-06	1.11555425519327E-06	473052.46875	3.25649816659279E-05
2	431	100.803866745495	0.736541748046875	0.736419677734375	1.5228271484375E-06	1.12143982278212E-06	483587.1875	3.27189882227685E-05
2	432	100.90457474524	0.746612548828125	0.746612548828125	1.5081787109375E-06	1.12602515400795E-06	495042.5	3.28716123476624E-05
2	433	101.005282744986	0.756683349609375	0.75653076171875	1.492919921875E-06	1.12943985186575E-06	506745.71875	3.30227303493302E-05
2	434	101.105990744732	0.766754150390625	0.76751708984375	1.4794921875E-06	1.13553551273071E-06	518770.625	3.31724040734116E-05
2	435	101.206698744478	0.776824951171875	0.7769775390625	1.468505859375E-06	1.14099600523332E-06	529093.9375	3.33208445226774E-05
2	436	101.307406744223	0.786895751953125	0.7867431640625	1.45904541015625E-06	1.14789395411208E-06	539217.75	3.34682590619195E-05
2	437	101.408114743969	0.796966552734375	0.79681396484375	1.45263671875E-06	1.15748116513714E-06	548529.4375	3.36148732458241E-05
2	438	101.508822743715	0.807037353515625	0.80718994140625	1.448974609375E-06	1.16959768092784E-06	557076.6875	3.37609817506745E-05
2	439	101.609530743461	0.817108154296875	0.81756591796875	1.44683837890625E-06	1.18288573958125E-06	565070.6875	3.39067992172204E-05
2	440	101.710238743206	0.827178955078125	0.82733154296875	1.44561767578125E-06	1.19600508696749E-06	572303.1875	3.40524456987623E-05
2	441	101.810946742952	0.837249755859375	0.8380126953125	1.4447021484375E-06	1.21067864711222E-06	580059.1875	3.419798304094E-05
2	442	101.911654742698	0.847320556640625	0.84747314453125	1.4447021484375E-06	1.22434619242995E-06	586607.5625	3.4343476727372E-05
2	443	102.012362742444	0.857391357421875	0.8575439453125	1.4434814453125E-06	1.23784877814614E-06	594080.3125	3.44889085681643E-05
2	444	102.113070742189	0.867462158203125	0.8673095703125	1.44195556640625E-06	1.25062183542468E-06	601481.5	3.4634202165762E-05
2	445	102.213778741935	0.877532958984375	0.87738037109375	1.4404296875E-06	1.2638047337532E-06	609110.1875	3.47793429682497E-05
2	446	102.314486741681	0.887603759765625	0.887451171875	1.43951416015625E-06	1.27749842704361E-06	616493.5625	3.4924360079458E-05
2	447	102.415194741426	0.897674560546875	0.89752197265625	1.4385986328125E-06	1.29117381675314E-06	623886.3125	3.50692826032173E-05
2	448	102.515902741172	0.907745361328125	0.90789794921875	1.4398193359375E-06	1.30720889046643E-06	630563.8125	3.52142233168706E-05
2	449	102.616610740918	0.917816162109375	0.91827392578125	1.44195556640625E-06	1.32411014419631E-06	636825.4375	3.53593313775491E-05
2	450	102.717318740664	0.927886962890625	0.92803955078125	1.446533203125E-06	1.342439986729E-06	641561.1875	3.55047777702566E-05
2	451	102.818026740409	0.937957763671875	0.93841552734375	1.45416259765625E-06	1.36460869271104E-06	645330.5625	3.56508389813825E-05
2	452	102.918734740155	0.948028564453125	0.94818115234375	1.466064453125E-06	1.39009466693096E-06	646752.75	3.57978860847652E-05
2	453	103.019442739901	0.958099365234375	0.95855712890625	1.48223876953125E-06	1.42081057674659E-06	646695.5	3.5946344723925E-05
2	454	103.120150739647	0.968170166015625	0.968017578125	1.50177001953125E-06	1.45373974191898E-06	644584.5	3.60966005246155E-05
2	455	103.220858739392	0.978240966796875	0.9783935546875	1.5240478515625E-06	1.49111849623296E-06	641970.375	3.62489627150353E-05
2	456	103.321566739138	0.988311767578125	0.98876953125	1.54815673828125E-06	1.5307701914935E-06	638675.375	3.64036604878493E-05
2	457	103.422274738884	0.998382568359375	0.99822998046875	1.57012939453125E-06	1.56735018208565E-06	635762.875	3.65606792911422E-05
2	458	103.52298273863	1.00845336914063	1.00830078125	1.58935546875E-06	1.60254830916529E-06	634408.625	3.67197717423551E-05
2	459	103.623690738375	1.01852416992188	1.01837158203125	1.602783203125E-06	1.63222887294978E-06	635377	3.68805085599888E-05
2	460	103.724398738121	1.02859497070313	1.02874755859375	1.610107421875E-06	1.65639403348905E-06	638931.0625	3.70422894775402E-05
2	461	103.825106737867	1.03866577148438	1.038818359375	1.61224365234375E-06	1.67482824053877E-06	644330.875	3.72045469703153E-05
2	462	103.925814737613	1.04873657226563	1.04888916015625	1.610107421875E-06	1.68882411344384E-06	651440.5	3.73668081010692E-05
2	463	104.026522737358	1.05880737304688	1.05865478515625	1.60552978515625E-06	1.69970178376389E-06	659380.375	3.75287272618152E-05
2	464	104.127230737104	1.06887817382813	1.0687255859375	1.59942626953125E-06	1.70934777088405E-06	668193.125	3.76901080016978E-05
2	465	104.22793873685	1.07894897460938	1.07879638671875	1.59271240234375E-06	1.71821227468172E-06	677332.875	3.78508448193315E-05
2	466	104.328646736595	1.08901977539063	1.0888671875	1.58599853515625E-06	1.72694171851617E-06	686549.9375	3.8010908610886E-05
2	467	104.429354736341	1.09909057617188	1.0992431640625	1.57989501953125E-06	1.73668877323507E-06	695769.75	3.81703212042339E-05
2	468	104.530062736087	1.10916137695313	1.10931396484375	1.57440185546875E-06	1.74650597273285E-06	704593.9375	3.83291553589515E-05
2	469	104.630770735833	1.11923217773438	1.119384765625	1.57012939453125E-06	1.75757884335326E-06	712925.1875	3.84874947485514E-05
2	470	104.731478735578	1.12930297851563	1.12884521484375	1.56646728515625E-06	1.76829905740306E-06	720631.1875	3.86454339604825E-05
2	471	104.832186735324	1.13937377929688	1.1395263671875	1.563720703125E-06	1.78190089172858E-06	728727.625	3.88030530302785E-05
2	472	104.93289473507	1.14944458007813	1.14959716796875	1.5618896484375E-06	1.79554388068937E-06	736029.75	3.89604392694309E-05
2	473	105.033602734816	1.15951538085938	1.15997314453125	1.561279296875E-06	1.81104201146809E-06	742963.25	3.91177018173039E-05
2	474	105.134310734561	1.16958618164063	1.1700439453125	1.5618896484375E-06	1.82747942290007E-06	749120.8125	3.92749680031557E-05
2	475	105.235018734307	1.17965698242188	1.1798095703125	1.5631103515625E-06	1.84417251603008E-06	754783.3125	3.94323215004988E-05
2	476	105.335726734053	1.18972778320313	1.1895751953125	1.56524658203125E-06	1.86197848961456E-06	759992.25	3.95898496208247E-05
2	477	105.436434733799	1.19979858398438	1.199951171875	1.568603515625E-06	1.88224760222511E-06	764980.5625	3.97476505895611E-05
2	478	105.537142733544	1.20986938476563	1.209716796875	1.57318115234375E-06	1.90310356629197E-06	768962.1875	3.99058517359663E-05
2	479	105.63785073329	1.21994018554688	1.2200927734375	1.57806396484375E-06	1.92538436749601E-06	773158	4.00645294575952E-05
2	480	105.738558733036	1.23001098632813	1.2298583984375	1.5850830078125E-06	1.9494275420584E-06	775895.3125	4.02238074457273E-05
2	481	105.839266732782	1.24008178710938	1.23992919921875	1.593017578125E-06	1.975228997253E-06	778352.5625	4.03838348574936E-05
2	482	105.939974732527	1.25015258789063	1.25030517578125	1.60125732421875E-06	2.00206022782368E-06	780827.1875	4.05446808144916E-05
2	483	106.040682732273	1.26022338867188	1.26068115234375	1.61163330078125E-06	2.03175568458391E-06	782238.25	4.0706461732043E-05
2	484	106.141390732019	1.27029418945313	1.2701416015625	1.62261962890625E-06	2.06095660360006E-06	782772.25	4.08693194913212E-05
2	485	106.242098731764	1.28036499023438	1.280517578125	1.6351318359375E-06	2.09381505555939E-06	783128.0625	4.10333595937118E-05
2	486	106.34280673151	1.29043579101563	1.290283203125	1.64886474609375E-06	2.12750228456571E-06	782528.25	4.11987239203881E-05
2	487	106.443514731256	1.30050659179688	1.3006591796875	1.66351318359375E-06	2.16366356653452E-06	781874.9375	4.13655143347569E-05
2	488	106.544222731002	1.31057739257813	1.31072998046875	1.6796875E-06	2.20161678043951E-06	780341.625	4.15338581660762E-05
2	489	106.644930730747	1.32064819335938	1.32049560546875	1.6973876953125E-06	2.2413930764742E-06	777957.5625	4.17039082094561E-05
2	490	106.745638730493	1.33071899414063	1.33087158203125	1.715087890625E-06	2.28256158152362E-06	775978.6875	4.18757408624515E-05
2	491	106.846346730239	1.34078979492188	1.34033203125	1.73431396484375E-06	2.32455658988329E-06	772831.25	4.20494288846385E-05
2	492	106.947054729985	1.35086059570313	1.35101318359375	1.75384521484375E-06	2.36946789300418E-06	770315	4.22250741394237E-05
2	493	107.04776272973	1.36093139648438	1.36077880859375	1.773681640625E-06	2.41358839048189E-06	767205.8125	4.24026984546799E-05
2	494	107.148470729476	1.37100219726563	1.370849609375	1.79443359375E-06	2.45989849645412E-06	763945.625	4.25823673140258E-05
2	495	107.249178729222	1.38107299804688	1.3812255859375	1.81549072265625E-06	2.50760217568313E-06	760800.125	4.27641425631009E-05
2	496	107.349886728968	1.39114379882813	1.39129638671875	1.83807373046875E-06	2.55730515164032E-06	756931.8125	4.29481115133967E-05
2	497	107.450594728713	1.40121459960938	1.40167236328125	1.86309814453125E-06	2.61145305557875E-06	752334.1875	4.31344815297052E-05
2	498	107.551302728459	1.41128540039063	1.4117431640625	1.89239501953125E-06	2.6715756575868E-06	746008.75	4.33235873060767E-05
2	499	107.652010728205	1.42135620117188	1.4215087890625	1.92657470703125E-06	2.73864293376391E-06	737842.5625	4.35158872278407E-05
2	500	107.752718727951	1.43142700195313	1.4312744140625	1.96685791015625E-06	2.81511324828898E-06	727695.9375	4.37119379057549E-05
2	501	107.853426727696	1.44149780273438	1.44134521484375	2.01507568359375E-06	2.90441948891385E-06	715281	4.39124414697289E-05
2	502	107.954134727442	1.45156860351563	1.45172119140625	2.07366943359375E-06	3.01038971883827E-06	700073.625	4.41183256043587E-05
2	503	108.054842727188	1.46163940429688	1.46209716796875	2.1435546875E-06	3.13408509100555E-06	682090	4.43306817032862E-05
2	504	108.155550726933	1.47171020507813	1.47186279296875	2.22564697265625E-06	3.27584689330251E-06	661319.0625	4.45506884716451E-05
2	505	108.256258726679	1.48178100585938	1.48162841796875	2.31903076171875E-06	3.43594183505047E-06	638899.875	4.47795318905264E-05
2	506	108.356966726425	1.49185180664063	1.4923095703125	2.423095703125E-06	3.61600859832834E-06	615869.0625	4.50183142675087E-05
2	507	108.457674726171	1.50192260742188	1.50177001953125	2.53143310546875E-06	3.80163010049728E-06	593249	4.52677959401626E-05
2	508	108.558382725916	1.49185180664063	1.49200439453125	2.23419189453125E-06	3.33342427438765E-06	667804.9375	4.5507764298236E-05
2	509	108.659090725662	1.48178100585938	1.4813232421875	2.02117919921875E-06	2.99401972370106E-06	732900.5	4.57220376119949E-05
2	510	108.759798725408	1.47171020507813	1.47216796875	1.85394287109375E-06	2.72931538347621E-06	794074.0625	4.59171678812709E-05
2	511	108.860506725154	1.46163940429688	1.46148681640625	1.71844482421875E-06	2.51148435381765E-06	850470.625	4.60970513813663E-05
2	512	108.961214724899	1.45156860351563	1.45172119140625	1.6058349609375E-06	2.33122455028933E-06	904028.9375	4.62644420622382E-05
2	513	109.061922724645	1.44149780273438	1.441650390625	1.51123046875E-06	2.17866590901394E-06	953958.0625	4.64213990198914E-05
2	514	109.162630724391	1.43142700195313	1.4312744140625	1.43035888671875E-06	2.04723619390279E-06	1000640.0625	4.65695193270221E-05
2	515	109.263338724137	1.42135620117188	1.42181396484375	1.36322021484375E-06	1.93824553207378E-06	1042981.875	4.6710189053556E-05
2	516	109.364046723882	1.41128540039063	1.41143798828125	1.30462646484375E-06	1.8413992393107E-06	1081871.375	4.68445250589866E-05
2	517	109.464754723628	1.40121459960938	1.4013671875	1.25457763671875E-06	1.7581238580533E-06	1117003.25	4.69733895442914E-05
2	518	109.565462723374	1.39114379882813	1.39129638671875	1.21185302734375E-06	1.6860467439983E-06	1148073.5	4.70975865027867E-05
2	519	109.66617072312	1.38107299804688	1.38092041015625	1.1749267578125E-06	1.62248034030199E-06	1175324.625	4.7217767132679E-05
2	520	109.766878722865	1.37100219726563	1.370849609375	1.142578125E-06	1.56630267156288E-06	1199786.375	4.73344662168529E-05
2	521	109.867586722611	1.36093139648438	1.36077880859375	1.11419677734375E-06	1.51617530264048E-06	1221309.25	4.74481021228712E-05
2	522	109.968294722357	1.35086059570313	1.3507080078125	1.08978271484375E-06	1.47197818023415E-06	1239428.75	4.75590823043603E-05
2	523	110.069002722102	1.34078979492188	1.34033203125	1.06719970703125E-06	1.43040199418465E-06	1255933.625	4.76676941616461E-05
2	524	110.169710721848	1.33071899414063	1.33087158203125	1.04766845703125E-06	1.39431210754992E-06	1270317.5	4.77741850772873E-05
2	525	110.270418721594	1.32064819335938	1.32110595703125	1.02874755859375E-06	1.35908453557931E-06	1284188.75	4.78787405882031E-05
2	526	110.37112672134	1.31057739257813	1.31103515625	1.011962890625E-06	1.32671880237467E-06	1295536.875	4.79814989375882E-05
2	527	110.471834721085	1.30050659179688	1.30035400390625	9.9609375E-07	1.29527450098976E-06	1305453.5	4.80826129205525E-05
2	528	110.572542720831	1.29043579101563	1.2908935546875	9.8114013671875E-07	1.26654754240008E-06	1315707.625	4.81821734865662E-05
2	529	110.673250720577	1.28036499023438	1.280517578125	9.6710205078125E-07	1.23839106436208E-06	1324077.125	4.82802752230782E-05
2	530	110.773958720323	1.27029418945313	1.27044677734375	9.539794921875E-07	1.21198013403045E-06	1331733.875	4.83770127175376E-05
2	531	110.874666720068	1.26022338867188	1.2603759765625	9.4146728515625E-07	1.18660273074056E-06	1338735.875	4.84724550915416E-05
2	532	110.975374719814	1.25015258789063	1.25	9.2926025390625E-07	1.16157525553717E-06	1345156	4.85666532767937E-05
2	533	111.07608271956	1.24008178710938	1.23992919921875	9.173583984375E-07	1.13745943508547E-06	1351630.125	4.86596363771241E-05
2	534	111.176790719306	1.23001098632813	1.23016357421875	9.0606689453125E-07	1.11461042706651E-06	1357696.25	4.87514553242363E-05
2	535	111.277498719051	1.21994018554688	1.21978759765625	8.94775390624999E-07	1.09143593363115E-06	1363233.25	4.88421355839819E-05
2	536	111.378206718797	1.20986938476563	1.21002197265625	8.837890625E-07	1.06940410660172E-06	1369129.875	4.8931691708276E-05
2	537	111.478914718543	1.19979858398438	1.199951171875	8.7249755859375E-07	1.04695448044367E-06	1375306.125	4.90201273350976E-05
2	538	111.579622718289	1.18972778320313	1.18988037109375	8.6181640625E-07	1.0254583457936E-06	1380665.75	4.91074570163619E-05
2	539	111.680330718034	1.17965698242188	1.1798095703125	8.50830078125001E-07	1.0038174877991E-06	1386657.125	4.9193695303984E-05
2	540	111.78103871778	1.16958618164063	1.16943359375	8.40148925781251E-07	9.82498363555351E-07	1391936.125	4.9278842197964E-05
2	541	111.881746717526	1.15951538085938	1.15966796875	8.28857421875E-07	9.61199361881881E-07	1399116.375	4.93628831463866E-05
2	542	111.982454717271	1.14944458007813	1.14959716796875	8.1817626953125E-07	9.4057310207063E-07	1405072.75	4.94458181492519E-05
2	543	112.083162717017	1.13937377929688	1.13922119140625	8.074951171875E-07	9.19915521535586E-07	1410808.75	4.9527679948369E-05
2	544	112.183870716763	1.12930297851563	1.12884521484375	7.9620361328125E-07	8.98790631254087E-07	1417784.625	4.96084321639501E-05
2	545	112.284578716509	1.11923217773438	1.1187744140625	7.84912109374999E-07	8.78139587712212E-07	1425349.875	4.96880456921645E-05
2	546	112.385286716254	1.10916137695313	1.10931396484375	7.73010253906251E-07	8.57511054164206E-07	1435057.25	4.97664950671606E-05
2	547	112.485994716	1.09909057617188	1.09893798828125	7.611083984375E-07	8.36410890769912E-07	1443865.375	4.98437439091504E-05
2	548	112.586702715746	1.08901977539063	1.0888671875	7.476806640625E-07	8.14124916814762E-07	1456326.625	4.99197158205789E-05
2	549	112.687410715492	1.07894897460938	1.07940673828125	7.33337402343751E-07	7.91569334523956E-07	1471910.125	4.99942907481454E-05
2	550	112.788118715237	1.06887817382813	1.06903076171875	7.171630859375E-07	7.66669359109073E-07	1490638.375	5.00673304486554E-05
2	551	112.888826714983	1.05880737304688	1.05865478515625	6.99768066406251E-07	7.40812822641601E-07	1512865.25	5.01386784890201E-05
2	552	112.989534714729	1.04873657226563	1.04827880859375	6.7901611328125E-07	7.1179817950906E-07	1543820.375	5.02081056765746E-05
2	553	113.090242714475	1.03866577148438	1.03851318359375	6.536865234375E-07	6.78862079439568E-07	1588702.125	5.02752118336502E-05
2	554	113.19095071422	1.02859497070313	1.02874755859375	6.26220703124999E-07	6.44223007384426E-07	1642787.5	5.03396622661967E-05
2	555	113.291658713966	1.01852416992188	1.01898193359375	5.9478759765625E-07	6.06077833253948E-07	1713186.25	5.04011441080365E-05
2	556	113.392366713712	1.00845336914063	1.00830078125	5.60302734375E-07	5.64953666071233E-07	1799564.25	5.04593081132043E-05
2	557	113.493074713458	0.998382568359375	0.9979248046875	5.27343750000001E-07	5.26249380072841E-07	1892361.125	5.05140742461663E-05
2	558	113.593782713203	0.988311767578125	0.98876953125	4.96520996093749E-07	4.90944842113095E-07	1991395.125	5.05656316818204E-05
2	559	113.694490712949	0.978240966796875	0.97869873046875	4.7027587890625E-07	4.60258405610148E-07	2081116.25	5.06143114762381E-05
2	560	113.795198712695	0.968170166015625	0.9686279296875	4.5013427734375E-07	4.36012641102934E-07	2151864.5	5.06606593262404E-05
2	561	113.89590671244	0.958099365234375	0.958251953125	4.3609619140625E-07	4.17890021253697E-07	2197341	5.07052827742882E-05
2	562	113.996614712186	0.948028564453125	0.9478759765625	4.2694091796875E-07	4.04687028776607E-07	2220157.25	5.07487420691177E-05
2	563	114.097322711932	0.937957763671875	0.93780517578125	4.2144775390625E-07	3.95235872474586E-07	2225199.25	5.07914628542494E-05
2	564	114.198030711678	0.927886962890625	0.92803955078125	4.17480468750001E-07	3.87438376492355E-07	2222953.25	5.08337034261785E-05
2	565	114.298738711423	0.917816162109375	0.91766357421875	4.1534423828125E-07	3.81146264771814E-07	2209405	5.08756420458667E-05
2	566	114.399446711169	0.907745361328125	0.908203125	4.12902832031251E-07	3.74999643781848E-07	2199556.5	5.09173478349112E-05
2	567	114.500154710915	0.897674560546875	0.897216796875	4.09545898437499E-07	3.6745146303474E-07	2190760	5.09587589476723E-05
2	568	114.600862710661	0.887603759765625	0.8880615234375	4.04968261718749E-07	3.59636743496594E-07	2192916.25	5.09997735207435E-05
2	569	114.701570710406	0.877532958984375	0.8770751953125	3.98864746093749E-07	3.49834351709433E-07	2198929	5.10402496729512E-05
2	570	114.802278710152	0.867462158203125	0.86761474609375	3.91235351562499E-07	3.39441555752273E-07	2217628.75	5.10800346091855E-05
2	571	114.902986709898	0.857391357421875	0.85784912109375	3.814697265625E-07	3.27243441233804E-07	2248800.25	5.11189427925274E-05
2	572	115.003694709644	0.847320556640625	0.8477783203125	3.7078857421875E-07	3.1434652214557E-07	2286419.75	5.11568214278668E-05
2	573	115.104402709389	0.837249755859375	0.83770751953125	3.5888671875E-07	3.00642113870708E-07	2334183.75	5.11935650138184E-05
2	574	115.205110709135	0.827178955078125	0.82733154296875	3.47900390625E-07	2.87828953560165E-07	2378070.25	5.12291553604882E-05
2	575	115.305818708881	0.817108154296875	0.81756591796875	3.3721923828125E-07	2.75698965879201E-07	2424434.5	5.12636543135159E-05
2	576	115.406526708627	0.807037353515625	0.806884765625	3.27148437499999E-07	2.63971088543258E-07	2466418	5.12971055286471E-05
2	577	115.507234708372	0.796966552734375	0.79742431640625	3.18298339843751E-07	2.53818825513008E-07	2505273.25	5.13296072313096E-05
2	578	115.607942708118	0.786895751953125	0.787353515625	3.1005859375E-07	2.44125715198606E-07	2539370	5.13612467329949E-05
2	579	115.708650707864	0.776824951171875	0.77667236328125	3.021240234375E-07	2.34651380992545E-07	2570707	5.13920749654062E-05
2	580	115.809358707609	0.766754150390625	0.76690673828125	2.92053222656249E-07	2.23977579594248E-07	2625914.5	5.14219937031157E-05
2	581	115.910066707355	0.756683349609375	0.75714111328125	2.79846191406249E-07	2.11883047995798E-07	2705561.75	5.14507919433527E-05
2	582	116.010774707101	0.746612548828125	0.746551513671875	2.642822265625E-07	1.97300295212699E-07	2824826.75	5.14781895617489E-05
2	583	116.111482706847	0.736541748046875	0.7364501953125	2.4261474609375E-07	1.78673673190133E-07	3035472	5.15037136210594E-05
2	584	116.212190706592	0.726470947265625	0.72637939453125	2.13623046875E-07	1.55171377969054E-07	3400285.75	5.15266874572262E-05
2	585	116.312898706338	0.716400146484375	0.71630859375	1.739501953125E-07	1.24602010487251E-07	4117895	5.15462015755475E-05
2	586	116.413606706084	0.706329345703125	0.70623779296875	1.2359619140625E-07	8.72883063607333E-08	5714074	5.15611864102539E-05
2	587	116.51431470583	0.696258544921875	0.6961669921875	5.92041015625003E-08	4.12159408824664E-08	11758763	5.15703904966358E-05
2	588	116.615022705575	0.686187744140625	0.6861572265625	-1.55639648437497E-08	-1.06793267562466E-08	-44086276	5.15725878358353E-05
2	589	116.715730705321	0.676116943359375	0.676025390625	-9.64355468749997E-08	-6.51928786510325E-08	-7010127	5.15669489686843E-05
2	590	116.816438705067	0.666046142578125	0.666015625	-1.7730712890625E-07	-1.18089317879821E-07	-3756282.25	5.15531646669842E-05
2	591	116.917146704813	0.655975341796875	0.65594482421875	-2.4871826171875E-07	-1.63145458031977E-07	-2637300.5	5.15317115059588E-05
2	592	117.017854704558	0.645904541015625	0.6458740234375	-3.0364990234375E-07	-1.96119586348686E-07	-2127035.25	5.15038991579786E-05
2	593	117.118562704304	0.635833740234375	0.635772705078125	-3.387451171875E-07	-2.15364892142134E-07	-1876846.875	5.14715502504259E-05
2	594	117.21927070405	0.625762939453125	0.62579345703125	-3.5369873046875E-07	-2.21342332906715E-07	-1769284	5.14366838615388E-05
2	595	117.319978703796	0.615692138671875	0.6156005859375	-3.521728515625E-07	-2.16797801044777E-07	-1748007	5.14011408085935E-05
2	596	117.420686703541	0.605621337890625	0.605560302734375	-3.3843994140625E-07	-2.04945791892897E-07	-1789269.625	5.13663653691765E-05
2	597	117.521394703287	0.595550537109375	0.59552001953125	-3.155517578125E-07	-1.87917379435021E-07	-1887234.125	5.13334343850147E-05
2	598	117.622102703033	0.585479736328125	0.585418701171875	-2.8961181640625E-07	-1.69544179584591E-07	-2021390.875	5.13029626745265E-05
2	599	117.722810702778	0.575408935546875	0.575347900390625	-2.593994140625E-07	-1.49244897329481E-07	-2218000	5.12753176735714E-05
2	600	117.823518702524	0.565338134765625	0.565277099609375	-2.276611328125E-07	-1.28691624468047E-07	-2482975.75	5.1250790420454E-05
2	601	117.92422670227	0.555267333984375	0.555267333984375	-1.96533203125E-07	-1.09128464487185E-07	-2825310.75	5.12294318468776E-05
2	602	118.024934702016	0.545196533203125	0.545196533203125	-1.70288085937501E-07	-9.28404659816806E-08	-3201613	5.1210961828474E-05
2	603	118.125642701761	0.535125732421875	0.535125732421875	-1.48925781250001E-07	-7.9694018495502E-08	-3593237.75	5.11948856001254E-05
2	604	118.226350701507	0.525054931640625	0.52508544921875	-1.312255859375E-07	-6.89046402158056E-08	-4001395.75	5.11807811562903E-05
2	605	118.327058701253	0.514984130859375	0.514984130859375	-1.1474609375E-07	-5.90924180698948E-08	-4488032	5.11683938384522E-05
2	606	118.427766700999	0.504913330078125	0.5048828125	-1.00097656250001E-07	-5.05375830073262E-08	-5043902.5	5.11575744894799E-05
2	607	118.528474700744	0.494842529296875	0.494842529296875	-8.697509765625E-08	-4.30389732741787E-08	-5689474	5.11481557623483E-05
2	608	118.62918270049	0.484771728515625	0.484771728515625	-7.50732421874997E-08	-3.63933843061659E-08	-6457317.5	5.1139995775884E-05
2	609	118.729890700236	0.474700927734375	0.474700927734375	-6.46972656249994E-08	-3.07118490638913E-08	-7337264.5	5.11329599248711E-05
2	610	118.830598699982	0.464630126953125	0.464599609375	-5.58471679687506E-08	-2.59465711138773E-08	-8319126	5.11268881382421E-05
2	611	118.931306699727	0.454559326171875	0.454620361328125	-4.76074218749997E-08	-2.16433040378661E-08	-9549359	5.11216785525903E-05
2	612	119.032014699473	0.444488525390625	0.444549560546875	-4.02832031249994E-08	-1.79078796236354E-08	-11035607	5.11172547703609E-05
2	613	119.132722699219	0.434417724609375	0.43438720703125	-3.41796874999994E-08	-1.48472176775272E-08	-12708930	5.11135040142108E-05
2	614	119.233430698965	0.424346923828125	0.424346923828125	-2.86865234375003E-08	-1.21730376889673E-08	-14792553	5.11103389726486E-05
2	615	119.33413869871	0.414276123046875	0.414276123046875	-2.31933593749997E-08	-9.60845447650627E-09	-17861842	5.11077269038651E-05
2	616	119.434846698456	0.404205322265625	0.40423583984375	-1.92260742187506E-08	-7.77186759393089E-09	-21025398	5.11055914103054E-05
2	617	119.535554698202	0.394134521484375	0.3941650390625	-1.58691406249994E-08	-6.25506046958435E-09	-24838462	5.11038233526051E-05
2	618	119.636262697947	0.384063720703125	0.384063720703125	-1.28173828124994E-08	-4.92269158769432E-09	-29964286	5.11023790750187E-05
2	619	119.736970697693	0.373992919921875	0.373992919921875	-9.46044921874972E-09	-3.53814111342388E-09	-39532256	5.11012549395673E-05
2	620	119.837678697439	0.363922119140625	0.363922119140625	-6.103515625E-09	-2.22120433157613E-09	-59625000	5.11004727741238E-05
2	621	119.938386697185	0.353851318359375	0.353912353515625	-3.0517578125E-09	-1.08005471233241E-09	-115970000	5.11000107508153E-05
2	622	120.03909469693	0.343780517578125	0.34381103515625	3.05175781249722E-10	1.0492279961527E-10	1126600064	5.10998725076206E-05
2	623	120.139802696676	0.333709716796875	0.333770751953125	2.13623046874945E-09	7.13011205633052E-10	156242864	5.10999961989E-05
2	624	120.240510696422	0.323638916015625	0.32366943359375	4.57763671875E-09	1.48164103208615E-09	70706672	5.11003345309291E-05
2	625	120.341218696168	0.313568115234375	0.313629150390625	6.71386718749945E-09	2.10566430958181E-09	46713640	5.1100902055623E-05
2	626	120.441926695913	0.303497314453125	0.303558349609375	8.54492187500056E-09	2.59388244217007E-09	35525000	5.11016696691513E-05
2	627	120.542634695659	0.293426513671875	0.29339599609375	9.76562499999944E-09	2.86519519221429E-09	30043750	5.11025937157683E-05
2	628	120.643342695405	0.283355712890625	0.2833251953125	9.76562499999944E-09	2.7668476398901E-09	29012500	5.11035759700462E-05
2	629	120.744050695151	0.273284912109375	0.2733154296875	1.03759765625003E-08	2.83591439220743E-09	26341176	5.11045909661334E-05
2	630	120.844758694896	0.263214111328125	0.263214111328125	1.068115234375E-08	2.81142997771155E-09	24642858	5.11056496179663E-05
2	631	120.945466694642	0.253143310546875	0.253143310546875	9.76562499999944E-09	2.47210252268815E-09	25921876	5.11066791659687E-05
2	632	121.046174694388	0.243072509765625	0.243133544921875	9.1552734375E-09	2.22595386567548E-09	26556668	5.11076323164161E-05
2	633	121.146882694134	0.233001708984375	0.233001708984375	7.62939453125E-09	1.77766179554339E-09	30540002	5.11084799654782E-05
2	634	121.247590693879	0.222930908203125	0.22296142578125	5.79833984375028E-09	1.29280608440752E-09	38452632	5.11091566295363E-05
2	635	121.348298693625	0.212860107421875	0.212921142578125	3.66210937499945E-09	7.79740494394332E-10	58141668	5.110963320476E-05
2	636	121.449006693371	0.202789306640625	0.20281982421875	9.15527343750555E-10	1.85687090703546E-10	221533344	5.11098623974249E-05
2	637	121.549714693116	0.192718505859375	0.1927490234375	-2.74658203125028E-09	-5.2940102301946E-10	-70177776	5.11097714479547E-05
2	638	121.650422692862	0.182647705078125	0.18267822265625	-7.01904296875056E-09	-1.28222621409435E-09	-26026088	5.11092766828369E-05
2	639	121.751130692608	0.172576904296875	0.17266845703125	-1.19018554687503E-08	-2.05507499906332E-09	-14507692	5.11083235323895E-05
2	640	121.851838692354	0.162506103515625	0.16259765625	-1.8310546875E-08	-2.97725177844654E-09	-8880000	5.11068028572481E-05
2	641	121.952546692099	0.152435302734375	0.15252685546875	-2.62451171874997E-08	-4.0030849746131E-09	-5811628	5.11045618623029E-05
2	642	122.053254691845	0.142364501953125	0.14239501953125	-3.63159179687503E-08	-5.17120568588325E-09	-3921008.5	5.1101411372656E-05
2	643	122.153962691591	0.132293701171875	0.13232421875	-4.91333007812497E-08	-6.50152509606983E-09	-2693167.75	5.10971076437272E-05
2	644	122.254670691337	0.122222900390625	0.122283935546875	-6.561279296875E-08	-8.02338995242735E-09	-1863721.125	5.10913305333816E-05
2	645	122.355378691082	0.112152099609375	0.1121826171875	-8.85009765625E-08	-9.92827065005031E-09	-1267586.25	5.1083570724586E-05
2	646	122.456086690828	0.102081298828125	0.1021728515625	-1.1871337890625E-07	-1.2129284243656E-08	-860668.4375	5.10731370013673E-05
2	647	122.556794690574	0.092010498046875	0.092071533203125	-1.6143798828125E-07	-1.48638426011871E-08	-570321.375	5.10590289195534E-05
2	648	122.65750269032	0.081939697265625	0.082061767578125	-2.18811035156249E-07	-1.79560188939831E-08	-375034.875	5.10398822370917E-05
2	649	122.758210690065	0.071868896484375	0.07183837890625	-2.96630859374999E-07	-2.13094786261081E-08	-242181.078125	5.10139252583031E-05
2	650	122.858918689811	0.061798095703125	0.0618896484375	-4.010009765625E-07	-2.48178082529193E-08	-154337.90625	5.09787969349418E-05
2	651	122.959626689557	0.051727294921875	0.051788330078125	-5.36499023437501E-07	-2.77843863472071E-08	-96530.15625	5.0931590521941E-05
2	652	123.060334689303	0.041656494140625	0.0417388916015625	-7.061767578125E-07	-2.94750339691063E-08	-59105.44140625	5.0869017286459E-05
2	653	123.161042689048	0.031585693359375	0.0316375732421875	-9.10034179687499E-07	-2.87912698127002E-08	-34765.2578125	5.07876357005443E-05
2	654	123.261750688794	0.021514892578125	0.0216033935546875	-1.13494873046875E-06	-2.45187425917948E-08	-19034.689453125	5.06846627104096E-05
2	655	123.36245868854	0.011444091796875	0.01153564453125	-1.36566162109375E-06	-1.57537858314072E-08	-8446.927734375	5.05587449879386E-05
2	656	123.463166688285	0.001373291015625	0.00147399902343751	-1.578369140625E-06	-2.32651431453235E-09	-933.874755859375	5.04105009895284E-05
2	657	123.563874688031	-0.008697509765625	-0.00859985351562501	-1.751708984375E-06	1.50644403618116E-08	4909.40771484375	5.02428192703519E-05
2	658	123.664582687777	-0.018768310546875	-0.0186431884765625	-1.871337890625E-06	3.48877051692398E-08	9962.4921875	5.00603855471127E-05
2	659	123.765290687523	-0.028839111328125	-0.028680419921875	-1.93450927734375E-06	5.54825376752888E-08	14825.681640625	4.98687440995127E-05
2	660	123.865998687268	-0.038909912109375	-0.03875732421875	-1.9476318359375E-06	7.54849978079619E-08	19899.71875	4.96732645842712E-05
2	661	123.966706687014	-0.048980712890625	-0.0488372802734375	-1.92413330078125E-06	9.39694402291025E-08	25381.443359375	4.94783052999992E-05
2	662	124.06741468676	-0.059051513671875	-0.05902099609375	-1.87774658203125E-06	1.10826469779113E-07	31431.822265625	4.92868639412336E-05
2	663	124.168122686506	-0.069122314453125	-0.069091796875	-1.81976318359375E-06	1.25730707623006E-07	37967.46484375	4.91006794618443E-05
2	664	124.268830686251	-0.079193115234375	-0.079132080078125	-1.7596435546875E-06	1.39244249908188E-07	44970.51953125	4.89204430778045E-05
2	665	124.369538685997	-0.089263916015625	-0.089141845703125	-1.70135498046875E-06	1.51661922132007E-07	52394.62109375	4.87461693410296E-05
2	666	124.470246685743	-0.099334716796875	-0.0992431640625	-1.64947509765625E-06	1.63699127142536E-07	60166.515625	4.85774398839567E-05
2	667	124.570954685489	-0.109405517578125	-0.10931396484375	-1.6033935546875E-06	1.75273314084734E-07	68176.625	4.8413647164125E-05
2	668	124.671662685234	-0.119476318359375	-0.11932373046875	-1.56524658203125E-06	1.86771060839419E-07	76233.1875	4.82540926896036E-05
2	669	124.77237068498	-0.129547119140625	-0.129486083984375	-1.53350830078125E-06	1.98567974507569E-07	84437.8125	4.80980561405886E-05
2	670	124.873078684726	-0.139617919921875	-0.13946533203125	-1.50787353515625E-06	2.10296079217187E-07	92491.3984375	4.79449117847253E-05
2	671	124.973786684472	-0.149688720703125	-0.1495361328125	-1.4886474609375E-06	2.22606573174744E-07	100451.0078125	4.77940229757223E-05
2	672	125.074494684217	-0.159759521484375	-0.15960693359375	-1.4752197265625E-06	2.35455303254639E-07	108191.9765625	4.7644782171119E-05
2	673	125.175202683963	-0.169830322265625	-0.169677734375	-1.46636962890625E-06	2.48810266612054E-07	115712.8046875	4.74966618639883E-05
2	674	125.275910683709	-0.179901123046875	-0.17974853515625	-1.46270751953125E-06	2.62919513716042E-07	122887.546875	4.73491709271912E-05
2	675	125.376618683454	-0.189971923828125	-0.1898193359375	-1.46209716796875E-06	2.77534297765669E-07	129826.765625	4.72018946311437E-05
2	676	125.4773266832	-0.200042724609375	-0.199859619140625	-1.4666748046875E-06	2.93129062356456E-07	136267.171875	4.70544182462618E-05
2	677	125.578034682946	-0.189971923828125	-0.189849853515625	-1.28448486328125E-06	2.43859261672696E-07	147802.328125	4.69158876512665E-05
