Potential - Start -0.2 V, Upper Vertex 1.5 V, Lower Vertex -0.2 V, Stop -0.19 V; Scan - # end cross 5, Rate 0.1 Vps, Step 0.01 V 
Scan	Index	Time (s)	Potential applied (V)	WE(1).Potential (V)	WE(1).Current (A)	WE(1).Power (W)	WE(1).Resistance (Ω)	WE(1).Charge (C)
1	1	53.8003508641672	-0.189971923828125	-0.189849853515625	-2.67944335937501E-07	5.08691933021055E-08	708542.1875	0
1	2	53.9010588639129	-0.179901123046875	-0.1798095703125	-2.33154296875E-07	4.19233749937575E-08	771204.1875	-2.52323193450366E-08
1	3	54.0017668636586	-0.169830322265625	-0.16973876953125	-2.0599365234375E-07	3.49651081421598E-08	824000.0625	-4.73451748916887E-08
1	4	54.1024748634044	-0.159759521484375	-0.15966796875	-1.8280029296875E-07	2.91873512026086E-08	873455.75	-6.69225030947018E-08
1	5	54.2031828631501	-0.149688720703125	-0.1495361328125	-1.6204833984375E-07	2.42320812304797E-08	922787.1875	-8.42870164774467E-08
1	6	54.3038908628959	-0.139617919921875	-0.139556884765625	-1.422119140625E-07	1.98466523215757E-08	981330.4375	-9.96077318404787E-08
1	7	54.4045988626416	-0.129547119140625	-0.12945556640625	-1.23291015625E-07	1.59607083105584E-08	1050000	-1.12976870525472E-07
1	8	54.5053068623873	-0.119476318359375	-0.11932373046875	-1.04370117187499E-07	1.24538317436418E-08	1143274.875	-1.24440518334268E-07
1	9	54.6060148621331	-0.109405517578125	-0.109344482421875	-8.42285156249997E-08	9.20992260233788E-09	1298188.5	-1.33937206214796E-07
1	10	54.7067228618788	-0.099334716796875	-0.0992431640625	-6.256103515625E-08	6.20875528767328E-09	1586341.5	-1.4132865544525E-07
1	11	54.8074308616245	-0.089263916015625	-0.089202880859375	-3.69262695312497E-08	3.29392957354457E-09	2415702.5	-1.46338237527743E-07
1	12	54.9081388613703	-0.079193115234375	-0.07916259765625	-5.79833984375028E-09	4.59011634257322E-10	13652632	-1.48489590401368E-07
1	13	55.008846861116	-0.069122314453125	-0.069091796875	3.41796874999994E-08	-2.36153585575494E-09	-2021428.75	-1.47060475796934E-07
1	14	55.1095548608617	-0.059051513671875	-0.0589599609375	8.51440429687503E-08	-5.02008923319863E-09	-692473.1875	-1.41052055369073E-07
1	15	55.2102628606075	-0.048980712890625	-0.04886474609375	1.5380859375E-07	-7.5158173018508E-09	-317698.40625	-1.29019824157695E-07
1	16	55.3109708603532	-0.038909912109375	-0.03876953125	2.44140625E-07	-9.46521705458281E-09	-158800.015625	-1.0898149582772E-07
1	17	55.411678860099	-0.028839111328125	-0.0287017822265625	3.6285400390625E-07	-1.04145563284419E-08	-79100.0859375	-7.84168889822467E-08
1	18	55.5123868598447	-0.018768310546875	-0.0186279296875	5.16357421875E-07	-9.61867030468966E-09	-36075.65234375	-3.41450778762464E-08
1	19	55.6130948595904	-0.008697509765625	-0.00859375	7.0556640625E-07	-6.06346128861901E-09	-12179.931640625	2.73836722186616E-08
1	20	55.7138028593362	0.001373291015625	0.0014617919921875	9.25598144531251E-07	1.35303190873515E-09	1579.29455566406	1.09519326940699E-07
1	21	55.8145108590819	0.011444091796875	0.011566162109375	1.16455078125E-06	1.34693829423327E-08	9931.8662109375	2.14766686212897E-07
1	22	55.9152188588276	0.021514892578125	0.0216217041015625	1.40228271484375E-06	3.03197431605895E-08	15418.93359375	3.44017024644927E-07
1	23	56.0159268585734	0.031585693359375	0.03165283203125	1.6143798828125E-06	5.10996898128724E-08	19606.8046875	4.95918015985808E-07
1	24	56.1166348583191	0.041656494140625	0.041717529296875	1.7803955078125E-06	7.42737000791749E-08	23431.609375	6.66858568365569E-07
1	25	56.2173428580649	0.051727294921875	0.051788330078125	1.88812255859375E-06	9.77827099291062E-08	27428.48046875	8.51583081384888E-07
1	26	56.3180508578106	0.061798095703125	0.061859130859375	1.93634033203125E-06	1.19780338536657E-07	31946.4140625	1.04416005797248E-06
1	27	56.4187588575563	0.071868896484375	0.0718994140625	1.93511962890625E-06	1.39133959464743E-07	37155.0234375	1.23910365346092E-06
1	28	56.5194668573021	0.081939697265625	0.08197021484375	1.8994140625E-06	1.55695374814968E-07	43155.52734375	1.43218767334474E-06
1	29	56.6201748570478	0.092010498046875	0.092071533203125	1.842041015625E-06	1.69599545074561E-07	49983.43359375	1.6205849533435E-06
1	30	56.7208828567935	0.102081298828125	0.10211181640625	1.7742919921875E-06	1.8117617628377E-07	57550.7421875	1.80268170879572E-06
1	31	56.8215908565393	0.112152099609375	0.1121826171875	1.70440673828125E-06	1.91204804877998E-07	65819.15625	1.97784811462043E-06
1	32	56.922298856285	0.122222900390625	0.12237548828125	1.636962890625E-06	2.00324123511564E-07	74757.6484375	2.14609940485389E-06
1	33	57.0230068560307	0.132293701171875	0.13238525390625	1.573486328125E-06	2.08306389026802E-07	84134.9921875	2.30775845011522E-06
1	34	57.1237148557765	0.142364501953125	0.14239501953125	1.51611328125E-06	2.15886970522661E-07	93921.1015625	2.46333206632698E-06
1	35	57.2244228555222	0.152435302734375	0.1524658203125	1.4642333984375E-06	2.23245550046158E-07	104126.71875	2.61340460383508E-06
1	36	57.325130855268	0.162506103515625	0.16253662109375	1.41754150390625E-06	2.30402406486974E-07	114660.921875	2.75851334663457E-06
1	37	57.4258388550137	0.172576904296875	0.172576904296875	1.37603759765625E-06	2.37472292496932E-07	125415.84375	2.89918125417898E-06
1	38	57.5265468547594	0.182647705078125	0.182708740234375	1.33819580078125E-06	2.44500057533514E-07	136533.640625	3.03585375149851E-06
1	39	57.6272548545052	0.192718505859375	0.1927490234375	1.30462646484375E-06	2.51465451128752E-07	147742.703125	3.1689303341409E-06
1	40	57.7279628542509	0.202789306640625	0.20281982421875	1.27471923828125E-06	2.58538335629055E-07	159109.40625	3.29881072502758E-06
1	41	57.8286708539966	0.212860107421875	0.212890625	1.2481689453125E-06	2.65723457459899E-07	170562.34375	3.4258482628502E-06
1	42	57.9293788537424	0.222930908203125	0.2230224609375	1.22344970703125E-06	2.72856766514451E-07	182289.859375	3.55030419996183E-06
1	43	58.0300868534881	0.233001708984375	0.233062744140625	1.20147705078125E-06	2.80019548881683E-07	193980.1875	3.6724088658957E-06
1	44	58.1307948532339	0.243072509765625	0.24310302734375	1.1810302734375E-06	2.87112044361493E-07	205839.796875	3.79237781089614E-06
1	45	58.2315028529796	0.253143310546875	0.25311279296875	1.163330078125E-06	2.94453712967879E-07	217576.09375	3.91042567571276E-06
1	46	58.3322108527253	0.263214111328125	0.263214111328125	1.14654541015625E-06	3.01786940326565E-07	229571.46875	4.02673731514369E-06
1	47	58.4329188524711	0.273284912109375	0.27325439453125	1.131591796875E-06	3.09212396132352E-07	241477.90625	4.14145051763626E-06
1	48	58.5336268522168	0.283355712890625	0.283355712890625	1.1181640625E-06	3.16838168146205E-07	253411.578125	4.25473444920499E-06
1	49	58.6343348519625	0.293426513671875	0.29345703125	1.10565185546875E-06	3.24461296941081E-07	265415.40625	4.36671280112932E-06
1	50	58.7350428517083	0.303497314453125	0.30352783203125	1.09375E-06	3.31983585510898E-07	277511.15625	4.47746151621686E-06
1	51	58.835750851454	0.313568115234375	0.31353759765625	1.08367919921875E-06	3.39774175017737E-07	289326.9375	4.58710337625234E-06
1	52	58.9364588511997	0.323638916015625	0.323638916015625	1.0748291015625E-06	3.4785654179359E-07	301107.3125	4.69579299533507E-06
1	53	59.0371668509455	0.333709716796875	0.333740234375	1.06719970703125E-06	3.56167475956681E-07	312725.1875	4.80365270050243E-06
1	54	59.1378748506912	0.343780517578125	0.343841552734375	1.0595703125E-06	3.64324307611241E-07	324510.375	4.91074433739414E-06
1	55	59.238582850437	0.353851318359375	0.353851318359375	1.0528564453125E-06	3.72554637806388E-07	336086.96875	5.01711338074529E-06
1	56	59.3392908501827	0.363922119140625	0.363922119140625	1.04736328125E-06	3.81158685058836E-07	347465.03125	5.12286760567804E-06
1	57	59.4399988499284	0.373992919921875	0.37396240234375	1.04339599609375E-06	3.90190876942142E-07	358408.90625	5.22814571013441E-06
1	58	59.5407068496742	0.384063720703125	0.384033203125	1.03912353515625E-06	3.99057938693659E-07	369574.15625	5.33300908500678E-06
1	59	59.6414148494199	0.394134521484375	0.3941650390625	1.036376953125E-06	4.0850355276234E-07	380329.8125	5.43751866644016E-06
1	60	59.7421228491656	0.404205322265625	0.404205322265625	1.03424072265625E-06	4.1804557326941E-07	390823.28125	5.54178268430405E-06
1	61	59.8428308489114	0.414276123046875	0.41424560546875	1.03271484375E-06	4.27797601787461E-07	401122.9375	5.64586207474349E-06
1	62	59.9435388486571	0.424346923828125	0.42437744140625	1.031494140625E-06	4.3774281266451E-07	411420.125	5.74980322198826E-06
1	63	60.0442468484028	0.434417724609375	0.434417724609375	1.03057861328125E-06	4.47701609118667E-07	421528	5.85363704885822E-06
1	64	60.1449548481486	0.444488525390625	0.44451904296875	1.02996826171875E-06	4.57840485523775E-07	431585.21875	5.95739356867853E-06
1	65	60.2456628478943	0.454559326171875	0.454559326171875	1.03057861328125E-06	4.68459091962359E-07	441071.96875	6.06115054324619E-06
1	66	60.3463708476401	0.464630126953125	0.464630126953125	1.0308837890625E-06	4.78979643503408E-07	450710.5	6.16495344729628E-06
1	67	60.4470788473858	0.474700927734375	0.4747314453125	1.03240966796875E-06	4.90117315621319E-07	459828.59375	6.26884866505861E-06
1	68	60.5477868471315	0.484771728515625	0.48468017578125	1.03485107421875E-06	5.01571776112542E-07	468357.4375	6.37294351690798E-06
1	69	60.6484948468773	0.494842529296875	0.49481201171875	1.03851318359375E-06	5.13868769758119E-07	476461.96875	6.4773453232192E-06
1	70	60.749202846623	0.504913330078125	0.504913330078125	1.04248046875E-06	5.26362271102698E-07	484338.40625	6.58213184578926E-06
1	71	60.8499108463687	0.514984130859375	0.51495361328125	1.048583984375E-06	5.39972120350285E-07	491094.3125	6.68742541165557E-06
1	72	60.9506188461145	0.525054931640625	0.524993896484375	1.055908203125E-06	5.54345376713172E-07	497196.53125	6.79339473208529E-06
1	73	61.0513268458602	0.535125732421875	0.53509521484375	1.06536865234375E-06	5.70073666494864E-07	502262.9375	6.90020988258766E-06
1	74	61.152034845606	0.545196533203125	0.545166015625	1.077880859375E-06	5.87624015224719E-07	505775.78125	7.00813097864739E-06
1	75	61.2527428453517	0.555267333984375	0.555267333984375	1.094970703125E-06	6.08001471391617E-07	507107.03125	7.11754273652332E-06
1	76	61.3534508450974	0.565338134765625	0.565338134765625	1.11724853515625E-06	6.31623208846577E-07	506009.28125	7.22893673810177E-06
1	77	61.4541588448432	0.575408935546875	0.57537841796875	1.14837646484375E-06	6.6075102722607E-07	501036.40625	7.34302011551335E-06
1	78	61.5548668445889	0.585479736328125	0.58544921875	1.19232177734375E-06	6.98043834290729E-07	491016.125	7.46088335290551E-06
1	79	61.6555748443346	0.595550537109375	0.595550537109375	1.25518798828125E-06	7.47527849398466E-07	474471.1875	7.58412534196395E-06
1	80	61.7562828440804	0.605621337890625	0.605621337890625	1.343994140625E-06	8.13951487543818E-07	450613.09375	7.71500435803318E-06
1	81	61.8569908438261	0.615692138671875	0.61566162109375	1.46881103515625E-06	9.04290573089384E-07	419156.46875	7.85664087743498E-06
1	82	61.9576988435718	0.625762939453125	0.625732421875	1.63818359375E-06	1.02506453458773E-06	381967.21875	8.01309033704456E-06
1	83	62.0584068433176	0.635833740234375	0.63580322265625	1.8603515625E-06	1.18281752747862E-06	341765.09375	8.18925582279917E-06
1	84	62.1591148430633	0.645904541015625	0.6458740234375	2.139892578125E-06	1.38210100431024E-06	301825.4375	8.39068343339022E-06
1	85	62.2598228428091	0.655975341796875	0.655914306640625	2.4725341796875E-06	1.62177047968726E-06	265280.1875	8.62293745740317E-06
1	86	62.3605308425548	0.666046142578125	0.66595458984375	2.84637451171875E-06	1.89555612450931E-06	233965.921875	8.89076636667596E-06
1	87	62.4612388423005	0.676116943359375	0.676025390625	3.233642578125E-06	2.18602440327231E-06	209060.03125	9.19691956369206E-06
1	88	62.5619468420463	0.686187744140625	0.686126708984375	3.60382080078125E-06	2.47267757913505E-06	190388.6875	9.54121333052171E-06
1	89	62.662654841792	0.696258544921875	0.69610595703125	3.919677734375E-06	2.72851093541249E-06	177592.65625	9.9200515251141E-06
1	90	62.7633628415377	0.706329345703125	0.70623779296875	4.1546630859375E-06	2.93418020191893E-06	169986.78125	1.03266265796265E-05
1	91	62.8640708412835	0.716400146484375	0.71624755859375	4.2913818359375E-06	3.07369168695004E-06	166903.71875	1.07519190351013E-05
1	92	62.9647788410292	0.726470947265625	0.72637939453125	4.3341064453125E-06	3.1482056783716E-06	167596.109375	1.11862464109436E-05
1	93	63.065486840775	0.736541748046875	0.73638916015625	4.2999267578125E-06	3.16641944664298E-06	171256.203125	1.16210048872745E-05
1	94	63.1661948405207	0.746612548828125	0.74652099609375	4.212646484375E-06	3.14482895191759E-06	177209.515625	1.20496470117359E-05
1	95	63.2669028402664	0.756683349609375	0.75714111328125	4.095458984375E-06	3.10084010379796E-06	184873.328125	1.24679927466786E-05
1	96	63.3676108400122	0.766754150390625	0.76690673828125	3.96728515625E-06	3.04253762806184E-06	193307.703125	1.28739848150872E-05
1	97	63.4683188397579	0.776824951171875	0.7769775390625	3.83880615234375E-06	2.98266604659148E-06	202400.828125	1.32670520542888E-05
1	98	63.5690268395036	0.786895751953125	0.787353515625	3.71826171875E-06	2.92758636533108E-06	211753.125	1.36475809995318E-05
1	99	63.6697348392494	0.796966552734375	0.79681396484375	3.6077880859375E-06	2.87473585558473E-06	220859.421875	1.40164765980444E-05
1	100	63.7704428389951	0.807037353515625	0.80718994140625	3.50982666015625E-06	2.83309668702714E-06	229980	1.43748775371932E-05
1	101	63.8711508387408	0.817108154296875	0.81756591796875	3.42315673828125E-06	2.79865616903407E-06	238833.921875	1.47239807120059E-05
1	102	63.9718588384866	0.827178955078125	0.82794189453125	3.34808349609375E-06	2.77201866083487E-06	247288.296875	1.50649393617641E-05
1	103	64.0725668382323	0.837249755859375	0.83770751953125	3.28277587890625E-06	2.75000593319419E-06	255182.671875	1.53988294187002E-05
1	104	64.1732748379781	0.847320556640625	0.84747314453125	3.22662353515625E-06	2.73447676590877E-06	262650.15625	1.57266040332615E-05
1	105	64.2739828377238	0.857391357421875	0.8575439453125	3.17962646484375E-06	2.72666943601507E-06	269699.59375	1.60491854330758E-05
1	106	64.3746908374695	0.867462158203125	0.8673095703125	3.13995361328125E-06	2.7233118089498E-06	276217.3125	1.63674012583215E-05
1	107	64.4753988372153	0.877532958984375	0.87799072265625	3.10699462890625E-06	2.72791248789872E-06	282585.21875	1.66819590958767E-05
1	108	64.576106836961	0.887603759765625	0.887451171875	3.08258056640625E-06	2.73563955488498E-06	287892.3125	1.69936301972484E-05
1	109	64.6768148367067	0.897674560546875	0.89752197265625	3.06884765625E-06	2.75435809271585E-06	292462.21875	1.73033786268206E-05
1	110	64.7775228364525	0.907745361328125	0.90789794921875	3.06793212890625E-06	2.78536936093587E-06	295931.5625	1.76123903656844E-05
1	111	64.8782308361982	0.917816162109375	0.91827392578125	3.08502197265625E-06	2.83289523395069E-06	297655.5625	1.79222151928116E-05
1	112	64.9789388359439	0.927886962890625	0.927734375	3.1256103515625E-06	2.89973604594707E-06	296817.03125	1.82349467650056E-05
1	113	65.0796468356897	0.937957763671875	0.93780517578125	3.19671630859375E-06	2.99789712698839E-06	293365.15625	1.8553300833446E-05
1	114	65.1803548354354	0.948028564453125	0.94757080078125	3.30718994140625E-06	3.13379655381141E-06	286518.40625	1.88807971426286E-05
1	115	65.2810628351812	0.958099365234375	0.95855712890625	3.46649169921875E-06	3.32283025272773E-06	276520.84375	1.92218794836663E-05
1	116	65.3817708349269	0.968170166015625	0.96771240234375	3.67950439453125E-06	3.56070199813985E-06	263000.75	1.95817101484863E-05
1	117	65.4824788346726	0.978240966796875	0.9783935546875	3.94927978515625E-06	3.86395004170481E-06	247739.75	1.99658497876953E-05
1	118	65.5831868344184	0.988311767578125	0.9881591796875	4.266357421875E-06	4.21584036303102E-06	231616.59375	2.0379538909765E-05
1	119	65.6838948341641	0.998382568359375	0.99822998046875	4.61273193359375E-06	4.60456749351579E-06	216407.53125	2.08266374102095E-05
1	120	65.7846028339098	1.00845336914063	1.0089111328125	4.9652099609375E-06	5.00945543535636E-06	203196.0625	2.13089242606657E-05
1	121	65.8853108336556	1.01852416992188	1.01837158203125	5.28564453125E-06	5.38275025974144E-06	192667.4375	2.18250970647205E-05
1	122	65.9860188334013	1.02859497070313	1.02874755859375	5.5450439453125E-06	5.70445035918965E-06	185525.59375	2.23704646487022E-05
1	123	66.0867268331471	1.03866577148438	1.03851318359375	5.7220458984375E-06	5.94242010265589E-06	181493.328125	2.29378074436681E-05
1	124	66.1874348328928	1.04873657226563	1.04888916015625	5.804443359375E-06	6.0882175603183E-06	180704.515625	2.35182124015409E-05
1	125	66.2881428326385	1.05880737304688	1.05865478515625	5.804443359375E-06	6.1449018176063E-06	182386.953125	2.41027664742433E-05
1	126	66.3888508323843	1.06887817382813	1.06903076171875	5.7373046875E-06	6.13335487287259E-06	186329.796875	2.46839390456444E-05
1	127	66.48955883213	1.07894897460938	1.0791015625	5.6304931640625E-06	6.07587389822584E-06	191653.125	2.52563531830674E-05
1	128	66.5902668318757	1.08901977539063	1.08917236328125	5.5023193359375E-06	5.99297391090658E-06	197947.875	2.58169347944204E-05
1	129	66.6909748316215	1.09909057617188	1.0992431640625	5.3680419921875E-06	5.90078343520872E-06	204775.4375	2.63643014477566E-05
1	130	66.7916828313672	1.10916137695313	1.10931396484375	5.2337646484375E-06	5.80588812226779E-06	211953.359375	2.68981457338668E-05
1	131	66.8923908311129	1.11923217773438	1.119384765625	5.1116943359375E-06	5.72195222048322E-06	218985.09375	2.74190806521801E-05
1	132	66.9930988308587	1.12930297851563	1.129150390625	4.9957275390625E-06	5.64092761123902E-06	226023.21875	2.7928028430324E-05
1	133	67.0938068306044	1.13937377929688	1.13922119140625	4.89105224609375E-06	5.57199018658139E-06	232919.46875	2.84258676401805E-05
1	134	67.1945148303502	1.14944458007813	1.14959716796875	4.7979736328125E-06	5.51573657503468E-06	239600.578125	2.8913749702042E-05
1	135	67.2952228300959	1.15951538085938	1.15966796875	4.7149658203125E-06	5.46779438082012E-06	245954.703125	2.93927641905611E-05
1	136	67.3959308298416	1.16958618164063	1.16973876953125	4.6405029296875E-06	5.42817633686354E-06	252071.546875	2.98638497042703E-05
1	137	67.4966388295874	1.17965698242188	1.17950439453125	4.5733642578125E-06	5.39430311619071E-06	257907.390625	3.03278047795175E-05
1	138	67.5973468293331	1.18972778320313	1.18896484375	4.51263427734375E-06	5.3653629947803E-06	263474.6875	3.07853188132867E-05
1	139	67.6980548290788	1.19979858398438	1.199951171875	4.4586181640625E-06	5.35012395630474E-06	269130.71875	3.12370575556997E-05
1	140	67.7987628288246	1.20986938476563	1.20941162109375	4.4091796875E-06	5.33251295564696E-06	274294.03125	3.1683586712461E-05
1	141	67.8994708285703	1.21994018554688	1.21978759765625	4.3646240234375E-06	5.3239136832417E-06	279471.4375	3.21253828587942E-05
1	142	68.0001788283161	1.23001098632813	1.2298583984375	4.32342529296875E-06	5.31720115759526E-06	284463.875	3.25628607242834E-05
1	143	68.1008868280618	1.24008178710938	1.23992919921875	4.28619384765625E-06	5.3145768106333E-06	289284.4375	3.29963913827669E-05
1	144	68.2015948278075	1.25015258789063	1.25030517578125	4.25201416015625E-06	5.31631530975574E-06	294050.09375	3.34263240802102E-05
1	145	68.3023028275533	1.26022338867188	1.259765625	4.2205810546875E-06	5.31694286109996E-06	298481.5625	3.38529534928966E-05
1	146	68.403010827299	1.27029418945313	1.2701416015625	4.1912841796875E-06	5.32352396476199E-06	303043.5625	3.42765233654063E-05
1	147	68.5037188270447	1.28036499023438	1.28021240234375	4.16412353515625E-06	5.33096226718044E-06	307438.625	3.46972519764677E-05
1	148	68.6044268267905	1.29043579101563	1.2908935546875	4.13909912109375E-06	5.34313630851102E-06	311877.90625	3.51153539668303E-05
1	149	68.7051348265362	1.30050659179688	1.30035400390625	4.1156005859375E-06	5.35173739990569E-06	315957.3125	3.55310112354346E-05
1	150	68.8058428262819	1.31057739257813	1.31011962890625	4.095458984375E-06	5.36554080099449E-06	319895.6875	3.59444711648393E-05
1	151	68.9065508260277	1.32064819335938	1.32110595703125	4.07684326171875E-06	5.38594167664996E-06	324051.21875	3.63559774996247E-05
1	152	69.0072588257734	1.33071899414063	1.33087158203125	4.06097412109375E-06	5.4046345212555E-06	327722.28125	3.67657485185191E-05
1	153	69.1079668255192	1.34078979492188	1.34063720703125	4.0472412109375E-06	5.42588168173097E-06	331247.1875	3.71740316040814E-05
1	154	69.2086748252649	1.35086059570313	1.3507080078125	4.03594970703125E-06	5.45138937013689E-06	334669.1875	3.75810523109976E-05
1	155	69.3093828250106	1.36093139648438	1.361083984375	4.027099609375E-06	5.4812203416077E-06	337981.21875	3.79870580218267E-05
1	156	69.4100908247564	1.37100219726563	1.37054443359375	4.0216064453125E-06	5.51179027752369E-06	340795.28125	3.83923434128519E-05
1	157	69.5107988245021	1.38107299804688	1.380615234375	4.0191650390625E-06	5.54892039872357E-06	343508	3.87972286262084E-05
1	158	69.6115068242478	1.39114379882813	1.3916015625	4.019775390625E-06	5.59392537979875E-06	346188.90625	3.92020192521159E-05
1	159	69.7122148239936	1.40121459960938	1.4007568359375	4.0234375E-06	5.63585717827664E-06	348149.28125	3.96070281567518E-05
1	160	69.8129228237393	1.41128540039063	1.4105224609375	4.03076171875E-06	5.68548011870007E-06	349939.40625	4.00125900341664E-05
1	161	69.9136308234851	1.42135620117188	1.4208984375	4.041748046875E-06	5.74291334487498E-06	351555.40625	4.04190723202191E-05
1	162	70.0143388232308	1.43142700195313	1.4312744140625	4.0570068359375E-06	5.8066898418474E-06	352790.75	4.08268788305577E-05
1	163	70.1150468229765	1.44149780273438	1.44134521484375	4.0771484375E-06	5.87657814321574E-06	353517.96875	4.12364643125329E-05
1	164	70.2157548227223	1.45156860351563	1.451416015625	4.1046142578125E-06	5.95750270804274E-06	353605.96875	4.1648447222542E-05
1	165	70.316462822468	1.46163940429688	1.46209716796875	4.13848876953125E-06	6.0508727983688E-06	353292.53125	4.20635224145371E-05
1	166	70.4171708222137	1.47171020507813	1.47216796875	4.1815185546875E-06	6.15589715380338E-06	352065.40625	4.2482468415983E-05
1	167	70.5178788219595	1.48178100585938	1.48162841796875	4.2327880859375E-06	6.27141889708582E-06	350036.0625	4.29061619797722E-05
1	168	70.6185868217052	1.49185180664063	1.49200439453125	4.2938232421875E-06	6.4064029174915E-06	347476.90625	4.33355089626275E-05
1	169	70.7192948214509	1.50192260742188	1.50146484375	4.36370849609375E-06	6.55195435683709E-06	344080.03125	4.37714516010601E-05
1	170	70.8200028211967	1.49185180664063	1.49169921875	4.10308837890625E-06	6.12057374382857E-06	363555.21875	4.4197789975442E-05
1	171	70.9207108209424	1.48178100585938	1.48101806640625	3.9129638671875E-06	5.79516972720739E-06	378490.125	4.46014310000464E-05
1	172	71.0214188206882	1.47171020507813	1.4715576171875	3.76068115234375E-06	5.53405880054925E-06	391300.84375	4.49878280051053E-05
1	173	71.1221268204339	1.46163940429688	1.4617919921875	3.63555908203125E-06	5.31443129148101E-06	402081.75	4.53602588095237E-05
1	174	71.2228348201796	1.45156860351563	1.45172119140625	3.52935791015625E-06	5.12364340465865E-06	411327.28125	4.57210408058017E-05
1	175	71.3235428199254	1.44149780273438	1.441650390625	3.438720703125E-06	4.9574327931623E-06	419240.34375	4.60719129478093E-05
1	176	71.4242508196711	1.43142700195313	1.43157958984375	3.3599853515625E-06	4.81008601127542E-06	426067.25	4.64142540295143E-05
1	177	71.5249588194168	1.42135620117188	1.42120361328125	3.291015625E-06	4.67720292363083E-06	431843.5	4.67491590825375E-05
1	178	71.6256668191626	1.41128540039063	1.41143798828125	3.2305908203125E-06	4.55977851743228E-06	436897.8125	4.70775448775385E-05
1	179	71.7263748189083	1.40121459960938	1.40045166015625	3.17657470703125E-06	4.44863917437033E-06	440868.5	4.74001717520878E-05
1	180	71.827082818654	1.39114379882813	1.39068603515625	3.12835693359375E-06	4.35056199421524E-06	444542	4.77176508866251E-05
1	181	71.9277908183998	1.38107299804688	1.38092041015625	3.08441162109375E-06	4.25932694270159E-06	447709.53125	4.80304879602045E-05
1	182	72.0284988181455	1.37100219726563	1.37115478515625	3.04473876953125E-06	4.17480805481318E-06	450335.78125	4.83391158923041E-05
1	183	72.1292068178913	1.36093139648438	1.361083984375	3.00811767578125E-06	4.09430049330695E-06	452470.34375	4.86439021187834E-05
1	184	72.229914817637	1.35086059570313	1.35040283203125	2.97454833984375E-06	4.01683837480959E-06	453985.84375	4.89451522298623E-05
1	185	72.3306228173827	1.34078979492188	1.34063720703125	2.9437255859375E-06	3.94646804124932E-06	455421.9375	4.9243160901824E-05
1	186	72.4313308171285	1.33071899414063	1.33087158203125	2.91473388671875E-06	3.87913632948766E-06	456601.40625	4.95381573273335E-05
1	187	72.5320388168742	1.32064819335938	1.32080078125	2.88787841796875E-06	3.81431186724512E-06	457360.28125	4.98303452332038E-05
1	188	72.6327468166199	1.31057739257813	1.3104248046875	2.8619384765625E-06	3.75035506294807E-06	457880.15625	5.01198701385874E-05
1	189	72.7334548163657	1.30050659179688	1.3006591796875	2.838134765625E-06	3.69144572687219E-06	458279.59375	5.04068921145517E-05
1	190	72.8341628161114	1.29043579101563	1.29058837890625	2.81463623046875E-06	3.63253684554365E-06	458527.59375	5.06915312143974E-05
1	191	72.9348708158572	1.28036499023438	1.2799072265625	2.79266357421875E-06	3.57435010300833E-06	458310.5625	5.09738820255734E-05
1	192	73.0355788156029	1.27029418945313	1.26983642578125	2.77099609375E-06	3.51871153725369E-06	458259.9375	5.12540318595711E-05
1	193	73.1362868153486	1.26022338867188	1.2603759765625	2.7508544921875E-06	3.46711090060126E-06	458176.15625	5.15320789418183E-05
1	194	73.2369948150944	1.25015258789063	1.24969482421875	2.73101806640625E-06	3.41293889505323E-06	457593.03125	5.18081142217852E-05
1	195	73.3377028148401	1.24008178710938	1.2396240234375	2.7117919921875E-06	3.36160246661166E-06	457123.5625	5.20821813552175E-05
1	196	73.4384108145858	1.23001098632813	1.2298583984375	2.69317626953125E-06	3.31222531713138E-06	456657.25	5.23543421877548E-05
1	197	73.5391188143316	1.21994018554688	1.21978759765625	2.67547607421875E-06	3.26351255353075E-06	455914.21875	5.2624676754931E-05
1	198	73.6398268140773	1.20986938476563	1.20941162109375	2.657470703125E-06	3.21397578773031E-06	455098.78125	5.28932105225977E-05
1	199	73.740534813823	1.19979858398438	1.199951171875	2.64007568359375E-06	3.16796172228351E-06	454513.96875	5.31599653186277E-05
1	200	73.8412428135688	1.18972778320313	1.18988037109375	2.62176513671875E-06	3.11958683596458E-06	453847.0625	5.34249193151481E-05
1	201	73.9419508133145	1.17965698242188	1.18011474609375	2.60345458984375E-06	3.07237496599555E-06	453288.03125	5.36880288564134E-05
1	202	74.0426588130603	1.16958618164063	1.16943359375	2.5836181640625E-06	3.0213698209991E-06	452634.0625	5.39492211828474E-05
1	203	74.143366812806	1.15951538085938	1.15936279296875	2.5628662109375E-06	2.97129167847743E-06	452369.59375	5.4208365327213E-05
1	204	74.2440748125517	1.14944458007813	1.14959716796875	2.53997802734375E-06	2.91995138468337E-06	452601.25	5.44653157703578E-05
1	205	74.3447828122975	1.13937377929688	1.13922119140625	2.5128173828125E-06	2.86265458271373E-06	453364.125	5.47197414562106E-05
1	206	74.4454908120432	1.12930297851563	1.12945556640625	2.4810791015625E-06	2.80226845461584E-06	455227.5625	5.49712058273144E-05
1	207	74.5461988117889	1.11923217773438	1.119384765625	2.44140625E-06	2.73287287200219E-06	458500	5.5219072237378E-05
1	208	74.6469068115347	1.10916137695313	1.109619140625	2.3907470703125E-06	2.65281869360479E-06	464130.71875	5.54623911739327E-05
1	209	74.7476148112804	1.09909057617188	1.0992431640625	2.3236083984375E-06	2.55421059591754E-06	473075.90625	5.5699776567053E-05
1	210	74.8483228110262	1.08901977539063	1.08917236328125	2.2344970703125E-06	2.43375234276755E-06	487435.125	5.59292966499925E-05
1	211	74.9490308107719	1.07894897460938	1.0791015625	2.11578369140625E-06	2.28314547712216E-06	510024.53125	5.61483502679039E-05
1	212	75.0497388105176	1.06887817382813	1.0687255859375	1.95709228515625E-06	2.09159452424501E-06	546078.25	5.63534376851749E-05
1	213	75.1504468102634	1.05880737304688	1.0589599609375	1.75048828125E-06	1.85369685823389E-06	604951.1875	5.65401278436184E-05
1	214	75.2511548100091	1.04873657226563	1.04827880859375	1.48895263671875E-06	1.56083751789993E-06	704037.6875	5.67032475373708E-05
1	215	75.3518628097548	1.03866577148438	1.03851318359375	1.17340087890625E-06	1.21859227419918E-06	885045.5625	5.68373070564121E-05
1	216	75.4525708095006	1.02859497070313	1.02813720703125	8.1207275390625E-07	8.34922218473366E-07	1266065.375	5.69372823520098E-05
1	217	75.5532788092463	1.01852416992188	1.01837158203125	4.26025390625E-07	4.33852136438873E-07	2390401.25	5.69996263948269E-05
1	218	75.653986808992	1.00845336914063	1.00860595703125	4.36401367187506E-08	4.40156995296093E-08	23111888	5.70232768950518E-05
1	219	75.7546948087378	0.998382568359375	0.9979248046875	-2.9937744140625E-07	-2.98756162919744E-07	-3333333.5	5.70103984500747E-05
1	220	75.8554028084835	0.988311767578125	0.98846435546875	-5.74340820312499E-07	-5.67715403576585E-07	-1721041.5	5.69664043723606E-05
1	221	75.9561108082293	0.978240966796875	0.9783935546875	-7.611083984375E-07	-7.4466350952207E-07	-1285485.25	5.68991563341115E-05
1	222	76.056818807975	0.968170166015625	0.968017578125	-8.5601806640625E-07	-8.28640509098477E-07	-1130837.75	5.68177274544723E-05
1	223	76.1575268077207	0.958099365234375	0.9576416015625	-8.67919921875E-07	-8.31156171443581E-07	-1103375.625	5.67309216421563E-05
1	224	76.2582348074665	0.948028564453125	0.948486328125	-8.18481445312499E-07	-7.76318415773858E-07	-1158836.75	5.66460039408412E-05
1	225	76.3589428072122	0.937957763671875	0.9381103515625	-7.2784423828125E-07	-6.82798201978585E-07	-1288888.875	5.6568140280433E-05
1	226	76.4596508069579	0.927886962890625	0.92803955078125	-6.1798095703125E-07	-5.73510760659701E-07	-1501728.375	5.65003720112145E-05
1	227	76.5603588067037	0.917816162109375	0.91796875	-4.99877929687501E-07	-4.58872278841227E-07	-1836386	5.64440852031112E-05
1	228	76.6610668064494	0.907745361328125	0.90728759765625	-3.8299560546875E-07	-3.47487173257832E-07	-2368924.25	5.63996291020885E-05
1	229	76.7617748061951	0.897674560546875	0.89752197265625	-2.7191162109375E-07	-2.44046646002971E-07	-3300785.75	5.63666508242022E-05
1	230	76.8624828059409	0.887603759765625	0.88775634765625	-1.666259765625E-07	-1.47923259419258E-07	-5327839	5.63445682928432E-05
1	231	76.9631908056866	0.877532958984375	0.87738037109375	-6.83593750000003E-08	-5.99771752263223E-08	-12834821	5.63327375857625E-05
1	232	77.0638988054324	0.867462158203125	0.867919921875	1.983642578125E-08	1.72164291711852E-08	43753848	5.63302928640042E-05
1	233	77.1646068051781	0.857391357421875	0.858154296875	9.1552734375E-08	7.8566372962996E-08	9373333	5.63359026273247E-05
1	234	77.2653148049238	0.847320556640625	0.8477783203125	1.4923095703125E-07	1.26514763110208E-07	5680981.5	5.63480280106887E-05
1	235	77.3660228046696	0.837249755859375	0.83740234375	1.97448730468749E-07	1.65344033575821E-07	4241113	5.63654830330051E-05
1	236	77.4667308044153	0.827178955078125	0.82794189453125	2.37426757812501E-07	1.96575555833078E-07	3487146.75	5.6387380027445E-05
1	237	77.567438804161	0.817108154296875	0.8172607421875	2.7008056640625E-07	2.20726235511393E-07	3025988.75	5.64129368285649E-05
1	238	77.6681468039068	0.807037353515625	0.806884765625	2.947998046875E-07	2.37869471675367E-07	2737060	5.64413821848575E-05
1	239	77.7688548036525	0.796966552734375	0.797119140625	3.10668945312501E-07	2.47640144834804E-07	2565815.5	5.64718684472609E-05
1	240	77.8695628033983	0.786895751953125	0.78765869140625	3.143310546875E-07	2.47585603574407E-07	2505825.25	5.65033406019211E-05
1	241	77.970270803144	0.776824951171875	0.7769775390625	3.04260253906249E-07	2.36403380426964E-07	2553661	5.65344889764674E-05
1	242	78.0709788028897	0.766754150390625	0.7672119140625	2.73742675781249E-07	2.10018640700582E-07	2802675.75	5.65635928069241E-05
1	243	78.1716868026355	0.756683349609375	0.75714111328125	2.1697998046875E-07	1.642844580374E-07	3489451.75	5.65883019589819E-05
1	244	78.2723948023812	0.746612548828125	0.7464599609375	1.26037597656251E-07	9.40820186201563E-08	5922518.5	5.6605575082358E-05
1	245	78.3731028021269	0.736541748046875	0.7364501953125	-9.76562499999944E-09	-7.19189641174012E-09	-75412504	5.66114285902586E-05
1	246	78.4738108018727	0.726470947265625	0.72637939453125	-1.971435546875E-07	-1.43201006608251E-07	-3684520.25	5.66010094189551E-05
1	247	78.5745188016184	0.716400146484375	0.716339111328125	-4.4219970703125E-07	-3.16764953822712E-07	-1619944.75	5.65688169444911E-05
1	248	78.6752268013641	0.706329345703125	0.70623779296875	-7.427978515625E-07	-5.24591939665697E-07	-950780.625	5.65091468160972E-05
1	249	78.7759348011099	0.696258544921875	0.696136474609375	-1.08795166015625E-06	-7.57362840886344E-07	-639859.75	5.64169640711043E-05
1	250	78.8766428008556	0.686187744140625	0.686126708984375	-1.45050048828125E-06	-9.95227082967176E-07	-473027.5625	5.62891400477383E-05
1	251	78.9773508006014	0.676116943359375	0.676025390625	-1.80084228515625E-06	-1.21741504699457E-06	-375394	5.61254237254616E-05
1	252	79.0780588003471	0.666046142578125	0.666046142578125	-2.1026611328125E-06	-1.40046927299409E-06	-316763.4375	5.59288673684932E-05
1	253	79.1787668000928	0.655975341796875	0.65594482421875	-2.32757568359375E-06	-1.52676125253493E-06	-281814.59375	5.57057865080424E-05
1	254	79.2794747998386	0.645904541015625	0.6458740234375	-2.45819091796875E-06	-1.58768170877011E-06	-262743.625	5.54648031538818E-05
1	255	79.3801827995843	0.635833740234375	0.6357421875	-2.496337890625E-06	-1.58702732733218E-06	-254669.9375	5.52153214812279E-05
1	256	79.48089079933	0.625762939453125	0.625701904296875	-2.45819091796875E-06	-1.53809469338739E-06	-254537.546875	5.49658434465528E-05
1	257	79.5815987990758	0.615692138671875	0.61566162109375	-2.36785888671875E-06	-1.45779972626769E-06	-260007.75	5.47228337381966E-05
1	258	79.6823067988215	0.605621337890625	0.605621337890625	-2.247314453125E-06	-1.36102153192041E-06	-269486.71875	5.44904396519996E-05
1	259	79.7830147985673	0.595550537109375	0.59552001953125	-2.11517333984375E-06	-1.25962799302215E-06	-281546.6875	5.42707712156698E-05
1	260	79.883722798313	0.585479736328125	0.58538818359375	-1.98272705078125E-06	-1.16066496502754E-06	-295243.9375	5.40644250577316E-05
1	261	79.9844307980587	0.575408935546875	0.575408935546875	-1.85546875E-06	-1.06765321561397E-06	-310115.15625	5.38711574336048E-05
1	262	80.0851387978045	0.565338134765625	0.5653076171875	-1.7376708984375E-06	-9.82318510978075E-07	-325324.90625	5.36902261956129E-05
1	263	80.1858467975502	0.555267333984375	0.555206298828125	-1.6302490234375E-06	-9.0512452288749E-07	-340565.34375	5.35206381755415E-05
1	264	80.2865547972959	0.545196533203125	0.545135498046875	-1.53350830078125E-06	-8.35969785839552E-07	-355482.59375	5.3361331083579E-05
1	265	80.3872627970417	0.535125732421875	0.53515625	-1.4459228515625E-06	-7.73794681663276E-07	-370113.96875	5.32113044755533E-05
1	266	80.4879707967874	0.525054931640625	0.525054931640625	-1.3677978515625E-06	-7.18169019364723E-07	-383868.8125	5.30696233909111E-05
1	267	80.5886787965331	0.514984130859375	0.514923095703125	-1.297607421875E-06	-6.68168013362447E-07	-396825.03125	5.29354110767599E-05
1	268	80.6893867962789	0.504913330078125	0.5048828125	-1.23382568359375E-06	-6.22937363914389E-07	-409201.09375	5.28079399373382E-05
1	269	80.7900947960246	0.494842529296875	0.494873046875	-1.1761474609375E-06	-5.82043639951735E-07	-420757.6875	5.26865915162489E-05
1	270	80.8908027957704	0.484771728515625	0.484832763671875	-1.12396240234375E-06	-5.44933811852388E-07	-431360.3125	5.25707691849675E-05
1	271	80.9915107955161	0.474700927734375	0.474639892578125	-1.07635498046875E-06	-5.10880965975957E-07	-440969.6875	5.24599745403975E-05
1	272	81.0922187952618	0.464630126953125	0.46466064453125	-1.03271484375E-06	-4.79861967050965E-07	-449940.875	5.23537746630609E-05
1	273	81.1929267950076	0.454559326171875	0.454559326171875	-9.9334716796875E-07	-4.51535214551768E-07	-457603.6875	5.22517548233736E-05
1	274	81.2936347947533	0.444488525390625	0.444549560546875	-9.564208984375E-07	-4.25176466478661E-07	-464805.375	5.21535766893066E-05
1	275	81.394342794499	0.434417724609375	0.4344482421875	-9.228515625E-07	-4.00931241983926E-07	-470767.21875	5.20589492225554E-05
1	276	81.4950507942448	0.424346923828125	0.424346923828125	-8.92028808593751E-07	-3.78529648514814E-07	-475709.90625	5.19675595569424E-05
1	277	81.5957587939905	0.414276123046875	0.414276123046875	-8.636474609375E-07	-3.57788508154044E-07	-479682	5.18791566719301E-05
1	278	81.6964667937362	0.404205322265625	0.40423583984375	-8.3740234375E-07	-3.38508016284322E-07	-482725.96875	5.17935004609171E-05
1	279	81.797174793482	0.394134521484375	0.39410400390625	-8.1329345703125E-07	-3.20522190122574E-07	-484577.875	5.17103835591115E-05
1	280	81.8978827932277	0.384063720703125	0.384033203125	-7.89794921875001E-07	-3.03307473359382E-07	-486244.21875	5.16296604473609E-05
1	281	81.9985907929735	0.373992919921875	0.373992919921875	-7.6751708984375E-07	-2.87045935465358E-07	-487276.34375	5.15512438141741E-05
1	282	82.0992987927192	0.363922119140625	0.363922119140625	-7.47070312500001E-07	-2.71875421731238E-07	-487132.34375	5.14749772264622E-05
1	283	82.2000067924649	0.353851318359375	0.353851318359375	-7.281494140625E-07	-2.57656637359105E-07	-485959.75	5.14006933372002E-05
1	284	82.3007147922107	0.343780517578125	0.343719482421875	-7.10449218750001E-07	-2.44195234699873E-07	-483805.84375	5.13282539031934E-05
1	285	82.4014227919564	0.333709716796875	0.333709716796875	-6.93664550781251E-07	-2.31482601975586E-07	-481082.25	5.12575534230564E-05
1	286	82.5021307917021	0.323638916015625	0.32366943359375	-6.7779541015625E-07	-2.19381661281659E-07	-477532.65625	5.11884936713614E-05
1	287	82.6028387914479	0.313568115234375	0.3135986328125	-6.634521484375E-07	-2.08057670647577E-07	-472677.125	5.11209582327865E-05
1	288	82.7035467911936	0.303497314453125	0.303466796875	-6.5032958984375E-07	-1.97353429598479E-07	-466635.375	5.10548015881795E-05
1	289	82.8042547909394	0.293426513671875	0.29339599609375	-6.3812255859375E-07	-1.8722259653714E-07	-459780.03125	5.09899255121127E-05
1	290	82.9049627906851	0.283355712890625	0.2833251953125	-6.2744140625E-07	-1.77769962306229E-07	-451556.40625	5.09261990373489E-05
1	291	83.0056707904308	0.273284912109375	0.273223876953125	-6.1676025390625E-07	-1.68513622611499E-07	-442998.53125	5.08635457663331E-05
1	292	83.1063787901766	0.263214111328125	0.26318359375	-6.07910156249999E-07	-1.59991969894691E-07	-432931.75	5.08018783875741E-05
1	293	83.2070867899223	0.253143310546875	0.253082275390625	-5.999755859375E-07	-1.51843181583899E-07	-421820.96875	5.07410586578771E-05
1	294	83.307794789668	0.243072509765625	0.24310302734375	-5.938720703125E-07	-1.44372094723622E-07	-409352.53125	5.06809446960688E-05
1	295	83.4085027894138	0.233001708984375	0.233001708984375	-5.88073730468749E-07	-1.370221838215E-07	-396211.75	5.06214273627847E-05
1	296	83.5092107891595	0.222930908203125	0.222930908203125	-5.841064453125E-07	-1.30215383364884E-07	-381661.4375	5.05624047946185E-05
1	297	83.6099187889052	0.212860107421875	0.212890625	-5.8135986328125E-07	-1.23766071169484E-07	-366194.21875	5.05037169205025E-05
1	298	83.710626788651	0.202789306640625	0.202850341796875	-5.79833984375E-07	-1.17619521233792E-07	-349842.125	5.04452473251149E-05
1	299	83.8113347883967	0.192718505859375	0.19268798828125	-5.80749511718751E-07	-1.11903453614559E-07	-331791.9375	5.03868068335578E-05
1	300	83.9120427881425	0.182647705078125	0.18267822265625	-5.81970214843749E-07	-1.06313279957249E-07	-313896.1875	5.03282608406153E-05
1	301	84.0127507878882	0.172576904296875	0.172637939453125	-5.865478515625E-07	-1.01260411611293E-07	-294328.8125	5.02694201713894E-05
1	302	84.1134587876339	0.162506103515625	0.16265869140625	-5.9234619140625E-07	-9.63502557738138E-08	-274600.71875	5.0210059271194E-05
1	303	84.2141667873797	0.152435302734375	0.1524658203125	-6.00585937500001E-07	-9.15688218583455E-08	-253861.796875	5.01499889651313E-05
1	304	84.3148747871254	0.142364501953125	0.14239501953125	-6.11572265625E-07	-8.70848424483484E-08	-232834.328125	5.0088950956706E-05
1	305	84.4155827868711	0.132293701171875	0.132354736328125	-6.256103515625E-07	-8.28024866450505E-08	-211560.984375	5.00266542076133E-05
1	306	84.5162907866169	0.122222900390625	0.122222900390625	-6.451416015625E-07	-7.88510803317877E-08	-189451.28125	4.99626657983754E-05
1	307	84.6169987863626	0.112152099609375	0.11224365234375	-6.719970703125E-07	-7.54274012138012E-08	-167029.984375	4.98963454447221E-05
1	308	84.7177067861084	0.102081298828125	0.10211181640625	-7.0953369140625E-07	-7.2451769028703E-08	-143913.984375	4.98267800139729E-05
1	309	84.8184147858541	0.092010498046875	0.092041015625	-7.63854980468751E-07	-7.03059868101263E-08	-120495.40625	4.97525870741811E-05
1	310	84.9191227855998	0.081939697265625	0.08203125	-8.392333984375E-07	-6.88433630102736E-08	-97745.453125	4.96718639624305E-05
1	311	85.0198307853456	0.071868896484375	0.0718994140625	-9.429931640625E-07	-6.78006557564004E-08	-76245.953125	4.95821223012172E-05
1	312	85.1205387850913	0.061798095703125	0.06182861328125	-1.08001708984375E-06	-6.67759607608787E-08	-57247.80859375	4.94802552566398E-05
1	313	85.221246784837	0.051727294921875	0.051788330078125	-1.25274658203125E-06	-6.48776534717399E-08	-41339.83203125	4.93627921969164E-05
1	314	85.3219547845828	0.041656494140625	0.04171142578125	-1.4556884765625E-06	-6.07188397339087E-08	-28654.08984375	4.92264116473962E-05
1	315	85.4226627843285	0.031585693359375	0.0316436767578125	-1.6790771484375E-06	-5.31321724395184E-08	-18845.875	4.90685633849353E-05
1	316	85.5233707840742	0.021514892578125	0.021588134765625	-1.90216064453125E-06	-4.10641014525481E-08	-11349.2705078125	4.88882360514253E-05
1	317	85.62407878382	0.011444091796875	0.0115325927734375	-2.10174560546875E-06	-2.42385755910846E-08	-5487.1494140625	4.86866229039151E-05
1	318	85.7247867835657	0.001373291015625	0.00145874023437501	-2.2564697265625E-06	-3.29160321221877E-09	-646.470092773438	4.84671691083349E-05
1	319	85.8254947833115	-0.008697509765625	-0.0085906982421875	-2.3553466796875E-06	2.02340721955352E-08	3647.31811523438	4.82349460071418E-05
1	320	85.9262027830572	-0.018768310546875	-0.0186431884765625	-2.39776611328125E-06	4.47020092053663E-08	7775.232421875	4.79956070194021E-05
1	321	86.0269107828029	-0.028839111328125	-0.0286712646484375	-2.3919677734375E-06	6.85807393097093E-08	11986.4765625	4.77544235764071E-05
1	322	86.1276187825487	-0.038909912109375	-0.038763427734375	-2.35321044921875E-06	9.12185029733337E-08	16472.5703125	4.75154847663362E-05
1	323	86.2283267822944	-0.048980712890625	-0.0488677978515625	-2.2943115234375E-06	1.12117959361058E-07	21299.548828125	4.72814645036124E-05
1	324	86.3290347820401	-0.059051513671875	-0.05908203125	-2.227783203125E-06	1.3162195955374E-07	26520.548828125	4.70537597720977E-05
1	325	86.4297427817859	-0.069122314453125	-0.069061279296875	-2.15850830078125E-06	1.49069350641184E-07	31994.91015625	4.68328908027615E-05
1	326	86.5304507815316	-0.079193115234375	-0.079132080078125	-2.093505859375E-06	1.65663465168109E-07	37798.8359375	4.66187848360278E-05
1	327	86.6311587812773	-0.089263916015625	-0.089202880859375	-2.03369140625E-06	1.81411124344777E-07	43862.546875	4.64109652966727E-05
1	328	86.7318667810231	-0.099334716796875	-0.0992431640625	-1.98089599609375E-06	1.96590391965401E-07	50100.13671875	4.6208813728299E-05
1	329	86.8325747807688	-0.109405517578125	-0.109283447265625	-1.9342041015625E-06	2.11376473657765E-07	56500.4765625	4.60116716567427E-05
1	330	86.9332827805146	-0.119476318359375	-0.11932373046875	-1.8939208984375E-06	2.25989694513373E-07	63003.546875	4.58189133496489E-05
1	331	87.0339907802603	-0.129547119140625	-0.129425048828125	-1.85943603515625E-06	2.40657584527071E-07	69604.46875	4.56299167126417E-05
1	332	87.134698780006	-0.139617919921875	-0.13958740234375	-1.83074951171875E-06	2.55549565508773E-07	76246.0390625	4.54440996691119E-05
1	333	87.2354067797518	-0.149688720703125	-0.14959716796875	-1.80755615234375E-06	2.70405280389241E-07	82762.1171875	4.52608946943656E-05
1	334	87.3361147794975	-0.159759521484375	-0.15960693359375	-1.78863525390625E-06	2.85478591877109E-07	89233.921875	4.50798142992426E-05
1	335	87.4368227792432	-0.169830322265625	-0.169708251953125	-1.77459716796875E-06	3.01163765925594E-07	95631.9921875	4.49003891844768E-05
1	336	87.537530778989	-0.179901123046875	-0.179718017578125	-1.76513671875E-06	3.17226863444375E-07	101815.359375	4.47221500508022E-05
1	337	87.6382387787347	-0.189971923828125	-0.1898193359375	-1.75994873046875E-06	3.34072296936938E-07	107855.0390625	4.45446494268253E-05
1	338	87.7389467784805	-0.200042724609375	-0.199920654296875	-1.75933837890625E-06	3.5172809020878E-07	113634	4.43674398411531E-05
1	339	87.8396547782262	-0.189971923828125	-0.18988037109375	-1.5679931640625E-06	2.97731105547427E-07	121097.7109375	4.41998927271925E-05
2	340	87.9403627779719	-0.179901123046875	-0.179840087890625	-1.43096923828125E-06	2.57345618592808E-07	125677.125	4.40488838648889E-05
2	341	88.0410707777177	-0.169830322265625	-0.169677734375	-1.319580078125E-06	2.2390335630007E-07	128584.6484375	4.39103823737241E-05
2	342	88.1417787774634	-0.159759521484375	-0.15966796875	-1.2237548828125E-06	1.95394463275989E-07	130473.8125	4.37823146057781E-05
2	343	88.2424867772091	-0.149688720703125	-0.149566650390625	-1.1407470703125E-06	1.70617710182341E-07	131112.90625	4.36632544733584E-05
2	344	88.3431947769549	-0.139617919921875	-0.1395263671875	-1.06597900390625E-06	1.48732169691357E-07	130890.359375	4.35521360486746E-05
2	345	88.4439027767006	-0.129547119140625	-0.129425048828125	-9.9853515625E-07	1.29235459667143E-07	129614.9140625	4.34481808042619E-05
2	346	88.5446107764463	-0.119476318359375	-0.119354248046875	-9.356689453125E-07	1.11676065728261E-07	127560.34375	4.33507848356385E-05
2	347	88.6453187761921	-0.109405517578125	-0.1092529296875	-8.76464843749999E-07	9.57563486281288E-08	124651.8125	4.3259537051199E-05
2	348	88.7460267759378	-0.099334716796875	-0.099273681640625	-8.19091796875E-07	8.1314254885001E-08	121199.703125	4.31741573265754E-05
2	349	88.8467347756836	-0.089263916015625	-0.089141845703125	-7.60803222656251E-07	6.78193998737697E-08	117168.078125	4.30946056440007E-05
2	350	88.9474427754293	-0.079193115234375	-0.079193115234375	-7.000732421875E-07	5.54409780306742E-08	113121.1953125	4.30210457125213E-05
2	351	89.048150775175	-0.069122314453125	-0.06903076171875	-6.32324218749999E-07	4.36498197586843E-08	109169.890625	4.29539541073609E-05
2	352	89.1488587749208	-0.059051513671875	-0.05902099609375	-5.55419921875E-07	3.27814362321988E-08	106263.7421875	4.28941457357723E-05
2	353	89.2495667746665	-0.048980712890625	-0.0488250732421875	-4.638671875E-07	2.26483489740303E-08	105256.5859375	4.28428211307619E-05
2	354	89.3502747744122	-0.038909912109375	-0.03878173828125	-3.497314453125E-07	1.35631932351998E-08	110890.0625	4.28018502134364E-05
2	355	89.450982774158	-0.028839111328125	-0.0287109375	-2.08740234375E-07	5.99312777183059E-09	137543.859375	4.27737286372576E-05
2	356	89.5516907739037	-0.018768310546875	-0.018646240234375	-3.60107421875006E-08	6.7146493920589E-10	517796.59375	4.2761406803038E-05
2	357	89.6523987736495	-0.008697509765625	-0.0086029052734375	1.7242431640625E-07	-1.48334999838795E-09	-49893.80859375	4.27682753070258E-05
2	358	89.7531067733952	0.001373291015625	0.00144042968749999	4.09851074218751E-07	5.90361648455939E-10	3514.52001953125	4.27975937782321E-05
2	359	89.8538147731409	0.011444091796875	0.0115142822265625	6.6497802734375E-07	7.65674457170462E-09	17315.28125	4.28517159889452E-05
2	360	89.9545227728867	0.021514892578125	0.0216156005859375	9.161376953125E-07	1.98028651254845E-08	23594.271484375	4.29313331551384E-05
2	361	90.0552307726324	0.031585693359375	0.0316650390625	1.14013671875E-06	3.61024703465773E-08	27773.01953125	4.30348736699671E-05
2	362	90.1559387723781	0.041656494140625	0.04171142578125	1.31805419921875E-06	5.4977920882493E-08	31646.216796875	4.31586522608995E-05
2	363	90.2566467721239	0.051727294921875	0.0517578125	1.43646240234375E-06	7.43481507470278E-08	36031.44140625	4.32973538408987E-05
2	364	90.3573547718696	0.061798095703125	0.061737060546875	1.49566650390625E-06	9.2338048318652E-08	41277.29296875	4.34449975728057E-05
2	365	90.4580627716153	0.071868896484375	0.071868896484375	1.50604248046875E-06	1.08237607321371E-07	47720.3671875	4.35961483162828E-05
2	366	90.5587707713611	0.081939697265625	0.08203125	1.480712890625E-06	1.2146472272434E-07	55399.8359375	4.3746542360168E-05
2	367	90.6594787711068	0.092010498046875	0.092010498046875	1.4349365234375E-06	1.32029228439023E-07	64121.65234375	4.38933566329069E-05
2	368	90.7601867708526	0.102081298828125	0.1021728515625	1.37786865234375E-06	1.4078077015256E-07	74152.8203125	4.40349940618034E-05
2	369	90.8608947705983	0.112152099609375	0.1121826171875	1.318359375E-06	1.47896997759744E-07	85092.6015625	4.41707597929053E-05
2	370	90.961602770344	0.122222900390625	0.122283935546875	1.2603759765625E-06	1.5412372533774E-07	97021.796875	4.4300606532488E-05
2	371	91.0623107700898	0.132293701171875	0.132293701171875	1.2066650390625E-06	1.59634183205526E-07	109635.8125	4.44248325948138E-05
2	372	91.1630187698355	0.142364501953125	0.142425537109375	1.1578369140625E-06	1.64905543442728E-07	123010.015625	4.45438963652123E-05
2	373	91.2637267695812	0.152435302734375	0.1524658203125	1.114501953125E-06	1.69923453086085E-07	136801.75	4.46583180746529E-05
2	374	91.364434769327	0.162506103515625	0.1624755859375	1.07635498046875E-06	1.74881392922543E-07	150949.828125	4.47686361439992E-05
2	375	91.4651427690727	0.172576904296875	0.172607421875	1.0430908203125E-06	1.80045219622116E-07	165476.890625	4.4875359890284E-05
2	376	91.5658507688184	0.182647705078125	0.182708740234375	1.01318359375E-06	1.85117499995613E-07	180331.328125	4.49789004051127E-05
2	377	91.6665587685642	0.192718505859375	0.192718505859375	9.87548828125E-07	1.90318928616762E-07	195148.34375	4.50796433142386E-05
2	378	91.7672667683099	0.202789306640625	0.20281982421875	9.65576171875E-07	1.95837998262505E-07	210050.5625	4.51779924333096E-05
2	379	91.8679747680557	0.212860107421875	0.21282958984375	9.4573974609375E-07	2.01281395106889E-07	225040.34375	4.52742351626512E-05
2	380	91.9686827678014	0.222930908203125	0.22296142578125	9.2803955078125E-07	2.06917022183006E-07	240249.921875	4.53685861430131E-05
2	381	92.0693907675471	0.233001708984375	0.233001708984375	9.1278076171875E-07	2.12679481137457E-07	255265.796875	4.5461278205039E-05
2	382	92.1700987672929	0.243072509765625	0.243011474609375	8.99353027343749E-07	2.18553097397489E-07	270207	4.55525296274573E-05
2	383	92.2708067670386	0.253143310546875	0.253173828125	8.868408203125E-07	2.24524882241894E-07	285478.34375	4.5642471377505E-05
2	384	92.3715147667843	0.263214111328125	0.26318359375	8.76770019531251E-07	2.30751481922198E-07	300174.03125	4.57312744401861E-05
2	385	92.4722227665301	0.273284912109375	0.273284912109375	8.67614746093751E-07	2.37106021927502E-07	314984.1875	4.58191098005045E-05
2	386	92.5729307662758	0.283355712890625	0.2833251953125	8.5906982421875E-07	2.43396129917528E-07	329804.625	4.5906057493994E-05
2	387	92.6736387660216	0.293426513671875	0.29345703125	8.5174560546875E-07	2.49950744546368E-07	344536	4.59922048321459E-05
2	388	92.7743467657673	0.303497314453125	0.303436279296875	8.4503173828125E-07	2.56413272836653E-07	359082.71875	4.60776427644305E-05
2	389	92.875054765513	0.313568115234375	0.313568115234375	8.404541015625E-07	2.63539618572395E-07	373093.6875	4.61625131720211E-05
2	390	92.9757627652588	0.323638916015625	0.323638916015625	8.3526611328125E-07	2.70324591156168E-07	387468.0625	4.62468924524728E-05
2	391	93.0764707650045	0.333709716796875	0.333740234375	8.31298828125E-07	2.77437862905572E-07	401468.4375	4.6330809709616E-05
2	392	93.1771787647502	0.343780517578125	0.34381103515625	8.27941894531251E-07	2.84655556015423E-07	415259.875	4.64143595308997E-05
2	393	93.277886764496	0.353851318359375	0.353851318359375	8.258056640625E-07	2.92212433805616E-07	428492.25	4.6497632865794E-05
2	394	93.3785947642417	0.363922119140625	0.36395263671875	8.2366943359375E-07	2.99776672818552E-07	441867.34375	4.65806915599387E-05
2	395	93.4793027639874	0.373992919921875	0.373992919921875	8.2275390625E-07	3.077041128563E-07	454562.34375	4.66635938209947E-05
2	396	93.5800107637332	0.384063720703125	0.384063720703125	8.2275390625E-07	3.15989922228255E-07	466802.6875	4.6746452426305E-05
2	397	93.6807187634789	0.394134521484375	0.394134521484375	8.23059082031249E-07	3.2439598385281E-07	478865.4375	4.68293255835306E-05
2	398	93.7814267632247	0.404205322265625	0.404205322265625	8.23974609375E-07	3.33054913426167E-07	490555.5625	4.69122605863959E-05
2	399	93.8821347629704	0.414276123046875	0.414215087890625	8.251953125E-07	3.41808345183381E-07	501960.0625	4.69953047286253E-05
2	400	93.9828427627161	0.424346923828125	0.424285888671875	8.2672119140625E-07	3.50766129031399E-07	513215.21875	4.70784834760707E-05
2	401	94.0835507624619	0.434417724609375	0.434326171875	8.2855224609375E-07	3.59861928700411E-07	524198.90625	4.716183320852E-05
2	402	94.1842587622076	0.444488525390625	0.444488525390625	8.30078125E-07	3.68960172636434E-07	535478	4.72453539259732E-05
2	403	94.2849667619533	0.454559326171875	0.454559326171875	8.32214355468749E-07	3.78290764047051E-07	546204.625	4.73290565423667E-05
2	404	94.3856747616991	0.464630126953125	0.464599609375	8.349609375E-07	3.87922511890793E-07	556432.75	4.74130029033404E-05
2	405	94.4863827614448	0.474700927734375	0.47467041015625	8.3770751953125E-07	3.97634948967607E-07	566630.25	4.74972293886822E-05
2	406	94.5870907611906	0.484771728515625	0.48480224609375	8.41064453125E-07	4.07749922715084E-07	576415.125	4.75817614642438E-05
2	407	94.6877987609363	0.494842529296875	0.494873046875	8.45947265625E-07	4.18636489030177E-07	584992.8125	4.76667119073682E-05
2	408	94.788506760682	0.504913330078125	0.50482177734375	8.5113525390625E-07	4.29671587198754E-07	593115.8125	4.77521643915679E-05
2	409	94.8892147604278	0.514984130859375	0.5150146484375	8.58459472656251E-07	4.42119187482604E-07	599928.9375	4.78382498840801E-05
2	410	94.9899227601735	0.525054931640625	0.524993896484375	8.65783691406249E-07	4.54531118521118E-07	606380	4.79250738862902E-05
2	411	95.0906307599192	0.535125732421875	0.535125732421875	8.7615966796875E-07	4.68855546387204E-07	610762.8125	4.80127855553292E-05
2	412	95.191338759665	0.545196533203125	0.545166015625	8.892822265625E-07	4.84806434997154E-07	613040.5	4.81016832054593E-05
2	413	95.2920467594107	0.555267333984375	0.555267333984375	9.0667724609375E-07	5.03448234212556E-07	612420.0625	4.8192116082646E-05
2	414	95.3927547591564	0.565338134765625	0.565216064453125	9.30175781250001E-07	5.25750294855243E-07	607644.375	4.82846116938163E-05
2	415	95.4934627589022	0.575408935546875	0.575408935546875	9.6282958984375E-07	5.54020687104639E-07	597622.875	4.83799303765409E-05
2	416	95.5941707586479	0.585479736328125	0.585479736328125	1.00738525390625E-06	5.89803619277518E-07	581187.5625	4.84791380586103E-05
2	417	95.6948787583937	0.595550537109375	0.595550537109375	1.07208251953125E-06	6.38479264125635E-07	555508.125	4.85838500026148E-05
2	418	95.7955867581394	0.605621337890625	0.605560302734375	1.16302490234375E-06	7.04281717389676E-07	520677	4.8696394514991E-05
2	419	95.8962947578851	0.615692138671875	0.615631103515625	1.2896728515625E-06	7.93962669831672E-07	477354.5	4.88198966195341E-05
2	420	95.9970027576309	0.625762939453125	0.625701904296875	1.4605712890625E-06	9.13882217901119E-07	428395.3125	4.89583835587837E-05
2	421	96.0977107573766	0.635833740234375	0.635711669921875	1.68426513671875E-06	1.07070695776201E-06	377441.59375	4.91167375002988E-05
2	422	96.1984187571223	0.645904541015625	0.645843505859375	1.9635009765625E-06	1.26811426071072E-06	328924.5	4.93004190502688E-05
2	423	96.2991267568681	0.655975341796875	0.6558837890625	2.29644775390625E-06	1.50620280692237E-06	285607.96875	4.95149251946714E-05
2	424	96.3998347566138	0.666046142578125	0.665985107421875	2.6690673828125E-06	1.77755907770916E-06	249519.796875	4.97649562021252E-05
2	425	96.5005427563596	0.676116943359375	0.67608642578125	3.05450439453125E-06	2.06510890166101E-06	221340.796875	5.00531641591806E-05
2	426	96.6012507561053	0.686187744140625	0.686065673828125	3.4222412109375E-06	2.34788217312598E-06	200472.625	5.03792907693423E-05
2	427	96.701958755851	0.696258544921875	0.696197509765625	3.736572265625E-06	2.60139222518774E-06	186319.84375	5.07397671754006E-05
2	428	96.8026667555968	0.706329345703125	0.706207275390625	3.97064208984375E-06	2.80409631159273E-06	177857.203125	5.11278558406048E-05
2	429	96.9033747553425	0.716400146484375	0.716278076171875	4.1064453125E-06	2.94135679723695E-06	174427.765625	5.15345709573012E-05
2	430	97.0040827550882	0.726470947265625	0.726348876953125	4.149169921875E-06	3.01374484479311E-06	175058.84375	5.19502718816511E-05
2	431	97.104790754834	0.736541748046875	0.7364501953125	4.11590576171875E-06	3.03115939459531E-06	178927.859375	5.23664530192036E-05
2	432	97.2054987545797	0.746612548828125	0.74652099609375	4.03045654296875E-06	3.00882015835668E-06	185219.96875	5.27766533195972E-05
2	433	97.3062067543254	0.756683349609375	0.75714111328125	3.9154052734375E-06	2.96451412395982E-06	193374.90625	5.317676186678E-05
2	434	97.4069147540712	0.766754150390625	0.76690673828125	3.78936767578125E-06	2.90609159492305E-06	202383.828125	5.35647268407047E-05
2	435	97.5076227538169	0.776824951171875	0.77667236328125	3.66363525390625E-06	2.84544421447208E-06	211995	5.39400170964655E-05
2	436	97.6083307535627	0.786895751953125	0.78704833984375	3.54522705078125E-06	2.79026494354184E-06	222002.25	5.43030109838583E-05
2	437	97.7090387533084	0.796966552734375	0.79681396484375	3.4368896484375E-06	2.7385615339881E-06	231841.59375	5.46545888937544E-05
2	438	97.8097467530541	0.807037353515625	0.806884765625	3.3404541015625E-06	2.69536144514859E-06	241549.4375	5.49958531337325E-05
2	439	97.9104547527999	0.817108154296875	0.8172607421875	3.25592041015625E-06	2.66093593381811E-06	251007.59375	5.53280078747775E-05
2	440	98.0111627525456	0.827178955078125	0.8270263671875	3.1817626953125E-06	2.63140168499376E-06	259927.109375	5.56521699763834E-05
2	441	98.1118707522913	0.837249755859375	0.83709716796875	3.1170654296875E-06	2.60928641182545E-06	268552.96875	5.59693435207009E-05
2	442	98.2125787520371	0.847320556640625	0.84747314453125	3.0621337890625E-06	2.5950760118576E-06	276759.03125	5.62804889341351E-05
2	443	98.3132867517828	0.857391357421875	0.8575439453125	3.01513671875E-06	2.58561203736463E-06	284412.96875	5.65865047974512E-05
2	444	98.4139947515285	0.867462158203125	0.8673095703125	2.97576904296875E-06	2.58091290561424E-06	291457.3125	5.68881696381141E-05
2	445	98.5147027512743	0.877532958984375	0.87738037109375	2.9443359375E-06	2.58330237556947E-06	297989.21875	5.71862728975248E-05
2	446	98.61541075102	0.887603759765625	0.887451171875	2.92144775390625E-06	2.59264220403566E-06	303771.03125	5.74816367588937E-05
2	447	98.7161187507658	0.897674560546875	0.8978271484375	2.908935546875E-06	2.61172135651577E-06	308644.5625	5.7775221648626E-05
2	448	98.8168267505115	0.907745361328125	0.9075927734375	2.9107666015625E-06	2.64179084297211E-06	311805.40625	5.80682644795161E-05
2	449	98.9175347502572	0.917816162109375	0.91796875	2.92999267578125E-06	2.68964163296914E-06	313300.6875	5.83623696002178E-05
2	450	99.018242750003	0.927886962890625	0.9283447265625	2.97271728515625E-06	2.75970637630962E-06	312288.25	5.8659596106736E-05
2	451	99.1189507497487	0.937957763671875	0.9381103515625	3.046875E-06	2.8583049243025E-06	307892.625	5.89627052249853E-05
2	452	99.2196587494944	0.948028564453125	0.9478759765625	3.16009521484375E-06	2.99537828141183E-06	299951.71875	5.92752512602601E-05
2	453	99.3203667492402	0.958099365234375	0.95794677734375	3.3209228515625E-06	3.18126740239677E-06	288458	5.96015961491503E-05
2	454	99.4210747489859	0.968170166015625	0.968017578125	3.5357666015625E-06	3.42268413078273E-06	273778.6875	5.99468585278373E-05
2	455	99.5217827487317	0.978240966796875	0.97808837890625	3.80645751953125E-06	3.72305180462718E-06	256955.03125	6.0316568124108E-05
2	456	99.6224907484774	0.988311767578125	0.9881591796875	4.12322998046875E-06	4.07440711569507E-06	239656.59375	6.0715861764038E-05
2	457	99.7231987482231	0.998382568359375	0.99853515625	4.46990966796875E-06	4.46336161985528E-06	223390.46875	6.11485593253747E-05
2	458	99.8239067479689	1.00845336914063	1.00799560546875	4.818115234375E-06	4.85663895233301E-06	209209.53125	6.16162506048568E-05
2	459	99.9246147477146	1.01852416992188	1.0186767578125	5.13916015625E-06	5.2351429076225E-06	198218.546875	6.21176368440501E-05
2	460	100.02532274746	1.02859497070313	1.02813720703125	5.3985595703125E-06	5.55045971850632E-06	190446.578125	6.26482578809373E-05
2	461	100.126030747206	1.03866577148438	1.038818359375	5.572509765625E-06	5.78882509216783E-06	186418.40625	6.32006922387518E-05
2	462	100.226738746952	1.04873657226563	1.04827880859375	5.657958984375E-06	5.93111826674431E-06	185275.09375	6.37661942164414E-05
2	463	100.327446746698	1.05880737304688	1.058349609375	5.657958984375E-06	5.98809856455773E-06	187055.015625	6.43359890091233E-05
2	464	100.428154746443	1.06887817382813	1.0693359375	5.5938720703125E-06	5.98172800891916E-06	191162.046875	6.49025678285398E-05
2	465	100.528862746189	1.07894897460938	1.07879638671875	5.487060546875E-06	5.91942080063745E-06	196607.359375	6.54605391900986E-05
2	466	100.629570745935	1.08901977539063	1.08917236328125	5.35888671875E-06	5.83675091547775E-06	203246.015625	6.60066725686193E-05
2	467	100.73027874568	1.09909057617188	1.0992431640625	5.2276611328125E-06	5.74647037865361E-06	210274.375	6.65397456032224E-05
2	468	100.830986745426	1.10916137695313	1.10931396484375	5.0933837890625E-06	5.65016171094612E-06	217795.09375	6.70594527036883E-05
2	469	100.931694745172	1.11923217773438	1.11907958984375	4.9713134765625E-06	5.56329541723244E-06	225107.421875	6.75662522553466E-05
2	470	101.032402744918	1.12930297851563	1.129150390625	4.85443115234375E-06	5.48138268641196E-06	232602	6.80610173731111E-05
2	471	101.133110744663	1.13937377929688	1.13922119140625	4.75006103515625E-06	5.41136978426948E-06	239832.96875	6.85446429997683E-05
2	472	101.233818744409	1.14944458007813	1.14959716796875	4.656982421875E-06	5.35365325049497E-06	246854.53125	6.90183223923668E-05
2	473	101.334526744155	1.15951538085938	1.15936279296875	4.57275390625E-06	5.30148054167512E-06	253537.109375	6.94830814609304E-05
2	474	101.435234743901	1.16958618164063	1.16973876953125	4.4964599609375E-06	5.25968334841309E-06	260146.59375	6.9939749664627E-05
2	475	101.535942743646	1.17965698242188	1.17950439453125	4.4281005859375E-06	5.22296386407106E-06	266368.03125	7.03891346347518E-05
2	476	101.636650743392	1.18972778320313	1.1895751953125	4.366455078125E-06	5.19422655997914E-06	272435	7.08319785189815E-05
2	477	101.737358743138	1.19979858398438	1.199951171875	4.3109130859375E-06	5.17288526680204E-06	278351.96875	7.12689143256284E-05
2	478	101.838066742884	1.20986938476563	1.21002197265625	4.261474609375E-06	5.15647798238206E-06	283944.40625	7.17005750630051E-05
2	479	101.938774742629	1.21994018554688	1.2200927734375	4.2156982421875E-06	5.14354269398609E-06	289416.5625	7.21274336683564E-05
2	480	102.039482742375	1.23001098632813	1.23016357421875	4.17449951171875E-06	5.13531676915591E-06	294685.3125	7.25499121472239E-05
2	481	102.140190742121	1.24008178710938	1.240234375	4.13726806640625E-06	5.1311817514943E-06	299771.34375	7.2968439781107E-05
2	482	102.240898741867	1.25015258789063	1.25030517578125	4.10308837890625E-06	5.13011264047236E-06	304722.9375	7.33833803678863E-05
2	483	102.341606741612	1.26022338867188	1.259765625	4.071044921875E-06	5.12856240675319E-06	309445.28125	7.3794974014163E-05
2	484	102.442314741358	1.27029418945313	1.2701416015625	4.041748046875E-06	5.13359236720135E-06	314255.5	7.4203489930369E-05
2	485	102.543022741104	1.28036499023438	1.28021240234375	4.01458740234375E-06	5.13952454639366E-06	318890.15625	7.46091609471478E-05
2	486	102.643730740849	1.29043579101563	1.29058837890625	3.990478515625E-06	5.15006513523986E-06	323416.9375	7.50122417230159E-05
2	487	102.744438740595	1.30050659179688	1.3006591796875	3.9678955078125E-06	5.16087948199129E-06	327795.75	7.54129796405323E-05
2	488	102.845146740341	1.31057739257813	1.31072998046875	3.94805908203125E-06	5.17483977091615E-06	331993.5	7.58115784265101E-05
2	489	102.945854740087	1.32064819335938	1.32080078125	3.9300537109375E-06	5.1908177738369E-06	336077.0625	7.62082781875506E-05
2	490	103.046562739832	1.33071899414063	1.3311767578125	3.914794921875E-06	5.21128413311089E-06	340037.40625	7.66032972023822E-05
2	491	103.147270739578	1.34078979492188	1.34033203125	3.90167236328125E-06	5.22953632753342E-06	343527.59375	7.69968828535639E-05
2	492	103.247978739324	1.35086059570313	1.3507080078125	3.8909912109375E-06	5.25559289599187E-06	347137.25	7.73892752476968E-05
2	493	103.34868673907	1.36093139648438	1.3604736328125	3.88336181640625E-06	5.28321152160061E-06	350334	7.77807435952127E-05
2	494	103.449394738815	1.37100219726563	1.37054443359375	3.87908935546875E-06	5.31646401213948E-06	353316.0625	7.81716153142042E-05
2	495	103.550102738561	1.38107299804688	1.3812255859375	3.8763427734375E-06	5.3541039051197E-06	356321.84375	7.85621305112727E-05
2	496	103.650810738307	1.39114379882813	1.3909912109375	3.8775634765625E-06	5.39365646545775E-06	358728.15625	7.8952572948765E-05
2	497	103.751518738053	1.40121459960938	1.4007568359375	3.88153076171875E-06	5.4370802899939E-06	360877.4375	7.93432773207314E-05
2	498	103.852226737798	1.41128540039063	1.4111328125	3.88885498046875E-06	5.48769048691611E-06	362865.90625	7.97345492173918E-05
2	499	103.952934737544	1.42135620117188	1.42120361328125	3.89923095703125E-06	5.5416007853637E-06	364483.09375	8.0126708780881E-05
2	500	104.05364273729	1.43142700195313	1.43157958984375	3.91326904296875E-06	5.60215585210244E-06	365827.0625	8.05200979812071E-05
2	501	104.154350737036	1.44149780273438	1.44134521484375	3.9312744140625E-06	5.66632343179663E-06	366635.625	8.09151024441235E-05
2	502	104.255058736781	1.45156860351563	1.451416015625	3.95416259765625E-06	5.73913439438911E-06	367060.3125	8.13121660030447E-05
2	503	104.355766736527	1.46163940429688	1.4617919921875	3.9825439453125E-06	5.82165102969157E-06	367049.8125	8.17118125269189E-05
2	504	104.456474736273	1.47171020507813	1.4715576171875	4.01763916015625E-06	5.91218758927425E-06	366274.21875	8.21146531961858E-05
2	505	104.557182736018	1.48178100585938	1.48193359375	4.06097412109375E-06	6.0180936998222E-06	364920.75	8.25214447104372E-05
2	506	104.657890735764	1.49185180664063	1.49169921875	4.1131591796875E-06	6.13559586781776E-06	362665.125	8.2933038356714E-05
2	507	104.75859873551	1.50192260742188	1.50146484375	4.1748046875E-06	6.26832206762629E-06	359649.15625	8.33503727335483E-05
2	508	104.859306735256	1.49185180664063	1.4910888671875	3.94805908203125E-06	5.88690727454377E-06	377676.40625	8.37593906908296E-05
2	509	104.960014735001	1.48178100585938	1.4813232421875	3.78204345703125E-06	5.60242870051297E-06	391672.71875	8.41486325953156E-05
2	510	105.060722734747	1.47171020507813	1.4715576171875	3.64959716796875E-06	5.37059258931549E-06	403210.96875	8.45228496473283E-05
2	511	105.161430734493	1.46163940429688	1.4617919921875	3.53973388671875E-06	5.17435455549276E-06	412966.65625	8.48848576424643E-05
2	512	105.262138734239	1.45156860351563	1.45172119140625	3.44696044921875E-06	5.00402529723942E-06	421159.8125	8.52366647450253E-05
2	513	105.362846733984	1.44149780273438	1.44134521484375	3.36761474609375E-06	4.85389546156512E-06	428001.8125	8.55798061820678E-05
2	514	105.46355473373	1.43142700195313	1.4312744140625	3.2977294921875E-06	4.71995554107707E-06	434018.15625	8.59154315548949E-05
2	515	105.564262733476	1.42135620117188	1.4208984375	3.23760986328125E-06	4.6003146962903E-06	438872.6875	8.62445158418268E-05
2	516	105.664970733222	1.41128540039063	1.41082763671875	3.1829833984375E-06	4.49064100394025E-06	443240.65625	8.65678157424554E-05
2	517	105.765678732967	1.40121459960938	1.40106201171875	3.13507080078125E-06	4.39242876382195E-06	446899.65625	8.68859569891356E-05
2	518	105.866386732713	1.39114379882813	1.3909912109375	3.09173583984375E-06	4.30057752964785E-06	449906.21875	8.71994998306036E-05
2	519	105.967094732459	1.38107299804688	1.38031005859375	3.05206298828125E-06	4.21279310103273E-06	452254.78125	8.75088662724011E-05
2	520	106.067802732205	1.37100219726563	1.37054443359375	3.01666259765625E-06	4.13447014580015E-06	454324.75	8.78144492162392E-05
2	521	106.16851073195	1.36093139648438	1.361083984375	2.98370361328125E-06	4.06107119488297E-06	456172.65625	8.81165906321257E-05
2	522	106.269218731696	1.35086059570313	1.351318359375	2.95318603515625E-06	3.99069449485978E-06	457579.84375	8.84155379026197E-05
2	523	106.369926731442	1.34078979492188	1.34063720703125	2.9248046875E-06	3.92110177926952E-06	458368.125	8.87115165824071E-05
2	524	106.470634731187	1.33071899414063	1.33087158203125	2.8985595703125E-06	3.8576104088861E-06	459149.3125	8.90047522261739E-05
2	525	106.571342730933	1.32064819335938	1.32049560546875	2.87384033203125E-06	3.79489347324125E-06	459488.1875	8.92954121809453E-05
2	526	106.672050730679	1.31057739257813	1.31072998046875	2.85003662109375E-06	3.73562829736329E-06	459899.375	8.95836346899159E-05
2	527	106.772758730425	1.30050659179688	1.3006591796875	2.8277587890625E-06	3.67795018973993E-06	459961.1875	8.98695361684076E-05
2	528	106.87346673017	1.29043579101563	1.29058837890625	2.8057861328125E-06	3.62111495633144E-06	459973.90625	9.01532039279118E-05
2	529	106.974174729916	1.28036499023438	1.2799072265625	2.78533935546875E-06	3.56497594111715E-06	459515.71875	9.0434739831835E-05
2	530	107.074882729662	1.27029418945313	1.2701416015625	2.76519775390625E-06	3.51219250660506E-06	459331.21875	9.07142311916687E-05
2	531	107.175590729408	1.26022338867188	1.259765625	2.74566650390625E-06	3.45889634445484E-06	458819.59375	9.0991728939116E-05
2	532	107.276298729153	1.25015258789063	1.25030517578125	2.72735595703125E-06	3.4100271477655E-06	458431.25	9.12673131097108E-05
2	533	107.377006728899	1.24008178710938	1.240234375	2.708740234375E-06	3.35947265739378E-06	457863.9375	9.1541041911114E-05
2	534	107.477714728645	1.23001098632813	1.229248046875	2.69134521484375E-06	3.30833063344471E-06	456741.15625	9.18129589990713E-05
2	535	107.578422728391	1.21994018554688	1.21978759765625	2.6739501953125E-06	3.26165127262357E-06	456174.40625	9.20831225812435E-05
2	536	107.679130728136	1.20986938476563	1.209716796875	2.6568603515625E-06	3.21404854730645E-06	455318.1875	9.2351547209546E-05
2	537	107.779838727882	1.19979858398438	1.19964599609375	2.63946533203125E-06	3.16642399411649E-06	454503.4375	9.26182401599362E-05
2	538	107.880546727628	1.18972778320313	1.18988037109375	2.6220703125E-06	3.11994995172427E-06	453794.25	9.28831796045415E-05
2	539	107.981254727374	1.17965698242188	1.17950439453125	2.60406494140625E-06	3.07150594380801E-06	452947.40625	9.31463364395313E-05
2	540	108.081962727119	1.16958618164063	1.16973876953125	2.58544921875E-06	3.02430021292821E-06	452431.53125	9.34076524572447E-05
2	541	108.182670726865	1.15951538085938	1.15966796875	2.564697265625E-06	2.97419728667592E-06	452165.625	9.36669821385294E-05
2	542	108.283378726611	1.14944458007813	1.1492919921875	2.54180908203125E-06	2.92128061119001E-06	452155.15625	9.39241144806147E-05
2	543	108.384086726356	1.13937377929688	1.13922119140625	2.51556396484375E-06	2.86578369923518E-06	452869.125	9.41787729971111E-05
2	544	108.484794726102	1.12930297851563	1.12945556640625	2.4835205078125E-06	2.80502581517794E-06	454780.0625	9.4430499302689E-05
2	545	108.585502725848	1.11923217773438	1.1187744140625	2.44384765625E-06	2.73411410489643E-06	457792.25	9.46786094573326E-05
2	546	108.686210725594	1.10916137695313	1.10870361328125	2.39349365234375E-06	2.65367498286651E-06	463215.625	9.49221866903827E-05
2	547	108.786918725339	1.09909057617188	1.09832763671875	2.32666015625E-06	2.5554350031598E-06	472061.9375	9.51598703977652E-05
2	548	108.887626725085	1.08901977539063	1.08856201171875	2.2381591796875E-06	2.43637509811379E-06	486364.875	9.53897251747549E-05
2	549	108.988334724831	1.07894897460938	1.07940673828125	2.1197509765625E-06	2.28807334679004E-06	509213.96875	9.5609160780441E-05
2	550	109.089042724577	1.06887817382813	1.0687255859375	1.96075439453125E-06	2.09550830732042E-06	545058.375	9.58146338234656E-05
2	551	109.189750724322	1.05880737304688	1.05865478515625	1.7535400390625E-06	1.85639351002465E-06	603724.3125	9.60016623139381E-05
2	552	109.290458724068	1.04873657226563	1.04888916015625	1.49139404296875E-06	1.56430701281352E-06	703294.5	9.61650584940799E-05
2	553	109.391166723814	1.03866577148438	1.0382080078125	1.175537109375E-06	1.22045207717747E-06	883177.5625	9.62993508437648E-05
2	554	109.49187472356	1.02859497070313	1.02874755859375	8.1329345703125E-07	8.36673621051887E-07	1264915.625	9.63994971243665E-05
2	555	109.592582723305	1.01852416992188	1.0186767578125	4.26330566406249E-07	4.34293042417266E-07	2389406	9.64619175647385E-05
2	556	109.693290723051	1.00845336914063	1.00799560546875	4.33349609374994E-08	4.36814495685667E-08	23260564	9.64855644269846E-05
2	557	109.793998722797	0.998382568359375	0.99853515625	-2.99987792968751E-07	-2.99548361226698E-07	-3328586	9.64726423262618E-05
2	558	109.894706722543	0.988311767578125	0.9881591796875	-5.767822265625E-07	-5.69952646856109E-07	-1713227.5	9.6428491815459E-05
2	559	109.995414722288	0.978240966796875	0.97869873046875	-7.6507568359375E-07	-7.4877857514366E-07	-1279218.25	9.63609199970961E-05
2	560	110.096122722034	0.968170166015625	0.96832275390625	-8.612060546875E-07	-8.33925412280223E-07	-1124379.875	9.6279036370106E-05
2	561	110.19683072178	0.958099365234375	0.958251953125	-8.7432861328125E-07	-8.3782708770741E-07	-1095986.125	9.61916448432021E-05
2	562	110.297538721525	0.948028564453125	0.94818115234375	-8.2672119140625E-07	-7.83881432653288E-07	-1146917.625	9.61059849942103E-05
2	563	110.398246721271	0.937957763671875	0.93780517578125	-7.3822021484375E-07	-6.92306741711946E-07	-1270359.75	9.60271863732487E-05
2	564	110.498954721017	0.927886962890625	0.92803955078125	-6.29272460937499E-07	-5.83989731239853E-07	-1474781.75	9.59583267103881E-05
2	565	110.599662720763	0.917816162109375	0.91766357421875	-5.11779785156249E-07	-4.69641662448339E-07	-1793082.875	9.59008684731089E-05
2	566	110.700370720508	0.907745361328125	0.90789794921875	-3.94592285156251E-07	-3.58249508281006E-07	-2300850.75	9.58552336669527E-05
2	567	110.801078720254	0.897674560546875	0.897216796875	-2.8228759765625E-07	-2.53273185535363E-07	-3178378.25	9.58211458055303E-05
2	568	110.90178672	0.887603759765625	0.88836669921875	-1.74560546874999E-07	-1.5507377781887E-07	-5089161	9.57981465035118E-05
2	569	111.002494719746	0.877532958984375	0.87799072265625	-7.26318359375006E-08	-6.37700736660918E-08	-12088235	9.57856973400339E-05
2	570	111.103202719491	0.867462158203125	0.86761474609375	1.678466796875E-08	1.456262577193E-08	51690908	9.57828815444373E-05
2	571	111.203910719237	0.857391357421875	0.85784912109375	8.91113281249995E-08	7.64440741818362E-08	9626713	9.57882148213685E-05
2	572	111.304618718983	0.847320556640625	0.8477783203125	1.4801025390625E-07	1.25479871826428E-07	5727835.5	9.58001546678133E-05
2	573	111.405326718729	0.837249755859375	0.83740234375	1.9683837890625E-07	1.64832911764279E-07	4254263.5	9.58175223786384E-05
2	574	111.506034718474	0.827178955078125	0.82733154296875	2.37426757812501E-07	1.96430633536693E-07	3484576	9.5839386631269E-05
2	575	111.60674271822	0.817108154296875	0.81695556640625	2.70690917968749E-07	2.21142457235146E-07	3018038.25	9.58649761741981E-05
2	576	111.707450717966	0.807037353515625	0.8074951171875	2.9632568359375E-07	2.39281547464998E-07	2725025.75	9.58935270318761E-05
2	577	111.808158717712	0.796966552734375	0.79681396484375	3.131103515625E-07	2.49490710757527E-07	2544834.25	9.59242170210928E-05
2	578	111.908866717457	0.786895751953125	0.78704833984375	3.173828125E-07	2.49795618856297E-07	2479807.75	9.59559620241635E-05
2	579	112.009574717203	0.776824951171875	0.7769775390625	3.07312011718749E-07	2.38774532590469E-07	2528302	9.59874159889296E-05
2	580	112.110282716949	0.766754150390625	0.76751708984375	2.764892578125E-07	2.12210238714761E-07	2775938.25	9.60168108576909E-05
2	581	112.210990716694	0.756683349609375	0.75714111328125	2.19116210937501E-07	1.65901880677666E-07	3455432	9.60417673923075E-05
2	582	112.31169871644	0.746612548828125	0.74652099609375	1.26953125E-07	9.47731706446575E-08	5880288.5	9.60591933107935E-05
2	583	112.412406716186	0.736541748046875	0.736419677734375	-1.09863281249997E-08	-8.09054778727614E-09	-67030560	9.60650359047577E-05
2	584	112.513114715932	0.726470947265625	0.726348876953125	-2.0111083984375E-07	-1.46076629903291E-07	-3611684.5	9.60543547989801E-05
2	585	112.613822715677	0.716400146484375	0.716278076171875	-4.49523925781251E-07	-3.21984117590546E-07	-1593414.75	9.60215911618434E-05
2	586	112.714530715423	0.706329345703125	0.706268310546875	-7.54394531249999E-07	-5.32804961039801E-07	-936205.5	9.5960967883002E-05
2	587	112.815238715169	0.696258544921875	0.696197509765625	-1.10321044921875E-06	-7.68052302646538E-07	-631065.0625	9.58674354478717E-05
2	588	112.915946714915	0.686187744140625	0.68603515625	-1.47003173828125E-06	-1.00849342743459E-06	-466680.5	9.57378579187207E-05
2	589	113.01665471466	0.676116943359375	0.676116943359375	-1.8231201171875E-06	-1.23264237572585E-06	-370857.0625	9.55720388446935E-05
2	590	113.117362714406	0.666046142578125	0.665985107421875	-2.12646484375E-06	-1.41619386795355E-06	-313188.875	9.53731578192674E-05
2	591	113.218070714152	0.655975341796875	0.6558837890625	-2.35137939453125E-06	-1.54223164372524E-06	-278935.75	9.51476831687614E-05
2	592	113.318778713898	0.645904541015625	0.645843505859375	-2.48138427734375E-06	-1.60258582582173E-06	-260275.5	9.49043314903975E-05
2	593	113.419486713643	0.635833740234375	0.63580322265625	-2.518310546875E-06	-1.60114996106131E-06	-252472.125	9.46525760809891E-05
2	594	113.520194713389	0.625762939453125	0.625762939453125	-2.479248046875E-06	-1.55142151925247E-06	-252400.296875	9.44009298109449E-05
2	595	113.620902713135	0.615692138671875	0.615631103515625	-2.38616943359375E-06	-1.46900015352003E-06	-257999.75	9.41559410421178E-05
2	596	113.721610712881	0.605621337890625	0.60552978515625	-2.26348876953125E-06	-1.37060987981386E-06	-267520.5625	9.3921808002051E-05
2	597	113.822318712626	0.595550537109375	0.595489501953125	-2.12890625E-06	-1.26774125419615E-06	-279716.1875	9.3700633442495E-05
2	598	113.923026712372	0.585479736328125	0.58544921875	-1.9940185546875E-06	-1.16739659006271E-06	-293602.71875	9.34930285438895E-05
2	599	114.023734712118	0.575408935546875	0.57537841796875	-1.8646240234375E-06	-1.07286439288146E-06	-308576.125	9.32987313717604E-05
2	600	114.124442711863	0.565338134765625	0.5653076171875	-1.74530029296875E-06	-9.8663144854072E-07	-323902.78125	9.31169561226852E-05
2	601	114.225150711609	0.555267333984375	0.55523681640625	-1.63604736328125E-06	-9.08393701593013E-07	-339377	9.29466914385557E-05
2	602	114.325858711355	0.545196533203125	0.545196533203125	-1.5374755859375E-06	-8.38226355881488E-07	-354605	9.27868895814754E-05
2	603	114.426566711101	0.535125732421875	0.535064697265625	-1.44927978515625E-06	-7.75458374846494E-07	-369193.53125	9.26364955375902E-05
2	604	114.527274710846	0.525054931640625	0.5250244140625	-1.36962890625E-06	-7.19088575351634E-07	-383333.34375	9.24945561564527E-05
2	605	114.627982710592	0.514984130859375	0.514923095703125	-1.29852294921875E-06	-6.68639415835059E-07	-396545.25	9.23602055991068E-05
2	606	114.728690710338	0.504913330078125	0.5048828125	-1.23321533203125E-06	-6.22629215740744E-07	-409403.59375	9.22327162697911E-05
2	607	114.829398710084	0.494842529296875	0.494781494140625	-1.17462158203125E-06	-5.81180984227103E-07	-421226.3125	9.2111476988066E-05
2	608	114.930106709829	0.484771728515625	0.484771728515625	-1.12152099609375E-06	-5.43681665021722E-07	-432244.90625	9.1995854745619E-05
2	609	115.030814709575	0.474700927734375	0.4747314453125	-1.072998046875E-06	-5.0938587037308E-07	-442434.625	9.18853547773324E-05
2	610	115.131522709321	0.464630126953125	0.464569091796875	-1.02813720703125E-06	-4.7764075361556E-07	-451855.1875	9.17795550776646E-05
2	611	115.232230709067	0.454559326171875	0.454620361328125	-9.8846435546875E-07	-4.49375988864631E-07	-459925.9375	9.16780045372434E-05
2	612	115.332938708812	0.444488525390625	0.444488525390625	-9.50927734375E-07	-4.22676464495453E-07	-467426.21875	9.15803539101034E-05
2	613	115.433646708558	0.434417724609375	0.434478759765625	-9.16442871093751E-07	-3.98174961446784E-07	-474092.59375	9.14863194338977E-05
2	614	115.534354708304	0.424346923828125	0.42437744140625	-8.84399414062501E-07	-3.75319160639265E-07	-479848.1875	9.13956391741522E-05
2	615	115.63506270805	0.414276123046875	0.414276123046875	-8.55712890625E-07	-3.5450142377158E-07	-484129.8125	9.13080220925622E-05
2	616	115.735770707795	0.404205322265625	0.404144287109375	-8.28857421875E-07	-3.34977983129647E-07	-487592.03125	9.1223198978696E-05
2	617	115.836478707541	0.394134521484375	0.394134521484375	-8.03222656249999E-07	-3.16577768444404E-07	-490691.5	9.11410170374438E-05
2	618	115.937186707287	0.384063720703125	0.384063720703125	-7.794189453125E-07	-2.99346538668033E-07	-492756.46875	9.10613234736957E-05
2	619	116.037894707032	0.373992919921875	0.3740234375	-7.5714111328125E-07	-2.83188512639754E-07	-493994.375	9.09839509404264E-05
2	620	116.138602706778	0.363922119140625	0.3638916015625	-7.366943359375E-07	-2.68076860265865E-07	-493951.96875	9.0908732090611E-05
2	621	116.239310706524	0.353851318359375	0.353851318359375	-7.171630859375E-07	-2.53769087521505E-07	-493404.28125	9.08355214050971E-05
2	622	116.34001870627	0.343780517578125	0.34381103515625	-6.9854736328125E-07	-2.40168276377517E-07	-492180	9.07642315723933E-05
2	623	116.440726706015	0.333709716796875	0.333770751953125	-6.817626953125E-07	-2.27552447995549E-07	-489570.28125	9.06947316252626E-05
2	624	116.541434705761	0.323638916015625	0.323638916015625	-6.6558837890625E-07	-2.15410295822949E-07	-486244.875	9.06268833205104E-05
2	625	116.642142705507	0.313568115234375	0.313507080078125	-6.50634765624999E-07	-2.03978615331835E-07	-481848.03125	9.05606066226028E-05
2	626	116.742850705253	0.303497314453125	0.303466796875	-6.37207031250001E-07	-1.93371164414202E-07	-476245.25	9.04957632883452E-05
2	627	116.843558704998	0.293426513671875	0.29345703125	-6.256103515625E-07	-1.835897478486E-07	-469073.1875	9.04321714187972E-05
2	628	116.944266704744	0.283355712890625	0.283355712890625	-6.14013671874999E-07	-1.73984275875227E-07	-461481.15625	9.03697509784251E-05
2	629	117.04497470449	0.273284912109375	0.2733154296875	-6.04248046875E-07	-1.65150311204343E-07	-452323.25	9.030840737978E-05
2	630	117.145682704236	0.263214111328125	0.26318359375	-5.96008300781251E-07	-1.56859613298366E-07	-441577.0625	9.02479732758366E-05
2	631	117.246390703981	0.253143310546875	0.253143310546875	-5.8868408203125E-07	-1.49021445849939E-07	-430015.5625	9.01883176993579E-05
2	632	117.347098703727	0.243072509765625	0.24310302734375	-5.8349609375E-07	-1.41849668011673E-07	-416631.78125	9.01292951311916E-05
2	633	117.447806703473	0.233001708984375	0.232940673828125	-5.78918457031249E-07	-1.34853650024525E-07	-402372.1875	9.00707600521855E-05
2	634	117.548514703219	0.222930908203125	0.222930908203125	-5.7586669921875E-07	-1.28378488284397E-07	-387122.40625	9.0012610598933E-05
2	635	117.649222702964	0.212860107421875	0.212921142578125	-5.7525634765625E-07	-1.22484223652464E-07	-370132.65625	8.99546503205784E-05
2	636	117.74993070271	0.202789306640625	0.202850341796875	-5.755615234375E-07	-1.16752843837276E-07	-352439.03125	8.9896704594139E-05
2	637	117.850638702456	0.192718505859375	0.192779541015625	-5.7861328125E-07	-1.11544800063257E-07	-333175.125	8.98385842447169E-05
2	638	117.951346702201	0.182647705078125	0.182708740234375	-5.8319091796875E-07	-1.0655407578497E-07	-313291.46875	8.97800855454989E-05
2	639	118.052054701947	0.172576904296875	0.17254638671875	-5.9112548828125E-07	-1.01996562307249E-07	-291894.6875	8.97209538379684E-05
2	640	118.152762701693	0.162506103515625	0.16253662109375	-6.00585937500001E-07	-9.76172032096656E-08	-270630.09375	8.96609417395666E-05
2	641	118.253470701439	0.152435302734375	0.152496337890625	-6.121826171875E-07	-9.33556023596793E-08	-249102.703125	8.95998746273108E-05
2	642	118.354178701184	0.142364501953125	0.142364501953125	-6.26220703124999E-07	-8.91515981038538E-08	-227339.1875	8.95375196705572E-05
2	643	118.45488670093	0.132293701171875	0.132354736328125	-6.4239501953125E-07	-8.50240198246865E-08	-206033.265625	8.94736367627047E-05
2	644	118.555594700676	0.122222900390625	0.12225341796875	-6.63146972656251E-07	-8.10719811283889E-08	-184353.421875	8.94078984856606E-05
2	645	118.656302700422	0.112152099609375	0.1121826171875	-6.89086914062501E-07	-7.7303575096721E-08	-162798.9375	8.9339810074307E-05
2	646	118.757010700167	0.102081298828125	0.102081298828125	-7.2509765625E-07	-7.4018913664986E-08	-140782.828125	8.9268600277137E-05
2	647	118.857718699913	0.092010498046875	0.09210205078125	-7.77587890625001E-07	-7.16174355375188E-08	-118445.84375	8.91929303179495E-05
2	648	118.958426699659	0.081939697265625	0.082000732421875	-8.52050781249999E-07	-6.98687827593858E-08	-96239.2578125	8.91108720679767E-05
2	649	119.059134699405	0.071868896484375	0.071929931640625	-9.55810546875E-07	-6.87513832531295E-08	-75255.4296875	8.90198425622657E-05
2	650	119.15984269915	0.061798095703125	0.06182861328125	-1.092529296875E-06	-6.75495712698648E-08	-56592.1796875	8.8916698587127E-05
2	651	119.260550698896	0.051727294921875	0.0517578125	-1.26556396484375E-06	-6.55028173923711E-08	-40897.03515625	8.87979549588636E-05
2	652	119.361258698642	0.041656494140625	0.0417510986328125	-1.47064208984375E-06	-6.14009181276742E-08	-28389.708984375	8.86601774254814E-05
2	653	119.461966698388	0.031585693359375	0.031689453125	-1.69586181640625E-06	-5.37409334810945E-08	-18686.341796875	8.85007320903242E-05
2	654	119.562674698133	0.021514892578125	0.021612548828125	-1.92047119140625E-06	-4.15062757497253E-08	-11253.775390625	8.8318636699114E-05
2	655	119.663382697879	0.011444091796875	0.011553955078125	-2.12066650390625E-06	-2.45020856937117E-08	-5448.26611328125	8.81151499925181E-05
2	656	119.764090697625	0.001373291015625	0.00147705078125	-2.27569580078125E-06	-3.36131833478248E-09	-649.054626464844	8.7893771706149E-05
2	657	119.86479869737	-0.008697509765625	-0.0085906982421875	-2.374267578125E-06	2.03966159517677E-08	3618.251953125	8.76596313901246E-05
2	658	119.965506697116	-0.018768310546875	-0.0186920166015625	-2.41546630859375E-06	4.51499353459894E-08	7738.47119140625	8.74184479471296E-05
2	659	120.066214696862	-0.028839111328125	-0.028692626953125	-2.4090576171875E-06	6.91221870852132E-08	11910.3125	8.71755109983496E-05
2	660	120.166922696608	-0.038909912109375	-0.0387786865234375	-2.37030029296875E-06	9.19171299074151E-08	16360.2412109375	8.69348514243029E-05
2	661	120.267630696353	-0.048980712890625	-0.04884033203125	-2.31109619140625E-06	1.12874701585497E-07	21132.974609375	8.66991249495186E-05
2	662	120.368338696099	-0.059051513671875	-0.058990478515625	-2.24456787109375E-06	1.32408132458295E-07	26281.44140625	8.64697285578586E-05
2	663	120.469046695845	-0.069122314453125	-0.069061279296875	-2.1759033203125E-06	1.50270665244534E-07	31739.130859375	8.62471424625255E-05
2	664	120.569754695591	-0.079193115234375	-0.079071044921875	-2.110595703125E-06	1.66887005548233E-07	37463.8515625	8.60313011799008E-05
2	665	120.670462695336	-0.089263916015625	-0.089202880859375	-2.0513916015625E-06	1.82990021357909E-07	43484.0859375	8.58217244967818E-05
2	666	120.771170695082	-0.099334716796875	-0.099212646484375	-1.9989013671875E-06	1.98316286059708E-07	49633.58984375	8.56177794048563E-05
2	667	120.871878694828	-0.109405517578125	-0.109344482421875	-1.95404052734375E-06	2.1366354019392E-07	55958.14453125	8.5418731032405E-05
2	668	120.972586694574	-0.119476318359375	-0.11944580078125	-1.915283203125E-06	2.28772520927123E-07	62364.56640625	8.52238954394124E-05
2	669	121.073294694319	-0.129547119140625	-0.12945556640625	-1.88262939453125E-06	2.43716840486741E-07	68763.171875	8.50326541694812E-05
2	670	121.174002694065	-0.139617919921875	-0.139495849609375	-1.85577392578125E-06	2.58872745462213E-07	75168.5546875	8.48444105940871E-05
2	671	121.274710693811	-0.149688720703125	-0.149566650390625	-1.83349609375E-06	2.74229876140453E-07	81574.5703125	8.46586408442818E-05
2	672	121.375418693557	-0.159759521484375	-0.159637451171875	-1.81732177734375E-06	2.90112609491189E-07	87842.1484375	8.44748137751594E-05
2	673	121.476126693302	-0.169830322265625	-0.16973876953125	-1.80572509765625E-06	3.0650156190859E-07	94000.3359375	8.42923764139414E-05
2	674	121.576834693048	-0.179901123046875	-0.1798095703125	-1.79840087890625E-06	3.23369675925278E-07	99983.03125	8.41108922031708E-05
2	675	121.677542692794	-0.189971923828125	-0.189788818359375	-1.79656982421875E-06	3.40968853151935E-07	105639.546875	8.39298736536875E-05
2	676	121.778250692539	-0.200042724609375	-0.1998291015625	-1.79962158203125E-06	3.59616734613155E-07	111039.515625	8.37487896205857E-05
2	677	121.878958692285	-0.189971923828125	-0.189788818359375	-1.59759521484375E-06	3.03205695217912E-07	118796.5625	8.35777245811187E-05
