Potential - Start -0.2 V, Upper Vertex 1.5 V, Lower Vertex -0.2 V, Stop -0.19 V; Scan - # end cross 5, Rate 0.1 Vps, Step 0.01 V 
Scan	Index	Time (s)	Potential applied (V)	WE(1).Potential (V)	WE(1).Current (A)	WE(1).Power (W)	WE(1).Resistance (Ω)	WE(1).Charge (C)
1	1	66.4505798322284	-0.189971923828125	-0.1898193359375	-2.239990234375E-07	4.251934626609E-08	847411.4375	0
1	2	66.5512878319742	-0.179901123046875	-0.17974853515625	-1.9195556640625E-07	3.45037314275487E-08	936407	-2.09449773080905E-08
1	3	66.6519958317199	-0.169830322265625	-0.169677734375	-1.65405273437499E-07	2.80655907403116E-08	1025830.3125	-3.89395253819202E-08
1	4	66.7527038314656	-0.159759521484375	-0.15960693359375	-1.4373779296875E-07	2.29415491048712E-08	1110403.375	-5.45061134005209E-08
1	5	66.8534118312114	-0.149688720703125	-0.149658203125	-1.2237548828125E-07	1.83144948096015E-08	1222942.75	-6.79059795061221E-08
1	6	66.9541198309571	-0.139617919921875	-0.1395263671875	-1.0223388671875E-07	1.42643221678895E-08	1364776.125	-7.92159653428826E-08
1	7	67.0548278307028	-0.129547119140625	-0.12945556640625	-8.23974609375E-08	1.06668096577778E-08	1571111.25	-8.8512891238679E-08
1	8	67.1555358304486	-0.119476318359375	-0.119354248046875	-6.13403320312497E-08	7.32122895641396E-09	1945771.25	-9.57506642862427E-08
1	9	67.2562438301943	-0.109405517578125	-0.109283447265625	-3.75366210937506E-08	4.10213107926438E-09	2911382.25	-1.00729508289987E-07
1	10	67.35695182994	-0.099334716796875	-0.0992431640625	-1.068115234375E-08	1.06003128497179E-09	9291429	-1.03157468345216E-07
1	11	67.4576598296858	-0.089263916015625	-0.089111328125	2.25830078125003E-08	-2.01240180075501E-09	-3945946	-1.02558161074739E-07
1	12	67.5583678294315	-0.079193115234375	-0.079132080078125	6.50024414062506E-08	-5.1437782921937E-09	-1217370.875	-9.81478862627227E-08
1	13	67.6590758291773	-0.069122314453125	-0.069061279296875	1.19934082031251E-07	-8.28280111164759E-09	-575826.9375	-8.88355913275518E-08
1	14	67.759783828923	-0.059051513671875	-0.059051513671875	1.93176269531251E-07	-1.14073506196632E-08	-305687.21875	-7.30692306660785E-08
1	15	67.8604918286687	-0.048980712890625	-0.048822021484375	2.8961181640625E-07	-1.41394345121171E-08	-168577.453125	-4.87589204567485E-08
1	16	67.9611998284145	-0.038909912109375	-0.038775634765625	4.15649414062499E-07	-1.61170685686329E-08	-93289.28125	-1.32461988044952E-08
1	17	68.0619078281602	-0.028839111328125	-0.02872314453125	5.74645996093751E-07	-1.65056395218244E-08	-49984.0703125	3.66191343914579E-08
1	18	68.1626158279059	-0.018768310546875	-0.0186492919921875	7.6568603515625E-07	-1.42795020252606E-08	-24356.31640625	1.04110213783315E-07
1	19	68.2633238276517	-0.008697509765625	-0.0085906982421875	9.8114013671875E-07	-8.42867908801281E-09	-8755.83203125	1.92069890658786E-07
1	20	68.3640318273974	0.001373291015625	0.00148925781250001	1.207275390625E-06	1.79794412691336E-09	1233.5693359375	3.02265362961407E-07
1	21	68.4647398271431	0.011444091796875	0.011566162109375	1.422119140625E-06	1.64484603715209E-08	8133.04736328125	4.34665906823284E-07
1	22	68.5654478268889	0.021514892578125	0.021624755859375	1.60400390625E-06	3.46861916966645E-08	13481.7353515625	5.87043302857637E-07
1	23	68.6661558266346	0.031585693359375	0.0316741943359375	1.73553466796875E-06	5.49716610009909E-08	18250.396484375	7.55202393065701E-07
1	24	68.7668638263804	0.041656494140625	0.0417572021484375	1.8121337890625E-06	7.56696394432765E-08	23043.11328125	9.33841704409133E-07
1	25	68.8675718261261	0.051727294921875	0.0517578125	1.8359375E-06	9.50241059172185E-08	28191.490234375	1.11753672626946E-06
1	26	68.9682798258718	0.061798095703125	0.061859130859375	1.81854248046875E-06	1.12493452775198E-07	34015.77734375	1.30155433453183E-06
1	27	69.0689878256176	0.071868896484375	0.0718994140625	1.7742919921875E-06	1.27570544350419E-07	40522.875	1.48246795106388E-06
1	28	69.1696958253633	0.081939697265625	0.08197021484375	1.715087890625E-06	1.40586124075526E-07	47793.59765625	1.65817220931785E-06
1	29	69.270403825109	0.092010498046875	0.09210205078125	1.6510009765625E-06	1.52060579239333E-07	55785.58203125	1.82766825673752E-06
1	30	69.3711118248548	0.102081298828125	0.102142333984375	1.5863037109375E-06	1.62028769068456E-07	64390.1484375	1.99067949324672E-06
1	31	69.4718198246005	0.112152099609375	0.1121826171875	1.52435302734375E-06	1.71005908100597E-07	73593.59375	2.14731335290708E-06
1	32	69.5725278243463	0.122222900390625	0.122314453125	1.46820068359375E-06	1.79582158921221E-07	83309.0859375	2.29800048145989E-06
1	33	69.673235824092	0.132293701171875	0.13232421875	1.417236328125E-06	1.8753468111754E-07	93367.7890625	2.44329385168385E-06
1	34	69.7739438238377	0.142364501953125	0.142486572265625	1.37115478515625E-06	1.95371143263401E-07	103917.203125	2.58370050687518E-06
1	35	69.8746518235835	0.152435302734375	0.15252685546875	1.3299560546875E-06	2.02854010922238E-07	114685.640625	2.71971225629386E-06
1	36	69.9753598233292	0.162506103515625	0.1624755859375	1.29364013671875E-06	2.10184936122459E-07	125595.65625	2.85182068182621E-06
1	37	70.0760678230749	0.172576904296875	0.172576904296875	1.260986328125E-06	2.17617113662527E-07	136858.671875	2.98045642921352E-06
1	38	70.1767758228207	0.182647705078125	0.1827392578125	1.23199462890625E-06	2.25133774733877E-07	148327.96875	3.10598784381E-06
1	39	70.2774838225664	0.192718505859375	0.192718505859375	1.2060546875E-06	2.32429059110473E-07	159792.515625	3.22875348501839E-06
1	40	70.3781918223121	0.202789306640625	0.202850341796875	1.18255615234375E-06	2.39881927655006E-07	171535.484375	3.34902961185435E-06
1	41	70.4788998220579	0.212860107421875	0.212921142578125	1.160888671875E-06	2.47177723622372E-07	183412.21875	3.46703131981485E-06
1	42	70.5796078218036	0.222930908203125	0.22296142578125	1.1419677734375E-06	2.54614775485607E-07	195243.1875	3.58298939318047E-06
1	43	70.6803158215494	0.233001708984375	0.232940673828125	1.1248779296875E-06	2.62029828945742E-07	207080.84375	3.69713416148443E-06
1	44	70.7810238212951	0.243072509765625	0.243011474609375	1.109619140625E-06	2.69650172413094E-07	219004.40625	3.80965002477751E-06
1	45	70.8817318210408	0.253143310546875	0.253173828125	1.094970703125E-06	2.7721790729629E-07	231215.171875	3.92065976484446E-06
1	46	70.9824398207866	0.263214111328125	0.263214111328125	1.0821533203125E-06	2.84838023389966E-07	243231.8125	4.03028707296471E-06
1	47	71.0831478205323	0.273284912109375	0.273284912109375	1.07025146484375E-06	2.92483576913583E-07	255346.46875	4.13866882809089E-06
1	48	71.183855820278	0.283355712890625	0.283355712890625	1.0601806640625E-06	3.00408260045515E-07	267271.15625	4.2459446376597E-06
1	49	71.2845638200238	0.293426513671875	0.29339599609375	1.0504150390625E-06	3.08187566133711E-07	279314.375	4.35222182204598E-06
1	50	71.3852718197695	0.303497314453125	0.303497314453125	1.04156494140625E-06	3.16112164000515E-07	291385.875	4.45756131739472E-06
1	51	71.4859798195153	0.313568115234375	0.3135986328125	1.033935546875E-06	3.2424077289761E-07	303305.78125	4.5620708988281E-06
1	52	71.586687819261	0.323638916015625	0.323699951171875	1.02752685546875E-06	3.32610397890676E-07	315028.21875	4.6658738028782E-06
1	53	71.6873958190067	0.333709716796875	0.333740234375	1.0211181640625E-06	3.40788204766795E-07	326838.03125	4.76903142043739E-06
1	54	71.7881038187525	0.343780517578125	0.343780517578125	1.0162353515625E-06	3.49361897633571E-07	338288.3125	4.87162014906062E-06
1	55	71.8888118184982	0.353851318359375	0.3538818359375	1.01226806640625E-06	3.58223275043201E-07	349593	4.97376368002733E-06
1	56	71.9895198182439	0.363922119140625	0.3638916015625	1.00830078125E-06	3.66912161098298E-07	360895.90625	5.07550748807262E-06
1	57	72.0902278179897	0.373992919921875	0.373931884765625	1.005859375E-06	3.76122869738538E-07	371753.65625	5.17692842549877E-06
1	58	72.1909358177354	0.384063720703125	0.384124755859375	1.00372314453125E-06	3.85554898230112E-07	382699.90625	5.27811880601803E-06
1	59	72.2916438174811	0.394134521484375	0.394195556640625	1.00250244140625E-06	3.95182013335216E-07	393211.5625	5.37914047527011E-06
1	60	72.3923518172269	0.404205322265625	0.404266357421875	1.0015869140625E-06	4.04907865458881E-07	403625.875	5.48005436940002E-06
1	61	72.4930598169726	0.414276123046875	0.41424560546875	1.0009765625E-06	4.14650145330597E-07	413841.46875	5.58089141122764E-06
1	62	72.5937678167184	0.424346923828125	0.424407958984375	1.00128173828125E-06	4.2495193497416E-07	423864.6875	5.68171299164533E-06
1	63	72.6944758164641	0.434417724609375	0.4344482421875	1.00128173828125E-06	4.35005063081917E-07	433892.125	5.78255003347294E-06
1	64	72.7951838162098	0.444488525390625	0.444488525390625	1.0028076171875E-06	4.4573647528523E-07	443244.0625	5.88346392760286E-06
1	65	72.8958918159556	0.454559326171875	0.454559326171875	1.00433349609375E-06	4.56529164694075E-07	452598	5.98453152633738E-06
1	66	72.9965998157013	0.464630126953125	0.46466064453125	1.0064697265625E-06	4.67666865233696E-07	461673.75	6.08578375249635E-06
1	67	73.097307815447	0.474700927734375	0.474700927734375	1.0089111328125E-06	4.78931042380282E-07	470508.1875	6.18726608081488E-06
1	68	73.1980158151928	0.484771728515625	0.4847412109375	1.01226806640625E-06	4.90688023546682E-07	478866.4375	6.28904035693267E-06
1	69	73.2987238149385	0.494842529296875	0.494873046875	1.0162353515625E-06	5.02907425925514E-07	486967	6.39118388789939E-06
1	70	73.3994318146842	0.504913330078125	0.50482177734375	1.02142333984375E-06	5.15636713771528E-07	494233.6875	6.49378807793255E-06
1	71	73.50013981443	0.514984130859375	0.51495361328125	1.02783203125E-06	5.29285784978129E-07	501009.5	6.59697616356425E-06
1	72	73.6008478141757	0.525054931640625	0.5250244140625	1.03485107421875E-06	5.43322073554009E-07	507342.96875	6.70084045850672E-06
1	73	73.7015558139215	0.535125732421875	0.53509521484375	1.0443115234375E-06	5.58806107164855E-07	512390.4375	6.80553466736455E-06
1	74	73.8022638136672	0.545196533203125	0.545135498046875	1.05621337890625E-06	5.75779381506436E-07	516122.5	6.91130435370724E-06
1	75	73.9029718134129	0.555267333984375	0.555267333984375	1.07147216796875E-06	5.94953519339469E-07	518228.40625	7.01844192008139E-06
1	76	74.0036798131587	0.565338134765625	0.565338134765625	1.09100341796875E-06	6.16785825968691E-07	518181.84375	7.12733117325115E-06
1	77	74.1043878129044	0.575408935546875	0.575439453125	1.1175537109375E-06	6.43084490548063E-07	514909.90625	7.23854100215249E-06
1	78	74.2050958126501	0.585479736328125	0.585479736328125	1.15325927734375E-06	6.7520994662118E-07	507673.96875	7.35288540454349E-06
1	79	74.3058038123959	0.595550537109375	0.59552001953125	1.20361328125E-06	7.16775787168444E-07	494776.90625	7.47156354918843E-06
1	80	74.4065118121416	0.605621337890625	0.6055908203125	1.27166748046875E-06	7.70110148096137E-07	476217.90625	7.59620388635085E-06
1	81	74.5072198118874	0.615692138671875	0.615692138671875	1.36444091796875E-06	8.40075529140449E-07	451241.34375	7.72894236433785E-06
1	82	74.6079278116331	0.625762939453125	0.625762939453125	1.484375E-06	9.28866825233854E-07	421566.625	7.87239150668029E-06
1	83	74.7086358113788	0.635833740234375	0.635772705078125	1.63421630859375E-06	1.03899003534025E-06	389038.3125	8.0294248618884E-06
1	84	74.8093438111246	0.645904541015625	0.64581298828125	1.8096923828125E-06	1.16872286071157E-06	356863.40625	8.20284003566485E-06
1	85	74.9100518108703	0.655975341796875	0.655853271484375	1.99920654296875E-06	1.31118611079728E-06	328056.8125	8.39463336888002E-06
1	86	75.010759810616	0.666046142578125	0.665924072265625	2.18780517578125E-06	1.4569121731256E-06	304379.96875	8.60546606418211E-06
1	87	75.1114678103618	0.676116943359375	0.67608642578125	2.3553466796875E-06	1.59241790242959E-06	287043.28125	8.83423126651905E-06
1	88	75.2121758101075	0.686187744140625	0.686065673828125	2.48779296875E-06	1.70678936228796E-06	275772.8125	9.07810317585245E-06
1	89	75.3128838098532	0.696258544921875	0.696197509765625	2.57415771484375E-06	1.79212213424762E-06	270456.4375	9.33299270400312E-06
1	90	75.413591809599	0.706329345703125	0.706298828125	2.6165771484375E-06	1.84808538961079E-06	269932.34375	9.59436692937743E-06
1	91	75.5142998093447	0.716400146484375	0.71630859375	2.6214599609375E-06	1.87777436622127E-06	273247.96875	9.85812312137568E-06
1	92	75.6150078090905	0.726470947265625	0.72637939453125	2.60009765625E-06	1.88865726613585E-06	279366.21875	1.01210489447112E-05
1	93	75.7157158088362	0.736541748046875	0.736419677734375	2.56591796875E-06	1.88959234037611E-06	287000.5	1.03811789813335E-05
1	94	75.8164238085819	0.746612548828125	0.746551513671875	2.5286865234375E-06	1.88779472409806E-06	295232.90625	1.0637712875905E-05
1	95	75.9171318083277	0.756683349609375	0.7568359375	2.496337890625E-06	1.88931824141036E-06	303178.5	1.08907424873905E-05
1	96	76.0178398080734	0.766754150390625	0.76690673828125	2.47467041015625E-06	1.89784134363435E-06	309902.59375	1.11410527097178E-05
1	97	76.1185478078191	0.776824951171875	0.77728271484375	2.46978759765625E-06	1.91972299035115E-06	314716.4375	1.13900259748334E-05
1	98	76.2192558075649	0.786895751953125	0.78704833984375	2.48443603515625E-06	1.95537131730816E-06	316791.5625	1.16394912765827E-05
1	99	76.3199638073106	0.796966552734375	0.79681396484375	2.520751953125E-06	2.00857039089897E-06	316101.71875	1.18915222628857E-05
1	100	76.4206718070564	0.807037353515625	0.80657958984375	2.5787353515625E-06	2.07995526579907E-06	312781.0625	1.21483017210267E-05
1	101	76.5213798068021	0.817108154296875	0.816650390625	2.65350341796875E-06	2.16698458643805E-06	307763.09375	1.24117659652256E-05
1	102	76.6220878065478	0.827178955078125	0.82763671875	2.73773193359375E-06	2.26584734264179E-06	302307.4375	1.26832364912843E-05
1	103	76.7227958062936	0.837249755859375	0.83740234375	2.8204345703125E-06	2.36183836932469E-06	296905.4375	1.29631116578821E-05
1	104	76.8235038060393	0.847320556640625	0.84747314453125	2.890625E-06	2.44972693508316E-06	293179.90625	1.32506866066251E-05
1	105	76.924211805785	0.857391357421875	0.8575439453125	2.9388427734375E-06	2.52018685387156E-06	291796.46875	1.35442242026329E-05
1	106	77.0249198055308	0.867462158203125	0.867919921875	2.96356201171875E-06	2.57213446275273E-06	292863.78125	1.38414334287518E-05
1	107	77.1256278052765	0.877532958984375	0.877685546875	2.96478271484375E-06	2.60214687841653E-06	296037.0625	1.41399495987571E-05
1	108	77.2263358050222	0.887603759765625	0.88775634765625	2.94891357421875E-06	2.61791683442425E-06	301045.21875	1.44377272590646E-05
1	109	77.327043804768	0.897674560546875	0.89813232421875	2.92388916015625E-06	2.62603930423211E-06	307170.46875	1.47334467328619E-05
1	110	77.4277518045137	0.907745361328125	0.9075927734375	2.89764404296875E-06	2.62988078247872E-06	313217.5	1.5026584151201E-05
1	111	77.5284598042595	0.917816162109375	0.91827392578125	2.874755859375E-06	2.63981337411678E-06	319426.75	1.53172477439512E-05
1	112	77.6291678040052	0.927886962890625	0.92803955078125	2.8607177734375E-06	2.65485937234189E-06	324407.9375	1.56060523295309E-05
1	113	77.7298758037509	0.937957763671875	0.9381103515625	2.8619384765625E-06	2.68481403509213E-06	327788.46875	1.58942093548831E-05
1	114	77.8305838034967	0.948028564453125	0.94757080078125	2.880859375E-06	2.72981810667261E-06	328919.5	1.61833831953118E-05
1	115	77.9312918032424	0.958099365234375	0.95855712890625	2.9217529296875E-06	2.80066706181969E-06	328076.03125	1.64755674632033E-05
1	116	78.0319998029881	0.968170166015625	0.96832275390625	2.9840087890625E-06	2.88948353954765E-06	324504	1.67729467648314E-05
1	117	78.1327078027339	0.978240966796875	0.97808837890625	3.06610107421875E-06	2.99891780741746E-06	319000.6875	1.70775929291267E-05
1	118	78.2334158024796	0.988311767578125	0.98876953125	3.15887451171875E-06	3.12339875563339E-06	313013.25	1.73910466401139E-05
1	119	78.3341238022253	0.998382568359375	0.99884033203125	3.24981689453125E-06	3.24604798151995E-06	307352.8125	1.77137499122182E-05
1	120	78.4348318019711	1.00845336914063	1.00830078125	3.32763671875E-06	3.35525874106679E-06	303008.0625	1.80449496838264E-05
1	121	78.5355398017168	1.01852416992188	1.01806640625	3.3819580078125E-06	3.44305772159714E-06	301028.71875	1.83828051376622E-05
1	122	78.6362478014626	1.02859497070313	1.02813720703125	3.406982421875E-06	3.50284540218126E-06	301773.5625	1.87246550922282E-05
1	123	78.7369558012083	1.03866577148438	1.03851318359375	3.4039306640625E-06	3.53502673533512E-06	305092.34375	1.9067612811341E-05
1	124	78.837663800954	1.04873657226563	1.04827880859375	3.380126953125E-06	3.54331541529973E-06	310130.03125	1.94092172023375E-05
1	125	78.9383718006998	1.05880737304688	1.05865478515625	3.34197998046875E-06	3.53800305674667E-06	316774.71875	1.97477020265069E-05
1	126	79.0390798004455	1.06887817382813	1.0687255859375	3.2958984375E-06	3.52241090695316E-06	324259.28125	2.00819449673872E-05
1	127	79.1397878001912	1.07894897460938	1.0784912109375	3.24737548828125E-06	3.50226582668256E-06	332111.65625	2.04114257940091E-05
1	128	79.240495799937	1.08901977539063	1.0888671875	3.1988525390625E-06	3.48312551068375E-06	340393.0625	2.07360189961037E-05
1	129	79.3412037996827	1.09909057617188	1.09893798828125	3.15277099609375E-06	3.46469960277318E-06	348562.59375	2.10558482649503E-05
1	130	79.4419117994285	1.10916137695313	1.10931396484375	3.11126708984375E-06	3.4513718674134E-06	356547.34375	2.13712683034828E-05
1	131	79.5426197991742	1.11923217773438	1.1187744140625	3.07342529296875E-06	3.43846954820037E-06	364015.5	2.16826920222957E-05
1	132	79.6433277989199	1.12930297851563	1.12945556640625	3.03985595703125E-06	3.43338228958601E-06	371549.03125	2.19905195990577E-05
1	133	79.7440357986657	1.13937377929688	1.13922119140625	3.00994873046875E-06	3.42899716088141E-06	378485.25	2.22951512114378E-05
1	134	79.8447437984114	1.14944458007813	1.1492919921875	2.9833984375E-06	3.42879593517864E-06	385229.125	2.25969415623695E-05
1	135	79.9454517981571	1.15951538085938	1.15966796875	2.960205078125E-06	3.43285478265898E-06	391752.59375	2.28962253459031E-05
1	136	80.0461597979029	1.16958618164063	1.16943359375	2.94036865234375E-06	3.43856595463876E-06	397716.65625	2.31933427130571E-05
1	137	80.1468677976486	1.17965698242188	1.1798095703125	2.92266845703125E-06	3.44819204656233E-06	403675.5	2.34885701502208E-05
1	138	80.2475757973943	1.18972778320313	1.1895751953125	2.90771484375E-06	3.45894545716874E-06	409110	2.37821532209637E-05
1	139	80.3482837971401	1.19979858398438	1.19964599609375	2.8948974609375E-06	3.47285185853252E-06	414400.1875	2.40743374888552E-05
1	140	80.4489917968858	1.20986938476563	1.21002197265625	2.88360595703125E-06	3.48922662851692E-06	419621.125	2.43653084908146E-05
1	141	80.5496997966316	1.21994018554688	1.21978759765625	2.87506103515625E-06	3.50696382156457E-06	424264.9375	2.46552808675915E-05
1	142	80.6504077963773	1.23001098632813	1.23016357421875	2.867431640625E-06	3.52740971720777E-06	429012.375	2.49444383371156E-05
1	143	80.751115796123	1.24008178710938	1.23992919921875	2.86163330078125E-06	3.54822259396315E-06	433294.25	2.52329191425815E-05
1	144	80.8518237958688	1.25015258789063	1.25030517578125	2.8564453125E-06	3.57142835127888E-06	437713.6875	2.55208469752688E-05
1	145	80.9525317956145	1.26022338867188	1.2603759765625	2.85308837890625E-06	3.59596401722229E-06	441758.5	2.58083455264568E-05
1	146	81.0532397953602	1.27029418945313	1.2701416015625	2.8515625E-06	3.62188802682795E-06	445419.53125	2.6095596695086E-05
1	147	81.153947795106	1.28036499023438	1.28021240234375	2.850341796875E-06	3.64904258276511E-06	449143.5	2.63827114395099E-05
1	148	81.2546557948517	1.29043579101563	1.29058837890625	2.85125732421875E-06	3.67979941984231E-06	452638.34375	2.66698098130291E-05
1	149	81.3553637945975	1.30050659179688	1.30035400390625	2.85247802734375E-06	3.70923112313903E-06	455868.1875	2.69570155069232E-05
1	150	81.4560717943432	1.31057739257813	1.3104248046875	2.85491943359375E-06	3.74115711565537E-06	459005.90625	2.7244404918747E-05
1	151	81.5567797940889	1.32064819335938	1.32049560546875	2.85888671875E-06	3.77514720639738E-06	461891.5625	2.75321181106847E-05
1	152	81.6574877938347	1.33071899414063	1.33087158203125	2.86407470703125E-06	3.81171548724524E-06	464677.71875	2.78202915069414E-05
1	153	81.7581957935804	1.34078979492188	1.34063720703125	2.87078857421875E-06	3.84868599212496E-06	466992.6875	2.81090651697014E-05
1	154	81.8589037933261	1.35086059570313	1.35040283203125	2.87841796875E-06	3.88702392228879E-06	469147.59375	2.83985609712545E-05
1	155	81.9596117930719	1.36093139648438	1.361083984375	2.8887939453125E-06	3.93189111491665E-06	471159.9375	2.86889626295306E-05
1	156	82.0603197928176	1.37100219726563	1.370849609375	2.900390625E-06	3.97599933421589E-06	472643.09375	2.89804720523534E-05
1	157	82.1610277925633	1.38107299804688	1.38092041015625	2.91534423828125E-06	4.02585828851443E-06	473673.21875	2.92733166133985E-05
1	158	82.2617357923091	1.39114379882813	1.3909912109375	2.93365478515625E-06	4.08068808610551E-06	474149.59375	2.95678382826736E-05
1	159	82.3624437920548	1.40121459960938	1.40045166015625	2.95654296875E-06	4.1404955481994E-06	473678.78125	2.98644335998688E-05
1	160	82.4631517918006	1.41128540039063	1.4105224609375	2.9852294921875E-06	4.21073309553321E-06	472500.53125	3.01636246149428E-05
1	161	82.5638597915463	1.42135620117188	1.4215087890625	3.02093505859375E-06	4.29428564530099E-06	470552.5625	3.04660588881234E-05
1	162	82.664567791292	1.43142700195313	1.4312744140625	3.06488037109375E-06	4.38668485003291E-06	466991.9375	3.07725058519281E-05
1	163	82.7652757910378	1.44149780273438	1.44134521484375	3.11920166015625E-06	4.49584649686585E-06	462087.84375	3.10838986479212E-05
1	164	82.8659837907835	1.45156860351563	1.451416015625	3.1878662109375E-06	4.62692014480126E-06	455293.875	3.14014832838438E-05
1	165	82.9666917905292	1.46163940429688	1.46148681640625	3.271484375E-06	4.78123092761962E-06	446735.09375	3.17267367790919E-05
1	166	83.067399790275	1.47171020507813	1.4715576171875	3.3709716796875E-06	4.96057919008308E-06	436538.125	3.20612125506159E-05
1	167	83.1681077900207	1.48178100585938	1.48193359375	3.486328125E-06	5.16650652571116E-06	425070.03125	3.24065040331334E-05
1	168	83.2688157897664	1.49185180664063	1.49200439453125	3.61663818359375E-06	5.3960402510711E-06	412539.03125	3.27641682815738E-05
1	169	83.3695237895122	1.50192260742188	1.50146484375	3.7579345703125E-06	5.6424064496241E-06	399545.21875	3.31355076923501E-05
1	170	83.4702317892579	1.49185180664063	1.49200439453125	3.40484619140625E-06	5.08004541188711E-06	438200.21875	3.3496180549264E-05
1	171	83.5709397890037	1.48178100585938	1.48162841796875	3.1494140625E-06	4.66626124762115E-06	470445.75	3.38262143486645E-05
1	172	83.6716477887494	1.47171020507813	1.47125244140625	2.95135498046875E-06	4.34218827649602E-06	498500.6875	3.41334125550929E-05
1	173	83.7723557884951	1.46163940429688	1.4617919921875	2.7911376953125E-06	4.08006280849804E-06	523726.25	3.4422570024617E-05
1	174	83.8730637882409	1.45156860351563	1.451416015625	2.6605224609375E-06	3.86152487408253E-06	545538	3.46970846294425E-05
1	175	83.9737717879866	1.44149780273438	1.44134521484375	2.54974365234375E-06	3.6750607250724E-06	565290.25	3.49594411090948E-05
1	176	84.0744797877323	1.43142700195313	1.43157958984375	2.457275390625E-06	3.51778521689994E-06	582588.1875	3.52115639543626E-05
1	177	84.1751877874781	1.42135620117188	1.4215087890625	2.3785400390625E-06	3.38111544806452E-06	597639.25	3.54550684278365E-05
1	178	84.2758957872238	1.41128540039063	1.4111328125	2.310791015625E-06	3.26083295476565E-06	610670.9375	3.56911950802896E-05
1	179	84.3766037869696	1.40121459960938	1.4013671875	2.25250244140625E-06	3.15658280669595E-06	622137.9375	3.59209734597243E-05
1	180	84.4773117867153	1.39114379882813	1.3909912109375	2.203369140625E-06	3.06486708723241E-06	631301.9375	3.61453458026517E-05
1	181	84.578019786461	1.38107299804688	1.38092041015625	2.15972900390625E-06	2.98241366181173E-06	639395.25	3.6365043342812E-05
1	182	84.6787277862068	1.37100219726563	1.370849609375	2.12188720703125E-06	2.90878801934014E-06	646052.125	3.65806408808567E-05
1	183	84.7794357859525	1.36093139648438	1.361083984375	2.08831787109375E-06	2.84237603409565E-06	651760.9375	3.67926404578611E-05
1	184	84.8801437856982	1.35086059570313	1.35101318359375	2.05841064453125E-06	2.78093989436456E-06	656338	3.7001445889473E-05
1	185	84.980851785444	1.34078979492188	1.34063720703125	2.032470703125E-06	2.72480565399746E-06	659609.6875	3.72074391634669E-05
1	186	85.0815597851897	1.33071899414063	1.33026123046875	2.00836181640625E-06	2.67164568867884E-06	662361.375	3.74109113181476E-05
1	187	85.1822677849354	1.32064819335938	1.32049560546875	1.98699951171875E-06	2.62382400251226E-06	664567.6875	3.76120915461797E-05
1	188	85.2829757846812	1.31057739257813	1.3104248046875	1.9671630859375E-06	2.57781948675984E-06	666149.5	3.78112017642707E-05
1	189	85.3836837844269	1.30050659179688	1.3006591796875	1.9482421875E-06	2.53399912253371E-06	667606.5	3.80083547497634E-05
1	190	85.4843917841727	1.29043579101563	1.29058837890625	1.93145751953125E-06	2.49271670327289E-06	668194	3.82037142117042E-05
1	191	85.5850997839184	1.28036499023438	1.28021240234375	1.915283203125E-06	2.45196906689671E-06	668419.4375	3.8397414755309E-05
1	192	85.6858077836641	1.27029418945313	1.26983642578125	1.8994140625E-06	2.41194516092946E-06	668541.1875	3.85895000363234E-05
1	193	85.7865157834099	1.26022338867188	1.26007080078125	1.8841552734375E-06	2.37416907111765E-06	668772.25	3.8780017348472E-05
1	194	85.8872237831556	1.25015258789063	1.25	1.8695068359375E-06	2.33688342632377E-06	668625.5625	3.89690285373945E-05
1	195	85.9879317829013	1.24008178710938	1.240234375	1.85546875E-06	2.30121599997801E-06	668421.0625	3.91565954487305E-05
1	196	86.0886397826471	1.23001098632813	1.23016357421875	1.84173583984375E-06	2.26563633987098E-06	667937.0625	3.93427653762046E-05
1	197	86.1893477823928	1.21994018554688	1.21978759765625	1.827392578125E-06	2.22903076974035E-06	667501.6875	3.95275201299228E-05
1	198	86.2900557821386	1.20986938476563	1.2103271484375	1.81396484375E-06	2.19549087887572E-06	667227.5	3.9710877899779E-05
1	199	86.3907637818843	1.19979858398438	1.19964599609375	1.8011474609375E-06	2.16073931369465E-06	666045.4375	3.98929114453495E-05
1	200	86.49147178163	1.18972778320313	1.18988037109375	1.78802490234375E-06	2.127535708496E-06	665471.9375	4.0073642594507E-05
1	201	86.5921797813758	1.17965698242188	1.17919921875	1.77490234375E-06	2.09296354114485E-06	664374.125	4.02530495193787E-05
1	202	86.6928877811215	1.16958618164063	1.16973876953125	1.76239013671875E-06	2.06153595172509E-06	663722.9375	4.04311649617739E-05
1	203	86.7935957808672	1.15951538085938	1.15966796875	1.749267578125E-06	2.02856949726993E-06	662944.875	4.06079925596714E-05
1	204	86.894303780613	1.14944458007813	1.1492919921875	1.7352294921875E-06	1.99428541236557E-06	662328.5	4.07834522775374E-05
1	205	86.9950117803587	1.13937377929688	1.13922119140625	1.7218017578125E-06	1.96151290765556E-06	661644.8125	4.0957525925478E-05
1	206	87.0957197801044	1.12930297851563	1.12945556640625	1.7071533203125E-06	1.92815377886291E-06	661601.75	4.11301880376413E-05
1	207	87.1964277798502	1.11923217773438	1.119384765625	1.69097900390625E-06	1.89285606211342E-06	661974.375	4.13012967328541E-05
1	208	87.2971357795959	1.10916137695313	1.10931396484375	1.67266845703125E-06	1.85551448339538E-06	663200.1875	4.14706701121759E-05
1	209	87.3978437793417	1.09909057617188	1.09893798828125	1.651611328125E-06	1.81501843599108E-06	665373.25	4.16380607930478E-05
1	210	87.4985517790874	1.08901977539063	1.08917236328125	1.62628173828125E-06	1.77130107203993E-06	669731.6875	4.18031158915255E-05
1	211	87.5992597788331	1.07894897460938	1.0784912109375	1.59423828125E-06	1.71937199411332E-06	676493.125	4.19652824348304E-05
1	212	87.6999677785789	1.06887817382813	1.0687255859375	1.55364990234375E-06	1.66042536875466E-06	687880.5625	4.21237891714554E-05
1	213	87.8006757783246	1.05880737304688	1.0589599609375	1.50177001953125E-06	1.59031424118439E-06	705141.25	4.22776429331861E-05
1	214	87.9013837780703	1.04873657226563	1.04888916015625	1.43463134765625E-06	1.5047692158987E-06	731121.0625	4.24255013058428E-05
1	215	88.0020917778161	1.03866577148438	1.03790283203125	1.35009765625E-06	1.401270083079E-06	768761.3125	4.25657235609833E-05
1	216	88.1027997775618	1.02859497070313	1.0284423828125	1.2469482421875E-06	1.28241435959353E-06	824767.5625	4.26964979851618E-05
1	217	88.2035077773075	1.01852416992188	1.0186767578125	1.1279296875E-06	1.14899569325644E-06	903138.5625	4.28160819865298E-05
1	218	88.3042157770533	1.00845336914063	1.00830078125	9.967041015625E-07	1.00497754829121E-06	1011635	4.29230640293099E-05
1	219	88.404923776799	0.998382568359375	0.9979248046875	8.6669921875E-07	8.64900641772692E-07	1151408.5	4.30168947787024E-05
1	220	88.5056317765448	0.988311767578125	0.98846435546875	7.48596191406251E-07	7.3996062610604E-07	1320424	4.30982327088714E-05
1	221	88.6063397762905	0.978240966796875	0.977783203125	6.53991699218751E-07	6.39462086837739E-07	1495100.375	4.31688567914534E-05
1	222	88.7070477760362	0.968170166015625	0.96923828125	5.8868408203125E-07	5.70575139136054E-07	1646448.875	4.32314300269354E-05
1	223	88.807755775782	0.958099365234375	0.95794677734375	5.5419921875E-07	5.30893373706931E-07	1728524.125	4.32889792136848E-05
1	224	88.9084637755277	0.948028564453125	0.94818115234375	5.45349121093749E-07	5.17089745244448E-07	1738668.25	4.33443456131499E-05
1	225	89.0091717752734	0.937957763671875	0.93841552734375	5.5084228515625E-07	5.16918930770771E-07	1703601.125	4.33995446655899E-05
1	226	89.1098797750192	0.927886962890625	0.927734375	5.60302734375E-07	5.1981209026053E-07	1655773.375	4.34554931416642E-05
1	227	89.2105877747649	0.917816162109375	0.91796875	5.6884765625E-07	5.22184393503267E-07	1613733.875	4.35123511124402E-05
1	228	89.3112957745107	0.907745361328125	0.90789794921875	5.70068359375001E-07	5.17563876201166E-07	1592612.5	4.35697002103552E-05
1	229	89.4120037742564	0.897674560546875	0.89813232421875	5.584716796875E-07	5.01581439493748E-07	1608196.875	4.36265290773008E-05
1	230	89.5127117740021	0.887603759765625	0.88775634765625	5.3253173828125E-07	4.72758415526187E-07	1667048.75	4.36814625572879E-05
1	231	89.6134197737479	0.877532958984375	0.877685546875	4.87670898437501E-07	4.2802167854461E-07	1799749.75	4.37328344560228E-05
1	232	89.7141277734936	0.867462158203125	0.86761474609375	4.2449951171875E-07	3.68302011111155E-07	2043853.5	4.37787675764412E-05
1	233	89.8148357732393	0.857391357421875	0.85723876953125	3.4149169921875E-07	2.92739912310935E-07	2510277	4.3817337427754E-05
1	234	89.9155437729851	0.847320556640625	0.84716796875	2.4566650390625E-07	2.08120781053367E-07	3448447.5	4.38469032815192E-05
1	235	90.0162517727308	0.837249755859375	0.83709716796875	1.4495849609375E-07	1.21344342574048E-07	5774737	4.38665738329291E-05
1	236	90.1169597724765	0.827178955078125	0.8270263671875	5.00488281250003E-08	4.13916971808703E-08	16524391	4.38763927377295E-05
1	237	90.2176677722223	0.817108154296875	0.8172607421875	-2.92968749999997E-08	-2.39431852122607E-08	-27895834	4.38774368376471E-05
1	238	90.318375771968	0.807037353515625	0.8074951171875	-8.544921875E-08	-6.8999824520688E-08	-9450000	4.38716597273014E-05
1	239	90.4190837717138	0.796966552734375	0.79742431640625	-1.18103027343749E-07	-9.41782261065782E-08	-6751938	4.38614079030231E-05
1	240	90.5197917714595	0.786895751953125	0.78704833984375	-1.29089355468751E-07	-1.01599567869926E-07	-6096926.5	4.3848962377524E-05
1	241	90.6204997712052	0.776824951171875	0.7769775390625	-1.26037597656251E-07	-9.79283782953644E-08	-6164649	4.38361166743562E-05
1	242	90.721207770951	0.766754150390625	0.7666015625	-1.13830566406251E-07	-8.72626912951091E-08	-6734584.5	4.38240385847166E-05
1	243	90.8219157706967	0.756683349609375	0.75714111328125	-1.01318359374999E-07	-7.67122898537309E-08	-7472892	4.38132046838291E-05
1	244	90.9226237704424	0.746612548828125	0.746490478515625	-9.73510742187503E-08	-7.26716464782839E-08	-7668025.5	4.38032002421096E-05
1	245	91.0233317701882	0.736541748046875	0.73638916015625	-1.07727050781251E-07	-7.93290269029967E-08	-6835694.5	4.37928720202763E-05
1	246	91.1240397699339	0.726470947265625	0.726409912109375	-1.3885498046875E-07	-1.00865626961877E-07	-5231429	4.37804555986077E-05
1	247	91.2247477696797	0.716400146484375	0.716339111328125	-1.96533203125E-07	-1.40784408131367E-07	-3644876	4.37635681009851E-05
1	248	91.3254557694254	0.706329345703125	0.706268310546875	-2.838134765625E-07	-2.00448468490322E-07	-2488494.5	4.37393828178756E-05
1	249	91.4261637691711	0.696258544921875	0.6961669921875	-4.0252685546875E-07	-2.80225890492147E-07	-1729492.125	4.37048220192082E-05
1	250	91.5268717689169	0.686187744140625	0.686065673828125	-5.4779052734375E-07	-3.75820292219942E-07	-1252423.375	4.36569680459797E-05
1	251	91.6275797686626	0.676116943359375	0.676055908203125	-7.086181640625E-07	-4.79065477065888E-07	-954048.25	4.35937035945244E-05
1	252	91.7282877684083	0.666046142578125	0.66595458984375	-8.7005615234375E-07	-5.79417871904297E-07	-765415.6875	4.35142101196107E-05
1	253	91.8289957681541	0.655975341796875	0.65594482421875	-1.011962890625E-06	-6.63791752231191E-07	-648190.625	4.34194444096647E-05
1	254	91.9297037678998	0.645904541015625	0.645843505859375	-1.11785888671875E-06	-7.2196189648821E-07	-577750.4375	4.33122004324105E-05
1	255	92.0304117676455	0.635833740234375	0.635772705078125	-1.18011474609375E-06	-7.50284755213215E-07	-538738.0625	4.31964872404933E-05
1	256	92.1311197673913	0.625762939453125	0.625701904296875	-1.19964599609375E-06	-7.5062081350552E-07	-521572.09375	4.30766558565665E-05
1	257	92.231827767137	0.615692138671875	0.6156005859375	-1.18255615234375E-06	-7.27982239823177E-07	-520567.75	4.29567044193391E-05
1	258	92.3325357668828	0.605621337890625	0.6055908203125	-1.141357421875E-06	-6.91195566560054E-07	-530588.25	4.28396851930302E-05
1	259	92.4332437666285	0.595550537109375	0.59552001953125	-1.08489990234375E-06	-6.46079570287839E-07	-548917.0625	4.27275845140684E-05
1	260	92.5339517663742	0.585479736328125	0.585479736328125	-1.02142333984375E-06	-5.98022609210602E-07	-573199.9375	4.26215228799265E-05
1	261	92.63465976612	0.575408935546875	0.575408935546875	-9.5703125E-07	-5.50684319478023E-07	-601243.625	4.25219004682731E-05
1	262	92.7353677658657	0.565338134765625	0.565399169921875	-8.9599609375E-07	-5.06595426941203E-07	-631028.625	4.242858994985E-05
1	263	92.8360757656114	0.555267333984375	0.55523681640625	-8.3831787109375E-07	-4.65464950138994E-07	-662322.5625	4.23412602685858E-05
1	264	92.9367837653572	0.545196533203125	0.545074462890625	-7.8582763671875E-07	-4.28334573143729E-07	-693631.0625	4.22594785050023E-05
1	265	93.0374917651029	0.535125732421875	0.535064697265625	-7.37609863281249E-07	-3.94669001479997E-07	-725403.375	4.2182768083876E-05
1	266	93.1381997648487	0.525054931640625	0.52508544921875	-6.94580078125E-07	-3.64713883982404E-07	-755975.375	4.2110652429983E-05
1	267	93.2389077645944	0.514984130859375	0.51507568359375	-6.5582275390625E-07	-3.37798354621555E-07	-785388.5625	4.20426549680997E-05
1	268	93.3396157643401	0.504913330078125	0.504913330078125	-6.207275390625E-07	-3.13413607955226E-07	-813421.875	4.19783755205572E-05
1	269	93.4403237640859	0.494842529296875	0.494842529296875	-5.889892578125E-07	-2.91456927925537E-07	-840155.5	4.19174612034112E-05
1	270	93.5410317638316	0.484771728515625	0.48486328125	-5.60913085937501E-07	-2.7196614382774E-07	-864417.875	4.18595591327175E-05
1	271	93.6417397635773	0.474700927734375	0.474700927734375	-5.34973144531251E-07	-2.53952237017074E-07	-887336	4.18043746321928E-05
1	272	93.7424477633231	0.464630126953125	0.46466064453125	-5.11474609375E-07	-2.37662106883363E-07	-908472.625	4.17516821471509E-05
1	273	93.8431557630688	0.454559326171875	0.454559326171875	-4.901123046875E-07	-2.22785118353386E-07	-927459.5	4.17012488469481E-05
1	274	93.9438637628145	0.444488525390625	0.444488525390625	-4.70581054687499E-07	-2.09167879461347E-07	-944552.5	4.16528746427502E-05
1	275	94.0445717625603	0.434417724609375	0.434356689453125	-4.5318603515625E-07	-1.96844382571726E-07	-958451.1875	4.16063594457228E-05
1	276	94.145279762306	0.424346923828125	0.42437744140625	-4.3670654296875E-07	-1.85328403290441E-07	-971768	4.15615504607558E-05
1	277	94.2459877620518	0.414276123046875	0.41424560546875	-4.2266845703125E-07	-1.75088544551727E-07	-980072.25	4.15182767028455E-05
1	278	94.3466957617975	0.404205322265625	0.4041748046875	-4.0924072265625E-07	-1.65404784979728E-07	-987621.25	4.14763853768818E-05
1	279	94.4474037615432	0.394134521484375	0.3941650390625	-3.97338867187499E-07	-1.56617090851796E-07	-992012.3125	4.14357709814794E-05
1	280	94.548111761289	0.384063720703125	0.38409423828125	-3.863525390625E-07	-1.48395784549393E-07	-994154.875	4.13963098253589E-05
1	281	94.6488197610347	0.373992919921875	0.373992919921875	-3.765869140625E-07	-1.40840839435441E-07	-993111.8125	4.1357892769156E-05
1	282	94.7495277607804	0.363922119140625	0.363983154296875	-3.680419921875E-07	-1.33961080450717E-07	-988971.8125	4.13203961215913E-05
1	283	94.8502357605262	0.353851318359375	0.353851318359375	-3.5980224609375E-07	-1.27316496900676E-07	-983460.5625	4.12837471230887E-05
1	284	94.9509437602719	0.343780517578125	0.343841552734375	-3.52783203125E-07	-1.21301525268791E-07	-974654	4.12478657381143E-05
1	285	95.0516517600176	0.333709716796875	0.333740234375	-3.46984863281249E-07	-1.15802805567E-07	-961829.4375	4.12126319133677E-05
1	286	95.1523597597634	0.323638916015625	0.32366943359375	-3.41796875E-07	-1.10629194693956E-07	-946964.3125	4.11779474234208E-05
1	287	95.2530677595091	0.313568115234375	0.313568115234375	-3.375244140625E-07	-1.05836889474631E-07	-929023.5625	4.11437395086978E-05
1	288	95.3537757592549	0.303497314453125	0.303497314453125	-3.3447265625E-07	-1.01511552941247E-07	-907390.5625	4.1109902667813E-05
1	289	95.4544837590006	0.293426513671875	0.29339599609375	-3.32031250000001E-07	-9.74166383116426E-08	-883639.6875	4.10763423133176E-05
1	290	95.5551917587463	0.283355712890625	0.283416748046875	-3.3111572265625E-07	-9.38437381137192E-08	-855944.75	4.10429493058473E-05
1	291	95.6558997584921	0.273284912109375	0.2733154296875	-3.3111572265625E-07	-9.04990287153851E-08	-825437.875	4.10096035921015E-05
1	292	95.7566077582378	0.263214111328125	0.263214111328125	-3.314208984375E-07	-8.7234653278756E-08	-794198.9375	4.09762433264405E-05
1	293	95.8573157579835	0.253143310546875	0.253143310546875	-3.3233642578125E-07	-8.41287430830562E-08	-761708	4.09428212151397E-05
1	294	95.9580237577293	0.243072509765625	0.243072509765625	-3.338623046875E-07	-8.11527414157354E-08	-728062.1875	4.09092754125595E-05
1	295	96.058731757475	0.233001708984375	0.233001708984375	-3.35693359375E-07	-7.82171269975152E-08	-694090.9375	4.08755586249754E-05
1	296	96.1594397572208	0.222930908203125	0.22296142578125	-3.3721923828125E-07	-7.51868824977464E-08	-661176.5	4.08416744903661E-05
1	297	96.2601477569665	0.212860107421875	0.212860107421875	-3.3905029296875E-07	-7.21702804185043E-08	-627812.8125	4.08076230087318E-05
1	298	96.3608557567122	0.202789306640625	0.20281982421875	-3.4027099609375E-07	-6.90137014203174E-08	-596053.8125	4.07734150940087E-05
1	299	96.461563756458	0.192718505859375	0.192718505859375	-3.4149169921875E-07	-6.58117684793069E-08	-564343.1875	4.0739087125985E-05
1	300	96.5622717562037	0.182647705078125	0.182708740234375	-3.43017578125E-07	-6.26723064556245E-08	-532651.25	4.07046172767878E-05
1	301	96.6629797559494	0.172576904296875	0.172637939453125	-3.44238281250001E-07	-5.94285829436103E-08	-501507.125	4.06700128223747E-05
1	302	96.7636877556952	0.162506103515625	0.1624755859375	-3.45764160156251E-07	-5.61782336205852E-08	-469902.90625	4.06352664867882E-05
1	303	96.8643957554409	0.152435302734375	0.152435302734375	-3.4759521484375E-07	-5.29857793196697E-08	-438542.59375	4.06003564421553E-05
1	304	96.9651037551866	0.142364501953125	0.142425537109375	-3.5125732421875E-07	-5.00280101789485E-08	-405473.5	4.05651662731543E-05
1	305	97.0658117549324	0.132293701171875	0.132354736328125	-3.570556640625E-07	-4.72580055088656E-08	-370683.78125	4.05294995289296E-05
1	306	97.1665197546781	0.122222900390625	0.122344970703125	-3.67126464843751E-07	-4.49160744153687E-08	-333250.21875	4.04930324293673E-05
1	307	97.2672277544239	0.112152099609375	0.112213134765625	-3.83605957031249E-07	-4.30456239541854E-08	-292521.90625	4.04552301915828E-05
1	308	97.3679357541696	0.102081298828125	0.10211181640625	-4.08020019531249E-07	-4.16636645184099E-08	-250261.78125	4.04153688577935E-05
1	309	97.4686437539153	0.092010498046875	0.09210205078125	-4.443359375E-07	-4.09242524312958E-08	-207280.21875	4.03724479838274E-05
1	310	97.5693517536611	0.081939697265625	0.08203125	-4.9591064453125E-07	-4.06801703434212E-08	-165415.390625	4.0325103327632E-05
1	311	97.6700597534068	0.071868896484375	0.071929931640625	-5.6884765625E-07	-4.09171754256477E-08	-126448.4921875	4.02714904339518E-05
1	312	97.7707677531525	0.061798095703125	0.0618896484375	-6.67724609375001E-07	-4.13252401187947E-08	-92687.390625	4.02092227886897E-05
1	313	97.8714757528983	0.051727294921875	0.0517578125	-7.977294921875E-07	-4.12887324330313E-08	-64881.41015625	4.01354300265666E-05
1	314	97.972183752644	0.041656494140625	0.041766357421875	-9.625244140625E-07	-4.02011366418265E-08	-43392.51953125	4.00467943109106E-05
1	315	98.0728917523898	0.031585693359375	0.031689453125	-1.15997314453125E-06	-3.67589123584366E-08	-27319.12890625	3.99399177695159E-05
1	316	98.1735997521355	0.021514892578125	0.0216217041015625	-1.37969970703125E-06	-2.98314581925752E-08	-15671.3115234375	3.9812035538489E-05
1	317	98.2743077518812	0.011444091796875	0.0115447998046875	-1.60675048828125E-06	-1.85496116245076E-08	-7185.185546875	3.96616560465191E-05
1	318	98.375015751627	0.001373291015625	0.0014923095703125	-1.81732177734375E-06	-2.71200661927651E-09	-821.158752441406	3.94892413169146E-05
1	319	98.4757237513727	-0.008697509765625	-0.00859375	-1.9903564453125E-06	1.71046252717133E-08	4317.6943359375	3.92975089198444E-05
1	320	98.5764317511184	-0.018768310546875	-0.01864013671875	-2.11090087890625E-06	3.93474799409432E-08	8830.41796875	3.9090995414881E-05
1	321	98.6771397508642	-0.028839111328125	-0.0287017822265625	-2.17620849609375E-06	6.2461062100283E-08	13188.8935546875	3.8875121390447E-05
1	322	98.7778477506099	-0.038909912109375	-0.0387664794921875	-2.19207763671875E-06	8.49791348400686E-08	17684.8125	3.86551619158126E-05
1	323	98.8785557503556	-0.048980712890625	-0.0488250732421875	-2.1710205078125E-06	1.06000236144155E-07	22489.458984375	3.84354607376736E-05
1	324	98.9792637501014	-0.059051513671875	-0.059051513671875	-2.12615966796875E-06	1.25552944041374E-07	27773.791015625	3.82190810341854E-05
1	325	99.0799717498471	-0.069122314453125	-0.069061279296875	-2.06939697265625E-06	1.42915197898219E-07	33372.66015625	3.80078199668787E-05
1	326	99.1806797495929	-0.079193115234375	-0.079132080078125	-2.01019287109375E-06	1.59070751237778E-07	39365.4140625	3.78023942175787E-05
1	327	99.2813877493386	-0.089263916015625	-0.08917236328125	-1.9512939453125E-06	1.74001485220288E-07	45699.09765625	3.76029165636282E-05
1	328	99.3820957490843	-0.099334716796875	-0.0992431640625	-1.89727783203125E-06	1.88291849667621E-07	52308.1875	3.74091287085321E-05
1	329	99.4828037488301	-0.109405517578125	-0.1092529296875	-1.84967041015625E-06	2.02081906763851E-07	59066.16015625	3.72204522136599E-05
1	330	99.5835117485758	-0.119476318359375	-0.119354248046875	-1.80816650390625E-06	2.15812349324551E-07	66008.4453125	3.70362649846356E-05
1	331	99.6842197483215	-0.129547119140625	-0.129486083984375	-1.7718505859375E-06	2.29429986120522E-07	73079.578125	3.68559994967654E-05
1	332	99.7849277480673	-0.139617919921875	-0.1395263671875	-1.7431640625E-06	2.43217357365211E-07	80042.015625	3.66790045518428E-05
1	333	99.885635747813	-0.149688720703125	-0.14959716796875	-1.71966552734375E-06	2.57257084967932E-07	86992.015625	3.65046362276189E-05
1	334	99.9863437475587	-0.159759521484375	-0.15960693359375	-1.700439453125E-06	2.71401916052127E-07	93862.171875	3.63324215868488E-05
1	335	100.087051747304	-0.169830322265625	-0.16973876953125	-1.68701171875E-06	2.86351280465169E-07	100615.046875	3.61618476745207E-05
1	336	100.18775974705	-0.179901123046875	-0.17974853515625	-1.67877197265625E-06	3.01756784892859E-07	107071.4453125	3.59923687938135E-05
1	337	100.288467746796	-0.189971923828125	-0.1898193359375	-1.67449951171875E-06	3.1785236842552E-07	113358.8515625	3.58235156454612E-05
1	338	100.389175746542	-0.200042724609375	-0.19989013671875	-1.6741943359375E-06	3.34654941980261E-07	119394.8203125	3.56548953277525E-05
1	339	100.489883746287	-0.189971923828125	-0.189788818359375	-1.474609375E-06	2.79864366348193E-07	128704.46875	3.5496341297403E-05
2	340	100.590591746033	-0.179901123046875	-0.179718017578125	-1.33056640625E-06	2.3912676283544E-07	135068.8125	3.535508949426E-05
2	341	100.691299745779	-0.169830322265625	-0.16973876953125	-1.21368408203125E-06	2.06009246994654E-07	139854.15625	3.52269780705683E-05
2	342	100.792007745525	-0.159759521484375	-0.159698486328125	-1.114501953125E-06	1.77984276206189E-07	143291.34375	3.51097442035098E-05
2	343	100.89271574527	-0.149688720703125	-0.14959716796875	-1.0272216796875E-06	1.53669446945059E-07	145632.8125	3.50018999597523E-05
2	344	100.993423745016	-0.139617919921875	-0.1395263671875	-9.503173828125E-07	1.32594337287628E-07	146820.8125	3.49023212038446E-05
2	345	101.094131744762	-0.129547119140625	-0.129486083984375	-8.8043212890625E-07	1.14003704254628E-07	147071.0625	3.48101384588517E-05
2	346	101.194839744508	-0.119476318359375	-0.11932373046875	-8.1451416015625E-07	9.71908633573548E-08	146496.828125	3.47247878380585E-05
2	347	101.295547744253	-0.109405517578125	-0.1092529296875	-7.5103759765625E-07	8.20530559053623E-08	145469.328125	3.46459564752877E-05
2	348	101.396255743999	-0.099334716796875	-0.09930419921875	-6.878662109375E-07	6.83080045860152E-08	144365.578125	3.45735024893656E-05
2	349	101.496963743745	-0.089263916015625	-0.08917236328125	-6.2225341796875E-07	5.54878099023881E-08	143305.546875	3.45075350196566E-05
2	350	101.597671743491	-0.079193115234375	-0.0791015625	-5.50231933593751E-07	4.35242029084293E-08	143760.40625	3.44484942615964E-05
2	351	101.698379743236	-0.069122314453125	-0.069122314453125	-4.681396484375E-07	3.23588942308106E-08	147653.203125	3.43972133123316E-05
2	352	101.799087742982	-0.059051513671875	-0.058929443359375	-3.7109375E-07	2.1868347133136E-08	158799.34375	3.43549545505084E-05
2	353	101.899795742728	-0.048980712890625	-0.0488189697265625	-2.520751953125E-07	1.23060504009231E-08	193668.28125	3.43235769832972E-05
2	354	102.000503742473	-0.038909912109375	-0.038763427734375	-1.0498046875E-07	4.06940259267685E-09	369244.1875	3.43055980920326E-05
2	355	102.101211742219	-0.028839111328125	-0.02874755859375	7.29370117187503E-08	-2.09676098705813E-09	-394142.25	3.43039828294422E-05
2	356	102.201919741965	-0.018768310546875	-0.018646240234375	2.82897949218749E-07	-5.27498267288706E-09	-65911.546875	3.4321903513046E-05
2	357	102.302627741711	-0.008697509765625	-0.008575439453125	5.16662597656251E-07	-4.43060876875734E-09	-16597.755859375	3.43621613865253E-05
2	358	102.403335741456	0.001373291015625	0.00145874023437501	7.60498046875E-07	1.10936904107461E-09	1918.13806152344	3.4426473575877E-05
2	359	102.504043741202	0.011444091796875	0.0115203857421875	9.93957519531249E-07	1.14507745507808E-08	11590.419921875	3.45148182532284E-05
2	360	102.604751740948	0.021514892578125	0.021624755859375	1.1944580078125E-06	2.58298609168151E-08	18104.2421875	3.46250126312952E-05
2	361	102.705459740694	0.031585693359375	0.0316375732421875	1.34429931640625E-06	4.25303667839216E-08	23534.619140625	3.47528475685976E-05
2	362	102.806167740439	0.041656494140625	0.0417633056640625	1.43829345703125E-06	6.00678902173968E-08	29036.70703125	3.48929643223528E-05
2	363	102.906875740185	0.051727294921875	0.051727294921875	1.4776611328125E-06	7.64354055604599E-08	35006.19921875	3.5039793147007E-05
2	364	103.007583739931	0.061798095703125	0.061859130859375	1.4739990234375E-06	9.11802970904318E-08	41966.875	3.51884227711707E-05
2	365	103.108291739677	0.071868896484375	0.071868896484375	1.441650390625E-06	1.03609821167083E-07	49851.8203125	3.53352370439097E-05
2	366	103.208999739422	0.081939697265625	0.082000732421875	1.392822265625E-06	1.14212440394112E-07	58873.796875	3.54779622284696E-05
2	367	103.309707739168	0.092010498046875	0.092071533203125	1.336669921875E-06	1.23069256119379E-07	68881.28125	3.56154050678015E-05
2	368	103.410415738914	0.102081298828125	0.102081298828125	1.2799072265625E-06	1.30654598251567E-07	79756.796875	3.57471581082791E-05
2	369	103.51112373866	0.112152099609375	0.112213134765625	1.22528076171875E-06	1.37492591534283E-07	91581.5703125	3.5873305023415E-05
2	370	103.611831738405	0.122222900390625	0.12225341796875	1.1761474609375E-06	1.43788042805681E-07	103943.9609375	3.59942278009839E-05
2	371	103.712539738151	0.132293701171875	0.13232421875	1.1309814453125E-06	1.49656230519213E-07	116999.4609375	3.61103993782308E-05
2	372	103.813247737897	0.142364501953125	0.14239501953125	1.0919189453125E-06	1.55483803609968E-07	130408.0546875	3.62223327101674E-05
2	373	103.913955737642	0.152435302734375	0.1524658203125	1.0565185546875E-06	1.61082965632886E-07	144309.65625	3.63305152859539E-05
2	374	104.014663737388	0.162506103515625	0.16253662109375	1.02630615234375E-06	1.66812327506705E-07	158370.515625	3.64353945769835E-05
2	375	104.115371737134	0.172576904296875	0.172607421875	9.9945068359375E-07	1.72512599760921E-07	172702.296875	3.65373998647556E-05
2	376	104.21607973688	0.182647705078125	0.182708740234375	9.7625732421875E-07	1.78370740400169E-07	187152.234375	3.66368840332143E-05
2	377	104.316787736625	0.192718505859375	0.19268798828125	9.5550537109375E-07	1.84114398393831E-07	201660.8125	3.67341563105583E-05
2	378	104.417495736371	0.202789306640625	0.20281982421875	9.37499999999999E-07	1.90143580880431E-07	216341.15625	3.68294749932829E-05
2	379	104.518203736117	0.212860107421875	0.21295166015625	9.21020507812501E-07	1.96132845076136E-07	231212.71875	3.69230583601166E-05
2	380	104.618911735863	0.222930908203125	0.22296142578125	9.06982421874999E-07	2.02222082634762E-07	245827.734375	3.70151064998936E-05
2	381	104.719619735608	0.233001708984375	0.2330322265625	8.95080566406251E-07	2.08582605409902E-07	260347.78125	3.71058486052789E-05
2	382	104.820327735354	0.243072509765625	0.243133544921875	8.84094238281249E-07	2.14952962096504E-07	275008.625	3.71954374713823E-05
2	383	104.9210357351	0.253143310546875	0.253204345703125	8.7432861328125E-07	2.21383800180774E-07	289598.625	3.72839785995893E-05
2	384	105.021743734846	0.263214111328125	0.263214111328125	8.65783691406249E-07	2.2788647413563E-07	304018.34375	3.73716029571369E-05
2	385	105.122451734591	0.273284912109375	0.27325439453125	8.5784912109375E-07	2.34411032806747E-07	318534.34375	3.74583942175377E-05
2	386	105.223159734337	0.283355712890625	0.283294677734375	8.5174560546875E-07	2.41294998204467E-07	332604.8125	3.75444797100499E-05
2	387	105.323867734083	0.293426513671875	0.29339599609375	8.4564208984375E-07	2.48107994593738E-07	346950.5625	3.76299467461649E-05
2	388	105.424575733829	0.303497314453125	0.303497314453125	8.41369628906249E-07	2.55353427291993E-07	360718.1875	3.77148971892893E-05
2	389	105.525283733574	0.313568115234375	0.3135986328125	8.3740234375E-07	2.62608210732651E-07	374489.8125	3.77994292648509E-05
2	390	105.62599173332	0.323638916015625	0.323699951171875	8.34045410156251E-07	2.69980461098385E-07	388108.3125	3.7883593904553E-05
2	391	105.726699733066	0.333709716796875	0.33380126953125	8.319091796875E-07	2.77692350891812E-07	401247.25	3.79674820578657E-05
2	392	105.827407732811	0.343780517578125	0.34375	8.2977294921875E-07	2.85234449393101E-07	414269.96875	3.805115193245E-05
2	393	105.928115732557	0.353851318359375	0.35382080078125	8.282470703125E-07	2.9305104476407E-07	427192.34375	3.8134639908094E-05
2	394	106.028823732303	0.363922119140625	0.363983154296875	8.27941894531251E-07	3.01356891441174E-07	439624.0625	3.82180369342677E-05
2	395	106.129531732049	0.373992919921875	0.373992919921875	8.2763671875E-07	3.09530264530622E-07	451880.53125	3.83014012186322E-05
2	396	106.230239731794	0.384063720703125	0.384002685546875	8.27941894531251E-07	3.17931892368506E-07	463803.9375	3.83847655029967E-05
2	397	106.33094773154	0.394134521484375	0.394195556640625	8.29467773437501E-07	3.26972497077804E-07	475239.15625	3.84682243748102E-05
2	398	106.431655731286	0.404205322265625	0.404205322265625	8.30078125E-07	3.35521974648145E-07	486948.5625	3.85517887480091E-05
2	399	106.532363731032	0.414276123046875	0.414337158203125	8.3160400390625E-07	3.44564426768557E-07	498238.53125	3.86354622605722E-05
2	400	106.633071730777	0.424346923828125	0.42437744140625	8.331298828125E-07	3.53561517840717E-07	509377.28125	3.87192885682452E-05
2	401	106.733779730523	0.434417724609375	0.434478759765625	8.3526611328125E-07	3.62905353767928E-07	520168.09375	3.88032967748586E-05
2	402	106.834487730269	0.444488525390625	0.444488525390625	8.37097167968751E-07	3.72080080524029E-07	530988	3.88875087082852E-05
2	403	106.935195730015	0.454559326171875	0.454559326171875	8.3953857421875E-07	3.81620054668019E-07	541439.5	3.89719316444825E-05
2	404	107.03590372976	0.464630126953125	0.464630126953125	8.4228515625E-07	3.91351051121092E-07	551630.4375	3.90566201531328E-05
2	405	107.136611729506	0.474700927734375	0.474700927734375	8.45947265625E-07	4.01571924157906E-07	561147.1875	3.91416288039181E-05
2	406	107.237319729252	0.484771728515625	0.484771728515625	8.4991455078125E-07	4.12014543371697E-07	570377	3.9227023080457E-05
2	407	107.338027728998	0.494842529296875	0.49481201171875	8.5418701171875E-07	4.22661969423643E-07	579278.375	3.93128320865799E-05
2	408	107.438735728743	0.504913330078125	0.5048828125	8.59680175781249E-07	4.34037730201453E-07	587291.4375	3.93991285818629E-05
2	409	107.539443728489	0.514984130859375	0.514984130859375	8.6639404296875E-07	4.46179171831318E-07	594399.4375	3.94860435335431E-05
2	410	107.640151728235	0.525054931640625	0.525054931640625	8.7432861328125E-07	4.59070520264504E-07	600523.5625	3.95736969949212E-05
2	411	107.74085972798	0.535125732421875	0.53509521484375	8.837890625E-07	4.72911267479503E-07	605455.8125	3.96622272091918E-05
2	412	107.841567727726	0.545196533203125	0.54510498046875	8.96301269531249E-07	4.88578280055663E-07	608171.625	3.97518597310409E-05
2	413	107.942275727472	0.555267333984375	0.555267333984375	9.11560058593749E-07	5.0615949476196E-07	609139.625	3.98428928747308E-05
2	414	108.042983727218	0.565338134765625	0.56524658203125	9.31396484375E-07	5.26468681982806E-07	606880.75	3.99356940761209E-05
2	415	108.143691726963	0.575408935546875	0.575408935546875	9.5855712890625E-07	5.51562266082328E-07	600286.5625	4.00308599637356E-05
2	416	108.244399726709	0.585479736328125	0.58551025390625	9.94873046875E-07	5.82508391744341E-07	588527.625	4.01292236347217E-05
2	417	108.345107726455	0.595550537109375	0.5955810546875	1.04522705078125E-06	6.22517404735845E-07	569810.25	4.02319492422976E-05
2	418	108.445815726201	0.605621337890625	0.605560302734375	1.11358642578125E-06	6.74343766604579E-07	543792.8125	4.03406556870323E-05
2	419	108.546523725946	0.615692138671875	0.615631103515625	1.2060546875E-06	7.42484758120554E-07	510450.40625	4.04574602725916E-05
2	420	108.647231725692	0.625762939453125	0.625732421875	1.32598876953125E-06	8.29714110750501E-07	471898.75	4.05849568778649E-05
2	421	108.747939725438	0.635833740234375	0.63580322265625	1.47430419921875E-06	9.37367360620556E-07	431256.46875	4.07259649364278E-05
2	422	108.848647725184	0.645904541015625	0.6458740234375	1.64703369140625E-06	1.06377626707399E-06	392143.8125	4.08831365348306E-05
2	423	108.949355724929	0.655975341796875	0.655914306640625	1.83502197265625E-06	1.20361721656081E-06	357442.21875	4.10584689234383E-05
2	424	109.050063724675	0.666046142578125	0.665985107421875	2.0233154296875E-06	1.34749791413924E-06	329155.375	4.12527515436523E-05
2	425	109.150771724421	0.676116943359375	0.67608642578125	2.19329833984375E-06	1.48285926115932E-06	308251	4.14650749007706E-05
2	426	109.251479724167	0.686187744140625	0.6861572265625	2.3284912109375E-06	1.59771093422023E-06	294678.90625	4.169276508037E-05
2	427	109.352187723912	0.696258544921875	0.696197509765625	2.420654296875E-06	1.68525343724468E-06	287607.15625	4.19319039792754E-05
2	428	109.452895723658	0.706329345703125	0.706268310546875	2.46826171875E-06	1.7432550976082E-06	286139.96875	4.21780823671725E-05
2	429	109.553603723404	0.716400146484375	0.71630859375	2.47955322265625E-06	1.77612525931181E-06	288886.15625	4.24272257077973E-05
2	430	109.654311723149	0.726470947265625	0.726409912109375	2.464599609375E-06	1.79030951130699E-06	294737.5	4.2676183511503E-05
2	431	109.755019722895	0.736541748046875	0.736419677734375	2.43621826171875E-06	1.79407902578532E-06	302279.84375	4.29229585279245E-05
2	432	109.855727722641	0.746612548828125	0.746551513671875	2.4041748046875E-06	1.79484027285071E-06	310523	4.31666921940632E-05
2	433	109.956435722387	0.756683349609375	0.75653076171875	2.3748779296875E-06	1.79666812982759E-06	318555.65625	4.34073335782159E-05
2	434	110.057143722132	0.766754150390625	0.7672119140625	2.35595703125E-06	1.80751817424607E-06	325647.6875	4.36455520684831E-05
2	435	110.157851721878	0.776824951171875	0.77728271484375	2.3516845703125E-06	1.82792371106189E-06	330521.6875	4.38825991295744E-05
2	436	110.258559721624	0.786895751953125	0.78643798828125	2.3638916015625E-06	1.85905412308784E-06	332687.84375	4.41200500063132E-05
2	437	110.35926772137	0.796966552734375	0.79681396484375	2.39532470703125E-06	1.90862806448422E-06	332653.84375	4.43596945842728E-05
2	438	110.459975721115	0.807037353515625	0.80718994140625	2.4456787109375E-06	1.9741271444218E-06	330047.4375	4.4603457354242E-05
2	439	110.560683720861	0.817108154296875	0.8172607421875	2.510986328125E-06	2.05213041226671E-06	325474	4.48530445282813E-05
2	440	110.661391720607	0.827178955078125	0.82733154296875	2.58544921875E-06	2.13902376344777E-06	319995.28125	4.51096711913124E-05
2	441	110.762099720353	0.837249755859375	0.83740234375	2.65899658203125E-06	2.22664993998478E-06	314931.71875	4.53737520729192E-05
2	442	110.862807720098	0.847320556640625	0.84716796875	2.72186279296875E-06	2.30587488658784E-06	311245.65625	4.56446978205349E-05
2	443	110.963515719844	0.857391357421875	0.85784912109375	2.7655029296875E-06	2.37238418776542E-06	310196.4375	4.59210095868912E-05
2	444	111.06422371959	0.867462158203125	0.8673095703125	2.7880859375E-06	2.418133590254E-06	311077.0625	4.62006537418347E-05
2	445	111.164931719336	0.877532958984375	0.87799072265625	2.79022216796875E-06	2.44978923547023E-06	314666.96875	4.6481545723509E-05
2	446	111.265639719081	0.887603759765625	0.887451171875	2.77801513671875E-06	2.46535273618065E-06	319455.15625	4.67619283881504E-05
2	447	111.366347718827	0.897674560546875	0.8978271484375	2.75726318359375E-06	2.47554567067709E-06	325622.59375	4.70406521344557E-05
2	448	111.467055718573	0.907745361328125	0.90789794921875	2.7349853515625E-06	2.48308742811787E-06	331957.1875	4.7317207645392E-05
2	449	111.567763718318	0.917816162109375	0.91796875	2.71636962890625E-06	2.4935425244621E-06	337939.5625	4.75917040603235E-05
2	450	111.668471718064	0.927886962890625	0.927734375	2.70782470703125E-06	2.51214214586071E-06	342612.40625	4.78648362332024E-05
2	451	111.76917971781	0.937957763671875	0.9381103515625	2.71240234375E-06	2.54453266279597E-06	345859.59375	4.8137764679268E-05
2	452	111.869887717556	0.948028564453125	0.94818115234375	2.73529052734375E-06	2.5935510166164E-06	346647.3125	4.84120791952591E-05
2	453	111.970595717301	0.958099365234375	0.95794677734375	2.77801513671875E-06	2.66119036496093E-06	344831.40625	4.86896933580283E-05
2	454	112.071303717047	0.968170166015625	0.96832275390625	2.8424072265625E-06	2.75236766356102E-06	340669.96875	4.89727062813472E-05
2	455	112.172011716793	0.978240966796875	0.9783935546875	2.9248046875E-06	2.86161002804874E-06	334515.875	4.92631079396233E-05
2	456	112.272719716539	0.988311767578125	0.98846435546875	3.017578125E-06	2.98276836474543E-06	327568.78125	4.95623316965066E-05
2	457	112.373427716284	0.998382568359375	0.99884033203125	3.11065673828125E-06	3.10704945150064E-06	321102.71875	4.98709123348817E-05
2	458	112.47413571603	1.00845336914063	1.00860595703125	3.18939208984375E-06	3.21683978654619E-06	316237.6875	5.01881440868601E-05
2	459	112.574843715776	1.01852416992188	1.01837158203125	3.2452392578125E-06	3.30485931954172E-06	313804.78125	5.05121533933561E-05
2	460	112.675551715522	1.02859497070313	1.02813720703125	3.27301025390625E-06	3.36510356646613E-06	314125.875	5.08403754793108E-05
2	461	112.776259715267	1.03866577148438	1.038818359375	3.27239990234375E-06	3.39942903337942E-06	317448.46875	5.1169961807318E-05
2	462	112.876967715013	1.04873657226563	1.04888916015625	3.250732421875E-06	3.40965789291658E-06	322662.40625	5.14984276378527E-05
2	463	112.977675714759	1.05880737304688	1.05865478515625	3.21380615234375E-06	3.40231122208934E-06	329408.40625	5.18239430675749E-05
2	464	113.078383714505	1.06887817382813	1.06903076171875	3.16864013671875E-06	3.38737368110742E-06	337378.4375	5.21453257533722E-05
2	465	113.17909171425	1.07894897460938	1.0791015625	3.118896484375E-06	3.36560583491519E-06	345988.28125	5.24619281350169E-05
2	466	113.279799713996	1.08901977539063	1.0894775390625	3.070068359375E-06	3.34477044816595E-06	354870.78125	5.277356467559E-05
2	467	113.380507713742	1.09909057617188	1.09893798828125	3.02337646484375E-06	3.32250306200876E-06	363480.375	5.30803954461589E-05
2	468	113.481215713487	1.10916137695313	1.109619140625	2.979736328125E-06	3.30637249135179E-06	372388.375	5.33826751052402E-05
2	469	113.581923713233	1.11923217773438	1.11907958984375	2.94036865234375E-06	3.29050658365304E-06	380591.59375	5.36807783646509E-05
2	470	113.682631712979	1.12930297851563	1.12945556640625	2.904052734375E-06	3.27999850924243E-06	388923.90625	5.3975065384293E-05
2	471	113.783339712725	1.13937377929688	1.1395263671875	2.87261962890625E-06	3.27342559103272E-06	396685.46875	5.42659472557716E-05
2	472	113.88404771247	1.14944458007813	1.1492919921875	2.84393310546875E-06	3.26850954479596E-06	404120.625	5.45537986909039E-05
2	473	113.984755712216	1.15951538085938	1.15936279296875	2.81829833984375E-06	3.26743020195863E-06	411369.78125	5.48389143659733E-05
2	474	114.085463711962	1.16958618164063	1.16973876953125	2.79571533203125E-06	3.27025668411807E-06	418404.09375	5.51215998711996E-05
2	475	114.186171711708	1.17965698242188	1.17950439453125	2.77618408203125E-06	3.274521077401E-06	424865.375	5.54021680727601E-05
2	476	114.286879711453	1.18972778320313	1.1895751953125	2.75909423828125E-06	3.28214991895948E-06	431147.03125	5.56808918190654E-05
2	477	114.387587711199	1.19979858398438	1.19964599609375	2.744140625E-06	3.29199724546925E-06	437166.375	5.59580003027804E-05
2	478	114.488295710945	1.20986938476563	1.21002197265625	2.7313232421875E-06	3.30496095557464E-06	443016.78125	5.62337118026335E-05
2	479	114.589003710691	1.21994018554688	1.219482421875	2.71942138671875E-06	3.31628643834847E-06	448434.5625	5.65081791137345E-05
2	480	114.689711710436	1.23001098632813	1.2298583984375	2.7105712890625E-06	3.33361867888016E-06	453726.65625	5.67816023249179E-05
2	481	114.790419710182	1.24008178710938	1.23992919921875	2.70263671875E-06	3.35107824867009E-06	458785	5.70541778870393E-05
2	482	114.891127709928	1.25015258789063	1.25	2.6959228515625E-06	3.36990342475474E-06	463663.125	5.73260185774416E-05
2	483	114.991835709674	1.26022338867188	1.26007080078125	2.69073486328125E-06	3.3905164400494E-06	468299.875	5.75972590013407E-05
2	484	115.092543709419	1.27029418945313	1.2701416015625	2.6873779296875E-06	3.41335044140578E-06	472632.3125	5.78680665057618E-05
2	485	115.193251709165	1.28036499023438	1.28021240234375	2.68524169921875E-06	3.43767965205188E-06	476758.71875	5.81386011617724E-05
2	486	115.293959708911	1.29043579101563	1.290283203125	2.68463134765625E-06	3.46393449035531E-06	480618.40625	5.84089939366095E-05
2	487	115.394667708656	1.30050659179688	1.30096435546875	2.68585205078125E-06	3.49419769918313E-06	484376.78125	5.86794194532558E-05
2	488	115.495375708402	1.31057739257813	1.3104248046875	2.68890380859375E-06	3.52360621036496E-06	487345.375	5.89500596106518E-05
2	489	115.596083708148	1.32064819335938	1.32049560546875	2.6934814453125E-06	3.55673023477721E-06	490256.09375	5.92210853938013E-05
2	490	115.696791707894	1.33071899414063	1.33087158203125	2.6995849609375E-06	3.59280079464952E-06	492991.1875	5.94926459598355E-05
2	491	115.797499707639	1.34078979492188	1.34124755859375	2.70751953125E-06	3.63145409210119E-06	495378.71875	5.97649159317371E-05
2	492	115.898207707385	1.35086059570313	1.351318359375	2.71728515625E-06	3.67191705663572E-06	497304.59375	6.00380772084463E-05
2	493	115.998915707131	1.36093139648438	1.361083984375	2.72918701171875E-06	3.7146526210563E-06	498714.09375	6.03123298787978E-05
2	494	116.099623706877	1.37100219726563	1.37115478515625	2.7423095703125E-06	3.76013076675008E-06	500000	6.05878412898164E-05
2	495	116.200331706622	1.38107299804688	1.3812255859375	2.75787353515625E-06	3.8092455270089E-06	500829.9375	6.08647969784215E-05
2	496	116.301039706368	1.39114379882813	1.39068603515625	2.77496337890625E-06	3.85910288969171E-06	501154.75	6.11434006714262E-05
2	497	116.401747706114	1.40121459960938	1.40167236328125	2.79571533203125E-06	3.91867706639459E-06	501364.46875	6.14239033893682E-05
2	498	116.50245570586	1.41128540039063	1.41143798828125	2.81951904296875E-06	3.97957637687796E-06	500595.3125	6.1706654378213E-05
2	499	116.603163705605	1.42135620117188	1.4208984375	2.84912109375E-06	4.0483118937118E-06	498714.65625	6.19920901954174E-05
2	500	116.703871705351	1.43142700195313	1.43157958984375	2.884521484375E-06	4.12942199545796E-06	496297.09375	6.22808001935482E-05
2	501	116.804579705097	1.44149780273438	1.441650390625	2.9278564453125E-06	4.22094490204472E-06	492391.09375	6.25734828645363E-05
2	502	116.905287704843	1.45156860351563	1.451416015625	2.98065185546875E-06	4.32616570833488E-06	486945.84375	6.28709967713803E-05
2	503	117.005995704588	1.46163940429688	1.4617919921875	3.0438232421875E-06	4.44943634647643E-06	480248.65625	6.31743532721885E-05
2	504	117.106703704334	1.47171020507813	1.4715576171875	3.12225341796875E-06	4.59457532997476E-06	471312.6875	6.34848402114585E-05
2	505	117.20741170408	1.48178100585938	1.48162841796875	3.21563720703125E-06	4.76437935503782E-06	460757.34375	6.38039782643318E-05
2	506	117.308119703825	1.49185180664063	1.49200439453125	3.3258056640625E-06	4.96211669087643E-06	448614.4375	6.41333681414835E-05
2	507	117.408827703571	1.50192260742188	1.50238037109375	3.450927734375E-06	5.18460592502379E-06	435355.53125	6.44746032776311E-05
2	508	117.509535703317	1.49185180664063	1.49139404296875	3.15399169921875E-06	4.70384429718251E-06	472859.21875	6.48071873001754E-05
2	509	117.610243703063	1.48178100585938	1.4813232421875	2.93792724609375E-06	4.35201945947483E-06	504206.9375	6.51139343972318E-05
2	510	117.710951702808	1.47171020507813	1.47216796875	2.76947021484375E-06	4.07712559535867E-06	531570.25	6.54013274470344E-05
2	511	117.811659702554	1.46163940429688	1.46209716796875	2.6336669921875E-06	3.85067687602714E-06	555156.4375	6.56733973301016E-05
2	512	117.9123677023	1.45156860351563	1.451416015625	2.52227783203125E-06	3.66087442671414E-06	575438.625	6.59330180496909E-05
2	513	118.013075702046	1.44149780273438	1.44134521484375	2.42889404296875E-06	3.5008747545362E-06	593416.25	6.61823287373409E-05
2	514	118.113783701791	1.43142700195313	1.4312744140625	2.35107421875E-06	3.36503239850572E-06	608774.625	6.64230246911757E-05
2	515	118.214491701537	1.42135620117188	1.4215087890625	2.2845458984375E-06	3.24750203617441E-06	622228.1875	6.66564446873963E-05
2	516	118.315199701283	1.41128540039063	1.41143798828125	2.2283935546875E-06	3.14523913402809E-06	633388.125	6.68836873956025E-05
2	517	118.415907701029	1.40121459960938	1.40106201171875	2.17987060546875E-06	3.05413368550944E-06	642727.1875	6.7105662310496E-05
2	518	118.516615700774	1.39114379882813	1.39068603515625	2.13836669921875E-06	2.97379665425979E-06	650349.6875	6.73231043037958E-05
2	519	118.61732370052	1.38107299804688	1.38092041015625	2.10235595703125E-06	2.90318621409824E-06	656844.25	6.75366391078569E-05
2	520	118.718031700266	1.37100219726563	1.370849609375	2.07122802734375E-06	2.83934195977054E-06	661853.5625	6.7746797867585E-05
2	521	118.818739700012	1.36093139648438	1.361083984375	2.04345703125E-06	2.78131665254477E-06	666069.3125	6.79539880366065E-05
2	522	118.919447699757	1.35086059570313	1.35101318359375	2.01904296875E-06	2.72775378107326E-06	669135.4375	6.81585515849292E-05
2	523	119.020155699503	1.34078979492188	1.3409423828125	1.99737548828125E-06	2.67836526290921E-06	671352.1875	6.83607941027731E-05
2	524	119.120863699249	1.33071899414063	1.33056640625	1.97784423828125E-06	2.6316531602788E-06	672735.6875	6.85609629726969E-05
2	525	119.221571698994	1.32064819335938	1.3201904296875	1.95892333984375E-06	2.58615182247013E-06	673936.75	6.87591964378953E-05
2	526	119.32227969874	1.31057739257813	1.31134033203125	1.94305419921875E-06	2.54800534094102E-06	674886.125	6.89556763973087E-05
2	527	119.422987698486	1.30050659179688	1.3006591796875	1.92718505859375E-06	2.5066108264582E-06	674901.0625	6.9150555646047E-05
2	528	119.523695698232	1.29043579101563	1.290283203125	1.91162109375E-06	2.46653235080885E-06	674968.125	6.9343856011983E-05
2	529	119.624403697977	1.28036499023438	1.280517578125	1.89697265625E-06	2.42910687120457E-06	675032.1875	6.95356357027777E-05
2	530	119.725111697723	1.27029418945313	1.270751953125	1.88262939453125E-06	2.39235487242695E-06	674987.875	6.97259529260918E-05
2	531	119.825819697469	1.26022338867188	1.2603759765625	1.8682861328125E-06	2.35474294640881E-06	674616.1875	6.99148222338408E-05
2	532	119.926527697215	1.25015258789063	1.25030517578125	1.8548583984375E-06	2.3191389573185E-06	674070.4375	7.01023018336855E-05
2	533	120.02723569696	1.24008178710938	1.23992919921875	1.84112548828125E-06	2.28286535275402E-06	673462.625	7.02884062775411E-05
2	534	120.127943696706	1.23001098632813	1.22955322265625	1.827392578125E-06	2.24687642003119E-06	672845.6875	7.04731355654076E-05
2	535	120.228651696452	1.21994018554688	1.2200927734375	1.81427001953125E-06	2.21357754526252E-06	672497.9375	7.06565042492002E-05
2	536	120.329359696198	1.20986938476563	1.209716796875	1.8011474609375E-06	2.17887827602681E-06	671636.75	7.08385559846647E-05
2	537	120.430067695943	1.19979858398438	1.1993408203125	1.788330078125E-06	2.14481724469806E-06	670648.5	7.10192980477586E-05
2	538	120.530775695689	1.18972778320313	1.1895751953125	1.77520751953125E-06	2.11174278774706E-06	670104.875	7.11987377144396E-05
2	539	120.631483695435	1.17965698242188	1.17950439453125	1.7626953125E-06	2.07910693461599E-06	669148.1875	7.13768822606653E-05
2	540	120.732191695181	1.16958618164063	1.170654296875	1.75018310546875E-06	2.04885941457178E-06	668875.375	7.15537753421813E-05
2	541	120.832899694926	1.15951538085938	1.15936279296875	1.73675537109375E-06	2.01352941076038E-06	667545.3125	7.17293514753692E-05
2	542	120.933607694672	1.14944458007813	1.1492919921875	1.72271728515625E-06	1.97990516426216E-06	667139.0625	7.1903552452568E-05
2	543	121.034315694418	1.13937377929688	1.13983154296875	1.70928955078125E-06	1.94830226973863E-06	666845.1875	7.207637099782E-05
2	544	121.135023694163	1.12930297851563	1.129150390625	1.6943359375E-06	1.91316007658315E-06	666426.5625	7.22477561794221E-05
2	545	121.235731693909	1.11923217773438	1.11907958984375	1.67755126953125E-06	1.87731336609431E-06	667091.125	7.24175406503491E-05
2	546	121.336439693655	1.10916137695313	1.1090087890625	1.658935546875E-06	1.83977408596547E-06	668506.25	7.25855497876182E-05
2	547	121.437147693401	1.09909057617188	1.09954833984375	1.636962890625E-06	1.79991968707327E-06	671700.25	7.27515071048401E-05
2	548	121.537855693146	1.08901977539063	1.0888671875	1.61041259765625E-06	1.75352545284113E-06	676141.75	7.29150269762613E-05
2	549	121.638563692892	1.07894897460938	1.07879638671875	1.5777587890625E-06	1.70208045346953E-06	683752.4375	7.30755637050606E-05
2	550	121.739271692638	1.06887817382813	1.0687255859375	1.53656005859375E-06	1.64216100984049E-06	695531.3125	7.32323824195191E-05
2	551	121.839979692384	1.05880737304688	1.05926513671875	1.48284912109375E-06	1.57073031914479E-06	714344.5625	7.33844208298251E-05
2	552	121.940687692129	1.04873657226563	1.04888916015625	1.41387939453125E-06	1.48300273394852E-06	741852	7.35302819521166E-05
2	553	122.041395691875	1.03866577148438	1.03851318359375	1.32781982421875E-06	1.3789583590551E-06	782119.125	7.36683432478458E-05
2	554	122.142103691621	1.02859497070313	1.02874755859375	1.22283935546875E-06	1.25799294892204E-06	841277.8125	7.37967784516513E-05
2	555	122.242811691367	1.01852416992188	1.01898193359375	1.10137939453125E-06	1.12228565285477E-06	925187.0625	7.39138122298755E-05
2	556	122.343519691112	1.00845336914063	1.00860595703125	9.6954345703125E-07	9.77887225417362E-07	1040289.625	7.4018091254402E-05
2	557	122.444227690858	0.998382568359375	0.99884033203125	8.3892822265625E-07	8.3795532646036E-07	1190614.75	7.41091498639435E-05
2	558	122.544935690604	0.988311767578125	0.98876953125	7.2174072265625E-07	7.13635245119804E-07	1369978.875	7.41877374821343E-05
2	559	122.64564369035	0.978240966796875	0.97869873046875	6.29272460937499E-07	6.15868145814602E-07	1555286.125	7.42557676858269E-05
2	560	122.746351690095	0.968170166015625	0.968017578125	5.6640625E-07	5.48291211543983E-07	1709051.75	7.43159762350842E-05
2	561	122.847059689841	0.958099365234375	0.95794677734375	5.352783203125E-07	5.12768167482136E-07	1789623.625	7.43714481359348E-05
2	562	122.947767689587	0.948028564453125	0.94818115234375	5.27343750000001E-07	5.00017392823793E-07	1798032.5	7.44249555282295E-05
2	563	123.048475689332	0.937957763671875	0.9381103515625	5.340576171875E-07	5.0100499038308E-07	1756571.375	7.44784047128633E-05
2	564	123.149183689078	0.927886962890625	0.92803955078125	5.43823242187499E-07	5.046894671068E-07	1706509.625	7.45326760807075E-05
2	565	123.249891688824	0.917816162109375	0.9173583984375	5.5084228515625E-07	5.05319803778548E-07	1665374	7.45877987355925E-05
2	566	123.35059968857	0.907745361328125	0.90789794921875	5.50537109375E-07	4.99831514844118E-07	1649113.125	7.46432560845278E-05
2	567	123.451307688315	0.897674560546875	0.8978271484375	5.38024902343751E-07	4.83053327116068E-07	1668746.5	7.46980731491931E-05
2	568	123.552015688061	0.887603759765625	0.88775634765625	5.0994873046875E-07	4.5271022486304E-07	1740873.75	7.47508383938111E-05
2	569	123.652723687807	0.877532958984375	0.8782958984375	4.62951660156249E-07	4.06608535286068E-07	1897165.5	7.47998274164274E-05
2	570	123.753431687553	0.867462158203125	0.86669921875	3.96728515625E-07	3.43844277495009E-07	2184615.5	7.48431193642318E-05
2	571	123.854139687298	0.857391357421875	0.85723876953125	3.11279296875E-07	2.66840658014189E-07	2753921.75	7.48787715565413E-05
2	572	123.954847687044	0.847320556640625	0.84747314453125	2.1392822265625E-07	1.81298418056031E-07	3961483.75	7.49052123865113E-05
2	573	124.05555568679	0.837249755859375	0.83740234375	1.1138916015625E-07	9.32775421347287E-08	7517808.5	7.49215978430584E-05
2	574	124.156263686536	0.827178955078125	0.82794189453125	1.58691406249994E-08	1.31387265511762E-08	52173076	7.49280006857589E-05
2	575	124.256971686281	0.817108154296875	0.81695556640625	-6.28662109374997E-08	-5.13588958028777E-08	-12995147	7.49256359995343E-05
2	576	124.357679686027	0.807037353515625	0.80718994140625	-1.1749267578125E-07	-9.48389029531427E-08	-6870130	7.49165556044318E-05
2	577	124.458387685773	0.796966552734375	0.79742431640625	-1.48925781250001E-07	-1.18757036204897E-07	-5354508.5	7.49031387385912E-05
2	578	124.559095685519	0.786895751953125	0.7867431640625	-1.5869140625E-07	-1.24849378835279E-07	-4957692.5	7.48876482248306E-05
2	579	124.659803685264	0.776824951171875	0.77728271484375	-1.53198242187499E-07	-1.19078343630008E-07	-5073705	7.48719467082992E-05
2	580	124.76051168501	0.766754150390625	0.7666015625	-1.39770507812501E-07	-1.07148288464032E-07	-5484716	7.48571910662577E-05
2	581	124.861219684756	0.756683349609375	0.75653076171875	-1.2664794921875E-07	-9.58130712547245E-08	-5973494	7.48437814763747E-05
2	582	124.961927684501	0.746612548828125	0.74652099609375	-1.2176513671875E-07	-9.0900236671132E-08	-6130827	7.48312668292783E-05
2	583	125.062635684247	0.736541748046875	0.7364501953125	-1.33361816406249E-07	-9.82143291139437E-08	-5522197	7.48184247640893E-05
2	584	125.163343683993	0.726470947265625	0.726409912109375	-1.666259765625E-07	-1.21038752354252E-07	-4359524	7.48033198760822E-05
2	585	125.264051683739	0.716400146484375	0.716339111328125	-2.26440429687499E-07	-1.62208124265817E-07	-3163477.25	7.4783521995414E-05
2	586	125.364759683484	0.706329345703125	0.706298828125	-3.17993164062499E-07	-2.2459819604137E-07	-2221113.25	7.47561134630814E-05
2	587	125.46546768323	0.696258544921875	0.696197509765625	-4.40368652343751E-07	-3.06583558540297E-07	-1580942.5	7.47179219615646E-05
2	588	125.566175682976	0.686187744140625	0.686126708984375	-5.89599609374999E-07	-4.04540031695433E-07	-1163716.375	7.46660589356907E-05
2	589	125.666883682722	0.676116943359375	0.675994873046875	-7.537841796875E-07	-5.09554240579746E-07	-896801.625	7.45984143577516E-05
2	590	125.767591682467	0.666046142578125	0.66595458984375	-9.1522216796875E-07	-6.09496396464237E-07	-727642.5625	7.45143770473078E-05
2	591	125.868299682213	0.655975341796875	0.6558837890625	-1.0565185546875E-06	-6.92953335601487E-07	-620797.25	7.44150893297046E-05
2	592	125.969007681959	0.645904541015625	0.6458740234375	-1.15997314453125E-06	-7.49196487959125E-07	-556800.875	7.43034834158607E-05
2	593	126.069715681705	0.635833740234375	0.635772705078125	-1.21826171875E-06	-7.74537511460949E-07	-521868.75	7.41837284294888E-05
2	594	126.17042368145	0.625762939453125	0.625701904296875	-1.23321533203125E-06	-7.71625195739034E-07	-507374.40625	7.40602845326066E-05
2	595	126.271131681196	0.615692138671875	0.615631103515625	-1.2127685546875E-06	-7.46618070479599E-07	-507624.5625	7.39371171221137E-05
2	596	126.371839680942	0.605621337890625	0.605560302734375	-1.1676025390625E-06	-7.07053686710424E-07	-518635.6875	7.38172602723353E-05
2	597	126.472547680688	0.595550537109375	0.595458984375	-1.10809326171875E-06	-6.59824081594707E-07	-537372.625	7.37026712158695E-05
2	598	126.573255680433	0.585479736328125	0.58544921875	-1.04217529296875E-06	-6.10140716617025E-07	-561756.9375	7.35943976906128E-05
2	599	126.673963680179	0.575408935546875	0.575439453125	-9.765625E-07	-5.61952560929058E-07	-589250.0625	7.34927452867851E-05
2	600	126.774671679925	0.565338134765625	0.5653076171875	-9.1278076171875E-07	-5.16001932737709E-07	-619324.625	7.3397604865022E-05
2	601	126.87537967967	0.555267333984375	0.5552978515625	-8.53881835937501E-07	-4.74158753149823E-07	-650321.6875	7.3308649007231E-05
2	602	126.976087679416	0.545196533203125	0.545166015625	-8.00476074218751E-07	-4.36392355140924E-07	-681052.25	7.32253465685062E-05
2	603	127.076795679162	0.535125732421875	0.53515625	-7.50732421875E-07	-4.01759137957924E-07	-712845.5625	7.31472318875603E-05
2	604	127.177503678908	0.525054931640625	0.5250244140625	-7.06787109375E-07	-3.71080489003361E-07	-742832.5	7.30738465790637E-05
2	605	127.278211678653	0.514984130859375	0.51495361328125	-6.67419433593749E-07	-3.4369006129964E-07	-771559.1875	7.30046449461952E-05
2	606	127.378919678399	0.504913330078125	0.5048828125	-6.317138671875E-07	-3.18941488330893E-07	-799227.0625	7.29392268112861E-05
2	607	127.479627678145	0.494842529296875	0.494781494140625	-5.9844970703125E-07	-2.9610183105433E-07	-826772.125	7.28772865841165E-05
2	608	127.580335677891	0.484771728515625	0.484771728515625	-5.6915283203125E-07	-2.75909201263858E-07	-851742.6875	7.28184895706363E-05
2	609	127.681043677636	0.474700927734375	0.47467041015625	-5.419921875E-07	-2.57267629422131E-07	-875788.3125	7.27625447325408E-05
2	610	127.781751677382	0.464630126953125	0.46466064453125	-5.1727294921875E-07	-2.40356371250527E-07	-898289.0625	7.27092046872713E-05
2	611	127.882459677128	0.454559326171875	0.45458984375	-4.94995117187499E-07	-2.25019746835642E-07	-918372.375	7.26582293282263E-05
2	612	127.983167676874	0.444488525390625	0.44451904296875	-4.75158691406249E-07	-2.11217084711279E-07	-935517	7.26093785488047E-05
2	613	128.083875676619	0.434417724609375	0.434417724609375	-4.56848144531249E-07	-1.98462927869514E-07	-950901.8125	7.25624486221932E-05
2	614	128.184583676365	0.424346923828125	0.42437744140625	-4.40368652343751E-07	-1.8688251657295E-07	-963686.8125	7.25172722013667E-05
2	615	128.285291676111	0.414276123046875	0.41424560546875	-4.25109863281251E-07	-1.76099888449244E-07	-974443.6875	7.24736892152578E-05
2	616	128.385999675857	0.404205322265625	0.404205322265625	-4.1168212890625E-07	-1.66404106494156E-07	-981838.4375	7.2431554144714E-05
2	617	128.486707675602	0.394134521484375	0.3941650390625	-3.99169921875001E-07	-1.57338831741072E-07	-987461.75	7.23907287465408E-05
2	618	128.587415675348	0.384063720703125	0.384033203125	-3.8909912109375E-07	-1.49426981010947E-07	-986980.4375	7.23510311217979E-05
2	619	128.688123675094	0.373992919921875	0.373992919921875	-3.79333496093751E-07	-1.4186804264682E-07	-985921.125	7.23123375792056E-05
2	620	128.788831674839	0.363922119140625	0.363983154296875	-3.704833984375E-07	-1.34849713617768E-07	-982454.75	7.22745826351456E-05
2	621	128.889539674585	0.353851318359375	0.353851318359375	-3.6285400390625E-07	-1.28396365539629E-07	-975189.25	7.22376571502537E-05
2	622	128.990247674331	0.343780517578125	0.343780517578125	-3.5675048828125E-07	-1.22643868394334E-07	-963644.125	7.2201422881335E-05
2	623	129.090955674077	0.333709716796875	0.333740234375	-3.51867675781251E-07	-1.17432399804329E-07	-948482.25	7.21657415851951E-05
2	624	129.191663673822	0.323638916015625	0.3236083984375	-3.47900390625E-07	-1.12583478539818E-07	-930175.5	7.21305041224696E-05
2	625	129.292371673568	0.313568115234375	0.313629150390625	-3.448486328125E-07	-1.08154580402697E-07	-909469.0625	7.20956231816672E-05
2	626	129.393079673314	0.303497314453125	0.303436279296875	-3.44238281250001E-07	-1.04454379368235E-07	-881471.6875	7.20609241398051E-05
2	627	129.49378767306	0.293426513671875	0.29345703125	-3.4332275390625E-07	-1.00750469300692E-07	-854755.5625	7.20263051334769E-05
2	628	129.594495672805	0.283355712890625	0.283355712890625	-3.43933105468749E-07	-9.74554055233057E-08	-823868.6875	7.19916934031062E-05
2	629	129.695203672551	0.273284912109375	0.27325439453125	-3.4515380859375E-07	-9.43147924203913E-08	-791688.75	7.19570016372018E-05
2	630	129.795911672297	0.263214111328125	0.263214111328125	-3.46984863281249E-07	-9.13313087380629E-08	-758575.25	7.19221498002298E-05
2	631	129.896619672043	0.253143310546875	0.253173828125	-3.4912109375E-07	-8.83883188862455E-08	-725174.875	7.18870942364447E-05
2	632	129.997327671788	0.243072509765625	0.243011474609375	-3.51562499999999E-07	-8.54337187661258E-08	-691232.6875	7.18518131179735E-05
2	633	130.098035671534	0.233001708984375	0.2330322265625	-3.5369873046875E-07	-8.24231989327018E-08	-658843.875	7.18162991688587E-05
2	634	130.19874367128	0.222930908203125	0.222991943359375	-3.558349609375E-07	-7.93483252436999E-08	-626672.4375	7.1780574216973E-05
2	635	130.299451671026	0.212860107421875	0.212860107421875	-3.5858154296875E-07	-7.63277014925734E-08	-593617.0625	7.17445946065709E-05
2	636	130.400159670771	0.202789306640625	0.2027587890625	-3.60717773437499E-07	-7.31386933239264E-08	-562098.125	7.17083748895675E-05
2	637	130.500867670517	0.192718505859375	0.1927490234375	-3.62243652343749E-07	-6.98221072070737E-08	-532097.75	7.16719732736237E-05
2	638	130.601575670263	0.182647705078125	0.182708740234375	-3.631591796875E-07	-6.63523493926732E-08	-503109.28125	7.16354479664005E-05
2	639	130.702283670008	0.172576904296875	0.172576904296875	-3.64074707031251E-07	-6.28308853833914E-08	-474015.09375	7.15988280717283E-05
2	640	130.802991669754	0.162506103515625	0.16253662109375	-3.6468505859375E-07	-5.92746722816173E-08	-445690.40625	7.156213541748E-05
2	641	130.9036996695	0.152435302734375	0.15240478515625	-3.65600585937501E-07	-5.5719279856703E-08	-416861.4375	7.15253627276979E-05
2	642	131.004407669246	0.142364501953125	0.142364501953125	-3.6773681640625E-07	-5.23526679785391E-08	-387136.9375	7.14884299668483E-05
2	643	131.105115668991	0.132293701171875	0.13238525390625	-3.73229980468751E-07	-4.94101435322136E-08	-354701.5625	7.14511261321604E-05
2	644	131.205823668737	0.122222900390625	0.122314453125	-3.82080078124999E-07	-4.67339127396826E-08	-320127.8125	7.14130874257535E-05
2	645	131.306531668483	0.112152099609375	0.1121826171875	-3.9794921875E-07	-4.46429844203067E-08	-281901.84375	7.13738118065521E-05
2	646	131.407239668229	0.102081298828125	0.1021728515625	-4.2236328125E-07	-4.31540598810898E-08	-241907.53125	7.13325061951764E-05
2	647	131.507947667974	0.092010498046875	0.092071533203125	-4.58679199218751E-07	-4.22312957937265E-08	-200731.875	7.12881446816027E-05
2	648	131.60865566772	0.081939697265625	0.082000732421875	-5.126953125E-07	-4.20413890367399E-08	-159940.484375	7.12392284185626E-05
2	649	131.709363667466	0.071868896484375	0.0718994140625	-5.877685546875E-07	-4.2260214883072E-08	-122326.0625	7.11838147253729E-05
2	650	131.810071667212	0.061798095703125	0.0618896484375	-6.9000244140625E-07	-4.2704005664973E-08	-89694.828125	7.11194734321907E-05
2	651	131.910779666957	0.051727294921875	0.051788330078125	-8.251953125E-07	-4.27354862608809E-08	-62758.87890625	7.10431777406484E-05
2	652	132.011487666703	0.041656494140625	0.0417449951171875	-9.9365234375E-07	-4.14800105374979E-08	-42011.671875	7.09515952621587E-05
2	653	132.112195666449	0.031585693359375	0.0316680908203125	-1.19598388671875E-06	-3.78745212969989E-08	-26478.693359375	7.08413354004733E-05
2	654	132.212903666195	0.021514892578125	0.0216278076171875	-1.419677734375E-06	-3.07045162628583E-08	-15234.30859375	7.07096260157414E-05
2	655	132.31361166594	0.011444091796875	0.011541748046875	-1.64764404296875E-06	-1.90166922209301E-08	-7005.00146484375	7.05551719875075E-05
2	656	132.414319665686	0.001373291015625	0.00144042968749999	-1.85791015625E-06	-2.67618882610066E-09	-775.295715332031	7.03786572557874E-05
2	657	132.515027665432	-0.008697509765625	-0.00859375	-2.027587890625E-06	1.74245844419829E-08	4238.41064453125	7.0183006755542E-05
2	658	132.615735665177	-0.018768310546875	-0.01861572265625	-2.14447021484375E-06	3.99208630597059E-08	8680.802734375	6.99729280313477E-05
2	659	132.716443664923	-0.028839111328125	-0.0286865234375	-2.205810546875E-06	6.32770351671752E-08	13004.9814453125	6.97538707754575E-05
2	660	132.817151664669	-0.038909912109375	-0.0387603759765625	-2.218017578125E-06	8.59711875023095E-08	17475.234375	6.95311173330992E-05
2	661	132.917859664415	-0.048980712890625	-0.0488433837890625	-2.19390869140625E-06	1.07157916318101E-07	22263.181640625	6.93089605192654E-05
2	662	133.01856766416	-0.059051513671875	-0.058990478515625	-2.14813232421875E-06	1.26719356785543E-07	27461.287109375	6.90903179929592E-05
2	663	133.119275663906	-0.069122314453125	-0.069061279296875	-2.091064453125E-06	1.4441157247802E-07	33026.85546875	6.88768559484743E-05
2	664	133.219983663652	-0.079193115234375	-0.07916259765625	-2.0306396484375E-06	1.6075070163879E-07	38984.07421875	6.86693165334873E-05
2	665	133.320691663398	-0.089263916015625	-0.08917236328125	-1.9732666015625E-06	1.75960835235855E-07	45190.2265625	6.84676997479983E-05
2	666	133.421399663143	-0.099334716796875	-0.0992431640625	-1.92047119140625E-06	1.90593624438407E-07	51676.46875	6.82716345181689E-05
2	667	133.522107662889	-0.109405517578125	-0.109283447265625	-1.87347412109375E-06	2.04739706077817E-07	58331.9765625	6.80805969750509E-05
2	668	133.622815662635	-0.119476318359375	-0.119384765625	-1.83319091796875E-06	2.18855049638478E-07	65124.0234375	6.78939468343742E-05
2	669	133.723523662381	-0.129547119140625	-0.12945556640625	-1.79931640625E-06	2.32931512300638E-07	71947.0859375	6.77110365359113E-05
2	670	133.824231662126	-0.139617919921875	-0.139495849609375	-1.7718505859375E-06	2.47165786504411E-07	78728.90625	6.75312185194343E-05
2	671	133.924939661872	-0.149688720703125	-0.149566650390625	-1.74896240234375E-06	2.61586450278628E-07	85517.359375	6.73539252602495E-05
2	672	134.025647661618	-0.159759521484375	-0.15960693359375	-1.73248291015625E-06	2.76516260555582E-07	92126.125	6.7178625613451E-05
2	673	134.126355661364	-0.169830322265625	-0.169677734375	-1.72149658203125E-06	2.92099628040887E-07	98564.0859375	6.70047011226416E-05
2	674	134.227063661109	-0.179901123046875	-0.179718017578125	-1.715087890625E-06	3.08232188217517E-07	104786.484375	6.68316570227034E-05
2	675	134.327771660855	-0.189971923828125	-0.189849853515625	-1.712646484375E-06	3.25145663282456E-07	110851.75	6.66590567561798E-05
2	676	134.428479660601	-0.200042724609375	-0.19989013671875	-1.7156982421875E-06	3.42951153697868E-07	116506.5859375	6.64864273858257E-05
2	677	134.529187660346	-0.189971923828125	-0.18988037109375	-1.5057373046875E-06	2.85909948161134E-07	126104.5859375	6.63242099108174E-05
