Potential - Start -0.2 V, Upper Vertex 1.5 V, Lower Vertex -0.2 V, Stop -0.19 V; Scan - # end cross 5, Rate 0.1 Vps, Step 0.01 V 
Scan	Index	Time (s)	Potential applied (V)	WE(1).Potential (V)	WE(1).Current (A)	WE(1).Power (W)	WE(1).Resistance (Ω)	WE(1).Charge (C)
1	1	54.5753578622105	-0.189971923828125	-0.189849853515625	-1.983642578125E-07	3.76594222473159E-08	957077	0
1	2	54.6760658619562	-0.179901123046875	-0.179718017578125	-1.6357421875E-07	2.93972330922543E-08	1098694.125	-1.82250499136671E-08
1	3	54.7767738617019	-0.169830322265625	-0.169677734375	-1.36718750000001E-07	2.3198127863111E-08	1241071.375	-3.33460015156106E-08
1	4	54.8774818614477	-0.159759521484375	-0.15960693359375	-1.13525390624999E-07	1.81194383941374E-08	1405914	-4.59467948132897E-08
1	5	54.9781898611934	-0.149688720703125	-0.149566650390625	-9.307861328125E-08	1.39214559879974E-08	1606885.25	-5.63501316719339E-08
1	6	55.0788978609392	-0.139617919921875	-0.139495849609375	-7.32421875E-08	1.02169810389796E-08	1904583.375	-6.47250502083807E-08
1	7	55.1796058606849	-0.129547119140625	-0.129486083984375	-5.37109374999997E-08	6.95481849888324E-09	2410795.5	-7.11176468826125E-08
1	8	55.2803138604306	-0.119476318359375	-0.119415283203125	-3.41796874999994E-08	4.08157685427568E-09	3493750.25	-7.55432907340037E-08
1	9	55.3810218601764	-0.109405517578125	-0.10931396484375	-1.31225585937506E-08	1.43447886902237E-09	8330233	-7.79251507765366E-08
1	10	55.4817298599221	-0.099334716796875	-0.0992431640625	1.068115234375E-08	-1.06003128497179E-09	-9291429	-7.80480817752505E-08
1	11	55.5824378596678	-0.089263916015625	-0.089202880859375	3.84521484374997E-08	-3.4300422502298E-09	-2319841.5	-7.55740217073253E-08
1	12	55.6831458594136	-0.079193115234375	-0.07916259765625	7.29370117187503E-08	-5.77388359346287E-09	-1085355.625	-6.99651323543549E-08
1	13	55.7838538591593	-0.069122314453125	-0.0689697265625	1.18103027343749E-07	-8.14553313688293E-09	-583979.3125	-6.03455063696856E-08
1	14	55.884561858905	-0.059051513671875	-0.0589599609375	1.77612304687499E-07	-1.04720143667691E-08	-331958.75	-4.54550566075795E-08
1	15	55.9852698586508	-0.048980712890625	-0.0488494873046875	2.57263183593751E-07	-1.25671730799581E-08	-189881.375	-2.35573356377472E-08
1	16	56.0859778583965	-0.038909912109375	-0.038763427734375	3.6041259765625E-07	-1.39708271618133E-08	-107552.9140625	7.54510942613251E-09
1	17	56.1866858581423	-0.028839111328125	-0.028729248046875	4.93469238281249E-07	-1.41769991301999E-08	-58218.9296875	5.05414732288045E-08
1	18	56.287393857888	-0.018768310546875	-0.018658447265625	6.561279296875E-07	-1.22423280402018E-08	-28437.212890625	1.08428288569939E-07
1	19	56.3881018576337	-0.008697509765625	-0.0085723876953125	8.4686279296875E-07	-7.2596355593646E-09	-10122.5224609375	1.84109879342031E-07
1	20	56.4888098573795	0.001373291015625	0.001507568359375	1.05560302734375E-06	1.5913936834977E-09	1428.15856933594	2.79906629430116E-07
1	21	56.5895178571252	0.011444091796875	0.011541748046875	1.26678466796875E-06	1.46209089280092E-08	9111.05859375	3.96848150785445E-07
1	22	56.6902258568709	0.021514892578125	0.0216217041015625	1.4599609375E-06	3.15668415851178E-08	14809.783203125	5.34150672137912E-07
1	23	56.7909338566167	0.031585693359375	0.0316925048828125	1.61468505859375E-06	5.11734157271349E-08	19627.669921875	6.88971397266869E-07
1	24	56.8916418563624	0.041656494140625	0.0417327880859375	1.72119140625E-06	7.18301151891865E-08	24246.455078125	8.56946144267567E-07
1	25	56.9923498561081	0.051727294921875	0.0517578125	1.77398681640625E-06	9.18176752406907E-08	29175.984375	1.03294235032081E-06
1	26	57.0930578558539	0.061798095703125	0.06182861328125	1.77886962890625E-06	1.09985037965998E-07	34757.25	1.21184280033049E-06
1	27	57.1937658555996	0.071868896484375	0.0718994140625	1.74957275390625E-06	1.25793249594608E-07	41095.4140625	1.38951406825072E-06
1	28	57.2944738553454	0.081939697265625	0.081939697265625	1.6998291015625E-06	1.39283486078057E-07	48204.66796875	1.56320515998232E-06
1	29	57.3951818550911	0.092010498046875	0.09210205078125	1.63818359375E-06	1.50880069327286E-07	56222.05859375	1.73128751157492E-06
1	30	57.4958898548368	0.102081298828125	0.102142333984375	1.57440185546875E-06	1.60813073080135E-07	64876.9140625	1.8930539908979E-06
1	31	57.5965978545826	0.112152099609375	0.112213134765625	1.512451171875E-06	1.69716884101945E-07	74192.8984375	2.04848947760183E-06
1	32	57.6973058543283	0.122222900390625	0.12225341796875	1.45477294921875E-06	1.77850964178106E-07	84036.0859375	2.19790103983541E-06
1	33	57.798013854074	0.132293701171875	0.132354736328125	1.4013671875E-06	1.85477588843241E-07	94446.8671875	2.34171920965309E-06
1	34	57.8987218538198	0.142364501953125	0.14239501953125	1.3543701171875E-06	1.92855551972571E-07	105137.453125	2.48048149842361E-06
1	35	57.9994298535655	0.152435302734375	0.1524658203125	1.31195068359375E-06	2.00027628238786E-07	116213.078125	2.61474133367301E-06
1	36	58.1001378533113	0.162506103515625	0.1624755859375	1.27349853515625E-06	2.06912403655224E-07	127582.078125	2.74492913376889E-06
1	37	58.200845853057	0.172576904296875	0.172576904296875	1.23931884765625E-06	2.13877811461316E-07	139251.421875	2.87145962829527E-06
1	38	58.3015538528027	0.182647705078125	0.182708740234375	1.21002197265625E-06	2.21081592144401E-07	150996.21875	2.99479370369227E-06
1	39	58.4022618525485	0.192718505859375	0.1927490234375	1.1834716796875E-06	2.28113009370645E-07	162867.453125	3.11531562147138E-06
1	40	58.5029698522942	0.202789306640625	0.20281982421875	1.1602783203125E-06	2.35327448194766E-07	174802.734375	3.23333279084181E-06
1	41	58.6036778520399	0.212860107421875	0.212860107421875	1.14013671875E-06	2.42689623064507E-07	186697.015625	3.34916785504902E-06
1	42	58.7043858517857	0.222930908203125	0.222930908203125	1.121826171875E-06	2.50089726705482E-07	198721.4375	3.46306683240982E-06
1	43	58.8050938515314	0.233001708984375	0.23297119140625	1.1053466796875E-06	2.57513931956055E-07	210767.53125	3.57521389560134E-06
1	44	58.9058018512771	0.243072509765625	0.2430419921875	1.08978271484375E-06	2.64862961785184E-07	223018.765625	3.68574728781823E-06
1	45	59.0065098510229	0.253143310546875	0.253143310546875	1.07574462890625E-06	2.72317549843137E-07	235319.140625	3.79479024559259E-06
1	46	59.1072178507686	0.263214111328125	0.26324462890625	1.063232421875E-06	2.79890201682065E-07	247588.984375	3.90249624615535E-06
1	47	59.2079258505144	0.273284912109375	0.273284912109375	1.051025390625E-06	2.87229369178021E-07	260017.421875	4.00895760321873E-06
1	48	59.3086338502601	0.283355712890625	0.2833251953125	1.041259765625E-06	2.95015126994258E-07	272098.46875	4.11431255997741E-06
1	49	59.4093418500058	0.293426513671875	0.29351806640625	1.031494140625E-06	3.02762146020541E-07	284556.21875	4.21868389821611E-06
1	50	59.5100498497516	0.303497314453125	0.303466796875	1.02294921875E-06	3.10431119032728E-07	296658.71875	4.32213346357457E-06
1	51	59.6107578494973	0.313568115234375	0.31353759765625	1.015625E-06	3.1843663350628E-07	308713.9375	4.42478403783753E-06
1	52	59.711465849243	0.323638916015625	0.32373046875	1.00860595703125E-06	3.26516499171703E-07	320968.21875	4.52671201855992E-06
1	53	59.8121738489888	0.333709716796875	0.333709716796875	1.00189208984375E-06	3.3434113788644E-07	333079.5	4.62794878330897E-06
1	54	59.9128818487345	0.343780517578125	0.343780517578125	9.9609375E-07	3.4243760183017E-07	345128.6875	4.72855526822968E-06
1	55	60.0135898484803	0.353851318359375	0.35382080078125	9.906005859375E-07	3.50495099610271E-07	357178.0625	4.82859331896179E-06
1	56	60.114297848226	0.363922119140625	0.363922119140625	9.869384765625E-07	3.59168723207404E-07	368738.4375	4.9281702558801E-06
1	57	60.2150058479717	0.373992919921875	0.3740234375	9.832763671875E-07	3.67768393516599E-07	380384.875	5.02737839269685E-06
1	58	60.3157138477175	0.384063720703125	0.38409423828125	9.808349609375E-07	3.7673302699659E-07	391599.28125	5.12627912030439E-06
1	59	60.4164218474632	0.394134521484375	0.39410400390625	9.796142578125E-07	3.8606989960499E-07	402305.3125	5.22499567523482E-06
1	60	60.5171298472089	0.404205322265625	0.4041748046875	9.77783203125E-07	3.95195343116939E-07	413358.3125	5.32355852556066E-06
1	61	60.6178378469547	0.414276123046875	0.414276123046875	9.765625E-07	4.04566492306913E-07	424218.78125	5.42196767128189E-06
1	62	60.7185458467004	0.424346923828125	0.424346923828125	9.7564697265625E-07	4.14012760074911E-07	434939.03125	5.52026904188097E-06
1	63	60.8192538464461	0.434417724609375	0.43438720703125	9.7564697265625E-07	4.23808529603775E-07	445229.9375	5.6185244829976E-06
1	64	60.9199618461919	0.444488525390625	0.444549560546875	9.75341796875E-07	4.33587757697751E-07	455788.5	5.71676491745166E-06
1	65	61.0206698459376	0.454559326171875	0.45458984375	9.765625E-07	4.43935363136916E-07	465500.03125	5.8150508266408E-06
1	66	61.1213778456834	0.464630126953125	0.464630126953125	9.7808837890625E-07	4.54449320841377E-07	475039.03125	5.91347543377196E-06
1	67	61.2220858454291	0.474700927734375	0.47467041015625	9.7991943359375E-07	4.65138725758152E-07	484397.40625	6.01206875217031E-06
1	68	61.3227938451748	0.484771728515625	0.48480224609375	9.82666015625E-07	4.76398668070033E-07	493354.0625	6.1108930822229E-06
1	69	61.4235018449206	0.494842529296875	0.49481201171875	9.857177734375E-07	4.87744955535163E-07	501981.4375	6.21000890532741E-06
1	70	61.5242098446663	0.504913330078125	0.504913330078125	9.8846435546875E-07	4.99088798733283E-07	510805.84375	6.30941667623119E-06
1	71	61.624917844412	0.514984130859375	0.515045166015625	9.9212646484375E-07	5.10989877966495E-07	519132.625	6.40914777250146E-06
1	72	61.7256258441578	0.525054931640625	0.524993896484375	9.95483398437499E-07	5.22622656262683E-07	527375.875	6.509231752716E-06
1	73	61.8263338439035	0.535125732421875	0.53509521484375	9.9945068359375E-07	5.34801245066774E-07	535389.3125	6.60968453303212E-06
1	74	61.9270418436492	0.545196533203125	0.545166015625	1.0040283203125E-06	5.47362105862703E-07	542978.75	6.71056750434218E-06
1	75	62.027749843395	0.555267333984375	0.555267333984375	1.00830078125E-06	5.59876468742004E-07	550696.125	6.81189658280346E-06
1	76	62.1284578431407	0.565338134765625	0.565399169921875	1.01348876953125E-06	5.73025658923143E-07	557874.1875	6.91370178174111E-06
1	77	62.2291658428865	0.575408935546875	0.5753173828125	1.0186767578125E-06	5.86062412821775E-07	564769.375	7.01602948538493E-06
1	78	62.3298738426322	0.585479736328125	0.58544921875	1.0235595703125E-06	5.99242127918842E-07	571973.75	7.118864232325E-06
1	79	62.4305818423779	0.595550537109375	0.595458984375	1.02783203125E-06	6.12031783475686E-07	579334.9375	7.22216009307886E-06
1	80	62.5312898421237	0.605621337890625	0.6055908203125	1.03302001953125E-06	6.2558740410168E-07	586233.375	7.32593207430909E-06
1	81	62.6319978418694	0.615692138671875	0.61572265625	1.03759765625E-06	6.38872336367058E-07	593411.8125	7.43019609217299E-06
1	82	62.7327058416151	0.625762939453125	0.625732421875	1.0430908203125E-06	6.52695746339305E-07	599882.9375	7.53496715333313E-06
1	83	62.8334138413609	0.635833740234375	0.635772705078125	1.04888916015625E-06	6.668550440736E-07	606139.125	7.64030664868187E-06
1	84	62.9341218411066	0.645904541015625	0.645782470703125	1.0552978515625E-06	6.81492849707865E-07	611943.3125	7.74626096244901E-06
1	85	63.0348298408524	0.655975341796875	0.65594482421875	1.0614013671875E-06	6.96220695317606E-07	617998.875	7.85284464654978E-06
1	86	63.1355378405981	0.666046142578125	0.665924072265625	1.06719970703125E-06	7.1067398721425E-07	623992	7.96002859715372E-06
1	87	63.2362458403438	0.676116943359375	0.676055908203125	1.072998046875E-06	7.25406607671175E-07	630062.625	8.0677964433562E-06
1	88	63.3369538400896	0.686187744140625	0.686187744140625	1.07818603515625E-06	7.39838014851557E-07	636428	8.17611635284266E-06
1	89	63.4376618398353	0.696258544921875	0.69622802734375	1.083984375E-06	7.54700295146904E-07	642286.0625	8.28499105409719E-06
1	90	63.538369839581	0.706329345703125	0.706298828125	1.08978271484375E-06	7.69712244164111E-07	648109.8125	8.39444874145556E-06
1	91	63.6390778393268	0.716400146484375	0.71630859375	1.0955810546875E-06	7.84774158546497E-07	653816.125	8.50449032441247E-06
1	92	63.7397858390725	0.726470947265625	0.726409912109375	1.10260009765625E-06	8.00939631062647E-07	658815.375	8.61517764860764E-06
1	93	63.8404938388182	0.736541748046875	0.736480712890625	1.11053466796875E-06	8.1788732586574E-07	663176.6875	8.72661803441588E-06
1	94	63.941201838564	0.746612548828125	0.74652099609375	1.12060546875E-06	8.36555500427494E-07	666176.4375	8.83896427694708E-06
1	95	64.0419098383097	0.756683349609375	0.75653076171875	1.13189697265625E-06	8.56314898101118E-07	668374.25	8.95238736120518E-06
1	96	64.1426178380555	0.766754150390625	0.76690673828125	1.146240234375E-06	8.7905931422938E-07	669062.875	9.0671001089504E-06
1	97	64.2433258378012	0.776824951171875	0.77667236328125	1.1627197265625E-06	9.0305229605292E-07	667979	9.18336536415154E-06
1	98	64.3440338375469	0.786895751953125	0.7867431640625	1.18499755859375E-06	9.32288685362437E-07	663919.6875	9.30158239498269E-06
1	99	64.4447418372927	0.796966552734375	0.79620361328125	1.212158203125E-06	9.65124741014733E-07	656847.9375	9.42228871281259E-06
1	100	64.5454498370384	0.807037353515625	0.8074951171875	1.24603271484375E-06	1.00616523468489E-06	648052.9375	9.54606912273448E-06
1	101	64.6461578367841	0.817108154296875	0.8172607421875	1.2847900390625E-06	1.05000844996539E-06	636104.5625	9.6735057013575E-06
1	102	64.7468658365299	0.827178955078125	0.82763671875	1.326904296875E-06	1.0981946161337E-06	623735.0625	9.80501499725506E-06
1	103	64.8475738362756	0.837249755859375	0.83770751953125	1.3671875E-06	1.14530325845408E-06	612723.25	9.9406734079821E-06
1	104	64.9482818360214	0.847320556640625	0.84747314453125	1.40411376953125E-06	1.18994864806155E-06	603564.4375	1.00802199085592E-05
1	105	65.0489898357671	0.857391357421875	0.85723876953125	1.4324951171875E-06	1.22799031032628E-06	598423.5625	1.02230542324833E-05
1	106	65.1496978355128	0.867462158203125	0.867919921875	1.45294189453125E-06	1.26103725506255E-06	597353.5	1.03683478300809E-05
1	107	65.2504058352586	0.877532958984375	0.87799072265625	1.46514892578125E-06	1.28638714613771E-06	599250.1875	1.05152848846046E-05
1	108	65.3511138350043	0.887603759765625	0.887451171875	1.47003173828125E-06	1.304581360273E-06	603695.25	1.06630832306109E-05
1	109	65.45182183475	0.897674560546875	0.89752197265625	1.47064208984375E-06	1.31993351715209E-06	610292.625	1.08111580630066E-05
1	110	65.5525298344958	0.907745361328125	0.9075927734375	1.468505859375E-06	1.33280525460577E-06	618038.25	1.09591555883526E-05
1	111	65.6532378342415	0.917816162109375	0.91766357421875	1.466064453125E-06	1.34535389406665E-06	625936.75	1.1106923011539E-05
1	112	65.7539458339872	0.927886962890625	0.927734375	1.463623046875E-06	1.35785330712679E-06	633861.5625	1.1254444871156E-05
1	113	65.854653833733	0.937957763671875	0.93780517578125	1.46240234375E-06	1.37144843392889E-06	641277.125	1.14017811938538E-05
1	114	65.9553618334787	0.948028564453125	0.94757080078125	1.46270751953125E-06	1.38601888011181E-06	647819.75	1.15490729513112E-05
1	115	66.0560698332245	0.958099365234375	0.958251953125	1.4666748046875E-06	1.40544398163911E-06	653350	1.16965784400236E-05
1	116	66.1567778329702	0.968170166015625	0.968017578125	1.47369384765625E-06	1.42656153911958E-06	656864.8125	1.18446378110093E-05
1	117	66.2574858327159	0.978240966796875	0.97808837890625	1.484375E-06	1.45184992561553E-06	658922.75	1.19935884868028E-05
1	118	66.3581938324617	0.988311767578125	0.98876953125	1.4971923828125E-06	1.48037815961288E-06	660415.8125	1.21437224152032E-05
1	119	66.4589018322074	0.998382568359375	0.99761962890625	1.51123046875E-06	1.50763310102775E-06	660137.375	1.22952087622252E-05
1	120	66.5596098319531	1.00845336914063	1.00799560546875	1.5240478515625E-06	1.53623341248021E-06	661393.6875	1.24480466183741E-05
1	121	66.6603178316989	1.01852416992188	1.01806640625	1.53564453125E-06	1.56338808210421E-06	662957.0625	1.26021150208544E-05
1	122	66.7610258314446	1.02859497070313	1.02874755859375	1.54266357421875E-06	1.58701129748806E-06	666864.5	1.27571202028776E-05
1	123	66.8617338311903	1.03866577148438	1.03912353515625	1.5472412109375E-06	1.60777472046902E-06	671597.6875	1.29127083710046E-05
1	124	66.9624418309361	1.04873657226563	1.048583984375	1.54876708984375E-06	1.62401227044029E-06	677044.375	1.30686048578355E-05
1	125	67.0631498306818	1.05880737304688	1.0589599609375	1.549072265625E-06	1.6404054576924E-06	683609.1875	1.32245941131259E-05
1	126	67.1638578304276	1.06887817382813	1.0693359375	1.5478515625E-06	1.6551732642256E-06	690851.75	1.33805360746919E-05
1	127	67.2645658301733	1.07894897460938	1.07879638671875	1.54632568359375E-06	1.66817051194812E-06	697651.5	1.35363407025579E-05
1	128	67.365273829919	1.08901977539063	1.0888671875	1.5447998046875E-06	1.68208168815909E-06	704859.75	1.36919907163247E-05
1	129	67.4659818296648	1.09909057617188	1.0986328125	1.54327392578125E-06	1.69549139172886E-06	711884.5	1.38474879349815E-05
1	130	67.5666898294105	1.10916137695313	1.1090087890625	1.54205322265625E-06	1.7101505136452E-06	719176.75	1.40028460009489E-05
1	131	67.6673978291562	1.11923217773438	1.119384765625	1.54083251953125E-06	1.72478439708357E-06	726480.5	1.41580821946263E-05
1	132	67.768105828902	1.12930297851563	1.12945556640625	1.5399169921875E-06	1.73926775914879E-06	733452.25	1.43132101584342E-05
1	133	67.8688138286477	1.13937377929688	1.13922119140625	1.54022216796875E-06	1.75465368101868E-06	739647.3125	1.44683071994223E-05
1	134	67.9695218283935	1.14944458007813	1.14990234375	1.541748046875E-06	1.77285960489826E-06	745843.25	1.46234970088699E-05
1	135	68.0702298281392	1.15951538085938	1.15936279296875	1.54449462890625E-06	1.79062953975517E-06	750642.1875	1.47789014590671E-05
1	136	68.1709378278849	1.16958618164063	1.16973876953125	1.54754638671875E-06	1.81022505785222E-06	755866.6875	1.49345978570636E-05
1	137	68.2716458276307	1.17965698242188	1.1798095703125	1.551513671875E-06	1.8304906461708E-06	760424.875	1.50906480484991E-05
1	138	68.3723538273764	1.18972778320313	1.18988037109375	1.55548095703125E-06	1.85083627002314E-06	764959.8125	1.52470975081087E-05
1	139	68.4730618271221	1.19979858398438	1.19964599609375	1.56036376953125E-06	1.87188413747208E-06	768824.5625	1.54039935296169E-05
1	140	68.5737698268679	1.20986938476563	1.21002197265625	1.56585693359375E-06	1.89472120837308E-06	772753.875	1.55614106915891E-05
1	141	68.6744778266136	1.21994018554688	1.22039794921875	1.57196044921875E-06	1.91841718333308E-06	776354.125	1.57194117491599E-05
1	142	68.7751858263593	1.23001098632813	1.2298583984375	1.57806396484375E-06	1.94079507309652E-06	779346.375	1.58780294441385E-05
1	143	68.8758938261051	1.24008178710938	1.23992919921875	1.585693359375E-06	1.96614746528212E-06	781947.6875	1.60373365361011E-05
1	144	68.9766018258508	1.25015258789063	1.2506103515625	1.59332275390625E-06	1.99262581190851E-06	784907.125	1.61974130605813E-05
1	145	69.0773098255966	1.26022338867188	1.26068115234375	1.60186767578125E-06	2.01944430955336E-06	787007.0625	1.63583026733249E-05
1	146	69.1780178253423	1.27029418945313	1.27044677734375	1.610107421875E-06	2.04555567506759E-06	789044.75	1.65200399351306E-05
1	147	69.278725825088	1.28036499023438	1.280517578125	1.61865234375E-06	2.07271273211518E-06	791101.0625	1.66826193890302E-05
1	148	69.3794338248338	1.29043579101563	1.290283203125	1.62628173828125E-06	2.09836389331031E-06	793394.6875	1.68460155691719E-05
1	149	69.4801418245795	1.30050659179688	1.30096435546875	1.63360595703125E-06	2.12526310860994E-06	796375.875	1.70101648109267E-05
1	150	69.5808498243252	1.31057739257813	1.31072998046875	1.64093017578125E-06	2.15081627175095E-06	798772.5625	1.71750507433899E-05
1	151	69.681557824071	1.32064819335938	1.32080078125	1.64825439453125E-06	2.17701563087758E-06	801333.0625	1.73406733665615E-05
1	152	69.7822658238167	1.33071899414063	1.33087158203125	1.65557861328125E-06	2.20336255551956E-06	803871	1.7507034499431E-05
1	153	69.8829738235625	1.34078979492188	1.34063720703125	1.66351318359375E-06	2.23016763811756E-06	805907.1875	1.76741650648182E-05
1	154	69.9836818233082	1.35086059570313	1.35040283203125	1.671142578125E-06	2.25671556108864E-06	808071.625	1.78420777956489E-05
1	155	70.0843898230539	1.36093139648438	1.3604736328125	1.67816162109375E-06	2.28309454541886E-06	810692.875	1.80107290361775E-05
1	156	70.1850978227997	1.37100219726563	1.37054443359375	1.6845703125E-06	2.30877844842325E-06	813586.9375	1.81800551217748E-05
1	157	70.2858058225454	1.38107299804688	1.38092041015625	1.69097900390625E-06	2.33510741054488E-06	816639.625	1.83500287675997E-05
1	158	70.3865138222911	1.39114379882813	1.3909912109375	1.69677734375E-06	2.36020241572987E-06	819784.1875	1.85206154128537E-05
1	159	70.4872218220369	1.40121459960938	1.4013671875	1.7034912109375E-06	2.38721668210928E-06	822644.25	1.86918314284412E-05
1	160	70.5879298217826	1.41128540039063	1.41143798828125	1.710205078125E-06	2.4138485059666E-06	825303.375	1.88637259270763E-05
1	161	70.6886378215283	1.42135620117188	1.4215087890625	1.71661376953125E-06	2.44018156081438E-06	828088.9375	1.90362788998755E-05
1	162	70.7893458212741	1.43142700195313	1.4312744140625	1.7242431640625E-06	2.46786498792062E-06	830088.5	1.92095394595526E-05
1	163	70.8900538210198	1.44149780273438	1.44073486328125	1.73126220703125E-06	2.49428967435961E-06	832187.5625	1.93835385289276E-05
1	164	70.9907618207656	1.45156860351563	1.451416015625	1.73919677734375E-06	2.52429799729725E-06	834532.4375	1.95582906599157E-05
1	165	71.0914698205113	1.46163940429688	1.46148681640625	1.7474365234375E-06	2.5538554382365E-06	836360.5	1.97338558791671E-05
1	166	71.192177820257	1.47171020507813	1.47186279296875	1.756591796875E-06	2.58546197073883E-06	837908.3125	1.9910297851311E-05
1	167	71.2928858200028	1.48178100585938	1.48193359375	1.766357421875E-06	2.61762443187763E-06	838977.1875	2.00876929739024E-05
1	168	71.3935938197485	1.49185180664063	1.49200439453125	1.778564453125E-06	2.65362587015261E-06	838881.3125	2.02661940420512E-05
1	169	71.4943018194942	1.50192260742188	1.50177001953125	1.79229736328125E-06	2.69161841970345E-06	837902.3125	2.04460011445917E-05
1	170	71.59500981924	1.49185180664063	1.49169921875	1.6461181640625E-06	2.45551314037584E-06	906192.125	2.06191380129894E-05
1	171	71.6957178189857	1.48178100585938	1.48162841796875	1.5435791015625E-06	2.28701060223102E-06	959865.5625	2.07797529583331E-05
1	172	71.7964258187314	1.47171020507813	1.47186279296875	1.46240234375E-06	2.1524556359509E-06	1006469.125	2.09311165235704E-05
1	173	71.8971338184772	1.46163940429688	1.4617919921875	1.395263671875E-06	2.0395852970978E-06	1047681.5625	2.10750113183167E-05
1	174	71.9978418182229	1.45156860351563	1.45172119140625	1.33758544921875E-06	1.94180120161036E-06	1085329.625	2.12126215046737E-05
1	175	72.0985498179687	1.44149780273438	1.44134521484375	1.28753662109375E-06	1.85578471700865E-06	1119459.625	2.134480564564E-05
1	176	72.1992578177144	1.43142700195313	1.4312744140625	1.24237060546875E-06	1.77817321400653E-06	1152051.125	2.14721967495279E-05
1	177	72.2999658174601	1.42135620117188	1.4215087890625	1.20330810546875E-06	1.7105130609707E-06	1181334	2.15953459701268E-05
1	178	72.4006738172059	1.41128540039063	1.41082763671875	1.16729736328125E-06	1.64685536674369E-06	1208627.5	2.17147171497345E-05
1	179	72.5013818169516	1.40121459960938	1.40106201171875	1.13525390625E-06	1.59056116899592E-06	1234139.75	2.18306595343165E-05
1	180	72.6020898166973	1.39114379882813	1.3909912109375	1.1053466796875E-06	1.537527509754E-06	1258420.75	2.19434823520714E-05
1	181	72.7027978164431	1.38107299804688	1.38153076171875	1.077880859375E-06	1.4891255659677E-06	1281710.125	2.20534166146535E-05
1	182	72.8035058161888	1.37100219726563	1.3714599609375	1.05010986328125E-06	1.44018360970222E-06	1306015.75	2.21605696424376E-05
1	183	72.9042138159346	1.36093139648438	1.36138916015625	1.025390625E-06	1.39595567816286E-06	1327678.625	2.22650796786183E-05
1	184	73.0049218156803	1.35086059570313	1.3507080078125	1.00189208984375E-06	1.35326365580113E-06	1348157.125	2.23671613639453E-05
1	185	73.105629815426	1.34078979492188	1.34063720703125	9.80224609374999E-07	1.31412559767341E-06	1367683.625	2.24669674935285E-05
1	186	73.2063378151718	1.33071899414063	1.33026123046875	9.5977783203125E-07	1.27675525618542E-06	1386009.5	2.25646545004565E-05
1	187	73.3070458149175	1.32064819335938	1.32049560546875	9.40856933593751E-07	1.24239738852339E-06	1403503.125	2.26603588089347E-05
1	188	73.4077538146632	1.31057739257813	1.3104248046875	9.2315673828125E-07	1.209727429341E-06	1419504.125	2.27542204811471E-05
1	189	73.508461814409	1.30050659179688	1.30096435546875	9.0667724609375E-07	1.17955471523601E-06	1434870.5	2.28463595703943E-05
1	190	73.6091698141547	1.29043579101563	1.290283203125	8.9080810546875E-07	1.14939473405684E-06	1448441.25	2.29368706641253E-05
1	191	73.7098778139004	1.28036499023438	1.28021240234375	8.75244140625001E-07	1.12049838207895E-06	1462691.875	2.30257974180859E-05
1	192	73.8105858136462	1.27029418945313	1.27044677734375	8.6090087890625E-07	1.09372876977432E-06	1475717.875	2.31132198678097E-05
1	193	73.9112938133919	1.26022338867188	1.26007080078125	8.4716796875E-07	1.06749155293073E-06	1487392	2.31992271437775E-05
1	194	74.0120018131377	1.25015258789063	1.25030517578125	8.34045410156251E-07	1.04281127732975E-06	1499085.25	2.3283884729608E-05
1	195	74.1127098128834	1.24008178710938	1.240234375	8.23059082031249E-07	1.02078615782375E-06	1506859.5	2.33673254115274E-05
1	196	74.2134178126291	1.23001098632813	1.22955322265625	8.123779296875E-07	9.98861878542812E-07	1513523.75	2.34496765187941E-05
1	197	74.3141258123749	1.21994018554688	1.22039794921875	8.026123046875E-07	9.79506467047031E-07	1520532.375	2.35309980780585E-05
1	198	74.4148338121206	1.20986938476563	1.20941162109375	7.92846679687501E-07	9.58877990342444E-07	1525404.25	2.36113355640555E-05
1	199	74.5155418118663	1.19979858398438	1.20025634765625	7.830810546875E-07	9.3989797278482E-07	1532735.875	2.36906889767852E-05
1	200	74.6162498116121	1.18972778320313	1.1895751953125	7.72705078124999E-07	9.19190767945111E-07	1539494.5	2.37690292124171E-05
1	201	74.7169578113578	1.17965698242188	1.17950439453125	7.6324462890625E-07	9.00250370250433E-07	1545381.875	2.38463708228664E-05
1	202	74.8176658111036	1.16958618164063	1.16943359375	7.5347900390625E-07	8.81143591868749E-07	1552045.5	2.39227447309531E-05
1	203	74.9183738108493	1.15951538085938	1.15966796875	7.4432373046875E-07	8.63168338582909E-07	1558015.625	2.39981636696029E-05
1	204	75.019081810595	1.14944458007813	1.14898681640625	7.34863281250001E-07	8.44348164719122E-07	1563538.25	2.40726476476993E-05
1	205	75.1197898103408	1.13937377929688	1.13983154296875	7.2601318359375E-07	8.27532744551718E-07	1569987.375	2.41462075791787E-05
1	206	75.2204978100865	1.12930297851563	1.12945556640625	7.16552734375001E-07	8.09314485650248E-07	1576235.125	2.42188471020199E-05
1	207	75.3212058098322	1.11923217773438	1.11968994140625	7.0648193359375E-07	7.91040690728551E-07	1584881.25	2.42905025515938E-05
1	208	75.421913809578	1.10916137695313	1.10931396484375	6.9580078125E-07	7.71861493831238E-07	1594298.375	2.43611139012501E-05
1	209	75.5226218093237	1.09909057617188	1.09954833984375	6.8389892578125E-07	7.51979939650482E-07	1607764.375	2.44305865635397E-05
1	210	75.6233298090694	1.08901977539063	1.08917236328125	6.7169189453125E-07	7.3158821578545E-07	1621535.75	2.44988459598972E-05
1	211	75.7240378088152	1.07894897460938	1.07940673828125	6.57958984375E-07	7.10205370069161E-07	1640538	2.45657993218629E-05
1	212	75.8247458085609	1.06887817382813	1.06842041015625	6.439208984375E-07	6.87978229052533E-07	1659241.75	2.46313538809773E-05
1	213	75.9254538083067	1.05880737304688	1.0589599609375	6.28662109375E-07	6.65728009607847E-07	1684466	2.46954332396854E-05
1	214	76.0261618080524	1.04873657226563	1.04888916015625	6.11267089843751E-07	6.41151416402863E-07	1715926.125	2.47578700509621E-05
1	215	76.1268698077981	1.03866577148438	1.0382080078125	5.92041015625E-07	6.146617010927E-07	1753608.375	2.48184605879942E-05
1	216	76.2275778075439	1.02859497070313	1.0284423828125	5.7037353515625E-07	5.86596286211716E-07	1803103.375	2.48769920290215E-05
1	217	76.3282858072896	1.01852416992188	1.0186767578125	5.47180175781251E-07	5.57399687295401E-07	1861684.375	2.4933266104199E-05
1	218	76.4289938070353	1.00845336914063	1.00830078125	5.2337646484375E-07	5.2772088565689E-07	1926530.625	2.49871736741625E-05
1	219	76.5297018067811	0.998382568359375	0.99853515625	5.01098632812499E-07	5.00364592426195E-07	1992691.875	2.5038760213647E-05
1	220	76.6304098065268	0.988311767578125	0.98785400390625	4.81567382812501E-07	4.75718280767978E-07	2051330.75	2.50882403634023E-05
1	221	76.7311178062726	0.978240966796875	0.9783935546875	4.656982421875E-07	4.55636154583772E-07	2100917.5	2.51359397225315E-05
1	222	76.8318258060183	0.968170166015625	0.968017578125	4.52880859375E-07	4.38396625668247E-07	2137466.5	2.51821929850848E-05
1	223	76.932533805764	0.958099365234375	0.95733642578125	4.425048828125E-07	4.23626033807523E-07	2163448.25	2.52272802754305E-05
1	224	77.0332418055098	0.948028564453125	0.9478759765625	4.34265136718751E-07	4.11629486052334E-07	2182712.5	2.5271428967244E-05
1	225	77.1339498052555	0.937957763671875	0.9381103515625	4.2572021484375E-07	3.99372538595344E-07	2203584.25	2.53147318289848E-05
1	226	77.2346578050012	0.927886962890625	0.92803955078125	4.16259765625E-07	3.86305515576169E-07	2229472.25	2.53571288340027E-05
1	227	77.335365804747	0.917816162109375	0.91766357421875	4.05273437500001E-07	3.71904661733424E-07	2264307.25	2.53984962910181E-05
1	228	77.4360738044927	0.907745361328125	0.9075927734375	3.9215087890625E-07	3.55913300609245E-07	2314397	2.54386504821014E-05
1	229	77.5367818042384	0.897674560546875	0.8978271484375	3.7567138671875E-07	3.37287985985313E-07	2389926.75	2.54773131018737E-05
1	230	77.6374898039842	0.887603759765625	0.8880615234375	3.5400390625E-07	3.14377246013464E-07	2508620.75	2.5514054868836E-05
1	231	77.7381978037299	0.877532958984375	0.87738037109375	3.277587890625E-07	2.87569122292552E-07	2676908.75	2.55483846558491E-05
1	232	77.8389058034757	0.867462158203125	0.8673095703125	2.95104980468749E-07	2.5594735575396E-07	2938986.75	2.5579747671145E-05
1	233	77.9396138032214	0.857391357421875	0.8575439453125	2.581787109375E-07	2.21399588440363E-07	3321513	2.56076091318391E-05
1	234	78.0403218029671	0.847320556640625	0.84716796875	2.1697998046875E-07	1.83818485766096E-07	3904360.25	2.5631534299464E-05
1	235	78.1410298027129	0.837249755859375	0.83770751953125	1.7578125E-07	1.47253260252E-07	4765625.5	2.56513121712487E-05
1	236	78.2417378024586	0.827178955078125	0.82672119140625	1.3916015625E-07	1.15046645987604E-07	5940789.5	2.56671701208688E-05
1	237	78.3424458022043	0.817108154296875	0.8172607421875	1.08947753906249E-07	8.90387212848509E-08	7501400.5	2.56796629400924E-05
1	238	78.4431538019501	0.807037353515625	0.806884765625	8.697509765625E-08	7.01788778201262E-08	9277194	2.56895291386172E-05
1	239	78.5438618016958	0.796966552734375	0.797119140625	7.41577148437506E-08	5.91125299820305E-08	10748972	2.5697641831357E-05
1	240	78.6445698014415	0.786895751953125	0.78704833984375	6.89697265624997E-08	5.42825091542909E-08	11411505	2.57048504863633E-05
1	241	78.7452778011873	0.776824951171875	0.77728271484375	6.92749023437495E-08	5.38461861765427E-08	11220264	2.57118099398213E-05
1	242	78.845985800933	0.766754150390625	0.7672119140625	7.29370117187503E-08	5.59581465608971E-08	10518828	2.5718971301103E-05
1	243	78.9466938006788	0.756683349609375	0.7568359375	7.9345703125E-08	6.00516827375941E-08	9538462	2.57266401604284E-05
1	244	79.0474018004245	0.746612548828125	0.746490478515625	8.544921875E-08	6.3787027215767E-08	8736072	2.57349383900873E-05
1	245	79.1481098001702	0.736541748046875	0.736480712890625	9.18579101562497E-08	6.76515767850105E-08	8017608.5	2.57438659900799E-05
1	246	79.248817799916	0.726470947265625	0.726409912109375	9.79614257812497E-08	7.11601515490656E-08	7415265	2.57534247793956E-05
1	247	79.3495257996617	0.716400146484375	0.716339111328125	1.03759765625E-07	7.43271755254682E-08	6903824	2.5763582016225E-05
1	248	79.4502337994074	0.706329345703125	0.706268310546875	1.08642578125E-07	7.67308065974248E-08	6500843	2.57742776739178E-05
1	249	79.5509417991532	0.696258544921875	0.6961669921875	1.129150390625E-07	7.86077265502172E-08	6165405.5	2.57854335359298E-05
1	250	79.6516497988989	0.686187744140625	0.686065673828125	1.1566162109375E-07	7.9351465842592E-08	5931662.5	2.5796942281886E-05
1	251	79.7523577986447	0.676116943359375	0.675994873046875	1.177978515625E-07	7.96307375594552E-08	5738601.5	2.58086984104011E-05
1	252	79.8530657983904	0.666046142578125	0.66595458984375	1.190185546875E-07	7.92609498034835E-08	5595385	2.58206237049308E-05
1	253	79.9537737981361	0.655975341796875	0.65594482421875	1.19934082031251E-07	7.86701406241264E-08	5469211	2.58326563198352E-05
1	254	80.0544817978819	0.645904541015625	0.6458740234375	1.21154785156249E-07	7.82507285634892E-08	5330982.5	2.58447944361251E-05
1	255	80.1551897976276	0.635833740234375	0.635833740234375	1.22680664062499E-07	7.80045041892663E-08	5182836	2.5857072614599E-05
1	256	80.2558977973733	0.625762939453125	0.625732421875	1.239013671875E-07	7.75290942556239E-08	5050246.5	2.58694890362676E-05
1	257	80.3566057971191	0.615692138671875	0.615692138671875	1.2542724609375E-07	7.72245698499319E-08	4908759	2.58820437011309E-05
1	258	80.4573137968648	0.605621337890625	0.60552978515625	1.2664794921875E-07	7.66891048442631E-08	4781205	2.58947366091888E-05
1	259	80.5580217966105	0.595550537109375	0.595489501953125	1.27258300781249E-07	7.57809814899701E-08	4679376.5	2.59075222857064E-05
1	260	80.6587297963563	0.585479736328125	0.58544921875	1.27258300781249E-07	7.4503276437099E-08	4600479.5	2.59203388850437E-05
1	261	80.759437796102	0.575408935546875	0.575347900390625	1.27563476562501E-07	7.33933731567049E-08	4510287.5	2.59331700362964E-05
1	262	80.8601457958478	0.565338134765625	0.5653076171875	1.27563476562501E-07	7.21125985592153E-08	4431579.5	2.59460157394642E-05
1	263	80.9608537955935	0.555267333984375	0.555267333984375	1.27258300781249E-07	7.06623808355289E-08	4363309.5	2.59588487097062E-05
1	264	81.0615617953392	0.545196533203125	0.545135498046875	1.27258300781249E-07	6.93730157763639E-08	4283693	2.59716634900542E-05
1	265	81.162269795085	0.535125732421875	0.53509521484375	1.2786865234375E-07	6.84218974811301E-08	4184725.75	2.59845110122114E-05
1	266	81.2629777948307	0.525054931640625	0.525054931640625	1.28173828125E-07	6.72982949367906E-08	4096428.75	2.59974040091038E-05
1	267	81.3636857945764	0.514984130859375	0.51495361328125	1.2847900390625E-07	6.61607231222661E-08	4008076	2.60103261098266E-05
1	268	81.4643937943222	0.504913330078125	0.5048828125	1.2786865234375E-07	6.45586837322298E-08	3948449	2.60232354776235E-05
1	269	81.5651017940679	0.494842529296875	0.49481201171875	1.2786865234375E-07	6.32709387105024E-08	3869690	2.60361121036112E-05
1	270	81.6658097938137	0.484771728515625	0.48480224609375	1.27563476562501E-07	6.1843053345001E-08	3800478.75	2.60489741776837E-05
1	271	81.7665177935594	0.474700927734375	0.474700927734375	1.27563476562501E-07	6.05544983045547E-08	3721292.25	2.60618216998409E-05
1	272	81.8672257933051	0.464630126953125	0.4647216796875	1.2786865234375E-07	5.9423332032793E-08	3634367.75	2.60746837739134E-05
1	273	81.9679337930509	0.454559326171875	0.454620361328125	1.28784179687499E-07	5.85479114079135E-08	3530094.75	2.60876058746362E-05
1	274	82.0686417927966	0.444488525390625	0.444488525390625	1.2939453125E-07	5.75143808134726E-08	3435141.75	2.61006061919034E-05
1	275	82.1693497925423	0.434417724609375	0.434417724609375	1.2969970703125E-07	5.63438469214361E-08	3349412	2.6113653802895E-05
1	276	82.2700577922881	0.424346923828125	0.424285888671875	1.300048828125E-07	5.51592336250906E-08	3263615.25	2.61267305177171E-05
1	277	82.3707657920338	0.414276123046875	0.414276123046875	1.2939453125E-07	5.36050599464488E-08	3201651.25	2.61397926806239E-05
1	278	82.4714737917795	0.404205322265625	0.404266357421875	1.29089355468751E-07	5.21864862434995E-08	3131678.5	2.61528075498063E-05
1	279	82.5721817915253	0.394134521484375	0.394134521484375	1.2847900390625E-07	5.06380111175986E-08	3067696	2.61657769442536E-05
1	280	82.672889791271	0.384063720703125	0.38409423828125	1.27258300781249E-07	4.88791798147759E-08	3018225.25	2.61786553892307E-05
1	281	82.7735977910168	0.373992919921875	0.3739013671875	1.27258300781249E-07	4.75820520762227E-08	2938129.5	2.61914701695787E-05
1	282	82.8743057907625	0.363922119140625	0.363922119140625	1.2664794921875E-07	4.60899904908274E-08	2873494	2.62042558460962E-05
1	283	82.9750137905082	0.353851318359375	0.3538818359375	1.26037597656251E-07	4.46024124300948E-08	2807748.25	2.6216979676974E-05
1	284	83.075721790254	0.343780517578125	0.343780517578125	1.2542724609375E-07	4.31194457917172E-08	2740875.75	2.62296416622121E-05
1	285	83.1764297899997	0.333709716796875	0.333770751953125	1.24206542968749E-07	4.14565093365127E-08	2687223.75	2.624221269798E-05
1	286	83.2771377897454	0.323638916015625	0.32366943359375	1.22985839843751E-07	3.98067570017702E-08	2631761.75	2.62546582234791E-05
1	287	83.3778457894912	0.313568115234375	0.313629150390625	1.2054443359375E-07	3.78062452455197E-08	2601772.25	2.62669218500378E-05
1	288	83.4785537892369	0.303497314453125	0.303466796875	1.177978515625E-07	3.57477354384628E-08	2576166	2.62789235421224E-05
1	289	83.5792617889826	0.293426513671875	0.29345703125	1.1566162109375E-07	3.39417169925582E-08	2537203.25	2.62906796706375E-05
1	290	83.6799697887284	0.283355712890625	0.2833251953125	1.13525390624999E-07	3.21646034251444E-08	2495699	2.63022193394136E-05
1	291	83.7806777884741	0.273284912109375	0.273223876953125	1.1138916015625E-07	3.04341760681837E-08	2452876.75	2.631354436744E-05
1	292	83.8813857882199	0.263214111328125	0.26324462890625	1.08947753906249E-07	2.86799100024382E-08	2416246.5	2.63246402028017E-05
1	293	83.9820937879656	0.253143310546875	0.253173828125	1.0528564453125E-07	2.6655570195544E-08	2404637.75	2.63354268099647E-05
1	294	84.0828017877113	0.243072509765625	0.24310302734375	1.01623535156251E-07	2.47049882773354E-08	2392192.25	2.63458459812682E-05
1	295	84.1835097874571	0.233001708984375	0.2330322265625	9.79614257812497E-08	2.28281695768828E-08	2378816.25	2.63558958977228E-05
1	296	84.2842177872028	0.222930908203125	0.222930908203125	9.36889648437495E-08	2.08861656858517E-08	2379479	2.63655456365086E-05
1	297	84.3849257869485	0.212860107421875	0.212890625	8.88061523437497E-08	1.8905996768126E-08	2397250.75	2.63747351709753E-05
1	298	84.4856337866943	0.202789306640625	0.202789306640625	8.51440429687503E-08	1.72663003894513E-08	2381720.5	2.63834954239428E-05
1	299	84.58634178644	0.192718505859375	0.1927490234375	8.05664062500003E-08	1.55290944547914E-08	2392424.5	2.63918391283369E-05
1	300	84.6870497861858	0.182647705078125	0.182647705078125	7.56835937500006E-08	1.38234348412425E-08	2413306.5	2.63997062575072E-05
1	301	84.7877577859315	0.172576904296875	0.172637939453125	6.98852539062503E-08	1.20648460111283E-08	2470305.75	2.64070367848035E-05
1	302	84.8884657856772	0.162506103515625	0.1624755859375	6.22558593750003E-08	1.01150572362485E-08	2609804	2.64136906480417E-05
1	303	84.989173785423	0.152435302734375	0.15252685546875	5.27954101562506E-08	8.05271760384585E-09	2889017.5	2.6419484129292E-05
1	304	85.0898817851687	0.142364501953125	0.14239501953125	4.119873046875E-08	5.86649351319579E-09	3456296.5	2.642421713972E-05
1	305	85.1905897849144	0.132293701171875	0.13232421875	2.56347656250003E-08	3.39210037836324E-09	5161905	2.64275822701165E-05
1	306	85.2912977846602	0.122222900390625	0.12225341796875	5.79833984375028E-09	7.08866854104429E-10	21084212	2.64291647908976E-05
1	307	85.3920057844059	0.112152099609375	0.1121826171875	-2.04467773437494E-08	-2.29377294935773E-09	-5486567.5	2.64284262811998E-05
1	308	85.4927137841516	0.102081298828125	0.102142333984375	-5.55419921874995E-08	-5.67318858557542E-09	-1839011	2.64246009464841E-05
1	309	85.5934217838974	0.092010498046875	0.092041015625	-1.03149414062501E-07	-9.4939762718127E-09	-892307.75	2.64166101260344E-05
1	310	85.6941297836431	0.081939697265625	0.08197021484375	-1.68457031249999E-07	-1.38084583767295E-08	-486594.21875	2.64029331447091E-05
1	311	85.7948377833889	0.071868896484375	0.0718994140625	-2.56958007812499E-07	-1.84751307585884E-08	-279809.96875	2.63815127254929E-05
1	312	85.8955457831346	0.061798095703125	0.061798095703125	-3.72924804687499E-07	-2.30460432959489E-08	-165711.953125	2.63497950072633E-05
1	313	85.9962537828803	0.051727294921875	0.051788330078125	-5.2032470703125E-07	-2.69467470559448E-08	-99530.7890625	2.63048168562818E-05
1	314	86.0969617826261	0.041656494140625	0.0417572021484375	-6.9915771484375E-07	-2.91948705211098E-08	-59725.015625	2.62434114119969E-05
1	315	86.1976697823718	0.031585693359375	0.031707763671875	-9.0484619140625E-07	-2.86906480795324E-08	-35042.16015625	2.61626428255113E-05
1	316	86.2983777821175	0.021514892578125	0.0215850830078125	-1.1212158203125E-06	-2.42015349982694E-08	-19251.498046875	2.6060622985824E-05
1	317	86.3990857818633	0.011444091796875	0.01153564453125	-1.33209228515625E-06	-1.53665418167748E-08	-8659.7939453125	2.59370881394716E-05
1	318	86.499793781609	0.001373291015625	0.00147705078125	-1.5155029296875E-06	-2.2384747389026E-09	-974.627563476563	2.57937008427689E-05
1	319	86.6005017813548	-0.008697509765625	-0.00861206054687499	-1.6546630859375E-06	1.42500589106476E-08	5204.7216796875	2.56340699706925E-05
1	320	86.7012097811005	-0.018768310546875	-0.0186126708984375	-1.74041748046875E-06	3.23938174062732E-08	10694.3720703125	2.54631140705897E-05
1	321	86.8019177808462	-0.028839111328125	-0.0287017822265625	-1.77398681640625E-06	5.0916582949867E-08	16179.25390625	2.52861500484869E-05
1	322	86.902625780592	-0.038909912109375	-0.03875732421875	-1.76422119140625E-06	6.83764866948877E-08	21968.51953125	2.51079873123672E-05
1	323	87.0033337803377	-0.048980712890625	-0.048834228515625	-1.7254638671875E-06	8.42616927343443E-08	28302.087890625	2.49322674790164E-05
1	324	87.1040417800834	-0.059051513671875	-0.058990478515625	-1.66961669921875E-06	9.84914834134543E-08	35331.75	2.47613115789136E-05
1	325	87.2047497798292	-0.069122314453125	-0.069091796875	-1.60675048828125E-06	1.11013271464344E-07	43000.953125	2.45963328779908E-05
1	326	87.3054577795749	-0.079193115234375	-0.079132080078125	-1.54388427734375E-06	1.2217077483001E-07	51255.19140625	2.44376860791817E-05
1	327	87.4061657793206	-0.089263916015625	-0.08917236328125	-1.4849853515625E-06	1.32419643250614E-07	60049.32421875	2.4285171093652E-05
1	328	87.5068737790664	-0.099334716796875	-0.0992431640625	-1.43157958984375E-06	1.42074483733268E-07	69324.2421875	2.41383095271885E-05
1	329	87.6075817788121	-0.109405517578125	-0.10931396484375	-1.385498046875E-06	1.51454273122908E-07	78898.6796875	2.39964592765318E-05
1	330	87.7082897785579	-0.119476318359375	-0.11944580078125	-1.34552001953125E-06	1.60716709274311E-07	88772.96875	2.38589418586344E-05
1	331	87.8089977783036	-0.129547119140625	-0.12945556640625	-1.31195068359375E-06	1.69839310615316E-07	98674.109375	2.37251260841731E-05
1	332	87.9097057780493	-0.139617919921875	-0.13946533203125	-1.28387451171875E-06	1.79055973603681E-07	108628.484375	2.35944171436131E-05
1	333	88.0104137777951	-0.149688720703125	-0.149566650390625	-1.259765625E-06	1.8841890891963E-07	118725.78125	2.34663348237518E-05
1	334	88.1111217775408	-0.159759521484375	-0.15966796875	-1.24114990234375E-06	1.98171889564946E-07	128645.1953125	2.33404025493655E-05
1	335	88.2118297772865	-0.169830322265625	-0.169708251953125	-1.22589111328125E-06	2.08043829275084E-07	138436.640625	2.32161783060292E-05
1	336	88.3125377770323	-0.179901123046875	-0.17974853515625	-1.21490478515625E-06	2.18377351757226E-07	147952.78125	2.30932746489998E-05
1	337	88.413245776778	-0.189971923828125	-0.189849853515625	-1.20819091796875E-06	2.29374848004227E-07	157135.65625	2.29712604777887E-05
1	338	88.5139537765237	-0.200042724609375	-0.199951171875	-1.2054443359375E-06	2.41029994185737E-07	165873.421875	2.28497247007908E-05
1	339	88.6146617762695	-0.189971923828125	-0.18975830078125	-1.04461669921875E-06	1.98224668679359E-07	181653.53125	2.27364253078122E-05
2	340	88.7153697760152	-0.179901123046875	-0.17974853515625	-9.3505859375E-07	1.68075402484646E-07	192232.390625	2.2636741050519E-05
2	341	88.816077775761	-0.169830322265625	-0.169647216796875	-8.48388671875E-07	1.43926769169411E-07	199964.03125	2.2546937543666E-05
2	342	88.9167857755067	-0.159759521484375	-0.159637451171875	-7.75146484375E-07	1.23742410096384E-07	205944.890625	2.2465184883913E-05
2	343	89.0174937752524	-0.149688720703125	-0.14959716796875	-7.11669921874999E-07	1.06463801330392E-07	210205.84375	2.23903189180419E-05
2	344	89.1182017749982	-0.139617919921875	-0.1395263671875	-6.53991699218751E-07	9.12490776272534E-08	213345.78125	2.23215520236408E-05
2	345	89.2189097747439	-0.129547119140625	-0.12945556640625	-6.02111816406251E-07	7.79467228539943E-08	215002.53125	2.22583021241007E-05
2	346	89.3196177744896	-0.119476318359375	-0.119415283203125	-5.53283691406251E-07	6.60705268273887E-08	215830.125	2.22001235670177E-05
2	347	89.4203257742354	-0.109405517578125	-0.109283447265625	-5.06591796875E-07	5.53620971288638E-08	215722.890625	2.21467544179177E-05
2	348	89.5210337739811	-0.099334716796875	-0.0992431640625	-4.58679199218751E-07	4.552077470521E-08	216367.28125	2.20981492020655E-05
2	349	89.6217417737269	-0.089263916015625	-0.08917236328125	-4.0863037109375E-07	3.64385357443098E-08	218222.546875	2.20544770854758E-05
2	350	89.7224497734726	-0.079193115234375	-0.07916259765625	-3.5247802734375E-07	2.79030754057885E-08	224588.75	2.20161527977325E-05
2	351	89.8231577732183	-0.069122314453125	-0.069091796875	-2.87780761718751E-07	1.98832896813883E-08	240084.84375	2.19839130295441E-05
2	352	89.9238657729641	-0.059051513671875	-0.058990478515625	-2.09960937500001E-07	1.23856960243529E-08	280959.3125	2.19588491745526E-05
2	353	90.0245737727098	-0.048980712890625	-0.0488494873046875	-1.13830566406251E-07	5.56056445333297E-09	429142.09375	2.19425455725286E-05
2	354	90.1252817724555	-0.038909912109375	-0.0387542724609375	5.18798828124945E-09	-2.01056712945125E-10	-7470000	2.19370740524027E-05
2	355	90.2259897722013	-0.028839111328125	-0.028704833984375	1.5228271484375E-07	-4.37124958452273E-09	-188497	2.19450030272128E-05
2	356	90.326697771947	-0.018768310546875	-0.0186798095703125	3.2958984375E-07	-6.15667472558812E-09	-56675.92578125	2.19692683458561E-05
2	357	90.4274057716927	-0.008697509765625	-0.00859375	5.3375244140625E-07	-4.58693483196271E-09	-16100.6298828125	2.20127403736115E-05
2	358	90.5281137714385	0.001373291015625	0.0014923095703125	7.55615234375E-07	1.12761178172605E-09	1974.95983886719	2.20776655623922E-05
2	359	90.6288217711842	0.011444091796875	0.0115325927734375	9.80529785156251E-07	1.13080504959839E-08	11761.59375	2.2165088012116E-05
2	360	90.72952977093	0.021514892578125	0.021575927734375	1.18621826171875E-06	2.5593758223863E-08	18188.833984375	2.22741909965407E-05
2	361	90.8302377706757	0.031585693359375	0.031646728515625	1.3543701171875E-06	4.28613802228028E-08	23366.3828125	2.24021205212921E-05
2	362	90.9309457704214	0.041656494140625	0.0417510986328125	1.4715576171875E-06	6.14391453268581E-08	28372.044921875	2.25444164243527E-05
2	363	91.0316537701672	0.051727294921875	0.0517578125	1.533203125E-06	7.93552388245189E-08	33757.9609375	2.26957181439502E-05
2	364	91.1323617699129	0.061798095703125	0.061859130859375	1.54693603515625E-06	9.5692115564816E-08	39988.1640625	2.2850816094433E-05
2	365	91.2330697696586	0.071868896484375	0.0718994140625	1.52435302734375E-06	1.09600087228046E-07	47167.16796875	2.30054683925118E-05
2	366	91.3337777694044	0.081939697265625	0.081939697265625	1.4801025390625E-06	1.21279143172615E-07	55360.828125	2.31567537412047E-05
2	367	91.4344857691501	0.092010498046875	0.09210205078125	1.42425537109375E-06	1.31176832951496E-07	64666.8125	2.33030004892498E-05
2	368	91.5351937688959	0.102081298828125	0.102142333984375	1.3653564453125E-06	1.39460695436355E-07	74810.015625	2.34434683079598E-05
2	369	91.6359017686416	0.112152099609375	0.112213134765625	1.3079833984375E-06	1.46772904940917E-07	85790.953125	2.35780807997799E-05
2	370	91.7366097683873	0.122222900390625	0.122283935546875	1.2548828125E-06	1.53452006657062E-07	97446.5	2.37071326409932E-05
2	371	91.8373177681331	0.132293701171875	0.13238525390625	1.2054443359375E-06	1.59583052550261E-07	109822.7890625	2.38310203712899E-05
2	372	91.9380257678788	0.142364501953125	0.142364501953125	1.1614990234375E-06	1.65356226489166E-07	122569.6328125	2.39502041949891E-05
2	373	92.0387337676245	0.152435302734375	0.152435302734375	1.123046875E-06	1.71191999243092E-07	135733.6875	2.40652407228481E-05
2	374	92.1394417673703	0.162506103515625	0.162506103515625	1.08917236328125E-06	1.76997147605107E-07	149201.46875	2.41766338149318E-05
2	375	92.240149767116	0.172576904296875	0.172576904296875	1.06048583984375E-06	1.83015359311867E-07	162733.8125	2.42848782363581E-05
2	376	92.3408577668617	0.182647705078125	0.182647705078125	1.03485107421875E-06	1.89013164231255E-07	176496.609375	2.43903868977213E-05
2	377	92.4415657666075	0.192718505859375	0.192779541015625	1.0125732421875E-06	1.95203398334343E-07	190385.78125	2.44934835791355E-05
2	378	92.5422737663532	0.202789306640625	0.202850341796875	9.9334716796875E-07	2.01500810703692E-07	204208.90625	2.45944884227356E-05
2	379	92.642981766099	0.212860107421875	0.212860107421875	9.7686767578125E-07	2.07936153628907E-07	217900.65625	2.46936979237944E-05
2	380	92.7436897658447	0.222930908203125	0.22296142578125	9.613037109375E-07	2.14333653048016E-07	231936.5	2.47912921622628E-05
2	381	92.8443977655904	0.233001708984375	0.233001708984375	9.478759765625E-07	2.20856719579388E-07	245814.5625	2.48874275712296E-05
2	382	92.9451057653362	0.243072509765625	0.24310302734375	9.3536376953125E-07	2.2738976213077E-07	259902.125	2.49822551268153E-05
2	383	93.0458137650819	0.253143310546875	0.253173828125	9.2437744140625E-07	2.34028178169865E-07	273885.78125	2.50759003392886E-05
2	384	93.1465217648276	0.263214111328125	0.26318359375	9.14306640625E-07	2.40630498637984E-07	287850.46875	2.51684868999291E-05
2	385	93.2472297645734	0.273284912109375	0.273284912109375	9.05761718750001E-07	2.47531005470591E-07	301718.34375	2.5260133043048E-05
2	386	93.3479377643191	0.283355712890625	0.28338623046875	8.984375E-07	2.54604799465596E-07	315421.21875	2.53509824688081E-05
2	387	93.4486457640648	0.293426513671875	0.29339599609375	8.9141845703125E-07	2.61538588119947E-07	329133.875	2.5441109755775E-05
2	388	93.5493537638106	0.303497314453125	0.303497314453125	8.8470458984375E-07	2.68505459644075E-07	343049.34375	2.55305440077791E-05
2	389	93.6500617635563	0.313568115234375	0.313629150390625	8.7921142578125E-07	2.75746344868821E-07	356716.40625	2.56193634413648E-05
2	390	93.7507697633021	0.323638916015625	0.323638916015625	8.73718261718751E-07	2.82769235582236E-07	370415.65625	2.57076317211613E-05
2	391	93.8514777630478	0.333709716796875	0.333709716796875	8.69140625000001E-07	2.9004067414462E-07	383953.65625	2.57953906839248E-05
2	392	93.9521857627935	0.343780517578125	0.343780517578125	8.648681640625E-07	2.9732481721112E-07	397494.71875	2.58827058132738E-05
2	393	94.0528937625393	0.353851318359375	0.3538818359375	8.6212158203125E-07	3.05089173480155E-07	410477.875	2.59696662396891E-05
2	394	94.153601762285	0.363922119140625	0.363983154296875	8.6029052734375E-07	3.13131266693745E-07	423093.28125	2.60563956544502E-05
2	395	94.2543097620307	0.373992919921875	0.374053955078125	8.59375E-07	3.21452603202488E-07	435262.8125	2.6142988645006E-05
2	396	94.3550177617765	0.384063720703125	0.384063720703125	8.58459472656251E-07	3.2970311281133E-07	447387.15625	2.62294888671022E-05
2	397	94.4557257615222	0.394134521484375	0.394195556640625	8.58154296874999E-07	3.3828061418717E-07	459352.78125	2.63159272435587E-05
2	398	94.556433761268	0.404205322265625	0.40423583984375	8.587646484375E-07	3.47143441103981E-07	470717.84375	2.64023801719304E-05
2	399	94.6571417610137	0.414276123046875	0.414337158203125	8.5906982421875E-07	3.55944536067909E-07	482309.0625	2.64888803940266E-05
2	400	94.7578497607594	0.424346923828125	0.42431640625	8.59985351562501E-07	3.64905872629606E-07	493399.59375	2.65754406427732E-05
2	401	94.8585577605052	0.434417724609375	0.434417724609375	8.612060546875E-07	3.74123175106433E-07	504429.5	2.66621100308839E-05
2	402	94.9592657602509	0.444488525390625	0.444549560546875	8.6395263671875E-07	3.84069750225535E-07	514553.1875	2.67489795078291E-05
2	403	95.0599737599966	0.454559326171875	0.45452880859375	8.6669921875E-07	3.93939757259432E-07	524436.625	2.68361236521741E-05
2	404	95.1606817597424	0.464630126953125	0.464691162109375	8.6944580078125E-07	4.04023779765339E-07	534468.25	2.6923546101898E-05
2	405	95.2613897594881	0.474700927734375	0.47467041015625	8.72802734375E-07	4.14293623407502E-07	543846.1875	2.7011275960831E-05
2	406	95.3620977592338	0.484771728515625	0.484771728515625	8.76464843749999E-07	4.24885371330674E-07	553098.9375	2.70993587037083E-05
2	407	95.4628057589796	0.494842529296875	0.49481201171875	8.795166015625E-07	4.35195346426553E-07	562595.4375	2.71877779596252E-05
2	408	95.5635137587253	0.504913330078125	0.504913330078125	8.8348388671875E-07	4.46082793814639E-07	571502.5625	2.72765519184759E-05
2	409	95.6642217584711	0.514984130859375	0.51495361328125	8.87451171875001E-07	4.56996190223435E-07	580261.375	2.73657260549953E-05
2	410	95.7649297582168	0.525054931640625	0.5250244140625	8.92028808593751E-07	4.68336878611808E-07	588573.4375	2.7455329473014E-05
2	411	95.8656377579625	0.535125732421875	0.53509521484375	8.9691162109375E-07	4.79933135011379E-07	596597.5	2.75454112852458E-05
2	412	95.9663457577083	0.545196533203125	0.545135498046875	9.02099609375E-07	4.91766513732728E-07	604296.375	2.76359987765318E-05
2	413	96.067053757454	0.555267333984375	0.55523681640625	9.075927734375E-07	5.03928902162443E-07	611768.6875	2.77271228696918E-05
2	414	96.1677617571997	0.565338134765625	0.56524658203125	9.1278076171875E-07	5.15946226187225E-07	619257.75	2.78187872027047E-05
2	415	96.2684697569455	0.575408935546875	0.575469970703125	9.185791015625E-07	5.28614691575058E-07	626478.4375	2.79110026895069E-05
2	416	96.3691777566912	0.585479736328125	0.585418701171875	9.2376708984375E-07	5.40790495051624E-07	633729.8125	2.80037729680771E-05
2	417	96.469885756437	0.595550537109375	0.59552001953125	9.29870605468749E-07	5.53756535737193E-07	640433.25	2.80971107713412E-05
2	418	96.5705937561827	0.605621337890625	0.6055908203125	9.35974121093749E-07	5.66817277558584E-07	647016.6875	2.81910633930238E-05
2	419	96.6713017559284	0.615692138671875	0.61566162109375	9.4268798828125E-07	5.80376820380479E-07	653091.625	2.82856617559446E-05
2	420	96.7720097556742	0.625762939453125	0.625732421875	9.4970703125E-07	5.94262473896379E-07	658868.9375	2.83809513348388E-05
2	421	96.8727177554199	0.635833740234375	0.6357421875	9.57641601562501E-07	6.08813138569531E-07	663862.375	2.8476993975346E-05
2	422	96.9734257551656	0.645904541015625	0.645904541015625	9.661865234375E-07	6.24064227849885E-07	668509.1875	2.85738660750212E-05
2	423	97.0741337549114	0.655975341796875	0.655914306640625	9.74426269531251E-07	6.39140125713311E-07	673128.75	2.86715840047691E-05
2	424	97.1748417546571	0.666046142578125	0.66595458984375	9.8297119140625E-07	6.54614154882438E-07	677491.4375	2.87701459456002E-05
2	425	97.2755497544028	0.676116943359375	0.67608642578125	9.9212646484375E-07	6.70763199650537E-07	681451.9375	2.88696010102285E-05
2	426	97.3762577541486	0.686187744140625	0.6861572265625	1.00128173828125E-06	6.87036674662522E-07	685278.875	2.8969976483495E-05
2	427	97.4769657538943	0.696258544921875	0.6961669921875	1.0113525390625E-06	7.04070259871514E-07	688352.4375	2.90713214781135E-05
2	428	97.5776737536401	0.706329345703125	0.706268310546875	1.02203369140625E-06	7.21829962913034E-07	691042.125	2.91737105726497E-05
2	429	97.6783817533858	0.716400146484375	0.716339111328125	1.03302001953125E-06	7.39992628950858E-07	693441.6875	2.92771892418386E-05
2	430	97.7790897531315	0.726470947265625	0.726409912109375	1.0443115234375E-06	7.58598218908446E-07	695587.375	2.93817920464789E-05
2	431	97.8797977528773	0.736541748046875	0.736480712890625	1.05682373046875E-06	7.78330331741017E-07	696881.3125	2.94875917461468E-05
2	432	97.980505752623	0.746612548828125	0.746551513671875	1.070556640625E-06	7.99225688297156E-07	697348.875	2.9594713851111E-05
2	433	98.0812137523687	0.756683349609375	0.75714111328125	1.08489990234375E-06	8.21422304397856E-07	697890.3125	2.97032511298312E-05
2	434	98.1819217521145	0.766754150390625	0.7672119140625	1.10107421875E-06	8.44757209961244E-07	696784.9375	2.9813323635608E-05
2	435	98.2826297518602	0.776824951171875	0.77728271484375	1.11968994140625E-06	8.70315659540211E-07	694194.625	2.99251478281803E-05
2	436	98.3833377516059	0.786895751953125	0.78704833984375	1.14105224609375E-06	8.98063206022925E-07	689756.6875	3.0038983823033E-05
2	437	98.4840457513517	0.796966552734375	0.79681396484375	1.16455078125E-06	9.27930329908122E-07	684224.3125	3.01550808217144E-05
2	438	98.5847537510974	0.807037353515625	0.80718994140625	1.19171142578125E-06	9.6193741683237E-07	677336.8125	3.02737280435394E-05
2	439	98.6854617508432	0.817108154296875	0.81787109375	1.220703125E-06	9.98377799987793E-07	670000	3.0395203793887E-05
2	440	98.7861697505889	0.827178955078125	0.8270263671875	1.25030517578125E-06	1.03403533557866E-06	661459.625	3.05196263070684E-05
2	441	98.8868777503346	0.837249755859375	0.83709716796875	1.278076171875E-06	1.06987397430203E-06	654966.5625	3.06469410134014E-05
2	442	98.9875857500804	0.847320556640625	0.8477783203125	1.3031005859375E-06	1.10474047687603E-06	650585.5	3.07769150822423E-05
2	443	99.0882937498261	0.857391357421875	0.8575439453125	1.32232666015625E-06	1.1339532193233E-06	648511.4375	3.09091155941132E-05
2	444	99.1890017495718	0.867462158203125	0.86761474609375	1.336669921875E-06	1.15971454306418E-06	649086.75	3.10430077661294E-05
2	445	99.2897097493176	0.877532958984375	0.8770751953125	1.34552001953125E-06	1.18012223992991E-06	651848.5	3.11780640913639E-05
2	446	99.3904177490633	0.887603759765625	0.887451171875	1.35009765625E-06	1.19814569643495E-06	657323.75	3.13138007186353E-05
2	447	99.4911257488091	0.897674560546875	0.89813232421875	1.3519287109375E-06	1.21421078347339E-06	664334.125	3.14498574880417E-05
2	448	99.5918337485548	0.907745361328125	0.908203125	1.3519287109375E-06	1.22782580547209E-06	671783.3125	3.15860088448972E-05
2	449	99.6925417483005	0.917816162109375	0.91796875	1.3519287109375E-06	1.2410282579367E-06	679006.8125	3.17221602017526E-05
2	450	99.7932497480463	0.927886962890625	0.927734375	1.35101318359375E-06	1.2533813560367E-06	686695.3125	3.18582642648835E-05
2	451	99.893957747792	0.937957763671875	0.93780517578125	1.35162353515625E-06	1.26755946894264E-06	693836.125	3.19943501381204E-05
2	452	99.9946657475377	0.948028564453125	0.94818115234375	1.3543701171875E-06	1.2841882153225E-06	700090.1875	3.21306069963612E-05
2	453	100.095373747283	0.958099365234375	0.95794677734375	1.35986328125E-06	1.30267665099382E-06	704443.4375	3.22672822221648E-05
2	454	100.196081747029	0.968170166015625	0.968017578125	1.36871337890625E-06	1.32493858018279E-06	707246.375	3.24046777677722E-05
2	455	100.296789746775	0.978240966796875	0.97747802734375	1.38031005859375E-06	1.34922265715431E-06	708158.3125	3.25430992234033E-05
2	456	100.397497746521	0.988311767578125	0.98846435546875	1.392822265625E-06	1.37675510814006E-06	709684.5	3.26827394019347E-05
2	457	100.498205746266	0.998382568359375	0.99853515625	1.4056396484375E-06	1.40358054068201E-06	710377.75	3.28236528730486E-05
2	458	100.598913746012	1.00845336914063	1.00860595703125	1.41754150390625E-06	1.42974079153646E-06	711517.75	3.29658105329145E-05
2	459	100.699621745758	1.01852416992188	1.01837158203125	1.42608642578125E-06	1.4522859146382E-06	714102.3125	3.31089977407828E-05
2	460	100.800329745504	1.02859497070313	1.0284423828125	1.43157958984375E-06	1.47229707181395E-06	718396.9375	3.32528943545185E-05
2	461	100.901037745249	1.03866577148438	1.0382080078125	1.434326171875E-06	1.48912886288599E-06	723829.8125	3.33972020598594E-05
2	462	101.001745744995	1.04873657226563	1.04827880859375	1.43402099609375E-06	1.50325377035188E-06	731006.625	3.35416370944586E-05
2	463	101.102453744741	1.05880737304688	1.05865478515625	1.43157958984375E-06	1.51554854710412E-06	739501.1875	3.36859302478842E-05
2	464	101.203161744487	1.06887817382813	1.06903076171875	1.42852783203125E-06	1.52714005707821E-06	748344.4375	3.38299469149206E-05
2	465	101.303869744232	1.07894897460938	1.0784912109375	1.42486572265625E-06	1.53670509916992E-06	756907.3125	3.39736288879067E-05
2	466	101.404577743978	1.08901977539063	1.0888671875	1.4202880859375E-06	1.5465051319552E-06	766652.375	3.41168924933299E-05
2	467	101.505285743724	1.09909057617188	1.0986328125	1.416015625E-06	1.55568125137506E-06	775862.0625	3.42597122653387E-05
2	468	101.60599374347	1.10916137695313	1.10931396484375	1.41143798828125E-06	1.56572787091136E-06	785945.9375	3.44020845659543E-05
2	469	101.706701743215	1.11923217773438	1.11968994140625	1.40716552734375E-06	1.57558906721533E-06	795705.9375	3.45440130331554E-05
2	470	101.807409742961	1.12930297851563	1.12945556640625	1.40350341796875E-06	1.58519469550811E-06	804740.1875	3.46855413226876E-05
2	471	101.908117742707	1.13937377929688	1.13983154296875	1.4013671875E-06	1.59732246629574E-06	813371.0625	3.48267785739154E-05
2	472	102.008825742452	1.14944458007813	1.1492919921875	1.39984130859375E-06	1.60882632371795E-06	821015.9375	3.49678302882239E-05
2	473	102.109533742198	1.15951538085938	1.15966796875	1.39862060546875E-06	1.62193555297563E-06	829151.1875	3.51087437593378E-05
2	474	102.210241741944	1.16958618164063	1.16943359375	1.39862060546875E-06	1.6355938896595E-06	836133.5625	3.5249595384812E-05
2	475	102.31094974169	1.17965698242188	1.1798095703125	1.39923095703125E-06	1.65082599323796E-06	843184.3125	3.53904797520954E-05
2	476	102.411657741435	1.18972778320313	1.1895751953125	1.400146484375E-06	1.66557947522961E-06	849607.75	3.55314405169338E-05
2	477	102.512365741181	1.19979858398438	1.1993408203125	1.4013671875E-06	1.68071687767224E-06	855836.25	3.56725067831576E-05
2	478	102.613073740927	1.20986938476563	1.209716796875	1.40350341796875E-06	1.69784152603825E-06	861926.5625	3.58137440343853E-05
2	479	102.713781740673	1.21994018554688	1.2200927734375	1.40716552734375E-06	1.71687247529917E-06	867057	3.59552723239176E-05
2	480	102.814489740418	1.23001098632813	1.23016357421875	1.4111328125E-06	1.73592411556456E-06	871756.0625	3.60971862392034E-05
2	481	102.915197740164	1.24008178710938	1.2396240234375	1.41754150390625E-06	1.75721845607768E-06	874488.6875	3.62396203854587E-05
2	482	103.01590573991	1.25015258789063	1.25030517578125	1.424560546875E-06	1.7811354382502E-06	877677.8125	3.63827311957721E-05
2	483	103.116613739656	1.26022338867188	1.2603759765625	1.431884765625E-06	1.80471306521213E-06	880221.6875	3.65265659638681E-05
2	484	103.217321739401	1.27029418945313	1.270751953125	1.439208984375E-06	1.82887765731721E-06	882951.6875	3.66711356036831E-05
2	485	103.318029739147	1.28036499023438	1.28021240234375	1.44744873046875E-06	1.8530416809881E-06	884461.375	3.68164910469204E-05
2	486	103.418737738893	1.29043579101563	1.290283203125	1.45538330078125E-06	1.87785667549178E-06	886559	3.69626577594317E-05
2	487	103.519445738639	1.30050659179688	1.30035400390625	1.46453857421875E-06	1.90441846825706E-06	887893.375	3.71096903108992E-05
2	488	103.620153738384	1.31057739257813	1.31072998046875	1.4739990234375E-06	1.93201458387193E-06	889234	3.725765782292E-05
2	489	103.72086173813	1.32064819335938	1.3201904296875	1.48406982421875E-06	1.95925463231106E-06	889574.375	3.74066075892188E-05
2	490	103.821569737876	1.33071899414063	1.33056640625	1.4947509765625E-06	1.98886527869035E-06	890159.3125	3.75566014554352E-05
2	491	103.922277737621	1.34078979492188	1.34063720703125	1.50604248046875E-06	2.01905641006306E-06	890172.3125	3.77077049051877E-05
2	492	104.022985737367	1.35086059570313	1.3507080078125	1.5167236328125E-06	2.04865068553772E-06	890543.25	3.78599143004976E-05
2	493	104.123693737113	1.36093139648438	1.36138916015625	1.52679443359375E-06	2.0785614651686E-06	891665	3.80131677957252E-05
2	494	104.224401736859	1.37100219726563	1.370849609375	1.536865234375E-06	2.1068110527267E-06	891977.8125	3.81674326490611E-05
2	495	104.325109736604	1.38107299804688	1.380615234375	1.546630859375E-06	2.13530211112811E-06	892659.8125	3.83227015845478E-05
2	496	104.42581773635	1.39114379882813	1.3909912109375	1.556396484375E-06	2.16493390325923E-06	893725.5	3.84789491363335E-05
2	497	104.526525736096	1.40121459960938	1.40106201171875	1.56524658203125E-06	2.19300750359253E-06	895106.3125	3.86361352866516E-05
2	498	104.627233735842	1.41128540039063	1.4111328125	1.57470703125E-06	2.22212065636995E-06	896124.0625	3.87942454835866E-05
2	499	104.727941735587	1.42135620117188	1.4208984375	1.5838623046875E-06	2.25050735025434E-06	897109.8125	3.89532942790538E-05
2	500	104.828649735333	1.43142700195313	1.431884765625	1.59210205078125E-06	2.27970645028108E-06	899367.5	3.91132161894348E-05
2	501	104.929357735079	1.44149780273438	1.44134521484375	1.5997314453125E-06	2.30576506510261E-06	900992	3.92739384551533E-05
2	502	105.030065734825	1.45156860351563	1.45172119140625	1.6082763671875E-06	2.33476885114214E-06	902656.5625	3.94354719901457E-05
2	503	105.13077373457	1.46163940429688	1.4617919921875	1.617431640625E-06	2.36434857470158E-06	903773.625	3.95979004679248E-05
2	504	105.231481734316	1.47171020507813	1.4715576171875	1.6278076171875E-06	2.39541259361431E-06	904012	3.97613111999817E-05
2	505	105.332189734062	1.48178100585938	1.48162841796875	1.6400146484375E-06	2.42989221987955E-06	903423.9375	3.99258606194053E-05
2	506	105.432897733808	1.49185180664063	1.49139404296875	1.65435791015625E-06	2.46729950958979E-06	901494.1875	4.00917451770511E-05
2	507	105.533605733553	1.50192260742188	1.5020751953125	1.671142578125E-06	2.51018173003104E-06	898831.3125	4.02591977035627E-05
2	508	105.634313733299	1.49185180664063	1.49200439453125	1.54205322265625E-06	2.30075011131703E-06	967544.0625	4.04209931730293E-05
2	509	105.735021733045	1.48178100585938	1.48162841796875	1.4520263671875E-06	2.15136356018775E-06	1020386.6875	4.05717582907528E-05
2	510	105.83572973279	1.47171020507813	1.47186279296875	1.3812255859375E-06	2.03297440748429E-06	1065620.875	4.07144216296729E-05
2	511	105.936437732536	1.46163940429688	1.46148681640625	1.32232666015625E-06	1.9325630091771E-06	1105238.875	4.0850558434613E-05
2	512	106.037145732282	1.45156860351563	1.451416015625	1.27166748046875E-06	1.84571842964942E-06	1141348.75	4.09811764257029E-05
2	513	106.137853732028	1.44149780273438	1.44134521484375	1.226806640625E-06	1.7682518773654E-06	1174875.625	4.11069850088097E-05
2	514	106.238561731773	1.43142700195313	1.43157958984375	1.187744140625E-06	1.70035025348625E-06	1205292.875	4.12285662605427E-05
2	515	106.339269731519	1.42135620117188	1.4215087890625	1.15264892578125E-06	1.63850052103953E-06	1233253.875	4.13464149460196E-05
2	516	106.439977731265	1.41128540039063	1.41143798828125	1.12091064453125E-06	1.58209581968549E-06	1259188.75	4.14608985011E-05
2	517	106.540685731011	1.40121459960938	1.4013671875	1.09161376953125E-06	1.52975167111435E-06	1283757.375	4.15723079640884E-05
2	518	106.641393730756	1.39114379882813	1.39129638671875	1.0638427734375E-06	1.48012065892544E-06	1307802.625	4.16808434238192E-05
2	519	106.742101730502	1.38107299804688	1.38092041015625	1.0382080078125E-06	1.43368254157394E-06	1330100	4.17866904172115E-05
2	520	106.842809730248	1.37100219726563	1.37115478515625	1.0137939453125E-06	1.39006840527145E-06	1352498.5	4.18900162912905E-05
2	521	106.943517729994	1.36093139648438	1.361083984375	9.9029541015625E-07	1.3478751270668E-06	1374422.25	4.19909301854204E-05
2	522	107.044225729739	1.35086059570313	1.3507080078125	9.686279296875E-07	1.30833348066517E-06	1394455	4.20895703427959E-05
2	523	107.144933729485	1.34078979492188	1.34063720703125	9.4879150390625E-07	1.2719851838483E-06	1412994.625	4.21861186623573E-05
2	524	107.245641729231	1.33071899414063	1.33087158203125	9.30175781250001E-07	1.23794450246351E-06	1430774.375	4.22807315771934E-05
2	525	107.346349728977	1.32064819335938	1.32080078125	9.1217041015625E-07	1.20479535326012E-06	1447976	4.23735000367742E-05
2	526	107.447057728722	1.31057739257813	1.3104248046875	8.953857421875E-07	1.17333559046529E-06	1463531.125	4.24645186285488E-05
2	527	107.547765728468	1.30050659179688	1.30096435546875	8.7921142578125E-07	1.14382271476643E-06	1479694.5	4.25538783019874E-05
2	528	107.648473728214	1.29043579101563	1.290283203125	8.6395263671875E-07	1.11474355435348E-06	1493465.25	4.26416518166661E-05
2	529	107.749181727959	1.28036499023438	1.27960205078125	8.49304199218751E-07	1.08677136267943E-06	1506647.5	4.27279228460975E-05
2	530	107.849889727705	1.27029418945313	1.2701416015625	8.349609375E-07	1.06051857073908E-06	1521198.875	4.28127314080484E-05
2	531	107.950597727451	1.26022338867188	1.259765625	8.21533203124999E-07	1.03493925962539E-06	1533432.375	4.28961429861374E-05
2	532	108.051305727197	1.25015258789063	1.2506103515625	8.0902099609375E-07	1.01176999578456E-06	1545831.75	4.29782485298347E-05
2	533	108.152013726942	1.24008178710938	1.240234375	7.977294921875E-07	9.89371528703487E-07	1554705.5	4.30591535405256E-05
2	534	108.252721726688	1.23001098632813	1.22955322265625	7.8704833984375E-07	9.67717710409488E-07	1562233.5	4.31389526056591E-05
2	535	108.353429726434	1.21994018554688	1.21978759765625	7.76062011718751E-07	9.46630791531788E-07	1571765.625	4.32176639151294E-05
2	536	108.45413772618	1.20986938476563	1.2103271484375	7.647705078125E-07	9.25622487102373E-07	1582601.75	4.32952510891482E-05
2	537	108.554845725925	1.19979858398438	1.1993408203125	7.54394531249999E-07	9.04776186416711E-07	1589805.875	4.33717468695249E-05
2	538	108.655553725671	1.18972778320313	1.18988037109375	7.43713378906249E-07	8.84929931999068E-07	1599918	4.344718036009E-05
2	539	108.756261725417	1.17965698242188	1.17919921875	7.3272705078125E-07	8.64031107994379E-07	1609329.5	4.35215260949917E-05
2	540	108.856969725163	1.16958618164063	1.16943359375	7.220458984375E-07	8.44384658194031E-07	1619611.25	4.35947804362513E-05
2	541	108.957677724908	1.15951538085938	1.15936279296875	7.11975097656251E-07	8.2543743928909E-07	1628375.5	4.36669870396145E-05
2	542	109.058385724654	1.14944458007813	1.1492919921875	7.00988769531249E-07	8.05640809176111E-07	1639529.75	4.37381349911448E-05
2	543	109.1590937244	1.13937377929688	1.13922119140625	6.89697265625E-07	7.85717702456168E-07	1651770	4.38081624452025E-05
2	544	109.259801724146	1.12930297851563	1.129150390625	6.78405761718751E-07	7.66022083098505E-07	1664417.5	4.38770512118936E-05
2	545	109.360509723891	1.11923217773438	1.119384765625	6.6650390625E-07	7.46074249491357E-07	1679487.25	4.39447758253664E-05
2	546	109.461217723637	1.10916137695313	1.10931396484375	6.53076171875E-07	7.24466474366636E-07	1698598.25	4.40112198702991E-05
2	547	109.561925723383	1.09909057617188	1.09893798828125	6.3934326171875E-07	7.02598583757208E-07	1718854.5	4.40762996731792E-05
2	548	109.662633723128	1.08901977539063	1.08917236328125	6.24694824218749E-07	6.80400319197361E-07	1743527.25	4.4139949750388E-05
2	549	109.763341722874	1.07894897460938	1.0791015625	6.1004638671875E-07	6.58301985367871E-07	1768884.5	4.42021228082012E-05
2	550	109.86404972262	1.06887817382813	1.0687255859375	5.9417724609375E-07	6.35012384009315E-07	1798664.75	4.42627606389578E-05
2	551	109.964757722366	1.05880737304688	1.0589599609375	5.77392578124999E-07	6.11435609698674E-07	1834038.125	4.43217541032936E-05
2	552	110.065465722111	1.04873657226563	1.04888916015625	5.5816650390625E-07	5.85454813517572E-07	1879169	4.43789322162047E-05
2	553	110.166173721857	1.03866577148438	1.038818359375	5.37719726562499E-07	5.58593114874384E-07	1931895.625	4.44341167167295E-05
2	554	110.266881721603	1.02859497070313	1.0284423828125	5.145263671875E-07	5.29160672613216E-07	1998813.875	4.4487100240076E-05
2	555	110.367589721349	1.01852416992188	1.01837158203125	4.90417480468749E-07	4.99427187605761E-07	2076540.25	4.45377045252826E-05
2	556	110.468297721094	1.00845336914063	1.00860595703125	4.656982421875E-07	4.69706009198489E-07	2165793	4.45858458988369E-05
2	557	110.56900572084	0.998382568359375	0.99822998046875	4.4219970703125E-07	4.41417000729416E-07	2257419	4.46315643785056E-05
2	558	110.669713720586	0.988311767578125	0.987548828125	4.21142578125E-07	4.15898853134422E-07	2344927.5	4.46750382252503E-05
2	559	110.770421720332	0.978240966796875	0.97869873046875	4.0283203125E-07	3.9425120235137E-07	2429545.5	4.47165257355664E-05
2	560	110.871129720077	0.968170166015625	0.96832275390625	3.8787841796875E-07	3.75591469037317E-07	2496459.5	4.475634341361E-05
2	561	110.971837719823	0.958099365234375	0.958251953125	3.753662109375E-07	3.59695405904858E-07	2552845.5	4.47947750217281E-05
2	562	111.072545719569	0.948028564453125	0.94757080078125	3.63769531249999E-07	3.44697383525272E-07	2604866	4.48319915449247E-05
2	563	111.173253719315	0.937957763671875	0.93841552734375	3.53393554687501E-07	3.31629991023874E-07	2655440.5	4.48681057605427E-05
2	564	111.27396171906	0.927886962890625	0.92742919921875	3.436279296875E-07	3.18690581480041E-07	2698934.25	4.49032013420947E-05
2	565	111.374669718806	0.917816162109375	0.91796875	3.326416015625E-07	3.05354603824526E-07	2759633	4.49372564617079E-05
2	566	111.475377718552	0.907745361328125	0.90789794921875	3.19824218750001E-07	2.90367751176746E-07	2838740.5	4.49701110483147E-05
2	567	111.576085718297	0.897674560546875	0.8978271484375	3.0517578125E-07	2.73995084398848E-07	2942000	4.50015795649961E-05
2	568	111.676793718043	0.887603759765625	0.88775634765625	2.86865234375E-07	2.54666417731642E-07	3094681	4.50313928013202E-05
2	569	111.777501717789	0.877532958984375	0.877685546875	2.6519775390625E-07	2.32760228868756E-07	3309551.25	4.50591905973852E-05
2	570	111.878209717535	0.867462158203125	0.86761474609375	2.3834228515625E-07	2.06789280809971E-07	3640205	4.50845473096706E-05
2	571	111.97891771728	0.857391357421875	0.8575439453125	2.0782470703125E-07	1.78218812152409E-07	4126285	4.51070118288044E-05
2	572	112.079625717026	0.847320556640625	0.84747314453125	1.74865722656251E-07	1.48194004623292E-07	4846422.5	4.51262822025456E-05
2	573	112.180333716772	0.837249755859375	0.83709716796875	1.40380859375E-07	1.1751242112723E-07	5963043.5	4.51421583420597E-05
2	574	112.281041716518	0.827178955078125	0.82794189453125	1.080322265625E-07	8.94444056598331E-08	7663842	4.51546657131985E-05
2	575	112.381749716263	0.817108154296875	0.81695556640625	7.99560546874995E-08	6.53205418643665E-08	10217558	4.51641317340545E-05
2	576	112.482457716009	0.807037353515625	0.80718994140625	5.70678710937494E-08	4.60646099043061E-08	14144386	4.51710329798516E-05
2	577	112.583165715755	0.796966552734375	0.797119140625	3.96728515625E-08	3.1623990537355E-08	20092308	4.51759042334743E-05
2	578	112.683873715501	0.786895751953125	0.7867431640625	2.74658203125E-08	2.16085460635895E-08	28644444	4.51792839157861E-05
2	579	112.784581715246	0.776824951171875	0.77789306640625	1.73950195312494E-08	1.35314648375129E-08	44719300	4.51815431006253E-05
2	580	112.885289714992	0.766754150390625	0.7666015625	1.15966796875006E-08	8.89003270998501E-09	66105268	4.51830019301269E-05
2	581	112.985997714738	0.756683349609375	0.75653076171875	8.23974609374945E-09	6.23362117480042E-09	91814816	4.51840023742989E-05
2	582	113.086705714484	0.746612548828125	0.74652099609375	7.62939453125E-09	5.69550273610275E-09	97848008	4.51847990916576E-05
2	583	113.187413714229	0.736541748046875	0.736480712890625	8.23974609374945E-09	6.06841377148726E-09	89381488	4.51855994469952E-05
2	584	113.288121713975	0.726470947265625	0.7264404296875	1.03759765625003E-08	7.53752882332037E-09	70011768	4.51865380455274E-05
2	585	113.388829713721	0.716400146484375	0.71630859375	1.31225585937506E-08	9.39980093761505E-09	54586048	4.51877203886397E-05
2	586	113.489537713466	0.706329345703125	0.706268310546875	1.70898437499997E-08	1.20700143213526E-08	41326788	4.51892410637811E-05
2	587	113.590245713212	0.696258544921875	0.696197509765625	2.04467773437494E-08	1.42349954046495E-08	34049256	4.51911328127608E-05
2	588	113.690953712958	0.686187744140625	0.6861572265625	2.288818359375E-08	1.57048933857595E-08	29978666	4.51933119620662E-05
2	589	113.791661712704	0.676116943359375	0.67608642578125	2.50244140624994E-08	1.69186655796238E-08	27017074	4.51957275799941E-05
2	590	113.892369712449	0.666046142578125	0.6658935546875	2.71606445312503E-08	1.80860979526187E-08	24516854	4.51983542006928E-05
2	591	113.993077712195	0.655975341796875	0.65594482421875	2.92968749999997E-08	1.92171327739743E-08	22389584	4.52011954621412E-05
2	592	114.093785711941	0.645904541015625	0.64581298828125	3.204345703125E-08	2.06940793390231E-08	20154286	4.52042841061484E-05
2	593	114.194493711687	0.635833740234375	0.6357421875	3.44848632812506E-08	2.19234816967173E-08	18435398	4.52076346846297E-05
2	594	114.295201711432	0.625762939453125	0.62579345703125	3.75366210937506E-08	2.34901698092926E-08	16671546	4.52112617495004E-05
2	595	114.395909711178	0.615692138671875	0.615692138671875	3.96728515625E-08	2.44262636783787E-08	15519231	4.52151507488452E-05
2	596	114.496617710924	0.605621337890625	0.605560302734375	4.18090820312494E-08	2.53179202047704E-08	14483942	4.52192507509608E-05
2	597	114.59732571067	0.595550537109375	0.595489501953125	4.36401367187506E-08	2.59872425800722E-08	13645455	4.52235544798896E-05
2	598	114.698033710415	0.585479736328125	0.585479736328125	4.425048828125E-08	2.59077630460069E-08	13231035	4.52279819000978E-05
2	599	114.798741710161	0.575408935546875	0.5753173828125	4.54711914062503E-08	2.61603663176402E-08	12652350	4.52325002697762E-05
2	600	114.899449709907	0.565338134765625	0.565338134765625	4.60815429687497E-08	2.60516532790689E-08	12268212	4.52371095889248E-05
2	601	115.000157709653	0.555267333984375	0.555267333984375	4.76074218749997E-08	2.64348454237506E-08	11663462	4.52418280474376E-05
2	602	115.100865709398	0.545196533203125	0.545135498046875	4.85229492187503E-08	2.64515822578915E-08	11234591	4.5246666559251E-05
2	603	115.201573709144	0.535125732421875	0.535064697265625	4.97436523437506E-08	2.66160711248631E-08	10756442	4.52516142104287E-05
2	604	115.30228170889	0.525054931640625	0.5250244140625	5.09643554687494E-08	2.67575295254119E-08	10301797	4.52566855528858E-05
2	605	115.402989708635	0.514984130859375	0.5150146484375	5.15747070312503E-08	2.65617288164322E-08	9985799	4.5261847844813E-05
2	606	115.503697708381	0.504913330078125	0.504913330078125	5.21850585937497E-08	2.6348931925213E-08	9675439	4.52670756203588E-05
2	607	115.604405708127	0.494842529296875	0.49481201171875	5.24902343749994E-08	2.59727972462542E-08	9426745	4.52723434136715E-05
2	608	115.705113707873	0.484771728515625	0.484832763671875	5.27954101562506E-08	2.55969432316761E-08	9183238	4.52776475867722E-05
2	609	115.805821707618	0.474700927734375	0.4747314453125	5.37109374999997E-08	2.5498270161961E-08	8838637	4.52830099675339E-05
2	610	115.906529707364	0.464630126953125	0.464630126953125	5.4931640625E-08	2.55228940204688E-08	8458333	4.52884814876597E-05
2	611	116.00723770711	0.454559326171875	0.45458984375	5.61523437500003E-08	2.55262833093184E-08	8095652.5	4.52940730610862E-05
2	612	116.107945706856	0.444488525390625	0.44451904296875	5.73730468750006E-08	2.55034127150111E-08	7747872.5	4.52997883257922E-05
2	613	116.208653706601	0.434417724609375	0.434478759765625	5.82885742187497E-08	2.53251482007499E-08	7453926.5	4.53056127298623E-05
2	614	116.309361706347	0.424346923828125	0.424346923828125	5.82885742187497E-08	2.47345770532093E-08	7280104.5	4.5311484427657E-05
2	615	116.410069706093	0.414276123046875	0.414306640625	5.76782226562503E-08	2.38964705800981E-08	7183069	4.53173233836424E-05
2	616	116.510777705839	0.404205322265625	0.4041748046875	5.67626953124997E-08	2.29420500374999E-08	7120430.5	4.53230859420728E-05
2	617	116.611485705584	0.394134521484375	0.3941650390625	5.67626953124997E-08	2.23738698679199E-08	6944086	4.53288012067787E-05
2	618	116.71219370533	0.384063720703125	0.384124755859375	5.61523437500003E-08	2.15695052929732E-08	6840761	4.53344873676542E-05
2	619	116.812901705076	0.373992919921875	0.373992919921875	5.645751953125E-08	2.11147117568089E-08	6624324.5	4.53401589766145E-05
2	620	116.913609704822	0.363922119140625	0.363922119140625	5.58471679687506E-08	2.03240198004551E-08	6516393.5	4.53458123956807E-05
2	621	117.014317704567	0.353851318359375	0.35382080078125	5.52368164062497E-08	1.95439344707893E-08	6405525	4.5351407607086E-05
2	622	117.115025704313	0.343780517578125	0.343780517578125	5.43212890625006E-08	1.86745996444415E-08	6328652	4.53569227829576E-05
2	623	117.215733704059	0.333709716796875	0.333740234375	5.24902343749994E-08	1.751810252415E-08	6358139.5	4.53623033536132E-05
2	624	117.316441703804	0.323638916015625	0.323638916015625	5.06591796874997E-08	1.63952815768198E-08	6388554.5	4.5367494749371E-05
2	625	117.41714970355	0.313568115234375	0.313568115234375	4.85229492187503E-08	1.52152495047631E-08	6462264	4.53724896942731E-05
2	626	117.517857703296	0.303497314453125	0.303497314453125	4.60815429687497E-08	1.39856242142855E-08	6586093	4.53772554465104E-05
2	627	117.618565703042	0.293426513671875	0.293426513671875	4.36401367187506E-08	1.28051729220147E-08	6723776.5	4.538177017821E-05
2	628	117.719273702787	0.283355712890625	0.283355712890625	4.18090820312494E-08	1.18468417298345E-08	6777372.5	4.53860739071388E-05
2	629	117.819981702533	0.273284912109375	0.27325439453125	3.96728515625E-08	1.08407807175581E-08	6887692.5	4.53901775472332E-05
2	630	117.920689702279	0.263214111328125	0.26324462890625	3.662109375E-08	9.64030544281513E-09	7188333.5	4.53940192528535E-05
2	631	118.021397702025	0.253143310546875	0.25311279296875	3.29589843750006E-08	8.34234015201218E-09	7679630	4.53975226264447E-05
2	632	118.12210570177	0.243072509765625	0.243072509765625	2.92968749999997E-08	7.12126491109188E-09	8296875	4.54006585641764E-05
2	633	118.222813701516	0.233001708984375	0.2330322265625	2.50244140624994E-08	5.83149484256751E-09	9312196	4.54033943242393E-05
2	634	118.323521701262	0.222930908203125	0.222930908203125	2.07519531250006E-08	4.62625182606757E-09	10742647	4.54056971648242E-05
2	635	118.424229701008	0.212860107421875	0.212860107421875	1.64794921875003E-08	3.50782625169188E-09	12916667	4.54075743618887E-05
2	636	118.524937700753	0.202789306640625	0.20281982421875	1.25122070312497E-08	2.53772358682625E-09	16209757	4.54090331913903E-05
2	637	118.625645700499	0.192718505859375	0.192718505859375	7.93457031249972E-09	1.52913859352566E-09	24288462	4.54100627393927E-05
2	638	118.726353700245	0.182647705078125	0.182586669921875	3.35693359374972E-09	6.12931316812393E-10	54390912	4.54106302640866E-05
2	639	118.827061699991	0.172576904296875	0.17266845703125	-3.0517578125E-09	-5.26942323109125E-10	-56580000	4.54106448160019E-05
2	640	118.927769699736	0.162506103515625	0.16253662109375	-1.03759765625003E-08	-1.68647618092876E-09	-15664706	4.54099717899226E-05
2	641	119.028477699482	0.152435302734375	0.15252685546875	-2.01416015624997E-08	-3.07213499084469E-09	-7572727.5	4.54084329248872E-05
2	642	119.129185699228	0.142364501953125	0.1424560546875	-3.23486328124997E-08	-4.60825821946287E-09	-4403774	4.54057917522732E-05
2	643	119.229893698973	0.132293701171875	0.132354736328125	-4.730224609375E-08	-6.2606759776429E-09	-2798064.75	4.5401779061649E-05
2	644	119.330601698719	0.122222900390625	0.122344970703125	-6.7138671875E-08	-8.21407919460171E-09	-1822272.75	4.53960165032186E-05
2	645	119.431309698465	0.112152099609375	0.112213134765625	-9.307861328125E-08	-1.04446424842308E-08	-1205573.75	4.53879511042032E-05
2	646	119.532017698211	0.102081298828125	0.102142333984375	-1.28784179687499E-07	-1.31543167469772E-08	-793127.9375	4.53767788712867E-05
2	647	119.632725697956	0.092010498046875	0.09210205078125	-1.7730712890625E-07	-1.63303504052692E-08	-519449.21875	4.5361364755081E-05
2	648	119.733433697702	0.081939697265625	0.082000732421875	-2.4383544921875E-07	-1.99946850187871E-08	-336295.375	4.53401589766145E-05
2	649	119.834141697448	0.071868896484375	0.071929931640625	-3.33557128906251E-07	-2.39927420153663E-08	-215645.015625	4.53110842499882E-05
2	650	119.934849697194	0.061798095703125	0.06182861328125	-4.5013427734375E-07	-2.78311791390706E-08	-137355.9375	4.52716230938677E-05
2	651	120.035557696939	0.051727294921875	0.05181884765625	-5.99060058593751E-07	-3.1042603154674E-08	-86500.2578125	4.52187923656311E-05
2	652	120.136265696685	0.041656494140625	0.041748046875	-7.781982421875E-07	-3.24882556412831E-08	-53647.05859375	4.51494415756315E-05
2	653	120.236973696431	0.031585693359375	0.031689453125	-9.832763671875E-07	-3.11594909874202E-08	-32228.431640625	4.50607440143358E-05
2	654	120.337681696177	0.021514892578125	0.021612548828125	-1.19873046875E-06	-2.5907619161103E-08	-18029.533203125	4.4950869778404E-05
2	655	120.438389695922	0.011444091796875	0.0115447998046875	-1.40777587890625E-06	-1.62524891322846E-08	-8200.7373046875	4.48196224169806E-05
2	656	120.539097695668	0.001373291015625	0.00150146484374999	-1.5887451171875E-06	-2.38544473063484E-09	-945.0634765625	4.46687372459564E-05
2	657	120.639805695414	-0.008697509765625	-0.008587646484375	-1.724853515625E-06	1.48124321697196E-08	4978.7685546875	4.45018813479692E-05
2	658	120.74051369516	-0.018768310546875	-0.0186370849609375	-1.80694580078125E-06	3.36762013830594E-08	10314.13671875	4.43240423919633E-05
2	659	120.841221694905	-0.028839111328125	-0.0287139892578125	-1.83746337890625E-06	5.27609032019427E-08	15626.9736328125	4.41405318269972E-05
2	660	120.941929694651	-0.038909912109375	-0.038751220703125	-1.82586669921875E-06	7.07545666500664E-08	21223.466796875	4.39560681115836E-05
2	661	121.042637694397	-0.048980712890625	-0.048846435546875	-1.78558349609375E-06	8.72193837153645E-08	27356.0078125	4.37742164649535E-05
2	662	121.143345694142	-0.059051513671875	-0.05902099609375	-1.728515625E-06	1.02018709924323E-07	34145.48046875	4.35972688137554E-05
2	663	121.244053693888	-0.069122314453125	-0.06903076171875	-1.666259765625E-06	1.15023183866469E-07	41428.5703125	4.34263274655677E-05
2	664	121.344761693634	-0.079193115234375	-0.079132080078125	-1.6033935546875E-06	1.26879868389551E-07	49352.875	4.3261687096674E-05
2	665	121.44546969338	-0.089263916015625	-0.08917236328125	-1.54571533203125E-06	1.37835087343774E-07	57690.02734375	4.31031185144093E-05
2	666	121.546177693125	-0.099334716796875	-0.099273681640625	-1.4947509765625E-06	1.48389432297336E-07	66414.8671875	4.29500178142916E-05
2	667	121.646885692871	-0.109405517578125	-0.109222412109375	-1.4501953125E-06	1.58393831384274E-07	75315.65625	4.28017301601358E-05
2	668	121.747593692617	-0.119476318359375	-0.11932373046875	-1.412353515625E-06	1.68527293453735E-07	84485.7421875	4.26575861638412E-05
2	669	121.848301692363	-0.129547119140625	-0.12945556640625	-1.3800048828125E-06	1.78649315785151E-07	93808.0546875	4.25169819209259E-05
2	670	121.949009692108	-0.139617919921875	-0.1395263671875	-1.353759765625E-06	1.8888518127369E-07	103065.8203125	4.23793244408444E-05
2	671	122.049717691854	-0.149688720703125	-0.149505615234375	-1.33209228515625E-06	1.99155266500384E-07	112233.6796875	4.22440825786907E-05
2	672	122.1504256916	-0.159759521484375	-0.159637451171875	-1.31591796875E-06	2.10069799777557E-07	121312.6171875	4.21107433794532E-05
2	673	122.251133691346	-0.169830322265625	-0.169677734375	-1.30462646484375E-06	2.21366050823235E-07	130058.484375	4.19787902501412E-05
2	674	122.351841691091	-0.179901123046875	-0.1798095703125	-1.29791259765625E-06	2.33377107861088E-07	138537.5	4.18477393395733E-05
2	675	122.452549690837	-0.189971923828125	-0.1898193359375	-1.295166015625E-06	2.4584753077761E-07	146559.859375	4.1717168642208E-05
2	676	122.553257690583	-0.200042724609375	-0.199920654296875	-1.29638671875E-06	2.59174470329526E-07	154213.75	4.15866743423976E-05
2	677	122.653965690329	-0.189971923828125	-0.189788818359375	-1.12396240234375E-06	2.1331550215109E-07	168856.90625	4.14647984143812E-05
