Potential - Start -0.2 V, Upper Vertex 1.5 V, Lower Vertex -0.2 V, Stop -0.19 V; Scan - # end cross 5, Rate 0.1 Vps, Step 0.01 V 
Scan	Index	Time (s)	Potential applied (V)	WE(1).Potential (V)	WE(1).Current (A)	WE(1).Power (W)	WE(1).Resistance (Ω)	WE(1).Charge (C)
1	1	53.2243368656215	-0.189971923828125	-0.189849853515625	-1.8585205078125E-07	3.52839819584005E-08	1021510.6875	0
1	2	53.3250448653672	-0.179901123046875	-0.17974853515625	-1.5228271484375E-07	2.73725930810542E-08	1180360.75	-1.70264371490703E-08
1	3	53.4257528651129	-0.169830322265625	-0.16961669921875	-1.2664794921875E-07	2.1481607603846E-08	1339277.125	-3.10717105378444E-08
1	4	53.5264608648587	-0.159759521484375	-0.159698486328125	-1.0498046875E-07	1.67652220994796E-08	1521221	-4.27351274367993E-08
1	5	53.6271688646044	-0.149688720703125	-0.149566650390625	-8.63647460937506E-08	1.29172850193982E-08	1731802.125	-5.23701260135567E-08
1	6	53.7278768643502	-0.139617919921875	-0.139495849609375	-6.89697265624997E-08	9.62099022672191E-09	2022566.375	-6.01918372922228E-08
1	7	53.8285848640959	-0.129547119140625	-0.129425048828125	-5.340576171875E-08	6.91204293801206E-09	2423428.75	-6.63539339029739E-08
1	8	53.9292928638416	-0.119476318359375	-0.119384765625	-3.814697265625E-08	4.55416726552471E-09	3129600	-7.09639778051496E-08
1	9	54.0300008635874	-0.109405517578125	-0.109344482421875	-2.34985351562494E-08	2.56943510912322E-09	4653247	-7.40680761168733E-08
1	10	54.1307088633331	-0.099334716796875	-0.0992431640625	-8.85009765625028E-09	8.78311701146828E-10	11213793	-7.56969598114665E-08
1	11	54.2314168630788	-0.089263916015625	-0.08917236328125	6.71386718749945E-09	-5.98691374253946E-10	-13281819	-7.58045288762332E-08
1	12	54.3321248628246	-0.079193115234375	-0.079132080078125	2.25830078125003E-08	-1.78704040454392E-09	-3504054	-7.43293142591028E-08
1	13	54.4328328625703	-0.069122314453125	-0.06903076171875	4.119873046875E-08	-2.84397949634752E-09	-1675555.625	-7.11176468826125E-08
1	14	54.533540862316	-0.059051513671875	-0.05902099609375	6.37817382812503E-08	-3.76446163130595E-09	-925358.9375	-6.58314576185148E-08
1	15	54.6342488620618	-0.048980712890625	-0.0488128662109375	9.06372070312494E-08	-4.42426184577016E-09	-538552.1875	-5.80558499052586E-08
1	16	54.7349568618075	-0.038909912109375	-0.0387664794921875	1.263427734375E-07	-4.89786433632844E-09	-306835.78125	-4.71300403148689E-08
1	17	54.8356648615533	-0.028839111328125	-0.028717041015625	1.7364501953125E-07	-4.98657115599599E-09	-165377.859375	-3.20244559759431E-08
1	18	54.936372861299	-0.018768310546875	-0.018682861328125	2.38037109375E-07	-4.44721415249205E-09	-78487.1796875	-1.12946132446723E-08
1	19	55.0370808610447	-0.008697509765625	-0.00859985351562501	3.23486328125E-07	-2.78193490466094E-09	-26584.90625	1.69803371363741E-08
1	20	55.1377888607905	0.001373291015625	0.00144348144531251	4.38537597656249E-07	6.33020857954136E-10	3291.57958984375	5.53512897738528E-08
1	21	55.2384968605362	0.011444091796875	0.0115509033203125	5.88073730468749E-07	6.79278233661762E-09	19641.931640625	1.07045273978201E-07
1	22	55.3392048602819	0.021514892578125	0.021575927734375	7.77282714843749E-07	1.67705955789188E-08	27758.146484375	1.75796429857655E-07
1	23	55.4399128600277	0.031585693359375	0.0316802978515625	1.0015869140625E-06	3.17305683950053E-08	31630.10546875	2.653696355992E-07
1	24	55.5406208597734	0.041656494140625	0.04173583984375	1.25335693359375E-06	5.23099039639874E-08	33299.24609375	3.78915075316399E-07
1	25	55.6413288595191	0.051727294921875	0.0517578125	1.51031494140625E-06	7.81705935537502E-08	34269.55078125	5.18077001743222E-07
1	26	55.7420368592649	0.061798095703125	0.061798095703125	1.74896240234375E-06	1.08082545580146E-07	35334.1484375	6.82194638557121E-07
1	27	55.8427448590106	0.071868896484375	0.071868896484375	1.94305419921875E-06	1.39645166541413E-07	36987.58984375	8.68102461026865E-07
1	28	55.9434528587564	0.081939697265625	0.082000732421875	2.078857421875E-06	1.70467814086805E-07	39445.1015625	1.07062180632056E-06
1	29	56.0441608585021	0.092010498046875	0.092010498046875	2.1490478515625E-06	1.97734948415018E-07	42814.54296875	1.2835137113143E-06
1	30	56.1448688582478	0.102081298828125	0.10211181640625	2.16156005859375E-06	2.20720806964891E-07	47239.875	1.50057007886062E-06
1	31	56.2455768579936	0.112152099609375	0.1121826171875	2.13165283203125E-06	2.39134379853567E-07	52627.05859375	1.71675048932229E-06
1	32	56.3462848577393	0.122222900390625	0.122222900390625	2.0745849609375E-06	2.53561779572919E-07	58914.38671875	1.92855145542126E-06
1	33	56.446992857485	0.132293701171875	0.13232421875	2.00225830078125E-06	2.64947260575354E-07	66087.484375	2.13383668778988E-06
1	34	56.5477008572308	0.142364501953125	0.142364501953125	1.9244384765625E-06	2.73971721753696E-07	73977.1640625	2.33156151807634E-06
1	35	56.6484088569765	0.152435302734375	0.1524658203125	1.84783935546875E-06	2.81732326357087E-07	82510.328125	2.52151085078367E-06
1	36	56.7491168567223	0.162506103515625	0.16259765625	1.7755126953125E-06	2.88694195660355E-07	91577.8671875	2.70396117230121E-06
1	37	56.849824856468	0.172576904296875	0.172576904296875	1.708984375E-06	2.94931226108019E-07	100982.1484375	2.87941952592519E-06
1	38	56.9505328562137	0.182647705078125	0.18267822265625	1.649169921875E-06	3.01267419899887E-07	110769.796875	3.04851596411027E-06
1	39	57.0512408559595	0.192718505859375	0.1927490234375	1.59515380859375E-06	3.07464318893835E-07	120834.1328125	3.21188076668477E-06
1	40	57.1519488557052	0.202789306640625	0.20281982421875	1.546630859375E-06	3.13687394282169E-07	131136.546875	3.37008214046364E-06
1	41	57.2526568554509	0.212860107421875	0.212860107421875	1.50360107421875E-06	3.20056699365523E-07	141566.875	3.52367351297289E-06
1	42	57.3533648551967	0.222930908203125	0.222930908203125	1.46514892578125E-06	3.26626974356259E-07	152155.796875	3.67316192750877E-06
1	43	57.4540728549424	0.233001708984375	0.23297119140625	1.4312744140625E-06	3.33445711930835E-07	162771.859375	3.8190082705114E-06
1	44	57.5547808546881	0.243072509765625	0.2430419921875	1.39984130859375E-06	3.40220196903829E-07	173621.109375	3.96156656279345E-06
1	45	57.6554888544339	0.253143310546875	0.25311279296875	1.3720703125E-06	3.47288533930623E-07	184475.09375	4.10114307669573E-06
1	46	57.7561968541796	0.263214111328125	0.26324462890625	1.34674072265625E-06	3.54522228462884E-07	195467.953125	4.23804613092216E-06
1	47	57.8569048539254	0.273284912109375	0.273223876953125	1.324462890625E-06	3.6187486784911E-07	206290.34375	4.37255221186206E-06
1	48	57.9576128536711	0.283355712890625	0.283355712890625	1.3043212890625E-06	3.69586871329375E-07	217243.8125	4.50492188974749E-06
1	49	58.0583208534168	0.293426513671875	0.293426513671875	1.28570556640625E-06	3.77260079176267E-07	228222.1875	4.63534024675027E-06
1	50	58.1590288531626	0.303497314453125	0.303497314453125	1.26922607421875E-06	3.8520667544617E-07	239120	4.76399100080016E-06
1	51	58.2597368529083	0.313568115234375	0.31353759765625	1.2530517578125E-06	3.92878831689814E-07	250219.1875	4.89099784317659E-06
1	52	58.360444852654	0.323638916015625	0.32366943359375	1.239013671875E-06	4.0103083165377E-07	261231.546875	5.01648310091696E-06
1	53	58.4611528523998	0.333709716796875	0.333709716796875	1.22650146484375E-06	4.092954668522E-07	272082.59375	5.14063185619307E-06
1	54	58.5618608521455	0.343780517578125	0.343780517578125	1.2152099609375E-06	4.17765505744683E-07	282898.03125	5.26358189745224E-06
1	55	58.6625688518913	0.353851318359375	0.353851318359375	1.20452880859375E-06	4.26224090688265E-07	293767.4375	5.38542553840671E-06
1	56	58.763276851637	0.363922119140625	0.36395263671875	1.19476318359375E-06	4.34837204466021E-07	304623.25	5.50623917661142E-06
1	57	58.8639848513827	0.373992919921875	0.37396240234375	1.1865234375E-06	4.4371512331054E-07	315174.90625	5.62614650334581E-06
1	58	58.9646928511285	0.384063720703125	0.384063720703125	1.17919921875E-06	4.52887633173304E-07	325698.75	5.74527030039462E-06
1	59	59.0654008508742	0.394134521484375	0.39404296875	1.173095703125E-06	4.62250113741902E-07	335900.09375	5.86371743338532E-06
1	60	59.1661088506199	0.404205322265625	0.4041748046875	1.16790771484375E-06	4.72038863108537E-07	346067.40625	5.98159658693476E-06
1	61	59.2668168503657	0.414276123046875	0.414215087890625	1.16302490234375E-06	4.81742461033718E-07	356153.25	6.09896824244061E-06
1	62	59.3675248501114	0.424346923828125	0.42431640625	1.15936279296875E-06	4.91936646085378E-07	365991.0625	6.21590970695252E-06
1	63	59.4682328498571	0.434417724609375	0.434417724609375	1.1566162109375E-06	5.02454611250869E-07	375593.65625	6.33252875559265E-06
1	64	59.5689408496029	0.444488525390625	0.44451904296875	1.15447998046875E-06	5.13188297190936E-07	385038.34375	6.4489013311686E-06
1	65	59.6696488493486	0.454559326171875	0.454559326171875	1.1529541015625E-06	5.24086033237836E-07	394256.25	6.56509018881479E-06
1	66	59.7703568490944	0.464630126953125	0.464691162109375	1.15203857421875E-06	5.35342110197234E-07	403364.25	6.6811558099289E-06
1	67	59.8710648488401	0.474700927734375	0.47467041015625	1.15142822265625E-06	5.46548847069062E-07	412244.9375	6.7971445787407E-06
1	68	59.9717728485858	0.484771728515625	0.484771728515625	1.1517333984375E-06	5.58327769795142E-07	420906.21875	6.91311788614257E-06
1	69	60.0724808483316	0.494842529296875	0.49481201171875	1.15264892578125E-06	5.70344525385735E-07	429282.5	7.02915258443682E-06
1	70	60.1731888480773	0.504913330078125	0.504913330078125	1.153564453125E-06	5.8245007039659E-07	437698.4375	7.14527959644329E-06
1	71	60.273896847823	0.514984130859375	0.514984130859375	1.156005859375E-06	5.95324650021212E-07	445485.75	7.26157577446429E-06
1	72	60.3746048475688	0.525054931640625	0.524993896484375	1.15936279296875E-06	6.08658410783391E-07	452829.6875	7.37816390028456E-06
1	73	60.4753128473145	0.535125732421875	0.535125732421875	1.163330078125E-06	6.22527807081497E-07	459994.78125	7.4951208262064E-06
1	74	60.5760208470602	0.545196533203125	0.545166015625	1.168212890625E-06	6.36869970094267E-07	466666.6875	7.61252340453211E-06
1	75	60.676728846806	0.555267333984375	0.55517578125	1.1737060546875E-06	6.51613163427101E-07	473010.9375	7.73044848756399E-06
1	76	60.7774368465517	0.565338134765625	0.565338134765625	1.180419921875E-06	6.67336394144513E-07	478929.6875	7.84898838901427E-06
1	77	60.8781448462975	0.575408935546875	0.57537841796875	1.18865966796875E-06	6.83929101796821E-07	484056.46875	7.96828044258291E-06
1	78	60.9788528460432	0.585479736328125	0.585479736328125	1.19903564453125E-06	7.02011050179863E-07	488292.1875	8.08851018518908E-06
1	79	61.0795608457889	0.595550537109375	0.5955810546875	1.212158203125E-06	7.21938420156221E-07	491339.375	8.20992408989696E-06
1	80	61.1802688455347	0.605621337890625	0.60552978515625	1.22894287109375E-06	7.4416152529011E-07	492724.09375	8.33284320833627E-06
1	81	61.2809768452804	0.615692138671875	0.6156005859375	1.25091552734375E-06	7.70064332300535E-07	492120.03125	8.45771410240559E-06
1	82	61.3816848450261	0.625762939453125	0.625701904296875	1.2811279296875E-06	8.0160413062913E-07	488399.25	8.58521252666833E-06
1	83	61.4823928447719	0.635833740234375	0.6357421875	1.32171630859375E-06	8.40270786284236E-07	480997.5	8.71627617016202E-06
1	84	61.5831008445176	0.645904541015625	0.64581298828125	1.3775634765625E-06	8.89648333668447E-07	468808.15625	8.85219560586847E-06
1	85	61.6838088442634	0.655975341796875	0.655914306640625	1.4544677734375E-06	9.54006281972397E-07	450965.15625	8.99479982763296E-06
1	86	61.7845168440091	0.666046142578125	0.665924072265625	1.55914306640625E-06	1.03827085240482E-06	427109.03125	9.14654719963437E-06
1	87	61.8852248437548	0.676116943359375	0.676055908203125	1.69525146484375E-06	1.14608474177658E-06	398793.90625	9.31041904550511E-06
1	88	61.9859328435006	0.686187744140625	0.68609619140625	1.86279296875E-06	1.27805515148793E-06	368315.875	9.48958040680736E-06
1	89	62.0866408432463	0.696258544921875	0.696197509765625	2.0562744140625E-06	1.43157308230002E-06	338572.28125	9.68692074820865E-06
1	90	62.187348842992	0.706329345703125	0.70623779296875	2.26348876953125E-06	1.59856131176639E-06	312012.9375	9.90443822956877E-06
1	91	62.2880568427378	0.716400146484375	0.71630859375	2.46490478515625E-06	1.76563253262429E-06	290602.9375	1.01425321190618E-05
1	92	62.3887648424835	0.726470947265625	0.726409912109375	2.6397705078125E-06	1.91755543710315E-06	275179.1875	1.03995726021822E-05
1	93	62.4894728422292	0.736541748046875	0.7364501953125	2.77099609375E-06	2.04070056497585E-06	265770.9375	1.06720262920135E-05
1	94	62.590180841975	0.746612548828125	0.74652099609375	2.8521728515625E-06	2.12920690501051E-06	261737.640625	1.09551756395376E-05
1	95	62.6908888417207	0.756683349609375	0.7568359375	2.88299560546875E-06	2.18195464185555E-06	262517.21875	1.12439647637075E-05
1	96	62.7915968414665	0.766754150390625	0.7672119140625	2.874755859375E-06	2.20554693441954E-06	266878.96875	1.15338898467598E-05
1	97	62.8923048412122	0.776824951171875	0.7769775390625	2.83935546875E-06	2.20611536860815E-06	273645.75	1.18216185001074E-05
1	98	62.9930128409579	0.786895751953125	0.787353515625	2.79052734375E-06	2.19713160731771E-06	282152.21875	1.2105105270166E-05
1	99	63.0937208407037	0.796966552734375	0.79742431640625	2.7374267578125E-06	2.18289051190368E-06	291304.34375	1.23834597616224E-05
1	100	63.1944288404494	0.807037353515625	0.8074951171875	2.6873779296875E-06	2.17004458136216E-06	300476.9375	1.26566210383317E-05
1	101	63.2951368401951	0.817108154296875	0.8172607421875	2.64495849609375E-06	2.16162061406067E-06	308988.125	1.29251257021679E-05
1	102	63.3958448399409	0.827178955078125	0.82794189453125	2.6141357421875E-06	2.16435228139744E-06	316717.28125	1.31899414554937E-05
1	103	63.4965528396866	0.837249755859375	0.83831787109375	2.59674072265625E-06	2.17689398596121E-06	322834.65625	1.34523297674605E-05
1	104	63.5972608394324	0.847320556640625	0.84716796875	2.5927734375E-06	2.19651451516256E-06	326742	1.37136430566898E-05
1	105	63.6979688391781	0.857391357421875	0.8575439453125	2.6031494140625E-06	2.23231495510845E-06	329425.5625	1.39752783070435E-05
1	106	63.7986768389238	0.867462158203125	0.86822509765625	2.625732421875E-06	2.2797266865382E-06	330660.15625	1.42385733852279E-05
1	107	63.8993848386696	0.877532958984375	0.87799072265625	2.6531982421875E-06	2.32948332268279E-06	330917.875	1.4504388673231E-05
1	108	64.0000928384153	0.887603759765625	0.88775634765625	2.68218994140625E-06	2.38113102568605E-06	330981.90625	1.47730470416718E-05
1	109	64.100800838161	0.897674560546875	0.89752197265625	2.70538330078125E-06	2.42814076045761E-06	331754.09375	1.5044332940306E-05
1	110	64.2015088379068	0.907745361328125	0.908203125	2.7197265625E-06	2.47006414610951E-06	333931.78125	1.53175096784253E-05
1	111	64.3022168376525	0.917816162109375	0.91827392578125	2.72247314453125E-06	2.49997606260877E-06	337294.03125	1.55915458890377E-05
1	112	64.4029248373982	0.927886962890625	0.92803955078125	2.71728515625E-06	2.52174800152716E-06	341531.90625	1.58654584083706E-05
1	113	64.503632837144	0.937957763671875	0.93841552734375	2.70599365234375E-06	2.53934649663279E-06	346791.46875	1.6138543287525E-05
1	114	64.6043408368897	0.948028564453125	0.94818115234375	2.694091796875E-06	2.55448708230688E-06	351948.34375	1.64104585564928E-05
1	115	64.7050488366355	0.958099365234375	0.958251953125	2.685546875E-06	2.57343049270276E-06	356818.1875	1.66813442774583E-05
1	116	64.8057568363812	0.968170166015625	0.96832275390625	2.68646240234375E-06	2.60136243923625E-06	360445.3125	1.69518461916596E-05
1	117	64.9064648361269	0.978240966796875	0.977783203125	2.7001953125E-06	2.64020559370692E-06	362115.75	1.72230866155587E-05
1	118	65.0071728358727	0.988311767578125	0.98876953125	2.73101806640625E-06	2.70034729510371E-06	362051.625	1.74965698533924E-05
1	119	65.1078808356184	0.998382568359375	0.99884033203125	2.784423828125E-06	2.78119478025474E-06	358724.25	1.77742949745152E-05
1	120	65.2085888353641	1.00845336914063	1.00799560546875	2.86102294921875E-06	2.88389855995774E-06	352320	1.8058564819512E-05
1	121	65.3092968351099	1.01852416992188	1.01837158203125	2.96173095703125E-06	3.01614250020066E-06	343843.40625	1.83517640834907E-05
1	122	65.4100048348556	1.02859497070313	1.0284423828125	3.0816650390625E-06	3.16931482302607E-06	333729.46875	1.86560737347463E-05
1	123	65.5107128346013	1.03866577148438	1.03851318359375	3.21044921875E-06	3.33409388986183E-06	323479.09375	1.89729071280453E-05
1	124	65.6114208343471	1.04873657226563	1.048583984375	3.3319091796875E-06	3.49378638020426E-06	314709.65625	1.93023406609427E-05
1	125	65.7121288340928	1.05880737304688	1.05926513671875	3.4332275390625E-06	3.63669823855162E-06	308533.34375	1.96429919014918E-05
1	126	65.8128368338386	1.06887817382813	1.06903076171875	3.50006103515625E-06	3.74167279915127E-06	305432.03125	1.99921105377143E-05
1	127	65.9135448335843	1.07894897460938	1.0784912109375	3.5308837890625E-06	3.8080270314822E-06	305445.125	2.03461477212841E-05
1	128	66.01425283333	1.08901977539063	1.0888671875	3.52783203125E-06	3.84134045816609E-06	308650.53125	2.07015818887157E-05
1	129	66.1149608330758	1.09909057617188	1.09954833984375	3.49945068359375E-06	3.84781515094801E-06	314206	2.10554335353663E-05
1	130	66.2156688328215	1.10916137695313	1.1090087890625	3.4539794921875E-06	3.83049336960539E-06	321081.46875	2.14055671676761E-05
1	131	66.3163768325672	1.11923217773438	1.11907958984375	3.39996337890625E-06	3.80482970285811E-06	329144.59375	2.1750689484179E-05
1	132	66.417084832313	1.12930297851563	1.129150390625	3.343505859375E-06	3.77532091988542E-06	337714.5	2.20902511500753E-05
1	133	66.5177928320587	1.13937377929688	1.1395263671875	3.28765869140625E-06	3.74637352251739E-06	346607.28125	2.24241557589266E-05
1	134	66.6185008318045	1.14944458007813	1.14959716796875	3.23516845703125E-06	3.71914029528853E-06	355343.84375	2.27526070375461E-05
1	135	66.7192088315502	1.15951538085938	1.15997314453125	3.18634033203125E-06	3.69606914318865E-06	364045.59375	2.30759560508886E-05
1	136	66.8199168312959	1.16958618164063	1.16973876953125	3.14300537109375E-06	3.67649499821709E-06	372172.0625	2.33946630032733E-05
1	137	66.9206248310417	1.17965698242188	1.1798095703125	3.104248046875E-06	3.66242147720186E-06	380062.9375	2.37092372117331E-05
1	138	67.0213328307874	1.18972778320313	1.1895751953125	3.0694580078125E-06	3.65135110769188E-06	387552.1875	2.40201079577673E-05
1	139	67.1220408305331	1.19979858398438	1.1993408203125	3.03955078125E-06	3.64545712727704E-06	394578.34375	2.43277208937798E-05
1	140	67.2227488302789	1.20986938476563	1.21002197265625	3.0126953125E-06	3.64542756869923E-06	401641	2.46324761974392E-05
1	141	67.3234568300246	1.21994018554688	1.21978759765625	2.989501953125E-06	3.64655716111884E-06	408023.6875	2.49347103817854E-05
1	142	67.4241648297703	1.23001098632813	1.22955322265625	2.96966552734375E-06	3.65136179425463E-06	414037.625	2.52347781497519E-05
1	143	67.5248728295161	1.24008178710938	1.23992919921875	2.9522705078125E-06	3.6606063531508E-06	419991.71875	2.55329723586328E-05
1	144	67.6255808292618	1.25015258789063	1.24969482421875	2.93731689453125E-06	3.670749720186E-06	425454.5625	2.58295367530081E-05
1	145	67.7262888290076	1.26022338867188	1.2603759765625	2.92510986328125E-06	3.68673818229581E-06	430881.59375	2.6124733267352E-05
1	146	67.8269968287533	1.27029418945313	1.27044677734375	2.91534423828125E-06	3.70378961633833E-06	435779.34375	2.64188220171491E-05
1	147	67.927704828499	1.28036499023438	1.2799072265625	2.90740966796875E-06	3.72121462532959E-06	440222.53125	2.67120212811278E-05
1	148	68.0284128282448	1.29043579101563	1.290283203125	2.9022216796875E-06	3.74468800146133E-06	444584.65625	2.70045602519531E-05
1	149	68.1291208279905	1.30050659179688	1.3006591796875	2.89794921875E-06	3.76924413103552E-06	448820.5625	2.72966226475546E-05
1	150	68.2298288277362	1.31057739257813	1.31072998046875	2.89642333984375E-06	3.79642870029784E-06	452534	2.75883921858622E-05
1	151	68.330536827482	1.32064819335938	1.32049560546875	2.89642333984375E-06	3.82471398552298E-06	455905.625	2.78800853266148E-05
1	152	68.4312448272277	1.33071899414063	1.3311767578125	2.89886474609375E-06	3.85890143661527E-06	459206.21875	2.81719003396574E-05
1	153	68.5319528269735	1.34078979492188	1.34063720703125	2.90313720703125E-06	3.89205342798959E-06	461789.15625	2.84640536847292E-05
1	154	68.6326608267192	1.35086059570313	1.35040283203125	2.90771484375E-06	3.92658648706856E-06	464420.65625	2.87566545011941E-05
1	155	68.7333688264649	1.36093139648438	1.36138916015625	2.9150390625E-06	3.96850236938917E-06	467022.625	2.90498537651729E-05
1	156	68.8340768262107	1.37100219726563	1.370849609375	2.9229736328125E-06	4.00695716962218E-06	468991.4375	2.93438206426799E-05
1	157	68.9347848259564	1.38107299804688	1.38092041015625	2.93121337890625E-06	4.0477721086063E-06	471108.8125	2.96386024274398E-05
1	158	69.0354928257021	1.39114379882813	1.3909912109375	2.9412841796875E-06	4.0913000702858E-06	472919.71875	2.99343064398272E-05
1	159	69.1362008254479	1.40121459960938	1.40106201171875	2.95166015625E-06	4.13545876654098E-06	474669.1875	3.0231040000217E-05
1	160	69.2369088251936	1.41128540039063	1.41143798828125	2.9632568359375E-06	4.18245326727629E-06	476313.09375	3.05288776871748E-05
1	161	69.3376168249393	1.42135620117188	1.4208984375	2.97637939453125E-06	4.22913262809743E-06	477391.5625	3.08279632008635E-05
1	162	69.4383248246851	1.43142700195313	1.43096923828125	2.99072265625E-06	4.27963186666602E-06	478469.40625	3.11284311464988E-05
1	163	69.5390328244308	1.44149780273438	1.4410400390625	3.00689697265625E-06	4.33305876867962E-06	479244.9375	3.14304343191907E-05
1	164	69.6397408241766	1.45156860351563	1.4520263671875	3.02642822265625E-06	4.39445375377545E-06	479782.1875	3.17342382913921E-05
1	165	69.7404488239223	1.46163940429688	1.46209716796875	3.0517578125E-06	4.46196600023541E-06	479100.03125	3.20402978104539E-05
1	166	69.841156823668	1.47171020507813	1.47216796875	3.08624267578125E-06	4.54346718470333E-06	477009.8125	3.2349369575968E-05
1	167	69.9418648234138	1.48178100585938	1.4813232421875	3.13690185546875E-06	4.64676531919395E-06	472224.9375	3.26627305184957E-05
1	168	70.0425728231595	1.49185180664063	1.49169921875	3.20587158203125E-06	4.7821959014982E-06	465302.25	3.29821159539279E-05
1	169	70.1432808229052	1.50192260742188	1.50177001953125	3.29376220703125E-06	4.94647338200593E-06	455943.6875	3.33093958033714E-05
1	170	70.243988822651	1.49185180664063	1.49169921875	3.0340576171875E-06	4.52590120403329E-06	491651.59375	3.36280281771906E-05
1	171	70.3446968223967	1.48178100585938	1.48162841796875	2.8472900390625E-06	4.2186256905552E-06	520364.40625	3.39241778419819E-05
1	172	70.4454048221425	1.47171020507813	1.4715576171875	2.7032470703125E-06	3.97798385165515E-06	544366.6875	3.42036692018155E-05
1	173	70.5461128218882	1.46163940429688	1.46148681640625	2.5885009765625E-06	3.7830598103028E-06	564607.4375	3.44701293215621E-05
1	174	70.6468208216339	1.45156860351563	1.451416015625	2.4951171875E-06	3.62145283361315E-06	581702.5625	3.47261120623443E-05
1	175	70.7475288213797	1.44149780273438	1.44134521484375	2.41851806640625E-06	3.4859194784076E-06	595962.125	3.49735310010146E-05
1	176	70.8482368211254	1.43142700195313	1.43157958984375	2.354736328125E-06	3.37099254466011E-06	607957.5	3.52138849848416E-05
1	177	70.9489448208711	1.42135620117188	1.42120361328125	2.30194091796875E-06	3.27152656609542E-06	617393.625	3.54483672708739E-05
1	178	71.0496528206169	1.41128540039063	1.4111328125	2.2564697265625E-06	3.18417846756347E-06	625371.9375	3.56779019057285E-05
1	179	71.1503608203626	1.40121459960938	1.4013671875	2.216796875E-06	3.10654650093056E-06	632158.5625	3.59031473635696E-05
1	180	71.2510688201083	1.39114379882813	1.39129638671875	2.1820068359375E-06	3.03581805383146E-06	637622.4375	3.61246457032394E-05
1	181	71.3517768198541	1.38107299804688	1.38092041015625	2.14996337890625E-06	2.96892835649487E-06	642299.5	3.63427789125126E-05
1	182	71.4524848195998	1.37100219726563	1.370849609375	2.1209716796875E-06	2.90753314402536E-06	646330.9375	3.6557834391715E-05
1	183	71.5531928193456	1.36093139648438	1.36016845703125	2.0941162109375E-06	2.84835073216527E-06	649519.125	3.67700813512783E-05
1	184	71.6539008190913	1.35086059570313	1.35101318359375	2.069091796875E-06	2.79537039205024E-06	652949.875	3.69797162420582E-05
1	185	71.754608818837	1.34078979492188	1.3409423828125	2.0458984375E-06	2.7434318781161E-06	655429.625	3.71869246009737E-05
1	186	71.8553168185828	1.33071899414063	1.33056640625	2.0245361328125E-06	2.69377983386221E-06	657220.375	3.73918846889865E-05
1	187	71.9560248183285	1.32064819335938	1.32049560546875	2.0037841796875E-06	2.6459881610208E-06	659000.9375	3.75947274733335E-05
1	188	72.0567328180742	1.31057739257813	1.31072998046875	1.9842529296875E-06	2.60081969827297E-06	660566	3.77955402655061E-05
1	189	72.15744081782	1.30050659179688	1.30035400390625	1.96502685546875E-06	2.5552303668519E-06	661748.75	3.79944031010382E-05
1	190	72.2581488175657	1.29043579101563	1.290283203125	1.94732666015625E-06	2.51260280492716E-06	662592.0625	3.81914069293998E-05
1	191	72.3588568173114	1.28036499023438	1.2799072265625	1.9305419921875E-06	2.47091452365567E-06	662978.25	3.83866718038917E-05
1	192	72.4595648170572	1.27029418945313	1.2701416015625	1.91375732421875E-06	2.43074282479938E-06	663690	3.8580248656217E-05
1	193	72.5602728168029	1.26022338867188	1.259765625	1.898193359375E-06	2.39127871282108E-06	663665.625	3.87721956940368E-05
1	194	72.6609808165487	1.25015258789063	1.25030517578125	1.8829345703125E-06	2.35424272432283E-06	664019.5	3.89625893149059E-05
1	195	72.7616888162944	1.24008178710938	1.240234375	1.86859130859375E-06	2.31749118029256E-06	663726.9375	3.9151495002443E-05
1	196	72.8623968160401	1.23001098632813	1.2298583984375	1.854248046875E-06	2.28046246775193E-06	663265.3125	3.93389527744148E-05
1	197	72.9631048157859	1.21994018554688	1.21978759765625	1.839599609375E-06	2.2439207896241E-06	663072.3125	3.95249553548638E-05
1	198	73.0638128155316	1.20986938476563	1.21002197265625	1.82525634765625E-06	2.2086001081334E-06	662932.625	3.97094954678323E-05
1	199	73.1645208152773	1.19979858398438	1.19903564453125	1.8109130859375E-06	2.17134925151186E-06	662116.625	3.98925913032144E-05
1	200	73.2652288150231	1.18972778320313	1.18927001953125	1.795654296875E-06	2.13551788874611E-06	662304.5625	4.00741955672856E-05
1	201	73.3659368147688	1.17965698242188	1.17950439453125	1.77947998046875E-06	2.09890436053684E-06	662836.5625	4.02542173105758E-05
1	202	73.4666448145146	1.16958618164063	1.16943359375	1.7626953125E-06	2.06135518965311E-06	663434.875	4.04325801355299E-05
1	203	73.5673528142603	1.15951538085938	1.15966796875	1.74285888671875E-06	2.02113756131439E-06	665382.5625	4.06090985052288E-05
1	204	73.668060814006	1.14944458007813	1.1492919921875	1.7193603515625E-06	1.97604708773724E-06	668441.625	4.07834340876434E-05
1	205	73.7687688137518	1.13937377929688	1.13922119140625	1.69097900390625E-06	1.92639913620951E-06	673705.125	4.09551576012745E-05
1	206	73.8694768134975	1.12930297851563	1.12945556640625	1.65496826171875E-06	1.86921306521981E-06	682463.625	4.11236396757886E-05
1	207	73.9701848132432	1.11923217773438	1.11907958984375	1.60919189453125E-06	1.80081372036511E-06	695429.5625	4.1288003558293E-05
1	208	74.070892812989	1.10916137695313	1.1090087890625	1.54876708984375E-06	1.71759631939494E-06	716059.125	4.1447019611951E-05
1	209	74.1716008127347	1.09909057617188	1.0992431640625	1.47216796875E-06	1.61827051670116E-06	746683.25	4.15991380577907E-05
1	210	74.2723088124804	1.08901977539063	1.0894775390625	1.37298583984375E-06	1.49583718211943E-06	793509.6875	4.1742401663214E-05
1	211	74.3730168122262	1.07894897460938	1.0791015625	1.251220703125E-06	1.35019411118265E-06	862439.0625	4.18745403294452E-05
1	212	74.4737248119719	1.06887817382813	1.06903076171875	1.10687255859375E-06	1.18328080134233E-06	965811.9375	4.19932803197298E-05
1	213	74.5744328117177	1.05880737304688	1.05926513671875	9.45434570312501E-07	1.00146587556083E-06	1120400.375	4.20966207457241E-05
1	214	74.6751408114634	1.04873657226563	1.048583984375	7.794189453125E-07	8.17286206711287E-07	1345340.625	4.21834738517646E-05
1	215	74.7758488112091	1.03866577148438	1.03851318359375	6.24694824218749E-07	6.48753768928145E-07	1662432.875	4.22541779698804E-05
1	216	74.8765568109549	1.02859497070313	1.0284423828125	4.9591064453125E-07	5.10015524923801E-07	2073846.25	4.23106066591572E-05
1	217	74.9772648107006	1.01852416992188	1.0186767578125	4.01916503906249E-07	4.09422966640705E-07	2534548.25	4.23558158217929E-05
1	218	75.0779728104463	1.00845336914063	1.00860595703125	3.47900390625E-07	3.50894396206058E-07	2899123	4.23935707658529E-05
1	219	75.1786808101921	0.998382568359375	0.99822998046875	3.2989501953125E-07	3.29311092173157E-07	3025902	4.24276986450423E-05
1	220	75.2793888099378	0.988311767578125	0.98846435546875	3.40576171875E-07	3.36647389076461E-07	2902330	4.24614627263509E-05
1	221	75.3800968096836	0.978240966796875	0.9783935546875	3.6956787109375E-07	3.61582806363003E-07	2647399	4.24972204200458E-05
1	222	75.4808048094293	0.968170166015625	0.96832275390625	4.06799316406251E-07	3.93913012430858E-07	2380345.25	4.25363141403068E-05
1	223	75.581512809175	0.958099365234375	0.95794677734375	4.41894531250001E-07	4.23311433905837E-07	2167817.75	4.25790494773537E-05
1	224	75.6822208089208	0.948028564453125	0.9478759765625	4.66003417968749E-07	4.41713439158775E-07	2034053.75	4.26247643190436E-05
1	225	75.7829288086665	0.937957763671875	0.93780517578125	4.78515625000001E-07	4.48754434501097E-07	1959821.375	4.26723236159887E-05
1	226	75.8836368084122	0.927886962890625	0.92803955078125	4.7637939453125E-07	4.4209889438207E-07	1948110.25	4.2720406781882E-05
1	227	75.984344808158	0.917816162109375	0.91766357421875	4.6051025390625E-07	4.22593473103916E-07	1992710.375	4.27675840910524E-05
1	228	76.0850528079037	0.907745361328125	0.90789794921875	4.315185546875E-07	3.91774790386989E-07	2103960.5	4.28125022153836E-05
1	229	76.1857608076494	0.897674560546875	0.89752197265625	3.90014648437501E-07	3.50046690300587E-07	2301252	4.2853869672399E-05
1	230	76.2864688073952	0.887603759765625	0.887451171875	3.43017578125E-07	3.0441134413195E-07	2587188.75	4.28907806053758E-05
1	231	76.3871768071409	0.877532958984375	0.87738037109375	2.95410156250001E-07	2.59187089568513E-07	2970041.25	4.29229257861152E-05
1	232	76.4878848068867	0.867462158203125	0.8673095703125	2.55737304687501E-07	2.2180340408795E-07	3391408.25	4.29506799264345E-05
1	233	76.5885928066324	0.857391357421875	0.85723876953125	2.276611328125E-07	1.95159955751478E-07	3765415.5	4.29750216426328E-05
1	234	76.6893008063781	0.847320556640625	0.8477783203125	2.13623046875E-07	1.81104979901647E-07	3968571.5	4.29972424171865E-05
1	235	76.7900088061239	0.837249755859375	0.83709716796875	2.117919921875E-07	1.77290473857283E-07	3952449.75	4.30186628364027E-05
1	236	76.8907168058696	0.827178955078125	0.82763671875	2.178955078125E-07	1.80338318500617E-07	3798319.5	4.30402978963684E-05
1	237	76.9914248056153	0.817108154296875	0.8172607421875	2.25830078125E-07	1.84562054528215E-07	3618919	4.30626423622016E-05
1	238	77.0921328053611	0.807037353515625	0.8074951171875	2.288818359375E-07	1.84820962090271E-07	3528000	4.30855398008134E-05
1	239	77.1928408051068	0.796966552734375	0.79681396484375	2.20336914062499E-07	1.75567535620758E-07	3616343.5	4.31081571150571E-05
1	240	77.2935488048525	0.786895751953125	0.787353515625	1.9683837890625E-07	1.54981378841512E-07	4000000.25	4.31291664426681E-05
1	241	77.3942568045983	0.776824951171875	0.77728271484375	1.48925781250001E-07	1.15757430307895E-07	5219262.5	4.314657417126E-05
1	242	77.494964804344	0.766754150390625	0.76690673828125	7.38525390624995E-08	5.66380116140408E-08	10384297	4.31577936979011E-05
1	243	77.5956728040898	0.756683349609375	0.7568359375	-3.44848632812506E-08	-2.60993839873436E-08	-21946902	4.31597763963509E-05
1	244	77.6963808038355	0.746612548828125	0.746490478515625	-1.7974853515625E-07	-1.34180567101794E-07	-4152971.25	4.31489897891879E-05
1	245	77.7970888035812	0.736541748046875	0.7364501953125	-3.570556640625E-07	-2.62953705032487E-07	-2062564.125	4.31219596066512E-05
1	246	77.897796803327	0.726470947265625	0.726409912109375	-5.5755615234375E-07	-4.05014304760698E-07	-1302846.25	4.30759027949534E-05
1	247	77.9985048030727	0.716400146484375	0.71630859375	-7.6324462890625E-07	-5.46718638361199E-07	-938504.625	4.3009396904381E-05
1	248	78.0992128028184	0.706329345703125	0.706329345703125	-9.50927734375E-07	-6.71668146878801E-07	-742779.25	4.29230822192039E-05
1	249	78.1999208025642	0.696258544921875	0.6961669921875	-1.10198974609375E-06	-7.67168842230603E-07	-631736.375	4.28197090514004E-05
1	250	78.3006288023099	0.686187744140625	0.68609619140625	-1.19964599609375E-06	-8.23072582534223E-07	-571915.5	4.27038103225641E-05
1	251	78.4013368020557	0.676116943359375	0.67596435546875	-1.24267578125E-06	-8.40004474866873E-07	-543958.75	4.25808320869692E-05
1	252	78.5020448018014	0.666046142578125	0.666015625	-1.23931884765625E-06	-8.25405720661365E-07	-537404.5625	4.24558529630303E-05
1	253	78.6027528015471	0.655975341796875	0.655914306640625	-1.19964599609375E-06	-7.86864973179036E-07	-546756.5625	4.23330420744605E-05
1	254	78.7034608012929	0.645904541015625	0.6458740234375	-1.13739013671875E-06	-7.34610694053117E-07	-567856.1875	4.22153607360087E-05
1	255	78.8041688010386	0.635833740234375	0.63580322265625	-1.06353759765625E-06	-6.76200613725086E-07	-597819.25	4.21045369876083E-05
1	256	78.9048768007843	0.625762939453125	0.625701904296875	-9.857177734375E-07	-6.16765476024739E-07	-634767.8125	4.20013493567239E-05
1	257	79.0055848005301	0.615692138671875	0.61566162109375	-9.0850830078125E-07	-5.59333670935303E-07	-677662.0625	4.19059651903808E-05
1	258	79.1062928002758	0.605621337890625	0.60565185546875	-8.36791992187499E-07	-5.06804610722611E-07	-723778.3125	4.18180825363379E-05
1	259	79.2070008000215	0.595550537109375	0.595489501953125	-7.6904296875E-07	-4.5795701453244E-07	-774325.375	4.17372211813927E-05
1	260	79.3077087997673	0.585479736328125	0.585418701171875	-7.086181640625E-07	-4.14838297047027E-07	-826141.3125	4.166281723883E-05
1	261	79.408416799513	0.575408935546875	0.575408935546875	-6.52465820312501E-07	-3.7543466646639E-07	-881899	4.15942813560832E-05
1	262	79.5091247992588	0.565338134765625	0.565338134765625	-6.02111816406251E-07	-3.4039678098452E-07	-938925.5	4.15311078540981E-05
1	263	79.6098327990045	0.555267333984375	0.555206298828125	-5.55419921875E-07	-3.08372619883812E-07	-999615.4375	4.14728201576509E-05
1	264	79.7105407987502	0.545196533203125	0.545135498046875	-5.133056640625E-07	-2.79821136928149E-07	-1062009.5	4.14190071751364E-05
1	265	79.811248798496	0.535125732421875	0.53509521484375	-4.75158691406249E-07	-2.54255127174474E-07	-1126140	4.13692323490977E-05
1	266	79.9119567982417	0.525054931640625	0.52508544921875	-4.40063476562499E-07	-2.31070927725341E-07	-1193203.875	4.13231500715483E-05
1	267	80.0126647979874	0.514984130859375	0.51495361328125	-4.071044921875E-07	-2.09639935633277E-07	-1264917.5	4.12804911320563E-05
1	268	80.1133727977332	0.504913330078125	0.5048828125	-3.77197265625E-07	-1.90440417213722E-07	-1338511.375	4.12409972341266E-05
1	269	80.2140807974789	0.494842529296875	0.4947509765625	-3.4912109375E-07	-1.72727993685839E-07	-1417132.875	4.12044246331789E-05
1	270	80.3147887972247	0.484771728515625	0.484710693359375	-3.22875976562501E-07	-1.56501428705269E-07	-1501228.75	4.11705877922941E-05
1	271	80.4154967969704	0.474700927734375	0.47467041015625	-2.9876708984375E-07	-1.41815888810015E-07	-1588764.125	4.11392829846591E-05
1	272	80.5162047967161	0.464630126953125	0.464599609375	-2.764892578125E-07	-1.28456804304733E-07	-1680353.25	4.1110317397397E-05
1	273	80.6169127964619	0.454559326171875	0.45458984375	-2.5482177734375E-07	-1.15839391412464E-07	-1783952.125	4.10835637012497E-05
1	274	80.7176207962076	0.444488525390625	0.444549560546875	-2.34069824218749E-07	-1.04055636995781E-07	-1899217.75	4.10589454986621E-05
1	275	80.8183287959533	0.434417724609375	0.434478759765625	-2.1484375E-07	-9.33450436946259E-08	-2022301.125	4.10363427363336E-05
1	276	80.9190367956991	0.424346923828125	0.42431640625	-1.9683837890625E-07	-8.35217477401784E-08	-2155659	4.10156135330908E-05
1	277	81.0197447954448	0.414276123046875	0.41424560546875	-1.7822265625E-07	-7.38279481993231E-08	-2324315.25	4.09967251471244E-05
1	278	81.1204527951905	0.404205322265625	0.404205322265625	-1.60827636718749E-07	-6.5007384364435E-08	-2513282.75	4.09796557505615E-05
1	279	81.2211607949363	0.394134521484375	0.394195556640625	-1.434326171875E-07	-5.65405002816988E-08	-2748298	4.0964332583826E-05
1	280	81.321868794682	0.384063720703125	0.384063720703125	-1.26953125E-07	-4.87580891217476E-08	-3025240.5	4.09507192671299E-05
1	281	81.4225767944278	0.373992919921875	0.373992919921875	-1.10473632812499E-07	-4.1316354781884E-08	-3385359.25	4.0938761230791E-05
1	282	81.5232847941735	0.363922119140625	0.363861083984375	-9.58251953125003E-08	-3.48670603500523E-08	-3797133.75	4.09283748012967E-05
1	283	81.6239927939192	0.353851318359375	0.353851318359375	-8.23974609375E-08	-2.91564479226736E-08	-4294444.5	4.09193999075796E-05
1	284	81.724700793665	0.343780517578125	0.34381103515625	-6.98852539062503E-08	-2.4027320577602E-08	-4919650.5	4.09117310482543E-05
1	285	81.8254087934107	0.333709716796875	0.333740234375	-5.92041015625003E-08	-1.97587901595853E-08	-5637113.5	4.09052336181048E-05
1	286	81.9261167931564	0.323638916015625	0.32366943359375	-4.8828125E-08	-1.58041704167999E-08	-6628750	4.08997912018094E-05
1	287	82.0268247929022	0.313568115234375	0.313568115234375	-4.02832031249994E-08	-1.26315269355359E-08	-7784091.5	4.08953055739403E-05
1	288	82.1275327926479	0.303497314453125	0.303466796875	-3.29589843750006E-08	-1.00019565962839E-08	-9207408	4.08916166634299E-05
1	289	82.2282407923936	0.293426513671875	0.293365478515625	-2.53295898437506E-08	-7.43082706478049E-09	-11581928	4.08886808145326E-05
1	290	82.3289487921394	0.283355712890625	0.283355712890625	-1.89208984374994E-08	-5.3613447015266E-09	-14975806	4.08864543715026E-05
1	291	82.4296567918851	0.273284912109375	0.2733154296875	-1.31225585937506E-08	-3.58659768551206E-09	-20827908	4.08848391089123E-05
1	292	82.5303647916309	0.263214111328125	0.26318359375	-8.23974609374945E-09	-2.16856599344339E-09	-31940742	4.08837659051642E-05
1	293	82.6310727913766	0.253143310546875	0.25311279296875	-3.96728515625056E-09	-1.00417063553238E-09	-63800000	4.08831510867458E-05
1	294	82.7317807911223	0.243072509765625	0.243072509765625	-1.22070312500028E-09	-2.96719371295495E-10	-199125008	4.08828891522717E-05
1	295	82.8324887908681	0.233001708984375	0.233001708984375	1.22070312500028E-09	2.84425899499396E-10	190875008	4.08828891522717E-05
1	296	82.9331967906138	0.222930908203125	0.22296142578125	2.44140625000056E-09	5.44339406882699E-10	91325000	4.08830746891908E-05
1	297	83.0339047903595	0.212860107421875	0.212890625	2.13623046874945E-09	4.54783405379189E-10	99657152	4.08833038818557E-05
1	298	83.1346127901053	0.202789306640625	0.202850341796875	0	0	∞	4.08834130212199E-05
1	299	83.235320789851	0.192718505859375	0.19268798828125	-4.27246093750028E-09	-8.23251911086231E-10	-45100000	4.08831947424915E-05
1	300	83.3360287895968	0.182647705078125	0.182647705078125	-1.25122070312497E-08	-2.28532570645257E-09	-14597562	4.08823507314082E-05
1	301	83.4367367893425	0.172576904296875	0.17254638671875	-2.44140625E-08	-4.2125583021857E-09	-7067500	4.08804917242378E-05
1	302	83.5374447890882	0.162506103515625	0.162506103515625	-4.21142578125006E-08	-6.84382372995174E-09	-3858696	4.08771411457565E-05
1	303	83.638152788834	0.152435302734375	0.1524658203125	-6.89697265624997E-08	-1.05155262275503E-08	-2210619.5	4.087154957233E-05
1	304	83.7388607885797	0.142364501953125	0.14239501953125	-1.0650634765625E-07	-1.51659733660381E-08	-1336962.875	4.08627129218075E-05
1	305	83.8395687883254	0.132293701171875	0.13232421875	-1.617431640625E-07	-2.14025366318538E-08	-818113.25	4.08492051064968E-05
1	306	83.9402767880712	0.122222900390625	0.12225341796875	-2.3773193359375E-07	-2.90635409072593E-08	-514249.0625	4.08290907216724E-05
1	307	84.0409847878169	0.112152099609375	0.112274169921875	-3.4332275390625E-07	-3.85462755048138E-08	-327022.25	4.0799830458127E-05
1	308	84.1416927875626	0.102081298828125	0.1021728515625	-4.82788085937499E-07	-4.93278378144169E-08	-211630.84375	4.07582338084467E-05
1	309	84.2424007873084	0.092010498046875	0.09210205078125	-6.6192626953125E-07	-6.09647656801826E-08	-139142.46875	4.07005936722271E-05
1	310	84.3431087870541	0.081939697265625	0.081939697265625	-8.7921142578125E-07	-7.20423187772212E-08	-93196.8046875	4.0622991946293E-05
1	311	84.4438167867999	0.071868896484375	0.071929931640625	-1.12640380859375E-06	-8.10221436609027E-08	-63858.0390625	4.05219980166294E-05
1	312	84.5445247865456	0.061798095703125	0.061859130859375	-1.385498046875E-06	-8.57057003145201E-08	-44647.578125	4.03955164074432E-05
1	313	84.6452327862913	0.051727294921875	0.05181884765625	-1.632080078125E-06	-8.45725054432478E-08	-31750.1875	4.02435689466074E-05
1	314	84.7459407860371	0.041656494140625	0.0417694091796875	-1.83990478515625E-06	-7.68517267601965E-08	-22701.94140625	4.0068738599075E-05
1	315	84.8466487857828	0.031585693359375	0.0316650390625	-1.99005126953125E-06	-6.30150509550731E-08	-15911.669921875	3.98758857045323E-05
1	316	84.9473567855285	0.021514892578125	0.021600341796875	-2.0733642578125E-06	-4.47853736318393E-08	-10418.0166015625	3.96712785004638E-05
1	317	85.0480647852743	0.011444091796875	0.0115570068359375	-2.0947265625E-06	-2.42087700996763E-08	-5517.19140625	3.94613962271251E-05
1	318	85.14877278502	0.001373291015625	0.00145874023437501	-2.0684814453125E-06	-3.01737679286873E-09	-705.222839355469	3.92517613363452E-05
1	319	85.2494807847658	-0.008697509765625	-0.00859375	-2.01019287109375E-06	1.72750951321632E-08	4275.08740234375	3.90463865187485E-05
1	320	85.3501887845115	-0.018768310546875	-0.0186553955078125	-1.93511962890625E-06	3.61004204307847E-08	9640.435546875	3.88477237720508E-05
1	321	85.4508967842572	-0.028839111328125	-0.028717041015625	-1.8536376953125E-06	5.32309876177806E-08	15492.2626953125	3.86569445254281E-05
1	322	85.551604784003	-0.038909912109375	-0.038751220703125	-1.7730712890625E-06	6.87086796347103E-08	21855.421875	3.84743252652697E-05
1	323	85.6523127837487	-0.048980712890625	-0.048846435546875	-1.69708251953125E-06	8.28964275001454E-08	28782.59375	3.82995895051863E-05
1	324	85.7530207834944	-0.059051513671875	-0.058990478515625	-1.62811279296875E-06	9.6043152097991E-08	36232.4296875	3.81321515305899E-05
1	325	85.8537287832402	-0.069122314453125	-0.069000244140625	-1.566162109375E-06	1.08065563608761E-07	44056.8984375	3.7971305573592E-05
1	326	85.9544367829859	-0.079193115234375	-0.0791015625	-1.51092529296875E-06	1.19516542440579E-07	52353.0625	3.78163640561979E-05
1	327	86.0551447827316	-0.089263916015625	-0.08917236328125	-1.46240234375E-06	1.30405865661487E-07	60976.62890625	3.76666430383921E-05
1	328	86.1558527824774	-0.099334716796875	-0.099273681640625	-1.41998291015625E-06	1.40966918138474E-07	69911.890625	3.75215058738831E-05
1	329	86.2565607822231	-0.109405517578125	-0.109344482421875	-1.38275146484375E-06	1.5119623242299E-07	79077.46875	3.73803741240408E-05
1	330	86.3572687819689	-0.119476318359375	-0.119354248046875	-1.35009765625E-06	1.6113988010602E-07	88404.1640625	3.72427675756626E-05
1	331	86.4579767817146	-0.129547119140625	-0.129486083984375	-1.32171630859375E-06	1.71143867078172E-07	97968.140625	3.71082278434187E-05
1	332	86.5586847814603	-0.139617919921875	-0.139495849609375	-1.29791259765625E-06	1.81053422920741E-07	107477.078125	3.69763220078312E-05
1	333	86.6593927812061	-0.149688720703125	-0.149566650390625	-1.27716064453125E-06	1.91020646411744E-07	117108.71875	3.68466571671888E-05
1	334	86.7601007809518	-0.159759521484375	-0.15960693359375	-1.25885009765625E-06	2.00921192572423E-07	126787.8828125	3.67189568351023E-05
1	335	86.8608087806975	-0.169830322265625	-0.169677734375	-1.243896484375E-06	2.11061532695567E-07	136408.25	3.65929336112458E-05
1	336	86.9615167804433	-0.179901123046875	-0.179779052734375	-1.2322998046875E-06	2.2154168277666E-07	145889.0625	3.64682491635904E-05
1	337	87.062224780189	-0.189971923828125	-0.189849853515625	-1.22161865234375E-06	2.31924119020732E-07	155408.453125	3.63446815754287E-05
1	338	87.1629327799347	-0.200042724609375	-0.19989013671875	-1.21429443359375E-06	2.42725491261808E-07	164614.21875	3.62220234819688E-05
1	339	87.2636407796805	-0.189971923828125	-0.18988037109375	-1.06842041015625E-06	2.02872058707726E-07	177720.65625	3.61070815415587E-05
2	340	87.3643487794262	-0.179901123046875	-0.179718017578125	-9.68322753906251E-07	1.74025046817405E-07	185597.234375	3.6004523281008E-05
2	341	87.465056779172	-0.169830322265625	-0.169708251953125	-8.8775634765625E-07	1.50659573705525E-07	191165.359375	3.59110636054538E-05
2	342	87.5657647789177	-0.159759521484375	-0.15966796875	-8.20312500000001E-07	1.30977625190098E-07	194642.859375	3.58250545104966E-05
2	343	87.6664727786634	-0.149688720703125	-0.14947509765625	-7.611083984375E-07	1.1376674535768E-07	196391.34375	3.57454227923881E-05
2	344	87.7671807784092	-0.139617919921875	-0.1395263671875	-7.08923339843751E-07	9.89134960605043E-08	196814.46875	3.56714008376002E-05
2	345	87.8678887781549	-0.129547119140625	-0.129425048828125	-6.61621093750001E-07	8.56303401519654E-08	195618.09375	3.56023883796297E-05
2	346	87.9685967779006	-0.119476318359375	-0.119354248046875	-6.182861328125E-07	7.37950713869395E-08	193040.484375	3.55379415850621E-05
2	347	88.0693047776464	-0.109405517578125	-0.109344482421875	-5.7708740234375E-07	6.31013250540491E-08	189476.46875	3.54777475877199E-05
2	348	88.1700127773921	-0.099334716796875	-0.0992431640625	-5.3924560546875E-07	5.35164410564448E-08	184040.75	3.54215371771716E-05
2	349	88.2707207771379	-0.089263916015625	-0.089202880859375	-5.02624511718749E-07	4.48355557125524E-08	177474.1875	3.53690738847945E-05
2	350	88.3714287768836	-0.079193115234375	-0.079193115234375	-4.6539306640625E-07	3.68559263108637E-08	170163.9375	3.53203322447371E-05
2	351	88.4721367766293	-0.069122314453125	-0.069061279296875	-4.28161621093751E-07	2.95693869389879E-08	161297.234375	3.5275337722851E-05
2	352	88.5728447763751	-0.059051513671875	-0.059051513671875	-3.88183593749999E-07	2.29228280801408E-08	152122.640625	3.52342285623308E-05
2	353	88.6735527761208	-0.048980712890625	-0.0488494873046875	-3.43017578125E-07	1.67562319575154E-08	142411.03125	3.51974122168031E-05
2	354	88.7742607758665	-0.038909912109375	-0.0387664794921875	-2.911376953125E-07	1.12863842716138E-08	133155.140625	3.51654780388344E-05
2	355	88.8749687756123	-0.028839111328125	-0.0286834716796875	-2.276611328125E-07	6.53011200668629E-09	125991.9609375	3.51393537130207E-05
2	356	88.975676775358	-0.018768310546875	-0.0186431884765625	-1.483154296875E-07	2.76507239327373E-09	125699.6015625	3.51204253092874E-05
2	357	89.0763847751037	-0.008697509765625	-0.00860595703125	-4.66918945312506E-08	4.01828431639828E-10	184313.71875	3.51106027665082E-05
2	358	89.1770927748495	0.001373291015625	0.00145568847656249	8.51440429687503E-08	1.23943202923193E-10	17096.775390625	3.51125418092124E-05
2	359	89.2778007745952	0.011444091796875	0.0115264892578125	2.5177001953125E-07	2.90202439856557E-09	45781.8203125	3.51295057043899E-05
2	360	89.378508774341	0.021514892578125	0.0215789794921875	4.57763671875E-07	9.8780725821257E-09	47140	3.51652342942543E-05
2	361	89.4792167740867	0.031585693359375	0.0316680908203125	6.9915771484375E-07	2.21409877099177E-08	45294.6328125	3.52234892488923E-05
2	362	89.5799247738324	0.041656494140625	0.0417266845703125	9.66491699218749E-07	4.03284978744978E-08	43173.3515625	3.5307359212311E-05
2	363	89.6806327735782	0.051727294921875	0.0517578125	1.23931884765625E-06	6.41444302118543E-08	41763.11328125	3.54184339812491E-05
2	364	89.7813407733239	0.061798095703125	0.0618896484375	1.49139404296875E-06	9.2301846166265E-08	41497.85546875	3.55559350282419E-05
2	365	89.8820487730696	0.071868896484375	0.0718994140625	1.69677734375E-06	1.21997288715647E-07	42374.1015625	3.57164717570413E-05
2	366	89.9827567728154	0.081939697265625	0.082000732421875	1.842041015625E-06	1.51048709540191E-07	44516.234375	3.58946672349703E-05
2	367	90.0834647725611	0.092010498046875	0.092071533203125	1.9195556640625E-06	1.76736435264502E-07	47965.0234375	3.60840786015615E-05
2	368	90.1841727723069	0.102081298828125	0.10211181640625	1.93817138671875E-06	1.97910196675366E-07	52684.6171875	3.62783284799661E-05
2	369	90.2848807720526	0.112152099609375	0.1121826171875	1.9134521484375E-06	2.14656054708939E-07	58628.39453125	3.6472272768151E-05
2	370	90.3855887717983	0.122222900390625	0.122283935546875	1.86065673828125E-06	2.27528417440226E-07	65720.8515625	3.66623135050759E-05
2	371	90.4862967715441	0.132293701171875	0.13238525390625	1.79229736328125E-06	2.37273738434851E-07	73863.4453125	3.684625698952E-05
2	372	90.5870047712898	0.142364501953125	0.1424560546875	1.7193603515625E-06	2.44933289650362E-07	82854.1015625	3.70230809494387E-05
2	373	90.6877127710355	0.152435302734375	0.1524658203125	1.6473388671875E-06	2.51162873610156E-07	92552.796875	3.71926071238704E-05
2	374	90.7884207707813	0.162506103515625	0.162506103515625	1.5789794921875E-06	2.56593807534955E-07	102918.4453125	3.73550683434587E-05
2	375	90.889128770527	0.172576904296875	0.17266845703125	1.51702880859375E-06	2.61943000623432E-07	113820.1640625	3.75109630113002E-05
2	376	90.9898367702727	0.182647705078125	0.18267822265625	1.461181640625E-06	2.66926065251027E-07	125020.890625	3.76609277736861E-05
2	377	91.0905447700185	0.192718505859375	0.19281005859375	1.41143798828125E-06	2.72139430990137E-07	136605.40625	3.78055774490349E-05
2	378	91.1912527697642	0.202789306640625	0.202789306640625	1.3671875E-06	2.77250990166067E-07	148325.890625	3.79454904759768E-05
2	379	91.29196076951	0.212860107421875	0.212860107421875	1.3275146484375E-06	2.82574916354861E-07	160344.828125	3.80811798095237E-05
2	380	91.3926687692557	0.222930908203125	0.222930908203125	1.29302978515625E-06	2.88256302383161E-07	172409.734375	3.82131329388358E-05
2	381	91.4933767690014	0.233001708984375	0.2330322265625	1.26220703125E-06	2.94134906653198E-07	184622.828125	3.8341800973285E-05
2	382	91.5940847687472	0.243072509765625	0.24310302734375	1.23504638671875E-06	3.00243527817656E-07	196837.15625	3.84675477107521E-05
2	383	91.6947927684929	0.253143310546875	0.253143310546875	1.2103271484375E-06	3.06386226611721E-07	209152.796875	3.85906823794357E-05
2	384	91.7955007682386	0.263214111328125	0.263214111328125	1.1883544921875E-06	3.12791655687761E-07	221494.625	3.871146691381E-05
2	385	91.8962087679844	0.273284912109375	0.2733154296875	1.1688232421875E-06	3.19457427622183E-07	233838.125	3.88301596103702E-05
2	386	91.9969167677301	0.283355712890625	0.283355712890625	1.1517333984375E-06	3.26350232171535E-07	246025.4375	3.89470078516752E-05
2	387	92.0976247674758	0.293426513671875	0.29339599609375	1.13555908203125E-06	3.33168486577051E-07	258371.40625	3.90621826227289E-05
2	388	92.1983327672216	0.303497314453125	0.303436279296875	1.12152099609375E-06	3.40310151614176E-07	270557.8125	3.91758367186412E-05
2	389	92.2990407669673	0.313568115234375	0.313629150390625	1.10870361328125E-06	3.47721766047471E-07	282879.15625	3.92881374864373E-05
2	390	92.3997487667131	0.323638916015625	0.323699951171875	1.09710693359375E-06	3.55133437324184E-07	295048.6875	3.93992086173967E-05
2	391	92.5004567664588	0.333709716796875	0.333740234375	1.08673095703125E-06	3.62685824484288E-07	307104.75	3.95091738027986E-05
2	392	92.6011647662045	0.343780517578125	0.343841552734375	1.0772705078125E-06	3.70410333516702E-07	319178.5	3.96181385440286E-05
2	393	92.7018727659503	0.353851318359375	0.3538818359375	1.06903076171875E-06	3.78310573978524E-07	331030.53125	3.97262119804509E-05
2	394	92.802580765696	0.363922119140625	0.363922119140625	1.06170654296875E-06	3.86378474104276E-07	342770.9375	3.98335032514296E-05
2	395	92.9032887654417	0.373992919921875	0.37396240234375	1.05560302734375E-06	3.94755829802307E-07	354264.25	3.99401178583503E-05
2	396	93.0039967651875	0.384063720703125	0.38409423828125	1.0498046875E-06	4.03223907596839E-07	365872.125	4.00461358367465E-05
2	397	93.1047047649332	0.394134521484375	0.394134521484375	1.044921875E-06	4.1183977828041E-07	377190.40625	4.01516117563006E-05
2	398	93.205412764679	0.404205322265625	0.404205322265625	1.0406494140625E-06	4.20636041553735E-07	388416.4375	4.02566292905249E-05
2	399	93.3061207644247	0.414276123046875	0.41424560546875	1.03729248046875E-06	4.29693841397238E-07	399352.75	4.03612611989956E-05
2	400	93.4068287641704	0.424346923828125	0.424346923828125	1.0345458984375E-06	4.39006385022367E-07	410177	4.04655875172466E-05
2	401	93.5075367639162	0.434417724609375	0.434417724609375	1.03271484375E-06	4.48629634774989E-07	420656.03125	4.05696810048539E-05
2	402	93.6082447636619	0.444488525390625	0.444488525390625	1.03118896484375E-06	4.58351649967881E-07	431044.6875	4.06736071454361E-05
2	403	93.7089527634076	0.454559326171875	0.454620361328125	1.02996826171875E-06	4.68244508056159E-07	441392.625	4.07773950428236E-05
2	404	93.8096607631534	0.464630126953125	0.464630126953125	1.02935791015625E-06	4.78270692383376E-07	451378.59375	4.0881091990741E-05
2	405	93.9103687628991	0.474700927734375	0.474700927734375	1.0296630859375E-06	4.8878200686886E-07	461025.5	4.09847707487643E-05
2	406	94.0110767626448	0.484771728515625	0.484771728515625	1.0296630859375E-06	4.99151553867705E-07	470806.1875	4.10884676966816E-05
2	407	94.1117847623906	0.494842529296875	0.494873046875	1.0302734375E-06	5.09854544361588E-07	480331.75	4.11921937484294E-05
2	408	94.2124927621363	0.504913330078125	0.5048828125	1.03179931640625E-06	5.2093776048423E-07	489322.6875	4.12960253015626E-05
2	409	94.3132007618821	0.514984130859375	0.514923095703125	1.03363037109375E-06	5.3224016483E-07	498169.46875	4.14000278396998E-05
2	410	94.4139087616278	0.525054931640625	0.525054931640625	1.03607177734375E-06	5.43994588042551E-07	506774.65625	4.15042450185865E-05
2	411	94.5146167613735	0.535125732421875	0.535125732421875	1.03912353515625E-06	5.56061706902256E-07	514978	4.16087423218414E-05
2	412	94.6153247611193	0.545196533203125	0.54510498046875	1.043701171875E-06	5.6892667998909E-07	522280.75	4.17136179748923E-05
2	413	94.716032760865	0.555267333984375	0.55517578125	1.0491943359375E-06	5.82487302835943E-07	529144.875	4.18190065829549E-05
2	414	94.8167407606107	0.565338134765625	0.5653076171875	1.05560302734375E-06	5.96740392211359E-07	535530.5	4.19249918195419E-05
2	415	94.9174487603565	0.575408935546875	0.57537841796875	1.0638427734375E-06	6.12112160069955E-07	540849.125	4.20317119278479E-05
2	416	95.0181567601022	0.585479736328125	0.58551025390625	1.07513427734375E-06	6.29502153515205E-07	544592.6875	4.21394179284107E-05
2	417	95.118864759848	0.595550537109375	0.595489501953125	1.0888671875E-06	6.48408956749336E-07	546889	4.22483863076195E-05
2	418	95.2195727595937	0.605621337890625	0.6055908203125	1.1065673828125E-06	6.70127008106647E-07	547269.75	4.23589335696306E-05
2	419	95.3202807593394	0.615692138671875	0.61566162109375	1.13006591796875E-06	6.95738208378316E-07	544801.5	4.24715581175406E-05
2	420	95.4209887590852	0.625762939453125	0.625701904296875	1.162109375E-06	7.27134022326936E-07	538419.125	4.25869766331743E-05
2	421	95.5216967588309	0.635833740234375	0.635772705078125	1.20635986328125E-06	7.66970629229036E-07	527017.5	4.27062404924072E-05
2	422	95.6224047585766	0.645904541015625	0.645843505859375	1.26678466796875E-06	8.18144599179504E-07	509829	4.28307721449528E-05
2	423	95.7231127583224	0.655975341796875	0.6558837890625	1.34979248046875E-06	8.85306974396372E-07	485914.53125	4.29625288234092E-05
2	424	95.8238207580681	0.666046142578125	0.665985107421875	1.46087646484375E-06	9.7292195277987E-07	455880.53125	4.31040571129415E-05
2	425	95.9245287578138	0.676116943359375	0.676055908203125	1.60369873046875E-06	1.08418998934212E-06	421560.4375	4.32583692600019E-05
2	426	96.0252367575596	0.686187744140625	0.6861572265625	1.77764892578125E-06	1.21974665034941E-06	385991.4375	4.34286339441314E-05
2	427	96.1259447573053	0.696258544921875	0.696197509765625	1.97723388671875E-06	1.37654524223763E-06	352106.84375	4.36177069786936E-05
2	428	96.2266527570511	0.706329345703125	0.706298828125	2.188720703125E-06	1.54589076828415E-06	322699.40625	4.38274801126681E-05
2	429	96.3273607567968	0.716400146484375	0.71630859375	2.39227294921875E-06	1.7136055703304E-06	299425.96875	4.40581497969106E-05
2	430	96.4280687565425	0.726470947265625	0.726348876953125	2.5677490234375E-06	1.86508145816333E-06	282873.8125	4.43079079559539E-05
2	431	96.5287767562883	0.736541748046875	0.73651123046875	2.69866943359375E-06	1.98760017156019E-06	272916.4375	4.45730911451392E-05
2	432	96.629484756034	0.746612548828125	0.746551513671875	2.779541015625E-06	2.07507036975585E-06	268588.0625	4.48489408881869E-05
2	433	96.7301927557797	0.756683349609375	0.7568359375	2.81036376953125E-06	2.12698409995937E-06	269301.78125	4.51304149464704E-05
2	434	96.8309007555255	0.766754150390625	0.76690673828125	2.80242919921875E-06	2.14920191865531E-06	273657.84375	4.54130422440358E-05
2	435	96.9316087552712	0.776824951171875	0.7769775390625	2.7685546875E-06	2.15110480894509E-06	280643.75	4.56935631518718E-05
2	436	97.032316755017	0.786895751953125	0.787353515625	2.72125244140625E-06	2.14258761843666E-06	289334.96875	4.59699986095075E-05
2	437	97.1330247547627	0.796966552734375	0.797119140625	2.6702880859375E-06	2.12853774428368E-06	298514.28125	4.62414827779867E-05
2	438	97.2337327545084	0.807037353515625	0.80718994140625	2.62176513671875E-06	2.11626252166752E-06	307880.34375	4.65079610876273E-05
2	439	97.3344407542542	0.817108154296875	0.81695556640625	2.58087158203125E-06	2.10845746551058E-06	316542.53125	4.6769931941526E-05
2	440	97.4351487539999	0.827178955078125	0.82733154296875	2.55096435546875E-06	2.1104933694005E-06	324321.09375	4.70283412141725E-05
2	441	97.5358567537456	0.837249755859375	0.83740234375	2.53326416015625E-06	2.12136114896566E-06	330562.59375	4.72843530587852E-05
2	442	97.6365647534914	0.847320556640625	0.84716796875	2.52838134765625E-06	2.14196347769757E-06	335063.375	4.75392262160312E-05
2	443	97.7372727532371	0.857391357421875	0.85723876953125	2.5360107421875E-06	2.17396677726356E-06	338026.46875	4.77942412544508E-05
2	444	97.8379807529828	0.867462158203125	0.8673095703125	2.5543212890625E-06	2.21538743971905E-06	339546	4.80505586892832E-05
2	445	97.9386887527286	0.877532958984375	0.877685546875	2.57720947265625E-06	2.26197948904883E-06	340556.53125	4.83089497720357E-05
2	446	98.0393967524743	0.887603759765625	0.8880615234375	2.60101318359375E-06	2.30985983762366E-06	341429.0625	4.85696946270764E-05
2	447	98.1401047522201	0.897674560546875	0.89752197265625	2.6202392578125E-06	2.35172228713054E-06	342534.375	4.88326077174861E-05
2	448	98.2408127519658	0.907745361328125	0.90789794921875	2.63092041015625E-06	2.38860707213462E-06	345087.59375	4.90970232931431E-05
2	449	98.3415207517115	0.917816162109375	0.91766357421875	2.63275146484375E-06	2.41598013417388E-06	348556.875	4.93620718771126E-05
2	450	98.4422287514573	0.927886962890625	0.92742919921875	2.6275634765625E-06	2.43687895817857E-06	352961.6875	4.96269494760782E-05
2	451	98.542936751203	0.937957763671875	0.93841552734375	2.61932373046875E-06	2.45801402343204E-06	358266.34375	4.98911504109856E-05
2	452	98.6436447509487	0.948028564453125	0.948486328125	2.61138916015625E-06	2.47686693910509E-06	363211.40625	5.01545364386402E-05
2	453	98.7443527506945	0.958099365234375	0.958251953125	2.6080322265625E-06	2.49915206040896E-06	367423.34375	5.04173549416009E-05
2	454	98.8450607504402	0.968170166015625	0.96832275390625	2.613525390625E-06	2.53073608291743E-06	370504.4375	5.06802825839259E-05
2	455	98.9457687501859	0.978240966796875	0.9783935546875	2.633056640625E-06	2.57616557064466E-06	371580.90625	5.09444689669181E-05
2	456	99.0464767499317	0.988311767578125	0.9881591796875	2.67059326171875E-06	2.63897118202294E-06	370014.875	5.12115293531679E-05
2	457	99.1471847496774	0.998382568359375	0.99822998046875	2.72857666015625E-06	2.7237470021646E-06	365842.75	5.14833991474006E-05
2	458	99.2478927494232	1.00845336914063	1.00860595703125	2.81097412109375E-06	2.83516533272632E-06	358810.125	5.17623375344556E-05
2	459	99.3486007491689	1.01852416992188	1.01837158203125	2.91717529296875E-06	2.97076826427656E-06	349095.125	5.2050771046197E-05
2	460	99.4493087489146	1.02859497070313	1.029052734375	3.0401611328125E-06	3.12848601424776E-06	338486.25	5.23507478646934E-05
2	461	99.5500167486604	1.03866577148438	1.0382080078125	3.170166015625E-06	3.29129170495435E-06	327493.28125	5.26634612469934E-05
2	462	99.6507247484061	1.04873657226563	1.04888916015625	3.29254150390625E-06	3.45351099895197E-06	318565.21875	5.29888857272454E-05
2	463	99.7514327481518	1.05880737304688	1.05865478515625	3.39263916015625E-06	3.59163345819979E-06	312044.625	5.33255115442444E-05
2	464	99.8521407478976	1.06887817382813	1.0687255859375	3.45855712890625E-06	3.69624854101858E-06	309009.09375	5.36704974365421E-05
2	465	99.9528487476433	1.07894897460938	1.07879638671875	3.48846435546875E-06	3.76334264728939E-06	309246.78125	5.4020307288738E-05
2	466	100.053556747389	1.08901977539063	1.08917236328125	3.48480224609375E-06	3.79555012841593E-06	312549.28125	5.43714377272408E-05
2	467	100.154264747135	1.09909057617188	1.0992431640625	3.45611572265625E-06	3.79911148229439E-06	318057.40625	5.4720941989217E-05
2	468	100.254972746881	1.10916137695313	1.1090087890625	3.41064453125E-06	3.78243476006901E-06	325161.0625	5.50667100469582E-05
2	469	100.355680746626	1.11923217773438	1.11907958984375	3.3563232421875E-06	3.75599256585701E-06	333424.28125	5.54074540559668E-05
2	470	100.456388746372	1.12930297851563	1.12945556640625	3.29803466796875E-06	3.72498334400007E-06	342463.25	5.57425264560152E-05
2	471	100.557096746118	1.13937377929688	1.14013671875	3.240966796875E-06	3.69514509657165E-06	351789.09375	5.60717926418874E-05
2	472	100.657804745863	1.14944458007813	1.1492919921875	3.1866455078125E-06	3.66238623428217E-06	360658.875	5.63954490644392E-05
2	473	100.758512745609	1.15951538085938	1.15997314453125	3.13629150390625E-06	3.63801405001141E-06	369855	5.67138340556994E-05
2	474	100.859220745355	1.16958618164063	1.16912841796875	3.0902099609375E-06	3.61285219696583E-06	378333	5.70273623452522E-05
2	475	100.959928745101	1.17965698242188	1.1798095703125	3.04901123046875E-06	3.59725254384102E-06	386948.25	5.7336495956406E-05
2	476	101.060636744846	1.18972778320313	1.1895751953125	3.01116943359375E-06	3.58201236849709E-06	395054.21875	5.76416532567237E-05
2	477	101.161344744592	1.19979858398438	1.19964599609375	2.97821044921875E-06	3.57279827767343E-06	402807.65625	5.79432416998316E-05
2	478	101.262052744338	1.20986938476563	1.21002197265625	2.9486083984375E-06	3.56788109456829E-06	410370.53125	5.82416796532925E-05
2	479	101.362760744084	1.21994018554688	1.21978759765625	2.9229736328125E-06	3.56540704160579E-06	417310.5	5.85373381909449E-05
2	480	101.463468743829	1.23001098632813	1.23016357421875	2.8997802734375E-06	3.56720397576282E-06	424226.5	5.88305374549236E-05
2	481	101.564176743575	1.24008178710938	1.23992919921875	2.87933349609375E-06	3.57016938323795E-06	430630.65625	5.91215393797029E-05
2	482	101.664884743321	1.25015258789063	1.25	2.8619384765625E-06	3.57742283085827E-06	436766.90625	5.94106350035872E-05
2	483	101.765592743067	1.26022338867188	1.2603759765625	2.8466796875E-06	3.58788656740217E-06	442753.03125	5.96980862610508E-05
2	484	101.866300742812	1.27029418945313	1.2701416015625	2.83416748046875E-06	3.59979389941145E-06	448153.34375	5.99841405346524E-05
2	485	101.967008742558	1.28036499023438	1.280517578125	2.8240966796875E-06	3.61630532097479E-06	453425.5625	6.02690561208874E-05
2	486	102.067716742304	1.29043579101563	1.290283203125	2.816162109375E-06	3.63364665645349E-06	458170.78125	6.05530658503994E-05
2	487	102.16842474205	1.30050659179688	1.30035400390625	2.81005859375E-06	3.65407072422386E-06	462749.8125	6.08363698120229E-05
2	488	102.269132741795	1.31057739257813	1.31011962890625	2.806396484375E-06	3.67671509593492E-06	466833.40625	6.11191790085286E-05
2	489	102.369840741541	1.32064819335938	1.32049560546875	2.80548095703125E-06	3.70462498722191E-06	470684.25	6.14017626503482E-05
2	490	102.470548741287	1.33071899414063	1.33056640625	2.80670166015625E-06	3.73450279766985E-06	474067.65625	6.16843535681255E-05
2	491	102.571256741032	1.34078979492188	1.34063720703125	2.8094482421875E-06	3.7664508454327E-06	477188.78125	6.1967148212716E-05
2	492	102.671964740778	1.35086059570313	1.3507080078125	2.81463623046875E-06	3.80175174541364E-06	479887.25	6.22503430349752E-05
2	493	102.772672740524	1.36093139648438	1.36077880859375	2.8216552734375E-06	3.83964879802079E-06	482262.59375	6.25341563136317E-05
2	494	102.87338074027	1.37100219726563	1.37115478515625	2.830810546875E-06	3.88147918783943E-06	484368.28125	6.28187772235833E-05
2	495	102.974088740015	1.38107299804688	1.38092041015625	2.84149169921875E-06	3.92387346437317E-06	485984.34375	6.31044022156857E-05
2	496	103.074796739761	1.39114379882813	1.3909912109375	2.85369873046875E-06	3.96946961700451E-06	487434.53125	6.33911768090911E-05
2	497	103.175504739507	1.40121459960938	1.40228271484375	2.8668212890625E-06	4.02009391109459E-06	489142.03125	6.36792319710366E-05
2	498	103.276212739253	1.41128540039063	1.4111328125	2.88177490234375E-06	4.06656727136578E-06	489674.90625	6.39686913928017E-05
2	499	103.376920738998	1.42135620117188	1.42120361328125	2.89825439453125E-06	4.11900919061736E-06	490365.40625	6.42597442492843E-05
2	500	103.477628738744	1.43142700195313	1.4312744140625	2.91595458984375E-06	4.17353112425189E-06	490842.5	6.45525142317638E-05
2	501	103.57833673849	1.44149780273438	1.4410400390625	2.9351806640625E-06	4.22971288571716E-06	490954.46875	6.48471395834349E-05
2	502	103.679044738236	1.45156860351563	1.451416015625	2.9559326171875E-06	4.29028796133935E-06	491017.96875	6.51437803753652E-05
2	503	103.779752737981	1.46163940429688	1.46148681640625	2.9803466796875E-06	4.35573747381568E-06	490374.78125	6.54426985420287E-05
2	504	103.880460737727	1.47171020507813	1.47125244140625	3.01055908203125E-06	4.42929240307421E-06	488697.40625	6.57443597447127E-05
2	505	103.981168737473	1.48178100585938	1.48193359375	3.05267333984375E-06	4.52385893368046E-06	485454.375	6.60496662021615E-05
2	506	104.081876737219	1.49185180664063	1.49139404296875	3.1134033203125E-06	4.64331105831661E-06	479023.75	6.63601531414315E-05
2	507	104.182584736964	1.50192260742188	1.5020751953125	3.194580078125E-06	4.79849904877483E-06	470194.90625	6.66777850710787E-05
2	508	104.28329273671	1.49185180664063	1.49169921875	2.94952392578125E-06	4.39980249211658E-06	505742.375	6.69871660647914E-05
2	509	104.384000736456	1.48178100585938	1.48193359375	2.7764892578125E-06	4.11457267546211E-06	533743.6875	6.72754977131262E-05
2	510	104.484708736201	1.47171020507813	1.4715576171875	2.6434326171875E-06	3.88996340916492E-06	556684.375	6.75484116072766E-05
2	511	104.585416735947	1.46163940429688	1.46209716796875	2.53814697265625E-06	3.71101737073332E-06	576049.0625	6.78093274473213E-05
2	512	104.686124735693	1.45156860351563	1.451416015625	2.45391845703125E-06	3.56165628545568E-06	591468.75	6.80606972309761E-05
2	513	104.786832735439	1.44149780273438	1.44134521484375	2.3846435546875E-06	3.43709439221129E-06	604427.9375	6.8304332671687E-05
2	514	104.887540735184	1.43142700195313	1.4312744140625	2.3272705078125E-06	3.3309627269773E-06	615001.3125	6.85416016494855E-05
2	515	104.98824873493	1.42135620117188	1.4208984375	2.27783203125E-06	3.23656786349602E-06	623794.25	6.87734864186496E-05
2	516	105.088956734676	1.41128540039063	1.41143798828125	2.235107421875E-06	3.15471538669954E-06	631485.5625	6.90007291268557E-05
2	517	105.189664734422	1.40121459960938	1.4013671875	2.19696044921875E-06	3.07874825011822E-06	637866.375	6.92239045747556E-05
2	518	105.290372734167	1.39114379882813	1.3909912109375	2.1624755859375E-06	3.00798456009943E-06	643240.1875	6.94434202159755E-05
2	519	105.391080733913	1.38107299804688	1.3812255859375	2.13104248046875E-06	2.94345045404043E-06	648145.5	6.96596107445657E-05
2	520	105.491788733659	1.37100219726563	1.370849609375	2.10174560546875E-06	2.88117712443636E-06	652243.375	6.98727526469156E-05
2	521	105.592496733405	1.36093139648438	1.361083984375	2.073974609375E-06	2.82285373032209E-06	656268.375	7.00830132700503E-05
2	522	105.69320473315	1.35086059570313	1.35040283203125	2.04803466796875E-06	2.76567152468488E-06	659365.25	7.02905745129101E-05
2	523	105.793912732896	1.34078979492188	1.34063720703125	2.02392578125E-06	2.71334988610761E-06	662394.5	7.04956109984778E-05
2	524	105.894620732642	1.33071899414063	1.33056640625	2.00042724609375E-06	2.66170127360965E-06	665141.125	7.06982536939904E-05
2	525	105.995328732388	1.32064819335938	1.32049560546875	1.97845458984375E-06	2.61254058386839E-06	667437.9375	7.08986117388122E-05
2	526	106.096036732133	1.31057739257813	1.31072998046875	1.9573974609375E-06	2.56561952483025E-06	669628.9375	7.10967942723073E-05
2	527	106.196744731879	1.30050659179688	1.30035400390625	1.9366455078125E-06	2.51832466346968E-06	671446.5625	7.12928740540519E-05
2	528	106.297452731625	1.29043579101563	1.290283203125	1.917724609375E-06	2.47440789280517E-06	672819.875	7.14869602234103E-05
2	529	106.39816073137	1.28036499023438	1.28021240234375	1.8988037109375E-06	2.43087197304703E-06	674220.5	7.16791328159161E-05
2	530	106.498868731116	1.27029418945313	1.26983642578125	1.8798828125E-06	2.38714369515947E-06	675487	7.18694063834846E-05
2	531	106.599576730862	1.26022338867188	1.2603759765625	1.86279296875E-06	2.34781941799156E-06	676605.5	7.20578682376072E-05
2	532	106.700284730608	1.25015258789063	1.25	1.8463134765625E-06	2.3078919184627E-06	677024.8125	7.22446347936057E-05
2	533	106.800992730353	1.24008178710938	1.23992919921875	1.82952880859375E-06	2.26848601414531E-06	677731.4375	7.24297278793529E-05
2	534	106.901700730099	1.23001098632813	1.23016357421875	1.81304931640625E-06	2.23034726332116E-06	678505.3125	7.26131474948488E-05
2	535	107.002408729845	1.21994018554688	1.2200927734375	1.7974853515625E-06	2.19309890781005E-06	678777.625	7.27949518477544E-05
2	536	107.103116729591	1.20986938476563	1.20941162109375	1.781005859375E-06	2.15396926250833E-06	679061	7.29751409380697E-05
2	537	107.203824729336	1.19979858398438	1.19964599609375	1.76483154296875E-06	2.117172925864E-06	679751	7.31536929379217E-05
2	538	107.304532729082	1.18972778320313	1.1895751953125	1.748046875E-06	2.07943321584025E-06	680516.75	7.33305787434801E-05
2	539	107.405240728828	1.17965698242188	1.17950439453125	1.73095703125E-06	2.04167145056999E-06	681417.5	7.35057619749568E-05
2	540	107.505948728574	1.16958618164063	1.16973876953125	1.71112060546875E-06	2.00156409846386E-06	683609.75	7.36790825612843E-05
2	541	107.606656728319	1.15951538085938	1.15936279296875	1.68975830078125E-06	1.95904294741922E-06	686111.625	7.38503294996917E-05
2	542	107.707364728065	1.14944458007813	1.1492919921875	1.66473388671875E-06	1.91326535059488E-06	690375.8125	7.4019240855705E-05
2	543	107.808072727811	1.13937377929688	1.138916015625	1.634521484375E-06	1.86158274573245E-06	696788.625	7.41853727959096E-05
2	544	107.908780727557	1.12930297851563	1.12884521484375	1.59759521484375E-06	1.80343772626657E-06	706590.25	7.43481214158237E-05
2	545	108.009488727302	1.11923217773438	1.11907958984375	1.5509033203125E-06	1.73558430560661E-06	721566.3125	7.45066645322368E-05
2	546	108.110196727048	1.10916137695313	1.10931396484375	1.490478515625E-06	1.65340850344364E-06	744267.0625	7.46598088881001E-05
2	547	108.210904726794	1.09909057617188	1.09893798828125	1.4129638671875E-06	1.55275961333246E-06	777753.8125	7.48060047044419E-05
2	548	108.311612726539	1.08901977539063	1.08917236328125	1.3140869140625E-06	1.43126703733287E-06	828843.5	7.49433238524944E-05
2	549	108.412320726285	1.07894897460938	1.0791015625	1.1920166015625E-06	1.28630699691712E-06	905273.9375	7.50695180613548E-05
2	550	108.513028726031	1.06887817382813	1.06903076171875	1.04736328125E-06	1.11966357962956E-06	1020687.625	7.51822808524594E-05
2	551	108.613736725777	1.05880737304688	1.05926513671875	8.8623046875E-07	9.38753032642126E-07	1195248	7.52796404412948E-05
2	552	108.714444725522	1.04873657226563	1.048583984375	7.19299316406249E-07	7.54245718326274E-07	1457785.375	7.53604908823036E-05
2	553	108.815152725268	1.03866577148438	1.03851318359375	5.62438964843751E-07	5.84100291689538E-07	1846446	7.54250286263414E-05
2	554	108.915860725014	1.02859497070313	1.029052734375	4.28466796875E-07	4.40914931232328E-07	2401709.5	7.54749271436594E-05
2	555	109.01656872476	1.01852416992188	1.0186767578125	3.30810546875E-07	3.36989018023814E-07	3079336	7.55131550249644E-05
2	556	109.117276724505	1.00845336914063	1.00860595703125	2.70690917968749E-07	2.7302047556077E-07	3726042.75	7.55434448365122E-05
2	557	109.217984724251	0.998382568359375	0.99853515625	2.47802734374999E-07	2.47439714939901E-07	4029557	7.55695509724319E-05
2	558	109.318692723997	0.988311767578125	0.987548828125	2.5360107421875E-07	2.50443434879344E-07	3894103.75	7.55947985453531E-05
2	559	109.419400723743	0.978240966796875	0.97808837890625	2.79846191406249E-07	2.73714306331385E-07	3495093	7.56216613808647E-05
2	560	109.520108723488	0.968170166015625	0.96832275390625	3.1402587890625E-07	3.04078383805972E-07	3083576.5	7.5651565566659E-05
2	561	109.620816723234	0.958099365234375	0.95855712890625	3.46984863281249E-07	3.32604798813918E-07	2762533	7.56848530727439E-05
2	562	109.72152472298	0.948028564453125	0.948486328125	3.7078857421875E-07	3.51687901911646E-07	2558024.75	7.57209927542135E-05
2	563	109.822232722726	0.937957763671875	0.9381103515625	3.8330078125E-07	3.59578422148843E-07	2447452.25	7.57589659770019E-05
2	564	109.922940722471	0.927886962890625	0.92803955078125	3.82385253906251E-07	3.54868632257421E-07	2426975.25	7.57975212763995E-05
2	565	110.023648722217	0.917816162109375	0.91766357421875	3.6773681640625E-07	3.37458686772152E-07	2495435.75	7.58352907723747E-05
2	566	110.124356721963	0.907745361328125	0.908203125	3.40576171875E-07	3.0931232686271E-07	2666666.75	7.58709575165994E-05
2	567	110.225064721708	0.897674560546875	0.89752197265625	3.01208496093749E-07	2.70341246277894E-07	2979736.5	7.59032773203216E-05
2	568	110.325772721454	0.887603759765625	0.88714599609375	2.5604248046875E-07	2.27147069153943E-07	3464839	7.59313334128819E-05
2	569	110.4264807212	0.877532958984375	0.87738037109375	2.09960937500001E-07	1.84215593890258E-07	4178779.25	7.59547983761877E-05
2	570	110.527188720946	0.867462158203125	0.86761474609375	1.690673828125E-07	1.46685351865017E-07	5131769	7.59738832130097E-05
2	571	110.627896720691	0.857391357421875	0.8575439453125	1.3885498046875E-07	1.19074243798423E-07	6175824.5	7.59893882786855E-05
2	572	110.728604720437	0.847320556640625	0.84716796875	1.2359619140625E-07	1.04706735726268E-07	6854321	7.60026086936705E-05
2	573	110.829312720183	0.837249755859375	0.8380126953125	1.1871337890625E-07	9.94833158074471E-08	7059126.5	7.60148104745895E-05
2	574	110.930020719929	0.827178955078125	0.82794189453125	1.22680664062499E-07	1.01572460664556E-07	6748756.5	7.60269613238052E-05
2	575	111.030728719674	0.817108154296875	0.8172607421875	1.28173828125E-07	1.04751435969774E-07	6376190.5	7.60395923862234E-05
2	576	111.13143671942	0.807037353515625	0.80657958984375	1.300048828125E-07	1.04859282146208E-07	6204225.5	7.60525945224799E-05
2	577	111.232144719166	0.796966552734375	0.7965087890625	1.21154785156249E-07	9.65008482012308E-08	6574307.5	7.60652401368134E-05
2	578	111.332852718912	0.786895751953125	0.7867431640625	9.613037109375E-08	7.56299129989202E-08	8184127	7.60761831770651E-05
2	579	111.433560718657	0.776824951171875	0.7769775390625	5.00488281250003E-08	3.88868137690679E-08	15524391	7.60835464461707E-05
2	580	111.534268718403	0.766754150390625	0.7666015625	-2.41088867187503E-08	-1.84819093362876E-08	-31797470	7.60848488425836E-05
2	581	111.634976718149	0.756683349609375	0.7568359375	-1.312255859375E-07	-9.93162316831331E-08	-5767442.5	7.60770271881483E-05
2	582	111.735684717895	0.746612548828125	0.746551513671875	-2.7435302734375E-07	-2.04818661586614E-07	-2721134.5	7.60566035751253E-05
2	583	111.83639271764	0.736541748046875	0.7364501953125	-4.50744628906249E-07	-3.31950957388472E-07	-1633852.5	7.60200928198174E-05
2	584	111.937100717386	0.726470947265625	0.72637939453125	-6.5032958984375E-07	-4.7238600586752E-07	-1116940.375	7.59646500227973E-05
2	585	112.037808717132	0.716400146484375	0.716278076171875	-8.5601806640625E-07	-6.13146994510316E-07	-836755.8125	7.58887981646694E-05
2	586	112.138516716877	0.706329345703125	0.70623779296875	-1.04705810546875E-06	-7.39471943234093E-07	-674497.25	7.57929738028906E-05
2	587	112.239224716623	0.696258544921875	0.696197509765625	-1.2017822265625E-06	-8.36677770621463E-07	-579304.25	7.56797307985835E-05
2	588	112.339932716369	0.686187744140625	0.686126708984375	-1.30462646484375E-06	-8.95139010026469E-07	-525918.1875	7.55535293137655E-05
2	589	112.440640716115	0.676116943359375	0.676025390625	-1.35406494140625E-06	-9.15382258881436E-07	-499256.25	7.54196516936645E-05
2	590	112.54134871586	0.666046142578125	0.665924072265625	-1.3555908203125E-06	-9.02720557860448E-07	-491242.6875	7.52832056605257E-05
2	591	112.642056715606	0.655975341796875	0.6558837890625	-1.32080078125E-06	-8.66291770762473E-07	-496580.4375	7.51484403735958E-05
2	592	112.742764715352	0.645904541015625	0.645751953125	-1.26129150390625E-06	-8.14481438737857E-07	-511976.78125	7.50184190110303E-05
2	593	112.843472715098	0.635833740234375	0.635772705078125	-1.190185546875E-06	-7.56687484226859E-07	-534179.5	7.48949823901057E-05
2	594	112.944180714843	0.625762939453125	0.625701904296875	-1.11358642578125E-06	-6.96773156505515E-07	-561879.9375	7.47789745219052E-05
2	595	113.044888714589	0.615692138671875	0.61566162109375	-1.0369873046875E-06	-6.38433277799777E-07	-593702.1875	7.46706864447333E-05
2	596	113.145596714335	0.605621337890625	0.605560302734375	-9.6466064453125E-07	-5.84160204653017E-07	-627744.375	7.4569892603904E-05
2	597	113.246304714081	0.595550537109375	0.59552001953125	-8.9691162109375E-07	-5.34128844265069E-07	-663967.3125	7.44761564419605E-05
2	598	113.347012713826	0.585479736328125	0.585418701171875	-8.3587646484375E-07	-4.89337708131643E-07	-700365.125	7.43889031582512E-05
2	599	113.447720713572	0.575408935546875	0.575408935546875	-7.794189453125E-07	-4.48484627213475E-07	-738253.75	7.43075652280822E-05
2	600	113.548428713318	0.565338134765625	0.565338134765625	-7.28454589843749E-07	-4.11823151580393E-07	-776078.8125	7.42316406103782E-05
2	601	113.649136713064	0.555267333984375	0.555206298828125	-6.8206787109375E-07	-3.78688383761983E-07	-814004.4375	7.41606127121486E-05
2	602	113.749844712809	0.545196533203125	0.545196533203125	-6.39953613281249E-07	-3.48900499602678E-07	-851931.3125	7.40940449759364E-05
2	603	113.850552712555	0.535125732421875	0.53509521484375	-6.0150146484375E-07	-3.21860539997942E-07	-889599.25	7.4031537224073E-05
2	604	113.951260712301	0.525054931640625	0.525054931640625	-5.6640625E-07	-2.97394393555805E-07	-926993.5625	7.39727256586775E-05
2	605	114.051968712046	0.514984130859375	0.514984130859375	-5.3375244140625E-07	-2.74874025762983E-07	-964837.0625	7.39173265174031E-05
2	606	114.152676711792	0.504913330078125	0.504913330078125	-5.0384521484375E-07	-2.54398173638037E-07	-1002119.875	7.38650778657757E-05
2	607	114.253384711538	0.494842529296875	0.494781494140625	-4.7576904296875E-07	-2.35401714121508E-07	-1039961.5	7.38157541491091E-05
2	608	114.354092711284	0.484771728515625	0.484771728515625	-4.5013427734375E-07	-2.18212377944837E-07	-1076949.125	7.37691298127174E-05
2	609	114.454800711029	0.474700927734375	0.474700927734375	-4.254150390625E-07	-2.01944914124397E-07	-1115853.625	7.37250447855331E-05
2	610	114.555508710775	0.464630126953125	0.464599609375	-4.0252685546875E-07	-1.87013810659664E-07	-1154207.75	7.36833535484038E-05
2	611	114.656216710521	0.454559326171875	0.45452880859375	-3.802490234375E-07	-1.72834134559707E-07	-1195345.125	7.36439396860078E-05
2	612	114.756924710267	0.444488525390625	0.4444580078125	-3.59191894531249E-07	-1.596457082087E-07	-1237383.25	7.36067013349384E-05
2	613	114.857632710012	0.434417724609375	0.434417724609375	-3.3905029296875E-07	-1.4728945529896E-07	-1281278.25	7.35715439077467E-05
2	614	114.958340709758	0.424346923828125	0.424346923828125	-3.19519042968749E-07	-1.35586930127829E-07	-1328080.25	7.35383800929412E-05
2	615	115.059048709504	0.414276123046875	0.414276123046875	-2.99987792968751E-07	-1.24277775626069E-07	-1380976.625	7.35071880626492E-05
2	616	115.15975670925	0.404205322265625	0.40423583984375	-2.81982421875E-07	-1.13987397298843E-07	-1433549.875	7.34778805053793E-05
2	617	115.260464708995	0.394134521484375	0.394134521484375	-2.6397705078125E-07	-1.04042470638888E-07	-1493063.5	7.34503919375129E-05
2	618	115.361172708741	0.384063720703125	0.384063720703125	-2.4688720703125E-07	-9.48204146311582E-08	-1555624.25	7.34246714273468E-05
2	619	115.461880708487	0.373992919921875	0.373992919921875	-2.30712890625E-07	-8.62849844907032E-08	-1621031.75	7.34006171114743E-05
2	620	115.562588708233	0.363922119140625	0.36395263671875	-2.1514892578125E-07	-7.83040121632439E-08	-1691631.25	7.33781707822345E-05
2	621	115.663296707978	0.353851318359375	0.353851318359375	-2.01416015625E-07	-7.12713230655027E-08	-1756818.25	7.33571941964328E-05
2	622	115.764004707724	0.343780517578125	0.34375	-1.88598632812501E-07	-6.48307789674618E-08	-1822653.75	7.33375563868321E-05
2	623	115.86471270747	0.333709716796875	0.33367919921875	-1.77001953125E-07	-5.90618682849708E-08	-1885172.5	7.33191409381106E-05
2	624	115.965420707215	0.323638916015625	0.323638916015625	-1.6632080078125E-07	-5.38278825956695E-08	-1945871.5	7.33018532628193E-05
2	625	116.066128706961	0.313568115234375	0.3135986328125	-1.568603515625E-07	-4.91911933409028E-08	-1999221.75	7.3285584221594E-05
2	626	116.166836706707	0.303497314453125	0.303466796875	-1.4801025390625E-07	-4.49161952076338E-08	-2050309.375	7.32702319510281E-05
2	627	116.267544706453	0.293426513671875	0.2933349609375	-1.40380859375E-07	-4.11786160725569E-08	-2089565.125	7.32557091396302E-05
2	628	116.368252706198	0.283355712890625	0.28338623046875	-1.33056640625E-07	-3.77064175438591E-08	-2129816.75	7.32419430278242E-05
2	629	116.468960705944	0.273284912109375	0.27325439453125	-1.26953125E-07	-3.46905011383569E-08	-2152403.75	7.32288463041186E-05
2	630	116.56966870569	0.263214111328125	0.263275146484375	-1.21459960937501E-07	-3.19773896251263E-08	-2167588	7.32163389329799E-05
2	631	116.670376705436	0.253143310546875	0.25311279296875	-1.171875E-07	-2.966165446594E-08	-2159896	7.32043263269588E-05
2	632	116.771084705181	0.243072509765625	0.243072509765625	-1.1260986328125E-07	-2.73723621546651E-08	-2158536.75	7.31927502783947E-05
2	633	116.871792704927	0.233001708984375	0.233001708984375	-1.1016845703125E-07	-2.56694381306488E-08	-2114958.5	7.31815307517536E-05
2	634	116.972500704673	0.222930908203125	0.222930908203125	-1.07727050781251E-07	-2.40156889930176E-08	-2069405.125	7.31705586076714E-05
2	635	117.073208704419	0.212860107421875	0.212860107421875	-1.07421874999999E-07	-2.2865830118235E-08	-1981534.25	7.31597319827415E-05
2	636	117.173916704164	0.202789306640625	0.202850341796875	-1.08947753906249E-07	-2.21000888700473E-08	-1861904.75	7.31488325982355E-05
2	637	117.27462470391	0.192718505859375	0.1927490234375	-1.1322021484375E-07	-2.18230855608681E-08	-1702426	7.31376494513825E-05
2	638	117.375332703656	0.182647705078125	0.18267822265625	-1.19628906249999E-07	-2.18535962659416E-08	-1527040.75	7.31259206077084E-05
2	639	117.476040703402	0.172576904296875	0.172576904296875	-1.3092041015625E-07	-2.25938396880565E-08	-1318181.75	7.31133040972054E-05
2	640	117.576748703147	0.162506103515625	0.162567138671875	-1.48620605468749E-07	-2.41608262285808E-08	-1093839.875	7.30992323951796E-05
2	641	117.677456702893	0.152435302734375	0.1524658203125	-1.7425537109375E-07	-2.65679869215774E-08	-874956.25	7.30829706299119E-05
2	642	117.778164702639	0.142364501953125	0.14239501953125	-2.1209716796875E-07	-3.02015799036326E-08	-671366.9375	7.30635147192515E-05
2	643	117.878872702384	0.132293701171875	0.13232421875	-2.66113281249999E-07	-3.52132296654872E-08	-497247.75	7.30394385755062E-05
2	644	117.97958070213	0.122222900390625	0.12225341796875	-3.40881347656249E-07	-4.16739105446595E-08	-358639.21875	7.3008872277569E-05
2	645	118.080288701876	0.112152099609375	0.1121826171875	-4.4525146484375E-07	-4.9949473890365E-08	-251953.390625	7.29692910681479E-05
2	646	118.180996701622	0.102081298828125	0.102142333984375	-5.8258056640625E-07	-5.95061351305048E-08	-175327.40625	7.29175299056806E-05
2	647	118.281704701367	0.092010498046875	0.092041015625	-7.586669921875E-07	-6.98284807754135E-08	-121319.390625	7.28499944671057E-05
2	648	118.382412701113	0.081939697265625	0.082061767578125	-9.74121093749999E-07	-7.99381041360903E-08	-84241.8515625	7.27627411833964E-05
2	649	118.483120700859	0.071868896484375	0.071929931640625	-1.22100830078125E-06	-8.78270398629866E-08	-58910.27734375	7.26522121112794E-05
2	650	118.583828700605	0.061798095703125	0.0618896484375	-1.4801025390625E-06	-9.16030202802176E-08	-41814.43359375	7.25161953596398E-05
2	651	118.68453670035	0.051727294921875	0.0517578125	-1.7291259765625E-06	-8.94957778996286E-08	-29932.93359375	7.23545963410288E-05
2	652	118.785244700096	0.041656494140625	0.0417266845703125	-1.9403076171875E-06	-8.09626072850733E-08	-21505.19140625	7.21698306733742E-05
2	653	118.885952699842	0.031585693359375	0.0316802978515625	-2.0947265625E-06	-6.63615580265287E-08	-15123.833984375	7.19666495569982E-05
2	654	118.986660699588	0.021514892578125	0.021630859375	-2.18170166015625E-06	-4.71920778011281E-08	-9914.673828125	7.17513103154488E-05
2	655	119.087368699333	0.011444091796875	0.0115447998046875	-2.20794677734375E-06	-2.54903014251795E-08	-5228.74951171875	7.15302739990875E-05
2	656	119.188076699079	0.001373291015625	0.00145874023437501	-2.18536376953125E-06	-3.18787773956331E-09	-667.504577636719	7.13090557837859E-05
2	657	119.288784698825	-0.008697509765625	-0.0086029052734375	-2.13043212890625E-06	1.83279045273821E-08	4038.103515625	7.10917374817654E-05
2	658	119.389492698571	-0.018768310546875	-0.018695068359375	-2.0574951171875E-06	3.84650107321249E-08	9086.32421875	7.08808584022336E-05
2	659	119.490200698316	-0.028839111328125	-0.0287353515625	-1.978759765625E-06	5.68603546469149E-08	14521.900390625	7.06776190781966E-05
2	660	119.590908698062	-0.038909912109375	-0.0387725830078125	-1.900634765625E-06	7.36925187538873E-08	20399.806640625	7.0482274168171E-05
2	661	119.691616697808	-0.048980712890625	-0.0488616943359375	-1.827392578125E-06	8.92894931325827E-08	26738.4765625	7.02945544617251E-05
2	662	119.792324697553	-0.059051513671875	-0.0589599609375	-1.76025390625E-06	1.03784500993243E-07	33495.14453125	7.01138997101225E-05
2	663	119.893032697299	-0.069122314453125	-0.069091796875	-1.700439453125E-06	1.17486415263102E-07	40631.73046875	6.99396405252628E-05
2	664	119.993740697045	-0.079193115234375	-0.0791015625	-1.6473388671875E-06	1.30307086010362E-07	48017.78515625	6.97710711392574E-05
2	665	120.094448696791	-0.089263916015625	-0.08917236328125	-1.60125732421875E-06	1.4278789706168E-07	55688.96484375	6.96074857842177E-05
2	666	120.195156696536	-0.099334716796875	-0.099273681640625	-1.5606689453125E-06	1.54933346152575E-07	63609.69921875	6.94482732797042E-05
2	667	120.295864696282	-0.109405517578125	-0.109283447265625	-1.52587890625E-06	1.66753295616218E-07	71620.0078125	6.92928515491076E-05
2	668	120.396572696028	-0.119476318359375	-0.119384765625	-1.49566650390625E-06	1.78559787400445E-07	79820.4453125	6.91407039994374E-05
2	669	120.497280695774	-0.129547119140625	-0.129425048828125	-1.46942138671875E-06	1.90179932246792E-07	88078.921875	6.89914013491943E-05
2	670	120.597988695519	-0.139617919921875	-0.139495849609375	-1.44775390625E-06	2.01955657530561E-07	96353.2890625	6.88445070409216E-05
2	671	120.698696695265	-0.149688720703125	-0.1495361328125	-1.4288330078125E-06	2.13662161741013E-07	104656.1328125	6.8699664552696E-05
2	672	120.799404695011	-0.159759521484375	-0.159637451171875	-1.41326904296875E-06	2.25610662596409E-07	112956.1640625	6.85565537423827E-05
2	673	120.900112694757	-0.169830322265625	-0.169677734375	-1.40045166015625E-06	2.37625457089052E-07	121159.296875	6.84148690197617E-05
2	674	121.000820694502	-0.179901123046875	-0.179718017578125	-1.3909912109375E-06	2.49986186418028E-07	129201.40625	6.82743120705709E-05
2	675	121.101528694248	-0.189971923828125	-0.189788818359375	-1.383056640625E-06	2.62488697444496E-07	137224.1875	6.81346209603362E-05
2	676	121.202236693994	-0.200042724609375	-0.199920654296875	-1.378173828125E-06	2.75525422921419E-07	145062	6.79955846862867E-05
2	677	121.30294469374	-0.189971923828125	-0.18975830078125	-1.21612548828125E-06	2.30769913400763E-07	156035.125	6.78649521432817E-05
