Potential - Start -0.2 V, Upper Vertex 1.5 V, Lower Vertex -0.2 V, Stop -0.19 V; Scan - # end cross 5, Rate 0.1 Vps, Step 0.01 V 
Scan	Index	Time (s)	Potential applied (V)	WE(1).Potential (V)	WE(1).Current (A)	WE(1).Power (W)	WE(1).Resistance (Ω)	WE(1).Charge (C)
1	1	54.7853688616802	-0.189971923828125	-0.189849853515625	-2.3040771484375E-07	4.37428688826458E-08	823973.5625	0
1	2	54.886076861426	-0.179901123046875	-0.179718017578125	-2.00500488281249E-07	3.60335477012086E-08	896347.0625	-2.16979501033165E-08
1	3	54.9867848611717	-0.169830322265625	-0.169677734375	-1.76086425781249E-07	2.98779454510623E-08	963604.875	-4.06606091019057E-08
1	4	55.0874928609175	-0.159759521484375	-0.15966796875	-1.55029296875001E-07	2.47532128128114E-08	1029921.25	-5.73336080833542E-08
1	5	55.1882008606632	-0.149688720703125	-0.14959716796875	-1.3580322265625E-07	2.03157775047202E-08	1101573	-7.19781851898915E-08
1	6	55.2889088604089	-0.139617919921875	-0.1395263671875	-1.1749267578125E-07	1.63933258079396E-08	1187532.5	-8.47326475650334E-08
1	7	55.3896168601547	-0.129547119140625	-0.129425048828125	-9.97924804687495E-08	1.29156463302138E-08	1296941.875	-9.56738261947976E-08
1	8	55.4903248599004	-0.119476318359375	-0.119384765625	-8.27026367187497E-08	9.87343451441802E-09	1443542.5	-1.04863183025827E-07
1	9	55.5910328596461	-0.109405517578125	-0.10931396484375	-6.34765625000006E-08	6.9388748080712E-09	1722115.375	-1.12223894177532E-07
1	10	55.6917408593919	-0.099334716796875	-0.099273681640625	-4.21142578125006E-08	4.18083700992611E-09	2357246.5	-1.17540814414951E-07
1	11	55.7924488591376	-0.089263916015625	-0.089202880859375	-1.58691406249994E-08	1.41557310318063E-09	5621154	-1.20460512675891E-07
1	12	55.8931568588833	-0.079193115234375	-0.079132080078125	1.55639648437497E-08	-1.23160892595564E-09	-5084314	-1.20475874609838E-07
1	13	55.9938648586291	-0.069122314453125	-0.06903076171875	5.61523437500003E-08	-3.87623888542521E-09	-1229347.875	-1.16864676158457E-07
1	14	56.0945728583748	-0.059051513671875	-0.0589599609375	1.09252929687501E-07	-6.44154862783353E-09	-539664.8125	-1.08535857634706E-07
1	15	56.1952808581206	-0.048980712890625	-0.048858642578125	1.8035888671875E-07	-8.8120897245858E-09	-270896.78125	-9.39527424748121E-08
1	16	56.2959888578663	-0.038909912109375	-0.0387481689453125	2.75268554687499E-07	-1.06661515175688E-08	-140764.96875	-7.10100778178457E-08
1	17	56.396696857612	-0.028839111328125	-0.0286956787109375	4.0008544921875E-07	-1.14807230389147E-08	-71723.875	-3.70033035324013E-08
1	18	56.4974048573578	-0.018768310546875	-0.018658447265625	5.5999755859375E-07	-1.04486854723973E-08	-33318.8046875	1.13407141455468E-08
1	19	56.5981128571035	-0.008697509765625	-0.00861206054687499	7.550048828125E-07	-6.50214770914204E-09	-11406.6298828125	7.75563435695403E-08
1	20	56.6988208568492	0.001373291015625	0.00146484375	9.7930908203125E-07	1.43453482426281E-09	1495.79309082031	1.6488598930664E-07
1	21	56.799528856595	0.011444091796875	0.011529541015625	1.21734619140625E-06	1.40354421418465E-08	9471.044921875	2.75496375934381E-07
1	22	56.9002368563407	0.021514892578125	0.0215850830078125	1.448974609375E-06	3.12762367116193E-08	14896.798828125	4.09756296448904E-07
1	23	57.0009448560864	0.031585693359375	0.03165283203125	1.64794921875E-06	5.21622567362101E-08	19207.408203125	5.6569876960566E-07
1	24	57.1016528558322	0.041656494140625	0.0417633056640625	1.79779052734375E-06	7.50816724348624E-08	23230.3515625	7.39205574973312E-07
1	25	57.2023608555779	0.051727294921875	0.051727294921875	1.88629150390625E-06	9.75727516561165E-08	27422.748046875	9.24713788208464E-07
1	26	57.3030688553237	0.061798095703125	0.06182861328125	1.9183349609375E-06	1.18607985655217E-07	32230.35546875	1.11629196908325E-06
1	27	57.4037768550694	0.071868896484375	0.0718994140625	1.9049072265625E-06	1.36961716634687E-07	37744.3125	1.30880744109163E-06
1	28	57.5044848548151	0.081939697265625	0.082000732421875	1.86126708984375E-06	1.52625261762296E-07	44056.40234375	1.4984494782766E-06
1	29	57.6051928545609	0.092010498046875	0.09210205078125	1.7999267578125E-06	1.6577693884301E-07	51169.890625	1.68280519119435E-06
1	30	57.7059008543066	0.102081298828125	0.10211181640625	1.73065185546875E-06	1.76719993305596E-07	59001.94140625	1.86058389317623E-06
1	31	57.8066088540523	0.112152099609375	0.1121826171875	1.66107177734375E-06	1.86343385166765E-07	67536.28125	2.03137074095139E-06
1	32	57.9073168537981	0.122222900390625	0.12225341796875	1.5948486328125E-06	1.94975697809241E-07	76655.1875	2.19531943912443E-06
1	33	58.0080248535438	0.132293701171875	0.13238525390625	1.533203125E-06	2.02973481577828E-07	86345.546875	2.35282936955628E-06
1	34	58.1087328532896	0.142364501953125	0.142425537109375	1.4776611328125E-06	2.10456661875469E-07	96385.796875	2.50443827098934E-06
1	35	58.2094408530353	0.152435302734375	0.152435302734375	1.4276123046875E-06	2.17618506326289E-07	106776.40625	2.65073049376952E-06
1	36	58.310148852781	0.162506103515625	0.162445068359375	1.3824462890625E-06	2.24571579110489E-07	117505.5234375	2.79222808785562E-06
1	37	58.4108568525268	0.172576904296875	0.172576904296875	1.34185791015625E-06	2.31573679343455E-07	128610.4140625	2.92940785584506E-06
1	38	58.5115648522725	0.182647705078125	0.18267822265625	1.30615234375E-06	2.38605565527905E-07	139859.8125	3.06274569084053E-06
1	39	58.6122728520182	0.192718505859375	0.192779541015625	1.27410888671875E-06	2.45622118200117E-07	151305.390625	3.19267223858333E-06
1	40	58.712980851764	0.202789306640625	0.202789306640625	1.2451171875E-06	2.5249644863834E-07	162867.65625	3.31952537635516E-06
1	41	58.8136888515097	0.212860107421875	0.212890625	1.21978759765625E-06	2.59681343095508E-07	174530.90625	3.44364298143773E-06
1	42	58.9143968512554	0.222930908203125	0.22296142578125	1.19659423828125E-06	2.66794359049527E-07	186330.015625	3.56531768375135E-06
1	43	59.0151048510012	0.233001708984375	0.2330322265625	1.1749267578125E-06	2.73795791372322E-07	198337.65625	3.68473320122575E-06
1	44	59.1158128507469	0.243072509765625	0.2430419921875	1.156005859375E-06	2.80957976883656E-07	210242.875	3.8021048567316E-06
1	45	59.2165208504927	0.253143310546875	0.253204345703125	1.138916015625E-06	2.88378487312002E-07	222320.46875	3.91766343454947E-06
1	46	59.3172288502384	0.263214111328125	0.26318359375	1.12274169921875E-06	2.95487183166188E-07	234411.53125	4.03154672312667E-06
1	47	59.4179368499841	0.273284912109375	0.27325439453125	1.10870361328125E-06	3.02958142128773E-07	246462.984375	4.1439093365625E-06
1	48	59.5186448497299	0.283355712890625	0.283355712890625	1.09527587890625E-06	3.10352646692991E-07	258707.171875	4.25488815380959E-06
1	49	59.6193528494756	0.293426513671875	0.293426513671875	1.082763671875E-06	3.17711567277001E-07	270997.75	4.36456139141228E-06
1	50	59.7200608492213	0.303497314453125	0.303497314453125	1.07147216796875E-06	3.25188921124209E-07	283252.625	4.47303591499804E-06
1	51	59.8207688489671	0.313568115234375	0.313568115234375	1.06201171875E-06	3.33013019826467E-07	295258.625	4.5804649744241E-06
1	52	59.9214768487128	0.323638916015625	0.323699951171875	1.05255126953125E-06	3.40710812452016E-07	307538.40625	4.68694179289741E-06
1	53	60.0221848484586	0.333709716796875	0.333709716796875	1.04461669921875E-06	3.48598717891946E-07	319456.625	4.79254276797292E-06
1	54	60.1228928482043	0.343780517578125	0.34375	1.03759765625E-06	3.56674178192407E-07	331294.125	4.89739068143535E-06
1	55	60.22360084795	0.353851318359375	0.353851318359375	1.03057861328125E-06	3.64671592478771E-07	343352.09375	5.00153146276716E-06
1	56	60.3243088476958	0.363922119140625	0.363922119140625	1.02447509765625E-06	3.72829134676067E-07	355227.90625	5.10501149619813E-06
1	57	60.4250168474415	0.373992919921875	0.3740234375	1.019287109375E-06	3.81237271085411E-07	366946.125	5.20792309544049E-06
1	58	60.5257248471872	0.384063720703125	0.384033203125	1.0150146484375E-06	3.8979931105132E-07	378352.375	5.31035857420648E-06
1	59	60.626432846933	0.394134521484375	0.394134521484375	1.01104736328125E-06	3.98488651853768E-07	389827.96875	5.4123788686411E-06
1	60	60.7271408466787	0.404205322265625	0.4041748046875	1.00799560546875E-06	4.07406417934908E-07	400968.8125	5.51404582438408E-06
1	61	60.8278488464244	0.414276123046875	0.414306640625	1.00555419921875E-06	4.16607775832745E-07	412018.21875	5.61543583899038E-06
1	62	60.9285568461702	0.424346923828125	0.424346923828125	1.00311279296875E-06	4.25667820991293E-07	423030.125	5.7165802900272E-06
1	63	61.0292648459159	0.434417724609375	0.434417724609375	1.0009765625E-06	4.34841950891496E-07	433993.90625	5.81749418415711E-06
1	64	61.1299728456617	0.444488525390625	0.444488525390625	9.991455078125E-07	4.44108735564441E-07	444868.65625	5.91820844419999E-06
1	65	61.2306808454074	0.454559326171875	0.45458984375	9.9761962890625E-07	4.53507738029657E-07	455674.53125	6.01875353822834E-06
1	66	61.3313888451531	0.464630126953125	0.464569091796875	9.9639892578125E-07	4.62896110775546E-07	466248.125	6.11916038906202E-06
1	67	61.4320968448989	0.474700927734375	0.474700927734375	9.95788574218751E-07	4.72701771059292E-07	476708.53125	6.21947492618347E-06
1	68	61.5328048446446	0.484771728515625	0.484710693359375	9.95483398437499E-07	4.82521443245787E-07	486909.90625	6.31974353382248E-06
1	69	61.6335128443903	0.494842529296875	0.4947509765625	9.9609375E-07	4.92818344355328E-07	496691.1875	6.42002714812406E-06
1	70	61.7342208441361	0.504913330078125	0.504913330078125	9.9700927734375E-07	5.03403271068237E-07	506427.9375	6.5203880694753E-06
1	71	61.8349288438818	0.514984130859375	0.514892578125	9.979248046875E-07	5.13824033987476E-07	515963.3125	6.62084084979142E-06
1	72	61.9356368436275	0.525054931640625	0.524993896484375	9.991455078125E-07	5.24545328062231E-07	525442.875	6.7214014052297E-06
1	73	62.0363448433733	0.535125732421875	0.535064697265625	1.0009765625E-06	5.35587219019362E-07	534542.6875	6.82211566527258E-06
1	74	62.137052843119	0.545196533203125	0.545166015625	1.00311279296875E-06	5.46862963801686E-07	543474.3125	6.92302955940249E-06
1	75	62.2377608428648	0.555267333984375	0.5552978515625	1.005859375E-06	5.58551505491778E-07	552063.125	7.02418901710189E-06
1	76	62.3384688426105	0.565338134765625	0.56536865234375	1.00921630859375E-06	5.70579231862212E-07	560205.6875	7.12565633875784E-06
1	77	62.4391768423562	0.575408935546875	0.575408935546875	1.01226806640625E-06	5.82468089760368E-07	568435.3125	7.22744607628556E-06
1	78	62.539884842102	0.585479736328125	0.585418701171875	1.01654052734375E-06	5.95101823819277E-07	575893.125	7.32960461391485E-06
1	79	62.6405928418477	0.595550537109375	0.595550537109375	1.0205078125E-06	6.07763922744198E-07	583582.5625	7.43217833587551E-06
1	80	62.7413008415934	0.605621337890625	0.60552978515625	1.0247802734375E-06	6.20534933659656E-07	590887.5	7.53516678742017E-06
1	81	62.8420088413392	0.615692138671875	0.61566162109375	1.0296630859375E-06	6.33924003068387E-07	597925.3125	7.63861589803128E-06
1	82	62.9427168410849	0.625762939453125	0.625701904296875	1.03485107421875E-06	6.47508272777486E-07	604629.9375	7.74257296143332E-06
1	83	63.0434248408307	0.635833740234375	0.635711669921875	1.0406494140625E-06	6.61552974179358E-07	610879.75	7.84708208811935E-06
1	84	63.1441328405764	0.645904541015625	0.64581298828125	1.0467529296875E-06	6.76006607136515E-07	616967.9375	7.95219148130855E-06
1	85	63.2448408403221	0.655975341796875	0.6558837890625	1.05224609375E-06	6.90151125581906E-07	623317.875	8.05788477009628E-06
1	86	63.3455488400679	0.666046142578125	0.665924072265625	1.0589599609375E-06	7.05186891991616E-07	628847.3125	8.16419196780771E-06
1	87	63.4462568398136	0.676116943359375	0.675994873046875	1.0650634765625E-06	7.19977435892361E-07	634699.1875	8.2711449067574E-06
1	88	63.5469648395593	0.686187744140625	0.686126708984375	1.07208251953125E-06	7.35584421818203E-07	639994.375	8.37875904835528E-06
1	89	63.6476728393051	0.696258544921875	0.6961669921875	1.07818603515625E-06	7.50597450860369E-07	645683.625	8.48703348310664E-06
1	90	63.7483808390508	0.706329345703125	0.706268310546875	1.08306884765625E-06	7.64937169606128E-07	652099.1875	8.59586180013139E-06
1	91	63.8490888387965	0.716400146484375	0.71630859375	1.08856201171875E-06	7.79746244461421E-07	658032	8.70521216711495E-06
1	92	63.9497968385423	0.726470947265625	0.72637939453125	1.09344482421875E-06	7.94255754499318E-07	664303.6875	8.81508458405733E-06
1	93	64.050504838288	0.736541748046875	0.736480712890625	1.0980224609375E-06	8.08672325547377E-07	670733.8125	8.92543357622344E-06
1	94	64.1512128380338	0.746612548828125	0.74652099609375	1.10260009765625E-06	8.23114135073411E-07	677055.0625	9.03624368220335E-06
1	95	64.2519208377795	0.756683349609375	0.75714111328125	1.107177734375E-06	8.38289736293518E-07	683847.875	9.14751490199706E-06
1	96	64.3526288375252	0.766754150390625	0.76629638671875	1.11083984375E-06	8.51232528020773E-07	689835.1875	9.25920085137477E-06
1	97	64.453336837271	0.776824951171875	0.77728271484375	1.1151123046875E-06	8.66757488893199E-07	697044.375	9.37128697842127E-06
1	98	64.5540448370167	0.786895751953125	0.7867431640625	1.11968994140625E-06	8.80908430644922E-07	702643.75	9.48381784837693E-06
1	99	64.6547528367624	0.796966552734375	0.79681396484375	1.12396240234375E-06	8.95588925686752E-07	708932.9375	9.59679437073646E-06
1	100	64.7554608365082	0.807037353515625	0.8074951171875	1.1285400390625E-06	9.11290555904998E-07	715521.9375	9.71021745499456E-06
1	101	64.8561688362539	0.817108154296875	0.8172607421875	1.13311767578125E-06	9.26052564409474E-07	721249.6875	9.82410074357176E-06
1	102	64.9568768359997	0.827178955078125	0.82763671875	1.1383056640625E-06	9.42103497436619E-07	727077.8125	9.93847606878262E-06
1	103	65.0575848357454	0.837249755859375	0.83740234375	1.14349365234375E-06	9.57564225245733E-07	732319.25	1.00533734439523E-05
1	104	65.1582928354911	0.847320556640625	0.84747314453125	1.148681640625E-06	9.73476744547952E-07	737779	1.01687937785755E-05
1	105	65.2590008352369	0.857391357421875	0.8575439453125	1.153564453125E-06	9.8923214864044E-07	743386.25	1.02847216112423E-05
1	106	65.3597088349826	0.867462158203125	0.86761474609375	1.15814208984375E-06	1.0048211152025E-06	749143.625	1.04011251096381E-05
1	107	65.4604168347283	0.877532958984375	0.877685546875	1.1627197265625E-06	1.02050228178996E-06	754855.625	1.05179897218477E-05
1	108	65.5611248344741	0.887603759765625	0.887451171875	1.16668701171875E-06	1.03537774975848E-06	760659.1875	1.06352845250512E-05
1	109	65.6618328342198	0.897674560546875	0.8978271484375	1.1700439453125E-06	1.05049718968075E-06	767344.8125	1.07529485831037E-05
1	110	65.7625408339655	0.907745361328125	0.908203125	1.17340087890625E-06	1.06568631963455E-06	773992.25	1.08709500636905E-05
1	111	65.8632488337113	0.917816162109375	0.9173583984375	1.1773681640625E-06	1.08006861410104E-06	779160.1875	1.09893207991263E-05
1	112	65.963956833457	0.927886962890625	0.92803955078125	1.1810302734375E-06	1.0960427516693E-06	785788.125	1.11080753413262E-05
1	113	66.0646648332028	0.937957763671875	0.9381103515625	1.18499755859375E-06	1.11165843463823E-06	791656	1.12272145997849E-05
1	114	66.1653728329485	0.948028564453125	0.9478759765625	1.1895751953125E-06	1.12756970338523E-06	796818.875	1.13467840492376E-05
1	115	66.2660808326942	0.958099365234375	0.9576416015625	1.19354248046875E-06	1.14298586595396E-06	802352.375	1.14667827801895E-05
1	116	66.36678883244	0.968170166015625	0.968017578125	1.1981201171875E-06	1.15980128612136E-06	807947	1.15872126116301E-05
1	117	66.4674968321857	0.978240966796875	0.97869873046875	1.20269775390625E-06	1.17707872959727E-06	813752.875	1.17081035568845E-05
1	118	66.5682048319314	0.988311767578125	0.98846435546875	1.20697021484375E-06	1.19304695544997E-06	818963.375	1.18294401545427E-05
1	119	66.6689128316772	0.998382568359375	0.99884033203125	1.21246337890625E-06	1.21105722428183E-06	823810.75	1.19512678793399E-05
1	120	66.7696208314229	1.00845336914063	1.00830078125	1.2176513671875E-06	1.22775873023784E-06	828070.25	1.20736340250005E-05
1	121	66.8703288311686	1.01852416992188	1.0186767578125	1.22344970703125E-06	1.24629968922818E-06	832626.625	1.21965531434398E-05
1	122	66.9710368309144	1.02859497070313	1.02813720703125	1.22802734375E-06	1.26258055388462E-06	837226.6875	1.23199952213326E-05
1	123	67.0717448306601	1.03866577148438	1.03851318359375	1.23382568359375E-06	1.28134422539006E-06	841701.75	1.24439593491843E-05
1	124	67.1724528304059	1.04873657226563	1.0491943359375	1.239013671875E-06	1.29996601572202E-06	846798.0625	1.25684764498146E-05
1	125	67.2731608301516	1.05880737304688	1.05865478515625	1.24420166015625E-06	1.31718002194248E-06	850870.75	1.26935165098985E-05
1	126	67.3738688298973	1.06887817382813	1.06903076171875	1.2493896484375E-06	1.3356359431782E-06	855642.4375	1.28190786199411E-05
1	127	67.4745768296431	1.07894897460938	1.0791015625	1.25518798828125E-06	1.35447533011757E-06	859713.125	1.29451946122572E-05
1	128	67.5752848293888	1.08901977539063	1.08917236328125	1.26129150390625E-06	1.37376378006593E-06	863537.4375	1.3071909052087E-05
1	129	67.6759928291345	1.09909057617188	1.09893798828125	1.2664794921875E-06	1.39178234803694E-06	867710.875	1.31991928356001E-05
1	130	67.7767008288803	1.10916137695313	1.10931396484375	1.27227783203125E-06	1.4113555835138E-06	871911.75	1.33270286823972E-05
1	131	67.877408828626	1.11923217773438	1.119384765625	1.27777099609375E-06	1.43031729749055E-06	876044.9375	1.34554338728776E-05
1	132	67.9781168283718	1.12930297851563	1.129150390625	1.28387451171875E-06	1.44968737458839E-06	879486.625	1.35844229589566E-05
1	133	68.0788248281175	1.13937377929688	1.1395263671875	1.28936767578125E-06	1.46926845445705E-06	883787	1.3713995940634E-05
1	134	68.1795328278632	1.14944458007813	1.1492919921875	1.2957763671875E-06	1.48922538301122E-06	886952.4375	1.384416827932E-05
1	135	68.280240827609	1.15951538085938	1.15936279296875	1.30279541015625E-06	1.51041240314953E-06	889904	1.39750172820641E-05
1	136	68.3809488273547	1.16958618164063	1.16973876953125	1.31011962890625E-06	1.53249766299268E-06	892848.8125	1.41065875141066E-05
1	137	68.4816568271004	1.17965698242188	1.17950439453125	1.317138671875E-06	1.5535707689196E-06	895505.125	1.42388807944371E-05
1	138	68.5823648268462	1.18972778320313	1.18988037109375	1.32537841796875E-06	1.57704175762774E-06	897766.5	1.43719416882959E-05
1	139	68.6830728265919	1.19979858398438	1.19964599609375	1.3336181640625E-06	1.59986961989489E-06	899542.375	1.45058329508174E-05
1	140	68.7837808263376	1.20986938476563	1.21002197265625	1.34246826171875E-06	1.62441597240104E-06	901341.25	1.46405845953268E-05
1	141	68.8844888260834	1.21994018554688	1.22039794921875	1.3525390625E-06	1.65063579515845E-06	902301.5	1.47762893902836E-05
1	142	68.9851968258291	1.23001098632813	1.2298583984375	1.36260986328125E-06	1.67581720234011E-06	902575.625	1.4913008271833E-05
1	143	69.0859048255749	1.24008178710938	1.240234375	1.37481689453125E-06	1.7050950873454E-06	902108.8125	1.50508485603496E-05
1	144	69.1866128253206	1.25015258789063	1.25030517578125	1.38702392578125E-06	1.73420312421513E-06	901430.1875	1.51899175762082E-05
1	145	69.2873208250663	1.26022338867188	1.2603759765625	1.4007568359375E-06	1.76548019226175E-06	899782.1875	1.53302935359534E-05
1	146	69.3880288248121	1.27029418945313	1.2701416015625	1.41571044921875E-06	1.79815265255456E-06	897176.1875	1.54721146827796E-05
1	147	69.4887368245578	1.28036499023438	1.280517578125	1.4306640625E-06	1.83199040293403E-06	895051.1875	1.56154401338426E-05
1	148	69.5894448243035	1.29043579101563	1.29058837890625	1.44775390625E-06	1.86845431926486E-06	891441.8125	1.5760380847496E-05
1	149	69.6901528240493	1.30050659179688	1.3006591796875	1.46575927734375E-06	1.9064532352786E-06	887362.0625	1.59070877998602E-05
1	150	69.790860823795	1.31057739257813	1.31011962890625	1.4849853515625E-06	1.94550830201479E-06	882244.1875	1.60556701302994E-05
1	151	69.8915688235408	1.32064819335938	1.3201904296875	1.505126953125E-06	1.98705401999177E-06	877129	1.62062333401991E-05
1	152	69.9922768232865	1.33071899414063	1.33087158203125	1.527099609375E-06	2.03237345886009E-06	871502.8125	1.63589174917433E-05
1	153	70.0929848230322	1.34078979492188	1.3409423828125	1.54998779296875E-06	2.07844414035208E-06	865131	1.65138626471162E-05
1	154	70.193692822778	1.35086059570313	1.3507080078125	1.57318115234375E-06	2.12490817830258E-06	858583.9375	1.66711251949891E-05
1	155	70.2944008225237	1.36093139648438	1.3604736328125	1.59698486328125E-06	2.17265574065095E-06	851901.4375	1.68307560670655E-05
1	156	70.3951088222694	1.37100219726563	1.37115478515625	1.62109375E-06	2.22277049033437E-06	845820.8125	1.6992798919091E-05
1	157	70.4958168220152	1.38107299804688	1.38092041015625	1.64581298828125E-06	2.27273676500772E-06	839050.625	1.71573010447901E-05
1	158	70.5965248217609	1.39114379882813	1.39129638671875	1.67144775390625E-06	2.32547927225824E-06	832390	1.73243388417177E-05
1	159	70.6972328215066	1.40121459960938	1.40106201171875	1.69952392578125E-06	2.38113830164366E-06	824385	1.7494079656899E-05
1	160	70.7979408212524	1.41128540039063	1.41143798828125	1.73126220703125E-06	2.44356920120481E-06	815265.3125	1.76668345375219E-05
1	161	70.8986488209981	1.42135620117188	1.42120361328125	1.7681884765625E-06	2.51295568887144E-06	803762.5	1.78430454980116E-05
1	162	70.9993568207439	1.43142700195313	1.4312744140625	1.81243896484375E-06	2.59409739555849E-06	789695.25	1.80233437276911E-05
1	163	71.1000648204896	1.44149780273438	1.441650390625	1.8646240234375E-06	2.68813596449036E-06	773158.75	1.8208498659078E-05
1	164	71.2007728202353	1.45156860351563	1.45172119140625	1.927490234375E-06	2.79817822956829E-06	753166.625	1.83994470717153E-05
1	165	71.3014808199811	1.46163940429688	1.46148681640625	2.00286865234375E-06	2.92716595140519E-06	729696.8125	1.85973567567999E-05
1	166	71.4021888197268	1.47171020507813	1.47186279296875	2.09503173828125E-06	3.08359926748381E-06	702549.1875	1.88037029147381E-05
1	167	71.5028968194725	1.48178100585938	1.48162841796875	2.20458984375E-06	3.26638269143587E-06	672065.375	1.90202063095057E-05
1	168	71.6036048192183	1.49185180664063	1.49169921875	2.33306884765625E-06	3.48023695551092E-06	639372.1875	1.92486950254533E-05
1	169	71.704312818964	1.50192260742188	1.5020751953125	2.47589111328125E-06	3.71897453987913E-06	606680.625	1.94908443518216E-05
1	170	71.8050208187097	1.49185180664063	1.49169921875	2.12677001953125E-06	3.17250101034006E-06	701391.9375	1.97226072486956E-05
1	171	71.9057288184555	1.48178100585938	1.48162841796875	1.87042236328125E-06	2.77127082881634E-06	792135.75	1.99238820641767E-05
1	172	72.0064368182012	1.47171020507813	1.47186279296875	1.66900634765625E-06	2.45654837272014E-06	881879.6875	2.01021066459361E-05
1	173	72.107144817947	1.46163940429688	1.46148681640625	1.5057373046875E-06	2.20061519939918E-06	970612.125	2.02619685296668E-05
1	174	72.2078528176927	1.45156860351563	1.45172119140625	1.3726806640625E-06	1.99274973056163E-06	1057581.125	2.04069074243307E-05
1	175	72.3085608174384	1.44149780273438	1.44195556640625	1.26251220703125E-06	1.82048654551181E-06	1142132	2.053960088233E-05
1	176	72.4092688171842	1.43142700195313	1.43157958984375	1.171875E-06	1.67763221270434E-06	1221614.625	2.06621807592455E-05
1	177	72.5099768169299	1.42135620117188	1.42120361328125	1.09619140625E-06	1.55791110501013E-06	1296492.25	2.07763878279366E-05
1	178	72.6106848166756	1.41128540039063	1.41082763671875	1.033935546875E-06	1.4587047871828E-06	1364521.875	2.08836481760954E-05
1	179	72.7113928164214	1.40121459960938	1.4013671875	9.808349609375E-07	1.37450979309506E-06	1428749.375	2.09850986720994E-05
1	180	72.8121008161671	1.39114379882813	1.39068603515625	9.3658447265625E-07	1.30249497942714E-06	1484848.5	2.10816488106502E-05
1	181	72.9128088159129	1.38107299804688	1.3812255859375	8.984375E-07	1.24094481179782E-06	1537364.25	2.11740498343715E-05
1	182	73.0135168156586	1.37100219726563	1.3714599609375	8.6639404296875E-07	1.18822470085433E-06	1582951.75	2.12629165616818E-05
1	183	73.1142248154043	1.36093139648438	1.36077880859375	8.380126953125E-07	1.14034992293455E-06	1623816.5	2.13487401197199E-05
1	184	73.2149328151501	1.35086059570313	1.35040283203125	8.1298828125E-07	1.09786162738601E-06	1661036	2.14318752114195E-05
1	185	73.3156408148958	1.34078979492188	1.34033203125	7.9071044921875E-07	1.05981450815307E-06	1695098.5	2.15126274270006E-05
1	186	73.4163488146415	1.33071899414063	1.3311767578125	7.7056884765625E-07	1.02576325389236E-06	1727524.875	2.15912441490218E-05
1	187	73.5170568143873	1.32064819335938	1.32080078125	7.52868652343749E-07	9.94389438346843E-07	1754357.625	2.16679545701481E-05
1	188	73.617764814133	1.31057739257813	1.31072998046875	7.366943359375E-07	9.65607341640862E-07	1779204.75	2.17429605982034E-05
1	189	73.7184728138787	1.30050659179688	1.30096435546875	7.2174072265625E-07	9.38958976348658E-07	1802537	2.18163986573927E-05
1	190	73.8191808136245	1.29043579101563	1.290283203125	7.0770263671875E-07	9.13136773306178E-07	1823199.75	2.1888376068091E-05
1	191	73.9198888133702	1.28036499023438	1.280517578125	6.95190429687501E-07	8.9020352334046E-07	1841966.75	2.19590183405671E-05
1	192	74.020596813116	1.27029418945313	1.27044677734375	6.8328857421875E-07	8.68081713178981E-07	1859312.25	2.2028429157217E-05
1	193	74.1213048128617	1.26022338867188	1.26007080078125	6.7169189453125E-07	8.46379293761856E-07	1875965.625	2.20966576307546E-05
1	194	74.2220128126074	1.25015258789063	1.25	6.610107421875E-07	8.26263431008556E-07	1891043.375	2.21637656068197E-05
1	195	74.3227208123532	1.24008178710938	1.2396240234375	6.50939941406251E-07	8.069207524386E-07	1904360.125	2.22298276639776E-05
1	196	74.4234288120989	1.23001098632813	1.2298583984375	6.4117431640625E-07	7.88553620623134E-07	1918134.25	2.22948910959531E-05
1	197	74.5241368118446	1.21994018554688	1.2200927734375	6.3201904296875E-07	7.71121847265022E-07	1930468.5	2.2359001377481E-05
1	198	74.6248448115904	1.20986938476563	1.2103271484375	6.23168945312499E-07	7.54238271838403E-07	1942213.5	2.24222039832966E-05
1	199	74.7255528113361	1.19979858398438	1.19964599609375	6.1492919921875E-07	7.37697348540678E-07	1950868.5	2.24845480261138E-05
1	200	74.8262608110819	1.18972778320313	1.18988037109375	6.060791015625E-07	7.21161597994069E-07	1963242.75	2.25460298679536E-05
1	201	74.9269688108276	1.17965698242188	1.17950439453125	5.97534179687501E-07	7.04794160810707E-07	1973953.125	2.26066367758904E-05
1	202	75.0276768105733	1.16958618164063	1.16943359375	5.89904785156251E-07	6.89854402935453E-07	1982410.875	2.26664287765743E-05
1	203	75.1283848103191	1.15951538085938	1.15997314453125	5.82275390625001E-07	6.75423791562935E-07	1992138.375	2.272545316373E-05
1	204	75.2290928100648	1.14944458007813	1.14959716796875	5.7373046875E-07	6.59558907045721E-07	2003723.375	2.27836626436329E-05
1	205	75.3298008098105	1.13937377929688	1.1395263671875	5.66711425781249E-07	6.4578262026771E-07	2010770	2.28410881391028E-05
1	206	75.4305088095563	1.12930297851563	1.13006591796875	5.59082031249999E-07	6.31799537131883E-07	2021288.25	2.28977769438643E-05
1	207	75.531216809302	1.11923217773438	1.119384765625	5.5084228515625E-07	6.16604438619106E-07	2032133	2.29536653932882E-05
1	208	75.6319248090477	1.10916137695313	1.1090087890625	5.43212890625E-07	6.02427860485477E-07	2041573.125	2.3008755306364E-05
1	209	75.7326328087935	1.09909057617188	1.09893798828125	5.35888671875E-07	5.88908392273879E-07	2050683.375	2.30630939768162E-05
1	210	75.8333408085392	1.08901977539063	1.0888671875	5.279541015625E-07	5.74871933167742E-07	2062427.75	2.31166613957612E-05
1	211	75.934048808285	1.07894897460938	1.0791015625	5.20935058593749E-07	5.62141792670445E-07	2071470.5	2.31694775720825E-05
1	212	76.0347568080307	1.06887817382813	1.06903076171875	5.1300048828125E-07	5.48413311207696E-07	2083878.625	2.32215406867908E-05
1	213	76.1354648077764	1.05880737304688	1.0589599609375	5.0537109375E-07	5.35167714588169E-07	2095410.75	2.32728198170662E-05
1	214	76.2361728075222	1.04873657226563	1.04888916015625	4.9774169921875E-07	5.22075822573242E-07	2107296.25	2.33233295148239E-05
1	215	76.3368808072679	1.03866577148438	1.03851318359375	4.901123046875E-07	5.08988080127892E-07	2118929	2.33730734180426E-05
1	216	76.4375888070136	1.02859497070313	1.0284423828125	4.82788085937499E-07	4.96519760417868E-07	2130214.75	2.34220624406589E-05
1	217	76.5382968067594	1.01852416992188	1.0186767578125	4.75158691406249E-07	4.84033137126971E-07	2143866.5	2.34702984016621E-05
1	218	76.6390048065051	1.00845336914063	1.00860595703125	4.67834472656251E-07	4.71860630568699E-07	2155903.5	2.35177813010523E-05
1	219	76.7397128062509	0.998382568359375	0.99853515625	4.6051025390625E-07	4.5983566110408E-07	2168323.5	2.3564527509734E-05
1	220	76.8404208059966	0.988311767578125	0.98846435546875	4.53796386718749E-07	4.48561564780903E-07	2178211.25	2.36105661315378E-05
1	221	76.9411288057423	0.978240966796875	0.97808837890625	4.46472167968751E-07	4.36689219895925E-07	2190704.25	2.3655898985453E-05
1	222	77.0418368054881	0.968170166015625	0.968017578125	4.3975830078125E-07	4.25693741590294E-07	2201249.25	2.37005242524901E-05
1	223	77.1425448052338	0.958099365234375	0.958251953125	4.32434082031249E-07	4.14380792790325E-07	2215949.25	2.37444419326494E-05
1	224	77.2432528049795	0.948028564453125	0.94818115234375	4.25109863281251E-07	4.0308114535037E-07	2230438	2.37876229221001E-05
1	225	77.3439608047253	0.937957763671875	0.93780517578125	4.18701171874999E-07	3.92660098214037E-07	2239796	2.38301126955776E-05
1	226	77.444668804471	0.927886962890625	0.92742919921875	4.1229248046875E-07	3.82372093099548E-07	2249444.75	2.38719567278167E-05
1	227	77.5453768042167	0.917816162109375	0.91796875	4.04968261718749E-07	3.7174820022301E-07	2266767.25	2.39131095440825E-05
1	228	77.6460848039625	0.907745361328125	0.9075927734375	3.985595703125E-07	3.61729775022468E-07	2277182.25	2.39535693253856E-05
1	229	77.7467928037082	0.897674560546875	0.8978271484375	3.91235351562499E-07	3.51261718378737E-07	2294851.75	2.39933397097047E-05
1	230	77.847500803454	0.887603759765625	0.8880615234375	3.83911132812501E-07	3.40936708198569E-07	2313195.5	2.4032371584326E-05
1	231	77.9482088031997	0.877532958984375	0.87738037109375	3.76281738281251E-07	3.30142199800321E-07	2331711.5	2.40706503973342E-05
1	232	78.0489168029454	0.867462158203125	0.86761474609375	3.6773681640625E-07	3.1905389619169E-07	2359336	2.41081143030897E-05
1	233	78.1496248026912	0.857391357421875	0.85723876953125	3.5980224609375E-07	3.08436426621483E-07	2382527.5	2.41447487496771E-05
1	234	78.2503328024369	0.847320556640625	0.84716796875	3.51867675781251E-07	2.98091009653945E-07	2407632.25	2.41805846599163E-05
1	235	78.3510408021826	0.837249755859375	0.83709716796875	3.448486328125E-07	2.88671799353324E-07	2427433.75	2.42156656895531E-05
1	236	78.4517488019284	0.827178955078125	0.82763671875	3.37829589843749E-07	2.79600186559037E-07	2449864.5	2.42500427702907E-05
1	237	78.5524568016741	0.817108154296875	0.81756591796875	3.3111572265625E-07	2.70708909511086E-07	2469124.5	2.42837268160656E-05
1	238	78.6531648014198	0.807037353515625	0.806884765625	3.25927734375001E-07	2.62986105781238E-07	2475655.5	2.43168105953373E-05
1	239	78.7538728011656	0.796966552734375	0.797119140625	3.204345703125E-07	2.55424538408988E-07	2487619	2.43493577727349E-05
1	240	78.8545808009113	0.786895751953125	0.78704833984375	3.1585693359375E-07	2.48594687946024E-07	2491787.5	2.4381397452089E-05
1	241	78.9552888006571	0.776824951171875	0.7769775390625	3.1097412109375E-07	2.41619915186675E-07	2498528	2.44129605562193E-05
1	242	79.0559968004028	0.766754150390625	0.76690673828125	3.06396484375E-07	2.34977534319114E-07	2502988	2.44440470851259E-05
1	243	79.1567048001485	0.756683349609375	0.75653076171875	3.01513671875001E-07	2.28104369170978E-07	2509109.25	2.44746588577982E-05
1	244	79.2574127998943	0.746612548828125	0.74652099609375	2.96630859374999E-07	2.21441155190405E-07	2516666.75	2.45047776843421E-05
1	245	79.35812079964	0.736541748046875	0.73638916015625	2.91748046875E-07	2.14840099488356E-07	2524058.5	2.45344053837471E-05
1	246	79.4588287993857	0.726470947265625	0.72637939453125	2.85949707031249E-07	2.077079841456E-07	2540234.75	2.45634946622886E-05
1	247	79.5595367991315	0.716400146484375	0.71630859375	2.8045654296875E-07	2.0089342456231E-07	2554080.5	2.45920145971468E-05
1	248	79.6602447988772	0.706329345703125	0.706207275390625	2.74658203125E-07	1.93965618677794E-07	2571222.25	2.46199670073111E-05
1	249	79.760952798623	0.696258544921875	0.696136474609375	2.685546875E-07	1.86950714464729E-07	2592159	2.46473209699616E-05
1	250	79.8616607983687	0.686187744140625	0.686065673828125	2.62451171875E-07	1.80058719934095E-07	2614070	2.46740582952043E-05
1	251	79.9623687981144	0.676116943359375	0.676055908203125	2.57568359375E-07	1.7413060504623E-07	2624763	2.47002444666578E-05
1	252	80.0630767978602	0.666046142578125	0.666015625	2.5146484375E-07	1.67479498713874E-07	2648544	2.47258758463431E-05
1	253	80.1637847976059	0.655975341796875	0.655914306640625	2.46582031250001E-07	1.6173667916064E-07	2660024.75	2.47509542532498E-05
1	254	80.2644927973516	0.645904541015625	0.64581298828125	2.4261474609375E-07	1.5668373976041E-07	2661887	2.47755870077526E-05
1	255	80.3652007970974	0.635833740234375	0.63580322265625	2.38037109375E-07	1.51344750065618E-07	2671025.75	2.47997904807562E-05
1	256	80.4659087968431	0.625762939453125	0.625701904296875	2.34375000000001E-07	1.46648886811818E-07	2669661.5	2.48235774051864E-05
1	257	80.5666167965888	0.615692138671875	0.6156005859375	2.31018066406249E-07	1.42214858556144E-07	2664729.25	2.48470114456723E-05
1	258	80.6673247963346	0.605621337890625	0.605560302734375	2.28271484375001E-07	1.38232138624517E-07	2652807.5	2.48701398959383E-05
1	259	80.7680327960803	0.595550537109375	0.59552001953125	2.25830078125E-07	1.34486327851846E-07	2637027	2.48930045927409E-05
1	260	80.8687407958261	0.585479736328125	0.585479736328125	2.227783203125E-07	1.3043218416442E-07	2628082.25	2.49155946221435E-05
1	261	80.9694487955718	0.575408935546875	0.575408935546875	2.20947265625E-07	1.27135024285963E-07	2604281.75	2.49379372689873E-05
1	262	81.0701567953175	0.565338134765625	0.5653076171875	2.1820068359375E-07	1.23350503145048E-07	2590769.25	2.49600507231662E-05
1	263	81.1708647950633	0.555267333984375	0.55523681640625	2.15759277343749E-07	1.19797491038298E-07	2573408.75	2.4981902242871E-05
1	264	81.271572794809	0.545196533203125	0.545166015625	2.13012695312501E-07	1.16127274907285E-07	2559312.5	2.50034918281017E-05
1	265	81.3722807945547	0.535125732421875	0.53509521484375	2.11181640624999E-07	1.13002279533703E-07	2533815.25	2.50248522206675E-05
1	266	81.4729887943005	0.525054931640625	0.5250244140625	2.08740234375E-07	1.09593720765133E-07	2515204.75	2.50459979724837E-05
1	267	81.5736967940462	0.514984130859375	0.514923095703125	2.06909179687501E-07	1.06542316302694E-07	2488643	2.50669272645609E-05
1	268	81.674404793792	0.504913330078125	0.504913330078125	2.044677734375E-07	1.03238498638802E-07	2469403	2.50876419158885E-05
1	269	81.7751127935377	0.494842529296875	0.49481201171875	2.02331542968751E-07	1.00116075429924E-07	2445550.75	2.51081255555619E-05
1	270	81.8758207932834	0.484771728515625	0.484771728515625	1.9989013671875E-07	9.69010898188571E-08	2425190.75	2.51283781835809E-05
1	271	81.9765287930292	0.474700927734375	0.47467041015625	1.983642578125E-07	9.41576416835233E-08	2392923.25	2.5148432541755E-05
1	272	82.0772367927749	0.464630126953125	0.464599609375	1.9561767578125E-07	9.08838941882095E-08	2375039	2.51682704401901E-05
1	273	82.1779447925206	0.454559326171875	0.454559326171875	1.9378662109375E-07	8.80875177244889E-08	2345669.25	2.51878791459603E-05
1	274	82.2786527922664	0.444488525390625	0.44451904296875	1.910400390625E-07	8.49209342845825E-08	2326837.25	2.52072568400763E-05
1	275	82.3793607920121	0.434417724609375	0.43438720703125	1.8890380859375E-07	8.20573902160504E-08	2299515.5	2.52263889706228E-05
1	276	82.4800687917578	0.424346923828125	0.42431640625	1.861572265625E-07	7.89895651109873E-08	2279344.25	2.52452737186104E-05
1	277	82.5807767915036	0.414276123046875	0.41424560546875	1.8341064453125E-07	7.59770486524758E-08	2258569.25	2.52638837991981E-05
1	278	82.6814847912493	0.404205322265625	0.40423583984375	1.80664062499999E-07	7.30308897800569E-08	2237500	2.5282215574407E-05
1	279	82.7821927909951	0.394134521484375	0.3941650390625	1.7852783203125E-07	7.03694311710024E-08	2207863.25	2.53003017860465E-05
1	280	82.8829007907408	0.384063720703125	0.384033203125	1.76086425781249E-07	6.76230271778877E-08	2180936	2.53181588050211E-05
1	281	82.9836087904865	0.373992919921875	0.3740234375	1.7364501953125E-07	6.49473079761265E-08	2153954.25	2.53357684414368E-05
1	282	83.0843167902323	0.363922119140625	0.363922119140625	1.71813964843751E-07	6.25269009901785E-08	2118117.25	2.53531652560923E-05
1	283	83.185024789978	0.353851318359375	0.35382080078125	1.69677734375E-07	6.00355107849282E-08	2085251.875	2.5370360162924E-05
1	284	83.2857327897237	0.343780517578125	0.34375	1.67236328125001E-07	5.74874867709241E-08	2055474.5	2.53873240581015E-05
1	285	83.3864407894695	0.333709716796875	0.333709716796875	1.65710449218751E-07	5.52991856750396E-08	2013812.25	2.5404089683434E-05
1	286	83.4871487892152	0.323638916015625	0.323638916015625	1.6326904296875E-07	5.28402139821083E-08	1982243.125	2.54206552199321E-05
1	287	83.5878567889609	0.313568115234375	0.313629150390625	1.61132812500001E-07	5.05359452063203E-08	1946401.625	2.54369897447759E-05
1	288	83.6885647887067	0.303497314453125	0.303436279296875	1.5838623046875E-07	4.80601265451241E-08	1915799.625	2.54530787060503E-05
1	289	83.7892727884524	0.293426513671875	0.293426513671875	1.56249999999999E-07	4.58478908171855E-08	1877929.75	2.54689221037552E-05
1	290	83.8899807881982	0.283355712890625	0.2833251953125	1.5380859375E-07	4.35778488849792E-08	1842063.625	2.54845363087952E-05
1	291	83.9906887879439	0.273284912109375	0.27325439453125	1.507568359375E-07	4.11949656609067E-08	1812550.625	2.54998722084565E-05
1	292	84.0913967876896	0.263214111328125	0.26318359375	1.4801025390625E-07	3.89538676870416E-08	1778144.5	2.55149152508238E-05
1	293	84.1921047874354	0.253143310546875	0.25311279296875	1.44348144531251E-07	3.65363597154555E-08	1753488.5	2.55296363320667E-05
1	294	84.2928127871811	0.243072509765625	0.2430419921875	1.41296386718751E-07	3.43409531922134E-08	1720086.5	2.554402090027E-05
1	295	84.3935207869268	0.233001708984375	0.233001708984375	1.373291015625E-07	3.19979136520487E-08	1696666.75	2.55580507655395E-05
1	296	84.4942287866726	0.222930908203125	0.22296142578125	1.33666992187501E-07	2.98025817357939E-08	1668036.625	2.55716968240449E-05
1	297	84.5949367864183	0.212860107421875	0.212890625	1.2939453125E-07	2.7546880332352E-08	1645283.125	2.55849427048815E-05
1	298	84.6956447861641	0.202789306640625	0.20281982421875	1.24511718750001E-07	2.52534437805707E-08	1628921.625	2.55977265624097E-05
1	299	84.7963527859098	0.192718505859375	0.19268798828125	1.190185546875E-07	2.29334453649699E-08	1618974.375	2.56099901889684E-05
1	300	84.8970607856555	0.182647705078125	0.182647705078125	1.12304687500001E-07	2.05121928331664E-08	1626358.75	2.56216389971087E-05
1	301	84.9977687854013	0.172576904296875	0.172607421875	1.04370117187499E-07	1.80150561135406E-08	1653801.125	2.56325492955511E-05
1	302	85.098476785147	0.162506103515625	0.1624755859375	9.58251953125003E-08	1.55692543302166E-08	1695541.5	2.56426301348256E-05
1	303	85.1991847848927	0.152435302734375	0.1524658203125	8.45336914062495E-08	1.28884982686372E-08	1803610.125	2.56517105299281E-05
1	304	85.2998927846385	0.142364501953125	0.14239501953125	7.01904296875E-08	9.99476768015484E-09	2028695.625	2.56595012615435E-05
1	305	85.4006007843842	0.132293701171875	0.132354736328125	5.12695312500006E-08	6.78576528301278E-09	2581547.75	2.56656185229076E-05
1	306	85.5013087841299	0.122222900390625	0.12225341796875	2.62451171874997E-08	3.20855519930774E-09	4658139.5	2.56695220741676E-05
1	307	85.6020167838757	0.112152099609375	0.112213134765625	-8.54492187500056E-09	-9.58852441890201E-10	-13132143	2.56704133789754E-05
1	308	85.7027247836214	0.102081298828125	0.10211181640625	-5.4931640625E-08	-5.60916957326185E-09	-1858888.875	2.56672155956039E-05
1	309	85.8034327833672	0.092010498046875	0.092010498046875	-1.1871337890625E-07	-1.09228768252478E-08	-775064.3125	2.56584717135411E-05
1	310	85.9041407831129	0.081939697265625	0.082000732421875	-2.0599365234375E-07	-1.68916294285282E-08	-398074.09375	2.5642122636782E-05
1	311	86.0048487828586	0.071868896484375	0.071868896484375	-3.22265625E-07	-2.31608741074751E-08	-223011.375	2.56155217357446E-05
1	312	86.1055567826044	0.061798095703125	0.06182861328125	-4.730224609375E-07	-2.9246322696963E-08	-130709.6796875	2.55754766840255E-05
1	313	86.2062647823501	0.051727294921875	0.051788330078125	-6.5948486328125E-07	-3.41536185999303E-08	-78528.4609375	2.55184495472349E-05
1	314	86.3069727820958	0.041656494140625	0.0417694091796875	-8.7921142578125E-07	-3.67241419496622E-08	-47507.80859375	2.54409696935909E-05
1	315	86.4076807818416	0.031585693359375	0.0316925048828125	-1.12030029296875E-06	-3.55051206213375E-08	-28289.296875	2.53402868111152E-05
1	316	86.5083887815873	0.021514892578125	0.0216064453125	-1.36199951171875E-06	-2.94279676182896E-08	-15863.76953125	2.52152931352612E-05
1	317	86.6090967813331	0.011444091796875	0.0115509033203125	-1.57867431640625E-06	-1.82351147515192E-08	-7316.83740234375	2.50672183028655E-05
1	318	86.7098047810788	0.001373291015625	0.00148620605468749	-1.7486572265625E-06	-2.59886490105998E-09	-849.912780761719	2.48996748268837E-05
1	319	86.8105127808245	-0.008697509765625	-0.008624267578125	-1.85760498046875E-06	1.60204827182042E-08	4642.68115234375	2.47180851147277E-05
1	320	86.9112207805703	-0.018768310546875	-0.01865234375	-1.90521240234375E-06	3.55366758242326E-08	9790.1650390625	2.45286119024968E-05
1	321	87.011928780316	-0.028839111328125	-0.0287384033203125	-1.90216064453125E-06	5.46650618105105E-08	15108.294921875	2.43368958763313E-05
1	322	87.1126367800617	-0.038909912109375	-0.0387908935546875	-1.86187744140625E-06	7.22238908679174E-08	20834.2890625	2.41473608184606E-05
1	323	87.2133447798075	-0.048980712890625	-0.0488433837890625	-1.80023193359375E-06	8.79294148603549E-08	27131.71875	2.39629589486867E-05
1	324	87.3140527795532	-0.059051513671875	-0.058990478515625	-1.72882080078125E-06	1.01983964384544E-07	34121.80078125	2.37852564168861E-05
1	325	87.4147607792989	-0.069122314453125	-0.06903076171875	-1.6546630859375E-06	1.14222650893225E-07	41718.92578125	2.36148844123818E-05
1	326	87.5154687790447	-0.079193115234375	-0.079132080078125	-1.58447265625E-06	1.25382612736757E-07	49942.21875	2.34517810895341E-05
1	327	87.6161767787904	-0.089263916015625	-0.089202880859375	-1.51885986328125E-06	1.35486672547813E-07	58730.16015625	2.32955171668436E-05
1	328	87.7168847785362	-0.099334716796875	-0.0992431640625	-1.46026611328125E-06	1.44921429523492E-07	67962.3828125	2.31455051107332E-05
1	329	87.8175927782819	-0.109405517578125	-0.109344482421875	-1.40777587890625E-06	1.53932518287547E-07	77671.796875	2.30010882660281E-05
1	330	87.9183007780276	-0.119476318359375	-0.119384765625	-1.3616943359375E-06	1.62565555683614E-07	87673.6875	2.28616336244158E-05
1	331	88.0190087777734	-0.129547119140625	-0.12945556640625	-1.322021484375E-06	1.71143042848598E-07	97922.4375	2.2726499082637E-05
1	332	88.1197167775191	-0.139617919921875	-0.139556884765625	-1.28753662109375E-06	1.79684604972863E-07	108390.609375	2.25950971071143E-05
1	333	88.2204247772648	-0.149688720703125	-0.14959716796875	-1.25732421875E-06	1.88092144526308E-07	118980.578125	2.24669529416133E-05
1	334	88.3211327770106	-0.159759521484375	-0.15966796875	-1.2310791015625E-06	1.96563888721357E-07	129697.5703125	2.234165185655E-05
1	335	88.4218407767563	-0.169830322265625	-0.169677734375	-1.20849609375E-06	2.0505487441369E-07	140404.046875	2.22188100451604E-05
1	336	88.522548776502	-0.179901123046875	-0.17974853515625	-1.1895751953125E-06	2.13824392858442E-07	151103.125	2.2098056433606E-05
1	337	88.6232567762478	-0.189971923828125	-0.189788818359375	-1.173095703125E-06	2.22640451852385E-07	161784.59375	2.19790872506564E-05
1	338	88.7239647759935	-0.200042724609375	-0.199920654296875	-1.1590576171875E-06	2.31719539556252E-07	172485.53125	2.18616532947635E-05
1	339	88.8246727757393	-0.189971923828125	-0.189849853515625	-1.0205078125E-06	1.9374324722321E-07	186034.703125	2.17519045691006E-05
2	340	88.925380775485	-0.179901123046875	-0.17974853515625	-9.25598144531251E-07	1.66374903187716E-07	194197.171875	2.16539101529634E-05
2	341	89.0260887752307	-0.169830322265625	-0.169708251953125	-8.50524902343749E-07	1.44341086638633E-07	199533.546875	2.15644740819698E-05
2	342	89.1267967749765	-0.159759521484375	-0.15966796875	-7.8704833984375E-07	1.2566640350542E-07	202869.34375	2.14820156543283E-05
2	343	89.2275047747222	-0.149688720703125	-0.149627685546875	-7.3150634765625E-07	1.09453594632214E-07	204547.359375	2.14055507967714E-05
2	344	89.3282127744679	-0.139617919921875	-0.1395263671875	-6.817626953125E-07	9.51238732227466E-08	204655.328125	2.13343864743365E-05
2	345	89.4289207742137	-0.129547119140625	-0.129486083984375	-6.353759765625E-07	8.22723436044726E-08	203794.4375	2.12680643016938E-05
2	346	89.5296287739594	-0.119476318359375	-0.119384765625	-5.9173583984375E-07	7.06442477849123E-08	201753.484375	2.12062750506448E-05
2	347	89.6303367737052	-0.109405517578125	-0.109283447265625	-5.4901123046875E-07	5.99978378090782E-08	199055.046875	2.11488331842702E-05
2	348	89.7310447734509	-0.099334716796875	-0.09930419921875	-5.05981445312501E-07	5.0246079297267E-08	196260.578125	2.10957095987396E-05
2	349	89.8317527731966	-0.089263916015625	-0.089202880859375	-4.61425781249999E-07	4.11605078909361E-08	193320.109375	2.10469970625127E-05
2	350	89.9324607729424	-0.079193115234375	-0.0791015625	-4.1168212890625E-07	3.25646993815099E-08	192142.328125	2.1003032088629E-05
2	351	90.0331687726881	-0.069122314453125	-0.069061279296875	-3.5430908203125E-07	2.44690365747147E-08	194918.1875	2.09644622373162E-05
2	352	90.1338767724338	-0.059051513671875	-0.05902099609375	-2.84729003906251E-07	1.68049894000433E-08	207288.328125	2.09322843147675E-05
2	353	90.2345847721796	-0.048980712890625	-0.0488433837890625	-1.97753906250001E-07	9.65896962412671E-09	246990.734375	2.09079880733043E-05
2	354	90.3352927719253	-0.038909912109375	-0.0387725830078125	-8.75854492187494E-08	3.39591399445283E-09	442682.9375	2.08936216949951E-05
2	355	90.436000771671	-0.028839111328125	-0.028680419921875	5.27954101562506E-08	-1.51419443650269E-09	-543237	2.08918681892101E-05
2	356	90.5367087714168	-0.018768310546875	-0.0186279296875	2.2735595703125E-07	-4.23517088066205E-09	-81932.890625	2.0905976271024E-05
2	357	90.6374167711625	-0.008697509765625	-0.00861511230468751	4.3670654296875E-07	-3.76227582421507E-09	-19727.462890625	2.09394147532294E-05
2	358	90.7381247709083	0.001373291015625	0.001446533203125	6.7626953125E-07	9.78246372795866E-10	2138.9892578125	2.09954559977632E-05
2	359	90.838832770654	0.011444091796875	0.0115325927734375	9.29870605468749E-07	1.07238182778246E-08	12402.36328125	2.10763319046237E-05
2	360	90.9395407703997	0.021514892578125	0.0216094970703125	1.17584228515625E-06	2.54093599494354E-08	18377.88671875	2.11823626159457E-05
2	361	91.0402487701455	0.031585693359375	0.0316864013671875	1.38824462890625E-06	4.39884786374023E-08	22824.796875	2.13114763027988E-05
2	362	91.1409567698912	0.041656494140625	0.041741943359375	1.55029296875E-06	6.47122462282823E-08	26925.197265625	2.14594419958303E-05
2	363	91.2416647696369	0.051727294921875	0.051788330078125	1.649169921875E-06	8.54077555345611E-08	31402.6640625	2.16205480683129E-05
2	364	91.3423727693827	0.061798095703125	0.0618896484375	1.6900634765625E-06	1.04597432937226E-07	36619.71875	2.17886918107979E-05
2	365	91.4430807691284	0.071868896484375	0.07196044921875	1.68426513671875E-06	1.21200471880911E-07	42725.1328125	2.19586036109831E-05
2	366	91.5437887688742	0.081939697265625	0.082000732421875	1.6461181640625E-06	1.34982883537305E-07	49814.609375	2.21263017010642E-05
2	367	91.6444967686199	0.092010498046875	0.092071533203125	1.58905029296875E-06	1.46306291526344E-07	57941.234375	2.22892049350776E-05
2	368	91.7452047683656	0.102081298828125	0.102081298828125	1.52435302734375E-06	1.55607935425905E-07	66966.96875	2.24459763558116E-05
2	369	91.8459127681114	0.112152099609375	0.112213134765625	1.458740234375E-06	1.63689804821843E-07	76924.6875	2.25961885007564E-05
2	370	91.9466207678571	0.122222900390625	0.122222900390625	1.39556884765625E-06	1.70570473301268E-07	87579.2734375	2.27399141294882E-05
2	371	92.0473287676028	0.132293701171875	0.13232421875	1.33758544921875E-06	1.76994944922626E-07	98927.671875	2.28775388677604E-05
2	372	92.1480367673486	0.142364501953125	0.142425537109375	1.2847900390625E-06	1.82986894969872E-07	110855.1171875	2.30095865845215E-05
2	373	92.2487447670943	0.152435302734375	0.152435302734375	1.2384033203125E-06	1.88776382969991E-07	123090.1875	2.31366393563803E-05
2	374	92.34945276684	0.162506103515625	0.16253662109375	1.19659423828125E-06	1.94490382909862E-07	135832.703125	2.32592501561157E-05
2	375	92.4501607665858	0.172576904296875	0.172607421875	1.1602783203125E-06	2.00272651795785E-07	148763.8125	2.33779283007607E-05
2	376	92.5508687663315	0.182647705078125	0.18267822265625	1.12762451171875E-06	2.05992435553526E-07	162002.703125	2.34931339946343E-05
2	377	92.6515767660773	0.192718505859375	0.1927490234375	1.0992431640625E-06	2.11878045774938E-07	175347.03125	2.36052655964158E-05
2	378	92.752284765823	0.202789306640625	0.202789306640625	1.07391357421875E-06	2.17778179489869E-07	188832.0625	2.37146923609544E-05
2	379	92.8529927655687	0.212860107421875	0.212890625	1.0516357421875E-06	2.23883390049195E-07	202437.609375	2.3821721697459E-05
2	380	92.9537007653145	0.222930908203125	0.222930908203125	1.031494140625E-06	2.29951908181647E-07	216124.265625	2.39266155404039E-05
2	381	93.0544087650602	0.233001708984375	0.23309326171875	1.0137939453125E-06	2.36308537182595E-07	229921.734375	2.40296049014432E-05
2	382	93.1551167648059	0.243072509765625	0.2430419921875	9.979248046875E-07	2.42537623762473E-07	243547.40625	2.41309026023373E-05
2	383	93.2558247645517	0.253143310546875	0.253173828125	9.832763671875E-07	2.48939841185347E-07	257479.84375	2.42306650761748E-05
2	384	93.3565327642974	0.263214111328125	0.26324462890625	9.6954345703125E-07	2.55227092793575E-07	271514.03125	2.43289960053517E-05
2	385	93.4572407640431	0.273284912109375	0.273284912109375	9.5794677734375E-07	2.61792393985161E-07	285281.9375	2.44260536419461E-05
2	386	93.5579487637889	0.283355712890625	0.2833251953125	9.4757080078125E-07	2.68470671471732E-07	299001.625	2.45220035139937E-05
2	387	93.6586567635346	0.293426513671875	0.2933349609375	9.37499999999999E-07	2.75001525551488E-07	312890.625	2.46169238380389E-05
2	388	93.7593647632804	0.303497314453125	0.303466796875	9.28955078125E-07	2.81907006183246E-07	326675.4375	2.47109073825413E-05
2	389	93.8600727630261	0.313568115234375	0.313629150390625	9.2193603515625E-07	2.8914601557517E-07	340185.375	2.48041087616002E-05
2	390	93.9607807627718	0.323638916015625	0.323638916015625	9.136962890625E-07	2.95707678787949E-07	354208.40625	2.4896538889152E-05
2	391	94.0614887625176	0.333709716796875	0.333740234375	9.0789794921875E-07	3.03002053669843E-07	367596.65625	2.49882632488152E-05
2	392	94.1621967622633	0.343780517578125	0.343780517578125	9.02709960937501E-07	3.10334087316733E-07	380831.65625	2.50794346356997E-05
2	393	94.262904762009	0.353851318359375	0.3538818359375	8.98132324218751E-07	3.17832729024303E-07	394019.71875	2.51701148954453E-05
2	394	94.3636127617548	0.363922119140625	0.36395263671875	8.9447021484375E-07	3.25544789347987E-07	406891.84375	2.52603804256069E-05
2	395	94.4643207615005	0.373992919921875	0.373992919921875	8.9111328125E-07	3.33270037344846E-07	419691.8125	2.53502912528347E-05
2	396	94.5650287612463	0.384063720703125	0.38409423828125	8.8836669921875E-07	3.41216519927912E-07	432360.03125	2.54398946708534E-05
2	397	94.665736760992	0.394134521484375	0.394134521484375	8.8653564453125E-07	3.49414307265761E-07	444578.3125	2.55292688962072E-05
2	398	94.7664447607377	0.404205322265625	0.4041748046875	8.8531494140625E-07	3.57821988927753E-07	456532.25	2.56184885074617E-05
2	399	94.8671527604835	0.414276123046875	0.41424560546875	8.837890625E-07	3.6610572351492E-07	468715.5	2.57075698755216E-05
2	400	94.9678607602292	0.424346923828125	0.42437744140625	8.82873535156251E-07	3.74671600411602E-07	480677.5	2.5796527552302E-05
2	401	95.0685687599749	0.434417724609375	0.434356689453125	8.8226318359375E-07	3.83216899990657E-07	492321	2.58854088315275E-05
2	402	95.1692767597207	0.444488525390625	0.4444580078125	8.8165283203125E-07	3.91857639669979E-07	504119.09375	2.59742300841026E-05
2	403	95.2699847594664	0.454559326171875	0.454559326171875	8.81347656250001E-07	4.00624799112848E-07	515754.84375	2.60630040429533E-05
2	404	95.3706927592121	0.464630126953125	0.464630126953125	8.8165283203125E-07	4.09642439080926E-07	526999	2.61517780018039E-05
2	405	95.4714007589579	0.474700927734375	0.474639892578125	8.81347656250001E-07	4.18322770201485E-07	538538.75	2.62405519606546E-05
2	406	95.5721087587036	0.484771728515625	0.484710693359375	8.82873535156251E-07	4.27938232405722E-07	549014.875	2.63293877651449E-05
2	407	95.6728167584494	0.494842529296875	0.494781494140625	8.8348388671875E-07	4.37131490116371E-07	560034.5625	2.64183308900101E-05
2	408	95.7735247581951	0.504913330078125	0.504852294921875	8.8470458984375E-07	4.4664511733572E-07	570645.0625	2.65073667833349E-05
2	409	95.8742327579408	0.514984130859375	0.51495361328125	8.8653564453125E-07	4.56524730907404E-07	580860.5625	2.65965554717695E-05
2	410	95.9749407576866	0.525054931640625	0.5250244140625	8.880615234375E-07	4.66253965214491E-07	591202.75	2.66859133262187E-05
2	411	96.0756487574323	0.535125732421875	0.535064697265625	8.90502929687501E-07	4.76476685662419E-07	600856.75	2.67754712695023E-05
2	412	96.176356757178	0.545196533203125	0.545135498046875	8.93249511718749E-07	4.86941985400335E-07	610283.5625	2.686529114726E-05
2	413	96.2770647569238	0.555267333984375	0.55523681640625	8.9599609375E-07	4.97490020734404E-07	619686.625	2.69553856924176E-05
2	414	96.3777727566695	0.565338134765625	0.5653076171875	8.990478515625E-07	5.08238599650213E-07	628784.8125	2.70457730948692E-05
2	415	96.4784807564153	0.575408935546875	0.57537841796875	9.0301513671875E-07	5.19575394264393E-07	637174.75	2.71365152002545E-05
2	416	96.579188756161	0.585479736328125	0.58544921875	9.06982421874999E-07	5.30992110725492E-07	645491.25	2.72276556643192E-05
2	417	96.6798967559067	0.595550537109375	0.595489501953125	9.1094970703125E-07	5.42460952601687E-07	653701.875	2.73191963060526E-05
2	418	96.7806047556525	0.605621337890625	0.6055908203125	9.1552734375E-07	5.54434961941297E-07	661466.6875	2.74111662292853E-05
2	419	96.8813127553982	0.615692138671875	0.6156005859375	9.21020507812501E-07	5.66980759231228E-07	668389.6875	2.75036436505616E-05
2	420	96.9820207551439	0.625762939453125	0.625701904296875	9.2620849609375E-07	5.79530421873642E-07	675551.875	2.75966594927013E-05
2	421	97.0827287548897	0.635833740234375	0.63580322265625	9.320068359375E-07	5.92572916957579E-07	682187.3125	2.76902283076197E-05
2	422	97.1834367546354	0.645904541015625	0.6458740234375	9.37805175781251E-07	6.05703974088101E-07	688708.125	2.77843791991472E-05
2	423	97.2841447543811	0.655975341796875	0.6558837890625	9.4451904296875E-07	6.19494699094503E-07	694410.375	2.78791630989872E-05
2	424	97.3848527541269	0.666046142578125	0.66595458984375	9.5184326171875E-07	6.33884383205441E-07	699647.375	2.79746527667157E-05
2	425	97.4855607538726	0.676116943359375	0.675994873046875	9.58251953125E-07	6.47773390483053E-07	705445.875	2.80708336504176E-05
2	426	97.5862687536184	0.686187744140625	0.686126708984375	9.65576171875E-07	6.62507602555706E-07	710587.875	2.81677057500929E-05
2	427	97.6869767533641	0.696258544921875	0.6961669921875	9.722900390625E-07	6.76876197758247E-07	716007.5625	2.82652854366461E-05
2	428	97.7876847531098	0.706329345703125	0.706298828125	9.79003906250001E-07	6.91469267621869E-07	721446.4375	2.8363539968268E-05
2	429	97.8883927528556	0.716400146484375	0.71630859375	9.8541259765625E-07	7.05859520166996E-07	726912.375	2.84624566120328E-05
2	430	97.9891007526013	0.726470947265625	0.72637939453125	9.9212646484375E-07	7.20660182196298E-07	732144	2.85620335489511E-05
2	431	98.089808752347	0.736541748046875	0.73638916015625	9.98840332031251E-07	7.35535138574051E-07	737244.1875	2.86622871499276E-05
2	432	98.1905167520928	0.746612548828125	0.746490478515625	1.0052490234375E-06	7.50408844396588E-07	742592.5625	2.87632010440575E-05
2	433	98.2912247518385	0.756683349609375	0.7562255859375	1.01104736328125E-06	7.64579851875169E-07	747962.625	2.88647297566058E-05
2	434	98.3919327515842	0.766754150390625	0.7672119140625	1.01806640625E-06	7.81072685640538E-07	753597.125	2.8966902391403E-05
2	435	98.49264075133	0.776824951171875	0.77667236328125	1.024169921875E-06	7.95444464074535E-07	758343.25	2.9069737138343E-05
2	436	98.5933487510757	0.786895751953125	0.7867431640625	1.03057861328125E-06	8.10800656836363E-07	763399.5	2.91732030746061E-05
2	437	98.6940567508215	0.796966552734375	0.797119140625	1.03668212890625E-06	8.26359155325918E-07	768913.8125	2.92772965622135E-05
2	438	98.7947647505672	0.807037353515625	0.806884765625	1.04278564453125E-06	8.41407825191709E-07	773778.1875	2.93820066872286E-05
2	439	98.8954727503129	0.817108154296875	0.81756591796875	1.0491943359375E-06	8.57785551033885E-07	779232.125	2.94873461825773E-05
2	440	98.9961807500587	0.827178955078125	0.82733154296875	1.0552978515625E-06	8.73081205554627E-07	783979.1875	2.95933168672491E-05
2	441	99.0968887498044	0.837249755859375	0.83740234375	1.06048583984375E-06	8.88053307335213E-07	789640.3125	2.96998550766148E-05
2	442	99.1975967495501	0.847320556640625	0.84716796875	1.06658935546875E-06	9.03580314570718E-07	794277.5625	2.98069608106744E-05
2	443	99.2983047492959	0.857391357421875	0.8575439453125	1.070556640625E-06	9.18049408937804E-07	801026.1875	2.99145740427775E-05
2	444	99.3990127490416	0.867462158203125	0.867919921875	1.07452392578125E-06	9.32600698888564E-07	807725.125	3.00225874525495E-05
2	445	99.4997207487874	0.877532958984375	0.87738037109375	1.0784912109375E-06	9.46247041611059E-07	813525.75	3.01310010399902E-05
2	446	99.6004287485331	0.887603759765625	0.887451171875	1.08184814453125E-06	9.60087390922126E-07	820310.3125	3.02397820632905E-05
2	447	99.7011367482788	0.897674560546875	0.897216796875	1.0858154296875E-06	9.7421184364066E-07	826306.9375	3.03489341604291E-05
2	448	99.8018447480246	0.907745361328125	0.90789794921875	1.08917236328125E-06	9.88857323136472E-07	833566.875	3.04584518744377E-05
2	449	99.9025527477703	0.917816162109375	0.91796875	1.092529296875E-06	1.00290776572365E-06	840223.5	3.05683097394649E-05
2	450	100.003260747516	0.927886962890625	0.927734375	1.09588623046875E-06	1.01669127161585E-06	846560.875	3.06785041175317E-05
2	451	100.103968747262	0.937957763671875	0.93902587890625	1.10015869140625E-06	1.03307741028402E-06	853536.75	3.07890841213521E-05
2	452	100.204676747008	0.948028564453125	0.94818115234375	1.10382080078125E-06	1.04662206013018E-06	858999.1875	3.09000643028412E-05
2	453	100.305384746753	0.958099365234375	0.95855712890625	1.10809326171875E-06	1.06217066786485E-06	865051	3.10114446619991E-05
2	454	100.406092746499	0.968170166015625	0.96832275390625	1.11236572265625E-06	1.07712901353807E-06	870507.5625	3.11232506646775E-05
2	455	100.506800746245	0.978240966796875	0.97808837890625	1.11663818359375E-06	1.09217080535018E-06	875922.4375	3.12354895868339E-05
2	456	100.60750874599	0.988311767578125	0.98846435546875	1.1212158203125E-06	1.10828182187106E-06	881600.5	3.13481759803835E-05
2	457	100.708216745736	0.998382568359375	0.99884033203125	1.12518310546875E-06	1.12387829176441E-06	887713.625	3.14612916554324E-05
2	458	100.808924745482	1.00845336914063	1.00860595703125	1.13067626953125E-06	1.14040676635341E-06	892037.875	3.15748839057051E-05
2	459	100.909632745228	1.01852416992188	1.0186767578125	1.13525390625E-06	1.15645673304243E-06	897311.8125	3.16889818350319E-05
2	460	101.010340744973	1.02859497070313	1.02874755859375	1.14013671875E-06	1.1729127891158E-06	902302	3.18035563395824E-05
2	461	101.111048744719	1.03866577148438	1.038818359375	1.14501953125E-06	1.18946729799063E-06	907249.5	3.19186219712719E-05
2	462	101.211756744465	1.04873657226563	1.048583984375	1.14990234375E-06	1.20576919471205E-06	911889.625	3.20341823680792E-05
2	463	101.312464744211	1.05880737304688	1.0589599609375	1.15570068359375E-06	1.2238406270626E-06	916292.625	3.21502775477711E-05
2	464	101.413172743956	1.06887817382813	1.0693359375	1.15966796875E-06	1.24007453905506E-06	922105.3125	3.22668674925808E-05
2	465	101.513880743702	1.07894897460938	1.07879638671875	1.16485595703125E-06	1.2566423492899E-06	926120	3.23839158227202E-05
2	466	101.614588743448	1.08901977539063	1.0888671875	1.16973876953125E-06	1.27369014535361E-06	930863.5625	3.25014698319137E-05
2	467	101.715296743194	1.09909057617188	1.0992431640625	1.17431640625E-06	1.29085924527317E-06	936070.6875	3.26195040543098E-05
2	468	101.816004742939	1.10916137695313	1.109619140625	1.17950439453125E-06	1.30880061988137E-06	940750.375	3.27380294038448E-05
2	469	101.916712742685	1.11923217773438	1.11907958984375	1.1846923828125E-06	1.32576496980619E-06	944616.1875	3.28570749843493E-05
2	470	102.017420742431	1.12930297851563	1.129150390625	1.18927001953125E-06	1.3428646070679E-06	949448.375	3.29766153299715E-05
2	471	102.118128742177	1.13937377929688	1.1395263671875	1.1944580078125E-06	1.36111634674307E-06	954011.3125	3.30966431647539E-05
2	472	102.218836741922	1.14944458007813	1.14959716796875	1.199951171875E-06	1.37946040013048E-06	958036.625	3.32172130583785E-05
2	473	102.319544741668	1.15951538085938	1.15936279296875	1.2054443359375E-06	1.39754729389097E-06	961772.1875	3.33383322868031E-05
2	474	102.420252741414	1.16958618164063	1.16973876953125	1.2109375E-06	1.41648058615829E-06	965977.8125	3.3460008125985E-05
2	475	102.520960741159	1.17965698242188	1.17950439453125	1.217041015625E-06	1.43550528264313E-06	969157.5	3.35822660417762E-05
2	476	102.621668740905	1.18972778320313	1.18927001953125	1.22314453125E-06	1.45464912293392E-06	972305.375	3.37051387759857E-05
2	477	102.722376740651	1.19979858398438	1.20025634765625	1.22955322265625E-06	1.47577895859285E-06	976172.8125	3.38286408805288E-05
2	478	102.823084740397	1.20986938476563	1.21002197265625	1.2371826171875E-06	1.49701804730284E-06	978046.4375	3.39528523909394E-05
2	479	102.923792740142	1.21994018554688	1.21978759765625	1.2457275390625E-06	1.51952292526403E-06	979176.875	3.40778751706239E-05
2	480	103.024500739888	1.23001098632813	1.2298583984375	1.25457763671875E-06	1.54295275933691E-06	980296.8125	3.42037783411797E-05
2	481	103.125208739634	1.24008178710938	1.240234375	1.2646484375E-06	1.56846044774284E-06	980695	3.43306310242042E-05
2	482	103.22591673938	1.25015258789063	1.25030517578125	1.27532958984375E-06	1.5945511222526E-06	980378.125	3.44585278071463E-05
2	483	103.326624739125	1.26022338867188	1.2603759765625	1.2872314453125E-06	1.62239552992105E-06	979137.0625	3.4587563277455E-05
2	484	103.427332738871	1.27029418945313	1.27044677734375	1.30035400390625E-06	1.65203039159678E-06	977000.75	3.4717857488431E-05
2	485	103.528040738617	1.28036499023438	1.280517578125	1.31500244140625E-06	1.68388373822381E-06	973775.8125	3.48495523212478E-05
2	486	103.628748738363	1.29043579101563	1.2908935546875	1.33148193359375E-06	1.71880139987479E-06	969516.375	3.49828151229303E-05
2	487	103.729456738108	1.30050659179688	1.30035400390625	1.34918212890625E-06	1.75441425653844E-06	963809.125	3.51177950506099E-05
2	488	103.830164737854	1.31057739257813	1.3104248046875	1.36810302734375E-06	1.79279606982163E-06	957840.75	3.52546230715234E-05
2	489	103.9308727376	1.32064819335938	1.32080078125	1.38824462890625E-06	1.83359463790111E-06	951417.875	3.53934156009927E-05
2	490	104.031580737346	1.33071899414063	1.33056640625	1.41143798828125E-06	1.87801197171211E-06	942702.6875	3.55343909177464E-05
2	491	104.132288737091	1.34078979492188	1.34002685546875	1.4349365234375E-06	1.92285347111465E-06	933857.9375	3.56777163688093E-05
2	492	104.232996736837	1.35086059570313	1.3507080078125	1.458740234375E-06	1.97033205040498E-06	925941.5	3.5823424695991E-05
2	493	104.333704736583	1.36093139648438	1.361083984375	1.48284912109375E-06	2.0182819753245E-06	917884.375	3.59715450031217E-05
2	494	104.434412736328	1.37100219726563	1.37115478515625	1.50787353515625E-06	2.06752793019405E-06	909330.0625	3.61221391358413E-05
2	495	104.535120736074	1.38107299804688	1.3812255859375	1.53289794921875E-06	2.11727797250205E-06	901055.125	3.62752543878742E-05
2	496	104.63582873582	1.39114379882813	1.39129638671875	1.558837890625E-06	2.16880562220467E-06	892521.5625	3.64309380529448E-05
2	497	104.736536735566	1.40121459960938	1.40106201171875	1.58721923828125E-06	2.22379253500549E-06	882714.875	3.65893538400996E-05
2	498	104.837244735311	1.41128540039063	1.41143798828125	1.61895751953125E-06	2.28505814447999E-06	871819.0625	3.6750796425622E-05
2	499	104.937952735057	1.42135620117188	1.42120361328125	1.65771484375E-06	2.35595030062541E-06	857326.9375	3.691578967846E-05
2	500	105.038660734803	1.43142700195313	1.43096923828125	1.70318603515625E-06	2.43720660364488E-06	840172.0625	3.70850248145871E-05
2	501	105.139368734549	1.44149780273438	1.4410400390625	1.75628662109375E-06	2.53087932833296E-06	820503.9375	3.72592221538071E-05
2	502	105.240076734294	1.45156860351563	1.451416015625	1.820068359375E-06	2.64167624663969E-06	797451.375	3.74393057427369E-05
2	503	105.34078473404	1.46163940429688	1.4617919921875	1.89605712890625E-06	2.77164099315996E-06	770964.125	3.76264288206585E-05
2	504	105.441492733786	1.47171020507813	1.47186279296875	1.98760986328125E-06	2.92548884317512E-06	740519	3.78219883714337E-05
2	505	105.542200733532	1.48178100585938	1.48223876953125	2.09625244140625E-06	3.10714676743373E-06	707089.8125	3.80276251235045E-05
2	506	105.642908733277	1.49185180664063	1.49139404296875	2.222900390625E-06	3.31522028318432E-06	670922.5625	3.82451144105289E-05
2	507	105.743616733023	1.50192260742188	1.50177001953125	2.364501953125E-06	3.55093789039529E-06	635131.6875	3.84761078748852E-05
2	508	105.844324732769	1.49185180664063	1.49200439453125	2.027587890625E-06	3.02517014461046E-06	735851.875	3.86972678825259E-05
2	509	105.945032732515	1.48178100585938	1.48101806640625	1.78253173828125E-06	2.63996162175317E-06	830850.875	3.88891203328967E-05
2	510	106.04574073226	1.47171020507813	1.47186279296875	1.59027099609375E-06	2.34066055782023E-06	925542.1875	3.9058955735527E-05
2	511	106.146448732006	1.46163940429688	1.46148681640625	1.435546875E-06	2.09803283723886E-06	1018069.6875	3.92113179259468E-05
2	512	106.247156731752	1.45156860351563	1.45172119140625	1.309814453125E-06	1.90148523415701E-06	1108341.125	3.93495574826375E-05
2	513	106.347864731497	1.44149780273438	1.441650390625	1.20513916015625E-06	1.73738931152911E-06	1196252.25	3.94761955249123E-05
2	514	106.448572731243	1.43142700195313	1.4312744140625	1.12030029296875E-06	1.60345700805919E-06	1277581.125	3.95932911487762E-05
2	515	106.549280730989	1.42135620117188	1.42120361328125	1.04949951171875E-06	1.49155243889254E-06	1354172.75	3.97025469283108E-05
2	516	106.649988730735	1.41128540039063	1.41143798828125	9.9151611328125E-07	1.39946348554076E-06	1423514.875	3.98053198296111E-05
2	517	106.75069673048	1.40121459960938	1.4007568359375	9.429931640625E-07	1.32090406168572E-06	1485436.875	3.99027303501498E-05
2	518	106.851404730226	1.39114379882813	1.39129638671875	9.02099609375E-07	1.25508790915774E-06	1542286.875	3.99956406909041E-05
2	519	106.952112729972	1.38107299804688	1.3818359375	8.67614746093751E-07	1.19890125915845E-06	1592683.75	4.00847529817838E-05
2	520	107.052820729718	1.37100219726563	1.37115478515625	8.3770751953125E-07	1.14862666578119E-06	1636794.25	4.01706201955676E-05
2	521	107.153528729463	1.36093139648438	1.3604736328125	8.10546875E-07	1.10272765141417E-06	1678463.875	4.02536170440726E-05
2	522	107.254236729209	1.35086059570313	1.3507080078125	7.8765869140625E-07	1.06389688880881E-06	1714839.25	4.03340927732643E-05
2	523	107.354944728955	1.34078979492188	1.34063720703125	7.66601562499999E-07	1.02773458365846E-06	1748805.75	4.04123566113412E-05
2	524	107.455652728701	1.33071899414063	1.33056640625	7.48596191406251E-07	9.96056883195706E-07	1777415.5	4.04886523028836E-05
2	525	107.556360728446	1.32064819335938	1.32110595703125	7.3089599609375E-07	9.65591084423068E-07	1807515.75	4.05631508328952E-05
2	526	107.657068728192	1.31057739257813	1.3104248046875	7.1533203125E-07	9.37388847432885E-07	1831911.25	4.06359758926556E-05
2	527	107.757776727938	1.30050659179688	1.30035400390625	7.0068359375E-07	9.11136680770142E-07	1855836.25	4.07072766392957E-05
2	528	107.858484727684	1.29043579101563	1.29058837890625	6.87255859375E-07	8.86964414803515E-07	1877886.375	4.07771658501588E-05
2	529	107.959192727429	1.28036499023438	1.280517578125	6.75048828124999E-07	8.64411845213908E-07	1896926	4.08457635785453E-05
2	530	108.059900727175	1.27029418945313	1.26983642578125	6.62841796874999E-07	8.41700625642261E-07	1915745.875	4.0913131670095E-05
2	531	108.160608726921	1.26022338867188	1.26007080078125	6.50939941406251E-07	8.20230354747764E-07	1935771.25	4.09792846767232E-05
2	532	108.261316726666	1.25015258789063	1.2506103515625	6.40258789062501E-07	8.00714190063445E-07	1953289	4.10443026339635E-05
2	533	108.362024726412	1.24008178710938	1.240234375	6.2896728515625E-07	7.80066784500377E-07	1971858.375	4.11082110076677E-05
2	534	108.462732726158	1.23001098632813	1.23016357421875	6.1920166015625E-07	7.61719320507837E-07	1986692.875	4.11710643675178E-05
2	535	108.563440725904	1.21994018554688	1.219482421875	6.0882568359375E-07	7.42452186841547E-07	2003007.625	4.1232899093302E-05
2	536	108.664148725649	1.20986938476563	1.20941162109375	5.98754882812499E-07	7.24141102637077E-07	2019877.75	4.12937042710837E-05
2	537	108.764856725395	1.19979858398438	1.1993408203125	5.889892578125E-07	7.06398793681728E-07	2036269.5	4.13535126426723E-05
2	538	108.865564725141	1.18972778320313	1.1895751953125	5.7952880859375E-07	6.89393061747978E-07	2052659.375	4.14123533118982E-05
2	539	108.966272724887	1.17965698242188	1.17950439453125	5.69763183593749E-07	6.72038197535585E-07	2070166	4.14702226407826E-05
2	540	109.066980724632	1.16958618164063	1.1700439453125	5.60607910156249E-07	6.55935821214371E-07	2087098.625	4.15271424571984E-05
2	541	109.167688724378	1.15951538085938	1.15966796875	5.51452636718749E-07	6.3950193407436E-07	2102933	4.15831382269971E-05
2	542	109.268396724124	1.14944458007813	1.14898681640625	5.419921875E-07	6.22741879396926E-07	2119932.5	4.16381990362424E-05
2	543	109.36910472387	1.13937377929688	1.1395263671875	5.322265625E-07	6.06486139531626E-07	2141055.25	4.16922885051463E-05
2	544	109.469812723615	1.12930297851563	1.129150390625	5.2337646484375E-07	5.90970728353568E-07	2157434.5	4.17454430134967E-05
2	545	109.570520723361	1.11923217773438	1.1187744140625	5.13916015625E-07	5.74956061427656E-07	2176959.75	4.17976771132089E-05
2	546	109.671228723107	1.10916137695313	1.10870361328125	5.04455566406251E-07	5.59291720492183E-07	2197822.25	4.18489544244949E-05
2	547	109.771936722853	1.09909057617188	1.09893798828125	4.95300292968751E-07	5.44304327831924E-07	2218730.75	4.18992967752274E-05
2	548	109.872644722598	1.08901977539063	1.08917236328125	4.864501953125E-07	5.29828071194061E-07	2239021.5	4.1948733269237E-05
2	549	109.973352722344	1.07894897460938	1.0791015625	4.76989746093751E-07	5.14720341016073E-07	2262316.25	4.19972457166295E-05
2	550	110.07406072209	1.06887817382813	1.06842041015625	4.681396484375E-07	5.00169960560015E-07	2282268.75	4.20448341174051E-05
2	551	110.174768721835	1.05880737304688	1.05865478515625	4.5928955078125E-07	4.86229055240983E-07	2304983.5	4.20915348513518E-05
2	552	110.275476721581	1.04873657226563	1.04888916015625	4.50439453125E-07	4.72461039180416E-07	2328590.75	4.21373442804907E-05
2	553	110.376184721327	1.03866577148438	1.03790283203125	4.412841796875E-07	4.58010077863946E-07	2352005.75	4.21822442149278E-05
2	554	110.476892721073	1.02859497070313	1.0284423828125	4.32739257812501E-07	4.4504739094009E-07	2376586.75	4.2226256482536E-05
2	555	110.577600720818	1.01852416992188	1.0186767578125	4.2388916015625E-07	4.31806029155268E-07	2403167.75	4.22693919972517E-05
2	556	110.678308720564	1.00845336914063	1.00830078125	4.15954589843751E-07	4.19407342633349E-07	2424064.5	4.23116798629053E-05
2	557	110.77901672031	0.998382568359375	0.99884033203125	4.0863037109375E-07	4.08156495268486E-07	2444361.5	4.23532001150306E-05
2	558	110.879724720056	0.988311767578125	0.9881591796875	4.00695800781251E-07	3.9595121847924E-07	2466108.25	4.23939563916065E-05
2	559	110.980432719801	0.978240966796875	0.97869873046875	3.9337158203125E-07	3.84992262070227E-07	2487975.25	4.24339377786964E-05
2	560	111.081140719547	0.968170166015625	0.968017578125	3.863525390625E-07	3.73996044800151E-07	2505529.25	4.24732024839614E-05
2	561	111.181848719293	0.958099365234375	0.95855712890625	3.7994384765625E-07	3.64197859425985E-07	2522891.75	4.25117868871894E-05
2	562	111.282556719039	0.948028564453125	0.948486328125	3.7261962890625E-07	3.53424610466391E-07	2545454.75	4.25496837124228E-05
2	563	111.383264718784	0.937957763671875	0.9381103515625	3.6590576171875E-07	3.43259983992539E-07	2563803.25	4.25868711317889E-05
2	564	111.48397271853	0.927886962890625	0.92803955078125	3.59191894531249E-07	3.33344274849878E-07	2583687.5	4.26233818870969E-05
2	565	111.584680718276	0.917816162109375	0.91766357421875	3.52783203125E-07	3.23736287555221E-07	2601211.25	4.2659230530262E-05
2	566	111.685388718021	0.907745361328125	0.9075927734375	3.4637451171875E-07	3.1436698577636E-07	2620264.5	4.2694438889157E-05
2	567	111.786096717767	0.897674560546875	0.89752197265625	3.39660644531251E-07	3.04852875387951E-07	2642408	4.27289814979304E-05
2	568	111.886804717513	0.887603759765625	0.887451171875	3.326416015625E-07	2.95203193445559E-07	2667890	4.27628365287092E-05
2	569	111.987512717259	0.877532958984375	0.87799072265625	3.25622558593749E-07	2.85893577256502E-07	2696345	4.27959821536206E-05
2	570	112.088220717004	0.867462158203125	0.8673095703125	3.18298339843751E-07	2.76063190085551E-07	2724832.25	4.28284038207494E-05
2	571	112.18892871675	0.857391357421875	0.8575439453125	3.10668945312501E-07	2.66412257587945E-07	2760314.5	4.28600760642439E-05
2	572	112.289636716496	0.847320556640625	0.84747314453125	3.03039550781251E-07	2.56817884292104E-07	2796576	4.28909806942102E-05
2	573	112.390344716242	0.837249755859375	0.83740234375	2.9449462890625E-07	2.4661048314556E-07	2843523.5	4.29210667789448E-05
2	574	112.491052715987	0.827178955078125	0.82763671875	2.86254882812501E-07	2.36915042250985E-07	2891258	4.29503088525962E-05
2	575	112.591760715733	0.817108154296875	0.81695556640625	2.78320312499999E-07	2.27375323902379E-07	2935307.25	4.29787396569736E-05
2	576	112.692468715479	0.807037353515625	0.806884765625	2.69470214843751E-07	2.17431406213109E-07	2994337.5	4.3006322812289E-05
2	577	112.793176715225	0.796966552734375	0.79742431640625	2.6092529296875E-07	2.08068158258357E-07	3056140.5	4.30330292147119E-05
2	578	112.89388471497	0.786895751953125	0.787353515625	2.5299072265625E-07	1.99193124217345E-07	3112183.5	4.30589061579667E-05
2	579	112.994592714716	0.776824951171875	0.77667236328125	2.45361328125E-07	1.90565359048378E-07	3165423	4.3084000935778E-05
2	580	113.095300714462	0.766754150390625	0.7666015625	2.38037109375E-07	1.82479610089104E-07	3220513	4.31083426519763E-05
2	581	113.196008714208	0.756683349609375	0.7568359375	2.31018066406249E-07	1.74842767819428E-07	3276089.75	4.31319604103919E-05
2	582	113.296716713953	0.746612548828125	0.74658203125	2.24609375E-07	1.67689321983744E-07	3323913.25	4.31549051427282E-05
2	583	113.397424713699	0.736541748046875	0.736480712890625	2.18811035156249E-07	1.61150097710561E-07	3365830	4.31772314186674E-05
2	584	113.498132713445	0.726470947265625	0.726348876953125	2.12707519531249E-07	1.54499872451197E-07	3414777.5	4.31989610660821E-05
2	585	113.59884071319	0.716400146484375	0.71636962890625	2.06909179687501E-07	1.48223449514262E-07	3462242	4.32200904469937E-05
2	586	113.699548712936	0.706329345703125	0.706207275390625	2.0172119140625E-07	1.42456968887927E-07	3500907.75	4.32406668551266E-05
2	587	113.800256712682	0.696258544921875	0.6961669921875	1.9561767578125E-07	1.36182563892362E-07	3558814.5	4.32606757385656E-05
2	588	113.900964712428	0.686187744140625	0.68609619140625	1.90124511718751E-07	1.30443709167594E-07	3608667.75	4.32800989074167E-05
2	589	114.001672712173	0.676116943359375	0.676025390625	1.8463134765625E-07	1.24815471735928E-07	3661487.5	4.32989691034891E-05
2	590	114.102380711919	0.666046142578125	0.66595458984375	1.7974853515625E-07	1.19704353096495E-07	3704923.75	4.33173154306132E-05
2	591	114.203088711665	0.655975341796875	0.655975341796875	1.74865722656251E-07	1.14707596310382E-07	3751309	4.33351706305984E-05
2	592	114.303796711411	0.645904541015625	0.64581298828125	1.71508789062499E-07	1.10762606198023E-07	3765480.5	4.33526147389784E-05
2	593	114.404504711156	0.635833740234375	0.635833740234375	1.6754150390625E-07	1.06528538879047E-07	3795082	4.33696877735201E-05
2	594	114.505212710902	0.625762939453125	0.625701904296875	1.6448974609375E-07	1.02921546840662E-07	3803896	4.33864042861387E-05
2	595	114.605920710648	0.615692138671875	0.61566162109375	1.62353515624999E-07	9.99548319668975E-08	3792105.25	4.3402862502262E-05
2	596	114.706628710394	0.605621337890625	0.6055908203125	1.59912109375E-07	9.68413047530703E-08	3787023	4.34190915257204E-05
2	597	114.807336710139	0.595550537109375	0.59552001953125	1.58081054687501E-07	9.41404323384631E-08	3767181.5	4.34351022704504E-05
2	598	114.908044709885	0.585479736328125	0.585357666015625	1.56555175781251E-07	9.16407714157685E-08	3738986.5	4.34509456681553E-05
2	599	115.008752709631	0.575408935546875	0.575408935546875	1.54724121093749E-07	8.90296405486879E-08	3718935	4.34666217188351E-05
2	600	115.109460709377	0.565338134765625	0.5653076171875	1.53198242187499E-07	8.66041318658972E-08	3690039.75	4.34821267845109E-05
2	601	115.210168709122	0.555267333984375	0.5552978515625	1.51977539062501E-07	8.43927949745193E-08	3653815.5	4.34974936069921E-05
2	602	115.310876708868	0.545196533203125	0.545135498046875	1.50146484374999E-07	8.18501746380207E-08	3630691.25	4.35127039963845E-05
2	603	115.411584708614	0.535125732421875	0.535064697265625	1.48620605468749E-07	7.95216337223792E-08	3600205.5	4.35277506767306E-05
2	604	115.512292708359	0.525054931640625	0.524993896484375	1.4678955078125E-07	7.70636177094275E-08	3576507.5	4.3542622734094E-05
2	605	115.613000708105	0.514984130859375	0.514923095703125	1.45874023437501E-07	7.51139026533565E-08	3529916.25	4.35573601862416E-05
2	606	115.713708707851	0.504913330078125	0.5048828125	1.44348144531251E-07	7.28788904780231E-08	3497674.75	4.35719739471097E-05
2	607	115.814416707597	0.494842529296875	0.494781494140625	1.42517089843749E-07	7.05148153201662E-08	3471734.75	4.35864203609526E-05
2	608	115.915124707342	0.484771728515625	0.48480224609375	1.40991210937499E-07	6.83528540434963E-08	3438528.25	4.36006957897916E-05
2	609	116.015832707088	0.474700927734375	0.47467041015625	1.39770507812501E-07	6.63449242210845E-08	3396070	4.3614832975436E-05
2	610	116.116540706834	0.464630126953125	0.464630126953125	1.385498046875E-07	6.43744115791378E-08	3353524.25	4.36288464698009E-05
2	611	116.21724870658	0.454559326171875	0.45458984375	1.36718750000001E-07	6.21509599341152E-08	3325000	4.36427071690559E-05
2	612	116.317956706325	0.444488525390625	0.4444580078125	1.3458251953125E-07	5.98162799292368E-08	3302494.25	4.36563714174554E-05
2	613	116.418664706071	0.434417724609375	0.43438720703125	1.33056640625E-07	5.77980969751479E-08	3264679.25	4.36698464909568E-05
2	614	116.519372705817	0.424346923828125	0.424346923828125	1.312255859375E-07	5.56851702526728E-08	3233721.25	4.36831542174332E-05
2	615	116.620080705563	0.414276123046875	0.414276123046875	1.2939453125E-07	5.36050599464488E-08	3201651.25	4.36962764069904E-05
2	616	116.720788705308	0.404205322265625	0.40423583984375	1.26953125E-07	5.13190023809784E-08	3184134.5	4.37091839557979E-05
2	617	116.821496705054	0.394134521484375	0.39410400390625	1.2542724609375E-07	4.94313816545855E-08	3142092.5	4.37218950537499E-05
2	618	116.9222047048	0.384063720703125	0.384063720703125	1.23291015625E-07	4.73516053034473E-08	3115099	4.37344169768039E-05
2	619	117.022912704546	0.373992919921875	0.373992919921875	1.21459960937501E-07	4.54251676273998E-08	3079145.75	4.37467424490023E-05
2	620	117.123620704291	0.363922119140625	0.363922119140625	1.19934082031251E-07	4.36466649489375E-08	3034351	4.37588969361968E-05
2	621	117.224328704037	0.353851318359375	0.353790283203125	1.18408203125001E-07	4.18916705768879E-08	2987886.5	4.37708986282814E-05
2	622	117.325036703783	0.343780517578125	0.34375	1.171875E-07	4.02832007750931E-08	2933333.5	4.37827620771714E-05
2	623	117.425744703528	0.333709716796875	0.333709716796875	1.15966796875E-07	3.86992446976819E-08	2877631.75	4.37945018347818E-05
2	624	117.526452703274	0.323638916015625	0.3236083984375	1.1444091796875E-07	3.70340416111503E-08	2827733.5	4.38061033491977E-05
2	625	117.62716070302	0.313568115234375	0.31353759765625	1.1260986328125E-07	3.53074263159669E-08	2784282	4.38175375165883E-05
2	626	117.727868702766	0.303497314453125	0.303466796875	1.116943359375E-07	3.38955210565928E-08	2716940	4.38288298028056E-05
2	627	117.828576702511	0.293426513671875	0.29339599609375	1.09252929687501E-07	3.20543733778322E-08	2685474.75	4.38399583799765E-05
2	628	117.929284702257	0.283355712890625	0.2833251953125	1.068115234375E-07	3.02623952563863E-08	2652571.5	4.38508359366097E-05
2	629	118.029992702003	0.273284912109375	0.27325439453125	1.04370117187499E-07	2.85195920213255E-08	2618128.75	4.38614697486628E-05
2	630	118.130700701749	0.263214111328125	0.26324462890625	1.0223388671875E-07	2.69125202123632E-08	2574925.5	4.38718743680511E-05
2	631	118.231408701494	0.253143310546875	0.253143310546875	9.918212890625E-08	2.51072904688954E-08	2552307.75	4.38820170529652E-05
2	632	118.33211670124	0.243072509765625	0.2430419921875	9.613037109375E-08	2.33637162949663E-08	2528254	4.38918505096808E-05
2	633	118.432824700986	0.233001708984375	0.233001708984375	9.27734375000003E-08	2.16163691391102E-08	2511513.25	4.39013638242614E-05
2	634	118.533532700732	0.222930908203125	0.22296142578125	8.85009765625E-08	1.9732302902753E-08	2519310.5	4.39104915130883E-05
2	635	118.634240700477	0.212860107421875	0.212890625	8.45336914062495E-08	1.79964292357226E-08	2518411.75	4.39192044723313E-05
2	636	118.734948700223	0.202789306640625	0.202850341796875	8.02612304687506E-08	1.62810174231254E-08	2527376.5	4.39275027019903E-05
2	637	118.835656699969	0.192718505859375	0.192718505859375	7.44628906250003E-08	1.43503768867959E-08	2588114.75	4.39352916146163E-05
2	638	118.936364699715	0.182647705078125	0.182647705078125	6.866455078125E-08	1.25414221230358E-08	2660000	4.39424984506331E-05
2	639	119.03707269946	0.172576904296875	0.172637939453125	6.103515625E-08	1.05369828418134E-08	2828500.25	4.39490322605707E-05
2	640	119.137780699206	0.162506103515625	0.1624755859375	5.18798828125E-08	8.42921377142147E-09	3131765	4.39547147834674E-05
2	641	119.238488698952	0.152435302734375	0.152435302734375	4.119873046875E-08	6.28014040771063E-09	3700000.25	4.39594041381497E-05
2	642	119.339196698697	0.142364501953125	0.142364501953125	2.65502929687494E-08	3.77981912436098E-09	5362069	4.39628165622707E-05
2	643	119.439904698443	0.132293701171875	0.132293701171875	7.01904296875056E-09	9.2857516120759E-10	18847826	4.39645045844372E-05
2	644	119.540612698189	0.122222900390625	0.122283935546875	-1.8310546875E-08	-2.23908558361074E-09	-6678333.5	4.39639370597433E-05
2	645	119.641320697935	0.112152099609375	0.112152099609375	-5.31005859375003E-08	-5.95534199732128E-09	-2112069	4.39603390987031E-05
2	646	119.74202869768	0.102081298828125	0.10211181640625	-1.00097656250001E-07	-1.02211528130169E-08	-1020122	4.39526265836321E-05
2	647	119.842736697426	0.092010498046875	0.09210205078125	-1.6510009765625E-07	-1.52060568581192E-08	-557855.875	4.39392715634312E-05
2	648	119.943444697172	0.081939697265625	0.082000732421875	-2.5299072265625E-07	-2.07454231571091E-08	-324125.46875	4.39182185800746E-05
2	649	120.044152696918	0.071868896484375	0.0718994140625	-3.70178222656251E-07	-2.6615596837587E-08	-194229.1875	4.38868410128634E-05
2	650	120.144860696663	0.061798095703125	0.0618896484375	-5.2215576171875E-07	-3.23160342929896E-08	-118527.1796875	4.38419083366171E-05
2	651	120.245568696409	0.051727294921875	0.05181884765625	-7.122802734375E-07	-3.69095438657041E-08	-72750.640625	4.37797498307191E-05
2	652	120.346276696155	0.041656494140625	0.0417572021484375	-9.3414306640625E-07	-3.90072010247877E-08	-44701.08203125	4.36968475696631E-05
2	653	120.446984695901	0.031585693359375	0.031634521484375	-1.1773681640625E-06	-3.72454778130304E-08	-26868.84375	4.3590524001047E-05
2	654	120.547692695646	0.021514892578125	0.021600341796875	-1.41998291015625E-06	-3.06721155141076E-08	-15211.6923828125	4.34597350249533E-05
2	655	120.648400695392	0.011444091796875	0.0115478515625	-1.6375732421875E-06	-1.89104518710792E-08	-7051.8076171875	4.33057757618371E-05
2	656	120.749108695138	0.001373291015625	0.00147094726562499	-1.80755615234375E-06	-2.65881983096961E-09	-813.776794433594	4.3132298742421E-05
2	657	120.849816694884	-0.008697509765625	-0.00861511230468751	-1.91619873046875E-06	1.65082667535899E-08	4495.93896484375	4.29447936767247E-05
2	658	120.950524694629	-0.018768310546875	-0.0186431884765625	-1.962890625E-06	3.65945389546596E-08	9497.82421875	4.27494669565931E-05
2	659	121.051232694375	-0.028839111328125	-0.028692626953125	-1.9586181640625E-06	5.6197901443511E-08	14649.4228515625	4.2552001104923E-05
2	660	121.151940694121	-0.038909912109375	-0.038787841796875	-1.91741943359375E-06	7.43725649954285E-08	20229.189453125	4.23568271799013E-05
2	661	121.252648693866	-0.048980712890625	-0.0488433837890625	-1.85516357421875E-06	9.06124668631492E-08	26328.34375	4.21668628405314E-05
2	662	121.353356693612	-0.059051513671875	-0.0589599609375	-1.78314208984375E-06	1.0513398507328E-07	33065.20703125	4.19836615037639E-05
2	663	121.454064693358	-0.069122314453125	-0.069091796875	-1.708984375E-06	1.18076798116817E-07	40428.57421875	4.18078161601443E-05
2	664	121.554772693104	-0.079193115234375	-0.07916259765625	-1.6375732421875E-06	1.2963454310011E-07	48341.41015625	4.16393049817998E-05
2	665	121.655480692849	-0.089263916015625	-0.0892333984375	-1.57257080078125E-06	1.40325838060562E-07	56743.64453125	4.14776623074431E-05
2	666	121.756188692595	-0.099334716796875	-0.099212646484375	-1.513671875E-06	1.50175381463669E-07	65544.359375	4.13222587667406E-05
2	667	121.856896692341	-0.109405517578125	-0.10931396484375	-1.46148681640625E-06	1.59760915607876E-07	74796.40625	4.11724467994645E-05
2	668	121.957604692087	-0.119476318359375	-0.119415283203125	-1.41632080078125E-06	1.69130345284429E-07	84313.7265625	4.10275351896416E-05
2	669	122.058312691832	-0.129547119140625	-0.12945556640625	-1.37603759765625E-06	1.78135721284889E-07	94078.515625	4.08869309467264E-05
2	670	122.159020691578	-0.139617919921875	-0.13946533203125	-1.341552734375E-06	1.8710008475864E-07	103958.1484375	4.07500883738976E-05
2	671	122.259728691324	-0.149688720703125	-0.1495361328125	-1.31134033203125E-06	1.96092756254984E-07	114033.0546875	4.061650543008E-05
2	672	122.36043669107	-0.159759521484375	-0.159637451171875	-1.2860107421875E-06	2.05295478394873E-07	124133.84375	4.04857164539862E-05
2	673	122.461144690815	-0.169830322265625	-0.169708251953125	-1.2640380859375E-06	2.14517683616577E-07	134258.8125	4.03573139919899E-05
2	674	122.561852690561	-0.179901123046875	-0.1798095703125	-1.2451171875E-06	2.23883972694239E-07	144411.765625	4.02309669880196E-05
2	675	122.662560690307	-0.189971923828125	-0.1898193359375	-1.2298583984375E-06	2.33450904829624E-07	154342.4375	4.01063407480251E-05
2	676	122.763268690053	-0.200042724609375	-0.19989013671875	-1.21673583984375E-06	2.43213492012728E-07	164283.9375	3.99831478716806E-05
2	677	122.863976689798	-0.189971923828125	-0.189910888671875	-1.07330322265625E-06	2.03831973522028E-07	176940.578125	3.98678348574322E-05
