Potential,Current,Normalized_Potential,Normalized_Current
1.50497436523438,7.550048828125e-07,1.470336914062505,0.11190519269042881
1.49993896484375,8.319091796875e-07,1.465301513671875,0.12330378143658403
1.49490356445313,8.197021484375e-07,1.460266113281255,0.12149448163560701
1.4898681640625,8.02001953125001e-07,1.455230712890625,0.11887099692419048
1.48483276367188,7.83691406249999e-07,1.450195312500005,0.11615704722272466
1.47979736328125,7.66601562500001e-07,1.445159912109375,0.11362402750135711
1.47476196289063,7.50732421875e-07,1.440124511718755,0.11127193776008684
1.4697265625,7.3638916015625e-07,1.435089111328125,0.10914601049393884
1.46469116210938,7.2296142578125e-07,1.430053710937505,0.10715578071286412
1.45965576171875,7.1014404296875e-07,1.425018310546875,0.10525601592183824
1.45462036132813,6.9915771484375e-07,1.419982910156255,0.10362764610095893
1.4495849609375,6.88781738281251e-07,1.414947509765625,0.10208974127012861
1.44454956054688,6.7901611328125e-07,1.409912109375005,0.10064230142934684
1.43951416015625,6.695556640625e-07,1.404876708984375,0.09924009408358965
1.43447875976563,6.6253662109375e-07,1.399841308593755,0.09819974669802786
1.429443359375,6.55517578125001e-07,1.394805908203125,0.09715939931246623
1.42440795898438,6.49108886718751e-07,1.389770507812505,0.09620951691695329
1.41937255859375,6.42700195312501e-07,1.384735107421875,0.09525963452144036
1.41433715820313,6.390380859375e-07,1.379699707031255,0.0947168445811471
1.4093017578125,6.33850097656251e-07,1.374664306640625,0.093947892165732
1.40426635742188,6.29577636718751e-07,1.369628906250005,0.09331463723539006
1.39923095703125,6.256103515625e-07,1.364593505859375,0.09272661480007238
1.39419555664063,6.2286376953125e-07,1.359558105468755,0.09231952234485255
1.38916015625,6.195068359375e-07,1.354522705078125,0.09182196489958386
1.38412475585938,6.1798095703125e-07,1.349487304687505,0.09159580242446173
1.37908935546875,6.1614990234375e-07,1.344451904296875,0.09132440745431518
1.37405395507813,6.1431884765625e-07,1.339416503906255,0.09105301248416862
1.3690185546875,6.1309814453125e-07,1.334381103515625,0.09087208250407093
1.36398315429688,6.1187744140625e-07,1.329345703125005,0.09069115252397321
1.35894775390625,6.11267089843751e-07,1.324310302734375,0.09060068753392453
1.35391235351563,6.10656738281251e-07,1.319274902343755,0.09051022254387567
1.348876953125,6.103515625e-07,1.314239501953125,0.0904649900488511
1.34384155273438,6.103515625e-07,1.309204101562505,0.0904649900488511
1.33880615234375,6.11267089843751e-07,1.304168701171875,0.09060068753392453
1.33377075195313,6.121826171875e-07,1.299133300781255,0.09073638501899765
1.3287353515625,6.1248779296875e-07,1.294097900390625,0.09078161751402208
1.32369995117188,6.14013671874999e-07,1.289062500000005,0.09100777998914406
1.31866455078125,6.15539550781249e-07,1.284027099609375,0.09123394246426618
1.31362915039063,6.16760253906251e-07,1.278991699218755,0.09141487244436418
1.30859375,6.19201660156249e-07,1.273956298828125,0.09177673240455929
1.30355834960938,6.21643066406249e-07,1.268920898437505,0.09213859236475469
1.29852294921875,6.243896484375e-07,1.263885498046875,0.09254568481997466
1.29348754882813,6.2713623046875e-07,1.258850097656255,0.09295277727519449
1.2884521484375,6.2957763671875e-07,1.253814697265625,0.0933146372353899
1.28341674804688,6.3323974609375e-07,1.248779296875005,0.09385742717568302
1.27838134765625,6.36901855468749e-07,1.243743896484375,0.09440021711597597
1.27334594726563,6.40258789062501e-07,1.238708496093755,0.09489777456124494
1.268310546875,6.44531250000001e-07,1.233673095703125,0.0955310294915869
1.26327514648438,6.48803710937501e-07,1.228637695312505,0.09616428442192886
1.25823974609375,6.5338134765625e-07,1.223602294921875,0.09684277184729509
1.25320434570313,6.573486328125e-07,1.218566894531255,0.09743079428261263
1.2481689453125,6.6192626953125e-07,1.213531494140625,0.09810928170797902
1.24313354492188,6.6650390625e-07,1.208496093750005,0.09878776913334539
1.23809814453125,6.7138671875e-07,1.203460693359375,0.0995114890537362
1.23306274414063,6.7779541015625e-07,1.198425292968755,0.10046137144924915
1.22802734375,6.82373046875e-07,1.193389892578125,0.10113985887461553
1.22299194335938,6.866455078125e-07,1.188354492187505,0.10177311380495747
1.21795654296875,6.93359374999999e-07,1.183319091796875,0.10276822869549469
1.21292114257813,6.988525390625e-07,1.178283691406255,0.10358241360593451
1.2078857421875,7.0465087890625e-07,1.173248291015625,0.10444183101139859
1.20285034179688,7.110595703125e-07,1.168212890625005,0.10539171340691153
1.19781494140625,7.1685791015625e-07,1.163177490234375,0.10625113081237561
1.19277954101563,7.22961425781249e-07,1.158142089843755,0.10715578071286398
1.187744140625,7.293701171875e-07,1.153106689453125,0.10810566310837706
1.18270874023438,7.3577880859375e-07,1.148071289062505,0.10905554550388999
1.17767333984375,7.4188232421875e-07,1.143035888671875,0.1099601954043785
1.17263793945313,7.48596191406249e-07,1.138000488281255,0.11095531029491573
1.1676025390625,7.5531005859375e-07,1.132965087890625,0.11195042518545324
1.16256713867188,7.6171875e-07,1.127929687500005,0.11290030758096617
1.15753173828125,7.6904296875e-07,1.122894287109375,0.11398588746155239
1.15249633789063,7.757568359375e-07,1.117858886718755,0.11498100235208975
1.1474609375,7.8277587890625e-07,1.112823486328125,0.11602134973765152
1.14242553710938,7.89794921875001e-07,1.107788085937505,0.11706169712321346
1.13739013671875,7.97119140625001e-07,1.102752685546875,0.11814727700379968
1.13235473632813,8.0413818359375e-07,1.097717285156255,0.11918762438936131
1.1273193359375,8.11157226562501e-07,1.092681884765625,0.12022797177492325
1.12228393554688,8.19091796875e-07,1.087646484375005,0.12140401664555817
1.11724853515625,8.26110839843749e-07,1.082611083984375,0.1224443640311198
1.11221313476563,8.33740234375001e-07,1.077575683593755,0.12357517640673074
1.107177734375,8.41369628906249e-07,1.072540283203125,0.12470598878234108
1.10214233398438,8.502197265625e-07,1.067504882812505,0.12601773113804957
1.09710693359375,8.575439453125e-07,1.062469482421875,0.12710331101863578
1.09207153320313,8.6517333984375e-07,1.057434082031255,0.12823412339424642
1.0870361328125,8.740234375e-07,1.052398681640625,0.12954586574995477
1.08200073242188,8.81347656250001e-07,1.047363281250005,0.13063144563054113
1.07696533203125,8.9019775390625e-07,1.042327880859375,0.13194318798624932
1.07192993164063,8.984375e-07,1.037292480468755,0.13316446535190882
1.06689453125,9.063720703125e-07,1.032257080078125,0.13434051022254387
1.06185913085938,9.14306640625001e-07,1.027221679687505,0.1355165550931791
1.05682373046875,9.2132568359375e-07,1.022186279296875,0.13655690247874072
1.05178833007813,9.2803955078125e-07,1.017150878906255,0.13755201736927808
1.0467529296875,9.34448242187501e-07,1.012115478515625,0.1385018997647912
1.04171752929688,9.4024658203125e-07,1.007080078125005,0.13936131717025513
1.03668212890625,9.45434570312501e-07,1.002044677734375,0.14013026958567049
1.03164672851563,9.49707031249999e-07,0.9970092773437551,0.14076352451601215
1.026611328125,9.52758789062499e-07,0.991973876953125,0.1412158494662564
1.02157592773438,9.56115722656249e-07,0.9869384765625051,0.1417134069115251
1.01654052734375,9.57336425781249e-07,0.981903076171875,0.14189433689162279
1.01150512695313,9.58251953125e-07,0.9768676757812551,0.1420300343766962
1.0064697265625,9.57641601562501e-07,0.971832275390625,0.1419395693866475
1.00143432617188,9.57336425781249e-07,0.9667968750000051,0.14189433689162279
0.99639892578125,9.56420898437499e-07,0.961761474609375,0.1417586394065495
0.991363525390625,9.54589843750001e-07,0.95672607421875,0.14148724443640326
0.986328125,9.527587890625e-07,0.951690673828125,0.14121584946625657
0.981292724609375,9.51232910156249e-07,0.9466552734375,0.1409896869911343
0.97625732421875,9.48486328124999e-07,0.941619873046875,0.14058259453591446
0.971221923828125,9.4573974609375e-07,0.93658447265625,0.14017550208069476
0.9661865234375,9.429931640625e-07,0.931549072265625,0.13976840962547493
0.961151123046875,9.40856933593751e-07,0.926513671875,0.13945178216030413
0.95611572265625,9.39025878906251e-07,0.921478271484375,0.13918038719015757
0.951080322265625,9.368896484375e-07,0.91644287109375,0.13886375972498644
0.946044921875,9.3536376953125e-07,0.911407470703125,0.1386375972498643
0.941009521484375,9.34448242187499e-07,0.9063720703125,0.13850189976479088
0.93597412109375,9.31701660156249e-07,0.901336669921875,0.13809480730957105
0.930938720703125,9.31396484375e-07,0.89630126953125,0.13804957481454677
0.9259033203125,9.3109130859375e-07,0.891265869140625,0.13800434231952233
0.920867919921875,9.31091308593751e-07,0.88623046875,0.1380043423195225
0.91583251953125,9.3109130859375e-07,0.881195068359375,0.13800434231952233
0.910797119140625,9.32006835937499e-07,0.87615966796875,0.13814003980459547
0.90576171875,9.326171875e-07,0.871124267578125,0.13823050479464447
0.900726318359375,9.3353271484375e-07,0.8660888671875,0.13836620227971774
0.89569091796875,9.34753417968749e-07,0.861053466796875,0.1385471322598153
0.890655517578125,9.3658447265625e-07,0.85601806640625,0.138818527229962
0.8856201171875,9.3841552734375e-07,0.850982666015625,0.13908992220010855
0.880584716796875,9.40551757812501e-07,0.845947265625,0.13940654966527968
0.87554931640625,9.429931640625e-07,0.840911865234375,0.13976840962547493
0.870513916015625,9.45434570312499e-07,0.83587646484375,0.14013026958567018
0.865478515625,9.48486328125001e-07,0.830841064453125,0.14058259453591473
0.860443115234375,9.521484375e-07,0.8258056640625,0.1411253844762077
0.85540771484375,9.56115722656251e-07,0.820770263671875,0.14171340691152537
0.850372314453125,9.5947265625e-07,0.81573486328125,0.14221096435679392
0.8453369140625,9.6405029296875e-07,0.810699462890625,0.1428894517821603
0.840301513671875,9.68627929687499e-07,0.8056640625,0.14356793920752656
0.83526611328125,9.72900390624999e-07,0.800628662109375,0.14420119413786847
0.830230712890625,9.7808837890625e-07,0.79559326171875,0.14497014655328389
0.8251953125,9.83276367187501e-07,0.790557861328125,0.14573909896869927
0.820159912109375,9.88464355468749e-07,0.7855224609375,0.1465080513841142
0.81512451171875,9.94873046875e-07,0.780487060546875,0.14745793377962726
0.810089111328125,1.00128173828125e-06,0.77545166015625,0.1484078161751402
0.8050537109375,1.0076904296875e-06,0.770416259765625,0.14935769857065317
0.800018310546875,1.016845703125e-06,0.765380859375,0.15071467342138595
0.79498291015625,1.02386474609375e-06,0.760345458984375,0.15175502080694772
0.789947509765625,1.0333251953125e-06,0.75531005859375,0.1531572281527049
0.784912109375,1.04278564453125e-06,0.750274658203125,0.1545594354984621
0.779876708984375,1.05316162109375e-06,0.7452392578125,0.15609734032929257
0.77484130859375,1.0650634765625e-06,0.740203857421875,0.15786140763524517
0.769805908203125,1.07818603515625e-06,0.73516845703125,0.15980640492129547
0.7647705078125,1.0919189453125e-06,0.730133056640625,0.1618418671973946
0.759735107421875,1.1077880859375e-06,0.72509765625,0.16419395693866473
0.75469970703125,1.1248779296875e-06,0.720062255859375,0.16672697666003256
0.749664306640625,1.14471435546875e-06,0.71502685546875,0.16966708883662024
0.74462890625,1.16363525390625e-06,0.709991455078125,0.1724715035281346
0.739593505859375,1.18408203125e-06,0.7049560546875,0.17550208069477113
0.73455810546875,1.2060546875e-06,0.699920654296875,0.17875882033652976
0.729522705078125,1.229248046875e-06,0.69488525390625,0.1821964899583861
0.7244873046875,1.2506103515625e-06,0.689849853515625,0.1853627646100959
0.719451904296875,1.27227783203125e-06,0.684814453125,0.1885742717568301
0.71441650390625,1.2921142578125e-06,0.679779052734375,0.19151438393341777
0.709381103515625,1.30889892578125e-06,0.67474365234375,0.19400217115976115
0.704345703125,1.32293701171875e-06,0.669708251953125,0.19608286593088475
0.699310302734375,1.33209228515625e-06,0.6646728515625,0.19743984078161753
0.69427490234375,1.33758544921875e-06,0.659637451171875,0.1982540256920572
0.689239501953125,1.3372802734375e-06,0.65460205078125,0.19820879319703275
0.6842041015625,1.33148193359375e-06,0.649566650390625,0.19734937579156867
0.679168701171875,1.3201904296875e-06,0.64453125,0.19567577347566492
0.67413330078125,1.302490234375e-06,0.639495849609375,0.19305228876424824
0.669097900390625,1.2823486328125e-06,0.63446044921875,0.19006694409263616
0.6640625,1.25640869140625e-06,0.629425048828125,0.18622218201555998
0.659027099609375,1.22833251953125e-06,0.6243896484375,0.18206079247331283
0.65399169921875,1.19842529296875e-06,0.619354248046875,0.17762800796091913
0.648956298828125,1.168212890625e-06,0.61431884765625,0.173149990953501
0.6439208984375,1.1383056640625e-06,0.609283447265625,0.1687172064411073
0.638885498046875,1.1090087890625e-06,0.604248046875,0.16437488691876243
0.63385009765625,1.08184814453125e-06,0.599212646484375,0.16034919486158858
0.628814697265625,1.0552978515625e-06,0.59417724609375,0.15641396779446354
0.623779296875,1.03118896484375e-06,0.589141845703125,0.15284060068753394
0.618743896484375,1.0089111328125e-06,0.5841064453125,0.14953862855075087
0.61370849609375,9.8846435546875e-07,0.579071044921875,0.14650805138411435
0.608673095703125,9.69848632812499e-07,0.57403564453125,0.14374886918762425
0.6036376953125,9.527587890625e-07,0.569000244140625,0.14121584946625657
0.598602294921875,9.3719482421875e-07,0.56396484375,0.13890899222001085
0.59356689453125,9.23767089843751e-07,0.558929443359375,0.13691876243893628
0.588531494140625,9.112548828125e-07,0.55389404296875,0.1350642301429347
0.58349609375,8.990478515625e-07,0.548858642578125,0.13325493034195765
0.578460693359375,8.88366699218751e-07,0.5438232421875,0.1316717930161029
0.57342529296875,8.7860107421875e-07,0.538787841796875,0.13022435317532116
0.568389892578125,8.7005615234375e-07,0.53375244140625,0.12895784331463725
0.5633544921875,8.61511230468751e-07,0.528717041015625,0.12769133345395348
0.558319091796875,8.53881835937501e-07,0.523681640625,0.12656052107834284
0.55328369140625,8.4716796875e-07,0.518646240234375,0.12556540618780532
0.548248291015625,8.40148925781251e-07,0.51361083984375,0.12452505880224368
0.543212890625,8.33740234375001e-07,0.508575439453125,0.12357517640673074
0.538177490234375,8.27941894531251e-07,0.5035400390625,0.12271575900126666
0.53314208984375,8.2275390625e-07,0.498504638671875,0.12194680658585129
0.528106689453125,8.1756591796875e-07,0.49346923828125,0.12117785417043604
0.5230712890625,8.12683105468751e-07,0.488433837890625,0.12045413425004538
0.518035888671875,8.07800292968751e-07,0.4833984375,0.11973041432965456
0.51300048828125,8.03527832031251e-07,0.478363037109375,0.11909715939931262
0.507965087890625,7.98950195312499e-07,0.47332763671875,0.11841867197394594
0.5029296875,7.9498291015625e-07,0.468292236328125,0.11783064953862855
0.497894287109375,7.916259765625e-07,0.4632568359375,0.11733309209335988
0.49285888671875,7.88269042968749e-07,0.458221435546875,0.11683553464809104
0.487823486328125,7.8460693359375e-07,0.45318603515625,0.11629274470779809
0.4827880859375,7.82165527343751e-07,0.448150634765625,0.11593088474760282
0.477752685546875,7.80334472656249e-07,0.443115234375,0.11565948977745598
0.47271728515625,7.77587890625001e-07,0.438079833984375,0.11525239732223645
0.467681884765625,7.7545166015625e-07,0.43304443359375,0.11493576985706531
0.462646484375,7.74230957031249e-07,0.428009033203125,0.11475483987696747
0.457611083984375,7.73010253906251e-07,0.4229736328125,0.11457390989687007
0.45257568359375,7.72399902343751e-07,0.417938232421875,0.11448344490682122
0.447540283203125,7.7056884765625e-07,0.41290283203125,0.11421204993667451
0.4425048828125,7.7056884765625e-07,0.407867431640625,0.11421204993667451
0.437469482421875,7.69653320312499e-07,0.40283203125,0.11407635245160108
0.43243408203125,7.6934814453125e-07,0.397796630859375,0.1140311199565768
0.427398681640625,7.6751708984375e-07,0.39276123046875,0.11375972498643025
0.42236328125,7.6629638671875e-07,0.387725830078125,0.11357879500633256
0.417327880859375,7.65075683593751e-07,0.3826904296875,0.113397865026235
0.41229248046875,7.6324462890625e-07,0.377655029296875,0.1131264700560883
0.407257080078125,7.60498046875e-07,0.37261962890625,0.11271937760086848
0.4022216796875,7.58666992187501e-07,0.367584228515625,0.11244798263072206
0.397186279296875,7.55920410156251e-07,0.362548828125,0.11204089017550223
0.39215087890625,7.55004882812499e-07,0.357513427734375,0.11190519269042866
0.387115478515625,7.51342773437499e-07,0.35247802734375,0.11136240275013555
0.382080078125,7.5042724609375e-07,0.347442626953125,0.11122670526506243
0.377044677734375,7.489013671875e-07,0.3424072265625,0.11100054278994029
0.37200927734375,7.4676513671875e-07,0.337371826171875,0.1106839153247693
0.366973876953125,7.45544433593749e-07,0.33233642578125,0.11050298534467146
0.3619384765625,7.45544433593749e-07,0.327301025390625,0.11050298534467146
0.356903076171875,7.4462890625e-07,0.322265625,0.11036728785959835
0.35186767578125,7.4462890625e-07,0.317230224609375,0.11036728785959835
0.346832275390625,7.44323730468749e-07,0.31219482421875,0.11032205536457376
0.341796875,7.4493408203125e-07,0.307159423828125,0.11041252035462276
0.336761474609375,7.464599609375e-07,0.3021240234375,0.11063868282974489
0.33172607421875,7.476806640625e-07,0.297088623046875,0.1108196128098426
0.326690673828125,7.49816894531251e-07,0.29205322265625,0.11113624027501372
0.3216552734375,7.51037597656251e-07,0.287017822265625,0.11131717025511141
0.316619873046875,7.537841796875e-07,0.281982421875,0.1117242627103311
0.31158447265625,7.55920410156249e-07,0.276947021484375,0.11204089017550192
0.306549072265625,7.58666992187501e-07,0.27191162109375,0.11244798263072206
0.301513671875,7.6202392578125e-07,0.266876220703125,0.11294554007599059
0.296478271484375,7.65075683593749e-07,0.2618408203125,0.1133978650262347
0.29144287109375,7.6934814453125e-07,0.256805419921875,0.1140311199565768
0.286407470703125,7.74230957031251e-07,0.25177001953125,0.11475483987696776
0.2813720703125,7.7850341796875e-07,0.246734619140625,0.11538809480730958
0.276336669921875,7.83691406250001e-07,0.24169921875,0.11615704722272495
0.27130126953125,7.88269042968751e-07,0.236663818359375,0.11683553464809134
0.266265869140625,7.93762207031251e-07,0.23162841796875,0.117649719558531
0.26123046875,7.9986572265625e-07,0.226593017578125,0.11855436945901936
0.256195068359375,8.06579589843749e-07,0.2215576171875,0.11954948434955658
0.25115966796875,8.135986328125e-07,0.216522216796875,0.1205898317351185
0.246124267578125,8.20312500000001e-07,0.21148681640625,0.12158494662565601
0.2410888671875,8.27941894531251e-07,0.206451416015625,0.12271575900126666
0.236053466796875,8.3648681640625e-07,0.201416015625,0.12398226886195043
0.23101806640625,8.4564208984375e-07,0.196380615234375,0.12533924371268318
0.225982666015625,8.55407714843749e-07,0.19134521484375,0.12678668355346467
0.220947265625,8.6700439453125e-07,0.186309814453125,0.12850551836439297
0.215911865234375,8.7890625e-07,0.1812744140625,0.13026958567034558
0.21087646484375,8.929443359375e-07,0.176239013671875,0.13235028044146915
0.205841064453125,9.0789794921875e-07,0.17120361328125,0.134566672697666
0.2008056640625,9.25598144531251e-07,0.166168212890625,0.13719015740908283
0.195770263671875,9.43908691406249e-07,0.1611328125,0.13990410711054807
0.19073486328125,9.65576171875e-07,0.156097412109375,0.14311561425728245
0.185699462890625,9.9090576171875e-07,0.15106201171875,0.14686991134430974
0.1806640625,1.02020263671875e-06,0.146026611328125,0.1512122308666546
0.175628662109375,1.05316162109375e-06,0.1409912109375,0.15609734032929257
0.17059326171875,1.09161376953125e-06,0.135955810546875,0.16179663470237018
0.165557861328125,1.13739013671875e-06,0.13092041015625,0.168581508956034
0.1605224609375,1.18865966796875e-06,0.125885009765625,0.1761805681201375
0.155487060546875,1.2493896484375e-06,0.120849609375,0.18518183462999818
