Potential - Start -0.2 V, Upper Vertex 1.5 V, Lower Vertex -0.2 V, Stop -0.19 V; Scan - # end cross 5, Rate 0.1 Vps, Step 0.01 V 
Scan	Index	Time (s)	Potential applied (V)	WE(1).Potential (V)	WE(1).Current (A)	WE(1).Power (W)	WE(1).Resistance (Ω)	WE(1).Charge (C)
1	1	62.2155098429209	-0.189971923828125	-0.1898193359375	-2.00500488281249E-07	3.80588680570781E-08	946727.5625	0
1	2	62.3162178426667	-0.179901123046875	-0.179718017578125	-1.666259765625E-07	2.99456885954896E-08	1078571.5	-1.8486284503183E-08
1	3	62.4169258424124	-0.169830322265625	-0.16973876953125	-1.4068603515625E-07	2.38798723017908E-08	1206507.625	-3.39606742727483E-08
1	4	62.5176338421581	-0.159759521484375	-0.159637451171875	-1.1749267578125E-07	1.87562303466393E-08	1358701.25	-4.69610021980316E-08
1	5	62.6183418419039	-0.149688720703125	-0.1495361328125	-9.67407226562494E-08	1.44662335443968E-08	1545741.375	-5.77485117503329E-08
1	6	62.7190498416496	-0.139617919921875	-0.139556884765625	-7.781982421875E-08	1.08602913329037E-08	1793333.375	-6.65383339537584E-08
1	7	62.8197578413954	-0.129547119140625	-0.12945556640625	-5.98144531249997E-08	7.74331443409437E-09	2164285.75	-7.34687688463964E-08
1	8	62.9204658411411	-0.119476318359375	-0.119354248046875	-4.24194335937503E-08	5.06293940105706E-09	2813669	-7.86166580724057E-08
1	9	63.0211738408868	-0.109405517578125	-0.109283447265625	-2.50244140624994E-08	2.73475420087266E-09	4367073.5	-8.20127254996805E-08
1	10	63.1218818406326	-0.099334716796875	-0.0992431640625	-6.71386718749945E-09	6.6630539974355E-10	14781819	-8.36108711155248E-08
1	11	63.2225898403783	-0.089263916015625	-0.08917236328125	1.43432617187494E-08	-1.27902255453449E-09	-6217021.5	-8.32267019745814E-08
1	12	63.323297840124	-0.079193115234375	-0.07916259765625	3.90625000000006E-08	-3.09228886941071E-09	-2026562.5	-8.05375037771228E-08
1	13	63.4240058398698	-0.069122314453125	-0.069091796875	7.04956054687497E-08	-4.87066786902801E-09	-980086.625	-7.50208215549719E-08
1	14	63.5247138396155	-0.059051513671875	-0.058929443359375	1.1016845703125E-07	-6.49216591597224E-09	-534903.0625	-6.59236576439071E-08
1	15	63.6254218393613	-0.048980712890625	-0.04886474609375	1.629638671875E-07	-7.96318744278324E-09	-299850.1875	-5.21703569233978E-08
1	16	63.726129839107	-0.038909912109375	-0.038763427734375	2.32849121093751E-07	-9.02602970143107E-09	-166474.4375	-3.22395905527628E-08
1	17	63.8268378388527	-0.028839111328125	-0.02869873046875	3.25622558593749E-07	-9.34495414384173E-09	-88134.9609375	-4.11830702873317E-09
1	18	63.9275458385985	-0.018768310546875	-0.01865234375	4.4677734375E-07	-8.33344415696047E-09	-41748.63671875	3.47751161200449E-08
1	19	64.0282538383442	-0.008697509765625	-0.00856933593750001	5.9967041015625E-07	-5.13877695951237E-09	-14290.076171875	8.74679457751881E-08
1	20	64.1289618380899	0.001373291015625	0.0015228271484375	7.8399658203125E-07	1.19389120811775E-09	1942.39013671875	1.57141116119419E-07
1	21	64.2296698378357	0.011444091796875	0.0115692138671875	9.9517822265625E-07	1.15134293210417E-08	11625.2685546875	2.46729683794911E-07
1	22	64.3303778375814	0.021514892578125	0.0215850830078125	1.21734619140625E-06	2.6276516962298E-08	17731.26171875	3.58139118361578E-07
1	23	64.4310858373271	0.031585693359375	0.03167724609375	1.43096923828125E-06	4.53291626456576E-08	22136.91796875	4.91492414766981E-07
1	24	64.5317938370729	0.041656494140625	0.0417449951171875	1.61529541015625E-06	6.74304985182062E-08	25843.568359375	6.44883982658939E-07
1	25	64.6325018368186	0.051727294921875	0.0517578125	1.75201416015625E-06	9.06804160649699E-08	29541.892578125	8.14441477814398E-07
1	26	64.7332098365644	0.061798095703125	0.0618896484375	1.83349609375E-06	1.13474428076188E-07	33754.9921875	9.94986294244882E-07
1	27	64.8339178363101	0.071868896484375	0.071868896484375	1.86126708984375E-06	1.33767201759838E-07	38612.88671875	1.18103241675271E-06
1	28	64.9346258360558	0.081939697265625	0.08203125	1.84783935546875E-06	1.51580564988762E-07	44393.06640625	1.36780067805375E-06
1	29	65.0353338358016	0.092010498046875	0.092010498046875	1.80572509765625E-06	1.66145667890305E-07	50954.875	1.55177224314684E-06
1	30	65.1360418355473	0.102081298828125	0.102142333984375	1.746826171875E-06	1.78424897967489E-07	58473.09765625	1.73065745912027E-06
1	31	65.236749835293	0.112152099609375	0.11212158203125	1.68121337890625E-06	1.88500294484584E-07	66690.8671875	1.90327295968018E-06
1	32	65.3374578350388	0.122222900390625	0.122222900390625	1.61529541015625E-06	1.97426075487783E-07	75665.9765625	2.06926529244811E-06
1	33	65.4381658347845	0.132293701171875	0.132354736328125	1.5521240234375E-06	2.05430964683728E-07	85273.3046875	2.22875769395614E-06
1	34	65.5388738345302	0.142364501953125	0.14239501953125	1.49261474609375E-06	2.12540896882274E-07	95399.71875	2.38207235270238E-06
1	35	65.639581834276	0.152435302734375	0.15252685546875	1.439208984375E-06	2.19518014432651E-07	105979.6484375	2.52970130532049E-06
1	36	65.7402898340217	0.162506103515625	0.162567138671875	1.39129638671875E-06	2.26179068363308E-07	116845.8046875	2.67222867478267E-06
1	37	65.8409978337675	0.172576904296875	0.172637939453125	1.34857177734375E-06	2.32814656442315E-07	128015.3828125	2.81019197245769E-06
1	38	65.9417058335132	0.182647705078125	0.182647705078125	1.31072998046875E-06	2.39401828139307E-07	139348.078125	2.94409846901544E-06
1	39	66.0424138332589	0.192718505859375	0.1927490234375	1.27685546875E-06	2.46112620061467E-07	150956.03125	3.07439381685981E-06
1	40	66.1431218330047	0.202789306640625	0.202789306640625	1.2469482421875E-06	2.52867749850338E-07	162628.5	3.20147728416487E-06
1	41	66.2438298327504	0.212860107421875	0.212860107421875	1.22039794921875E-06	2.5977405471167E-07	174418.609375	3.32571812577953E-06
1	42	66.3445378324961	0.222930908203125	0.222991943359375	1.1956787109375E-06	2.66626727807306E-07	186498.21875	3.44737713930954E-06
1	43	66.4452458322419	0.233001708984375	0.233062744140625	1.1737060546875E-06	2.73547129836516E-07	198569.953125	3.56668533640914E-06
1	44	66.5459538319876	0.243072509765625	0.24310302734375	1.15447998046875E-06	2.80657559414976E-07	210573.625	3.68391874872032E-06
1	45	66.6466618317334	0.253143310546875	0.253173828125	1.1370849609375E-06	2.87880141058849E-07	222651.640625	3.79930816052365E-06
1	46	66.7473698314791	0.263214111328125	0.26318359375	1.121826171875E-06	2.95246223913637E-07	234602.84375	3.91305320590618E-06
1	47	66.8480778312248	0.273284912109375	0.2733154296875	1.1077880859375E-06	3.02775561067392E-07	246721.765625	4.02532350562979E-06
1	48	66.9487858309706	0.283355712890625	0.2833251953125	1.0955810546875E-06	3.10405710024497E-07	258607.234375	4.13627185480436E-06
1	49	67.0494938307163	0.293426513671875	0.293487548828125	1.08428955078125E-06	3.18225488626922E-07	270672.65625	4.24603695137193E-06
1	50	67.150201830462	0.303497314453125	0.303466796875	1.0736083984375E-06	3.25804478507052E-07	282660.625	4.3546956476348E-06
1	51	67.2509098302078	0.313568115234375	0.31353759765625	1.064453125E-06	3.33746044134386E-07	294552.78125	4.46235571871512E-06
1	52	67.3516178299535	0.323638916015625	0.323577880859375	1.05560302734375E-06	3.41569773354422E-07	306533.6875	4.56910902357777E-06
1	53	67.4523258296992	0.333709716796875	0.333831787109375	1.0479736328125E-06	3.49846885683291E-07	318549.8125	4.67503241452505E-06
1	54	67.553033829445	0.343780517578125	0.343719482421875	1.04156494140625E-06	3.58006161604862E-07	330002.9375	4.78024912808905E-06
1	55	67.6537418291907	0.353851318359375	0.353851318359375	1.0357666015625E-06	3.66507350690881E-07	341632.3125	4.88485102323466E-06
1	56	67.7544498289365	0.363922119140625	0.3638916015625	1.0302734375E-06	3.74907841660388E-07	353199.0625	4.98888448419166E-06
1	57	67.8551578286822	0.373992919921875	0.3740234375	1.02569580078125E-06	3.83634244371933E-07	364653.40625	5.09241090185242E-06
1	58	67.9558658284279	0.384063720703125	0.384063720703125	1.021728515625E-06	3.92408850302672E-07	375896.0625	5.19550667377189E-06
1	59	68.0565738281737	0.394134521484375	0.3941650390625	1.01806640625E-06	4.01286200713002E-07	387170.25	5.29821863892721E-06
1	60	68.1572818279194	0.404205322265625	0.40423583984375	1.015625E-06	4.10552019047827E-07	398016.8125	5.40062319487333E-06
1	61	68.2579898276651	0.414276123046875	0.414337158203125	1.01318359375E-06	4.19799590645198E-07	408945.78125	5.50278173250263E-06
1	62	68.3586978274109	0.424346923828125	0.424285888671875	1.011962890625E-06	4.29361534770578E-07	419270.25	5.60475609745481E-06
1	63	68.4594058271566	0.434417724609375	0.43438720703125	1.01165771484375E-06	4.39451156353243E-07	429381.625	5.70665315535734E-06
1	64	68.5601138269024	0.444488525390625	0.444488525390625	1.01104736328125E-06	4.49398925184141E-07	439631.78125	5.80850473852479E-06
1	65	68.6608218266481	0.454559326171875	0.454559326171875	1.0107421875E-06	4.59442276223854E-07	449728.28125	5.91030993746244E-06
1	66	68.7615298263938	0.464630126953125	0.464630126953125	1.01104736328125E-06	4.69763023147607E-07	459553.3125	6.0121151364001E-06
1	67	68.8622378261396	0.474700927734375	0.474700927734375	1.01165771484375E-06	4.80234859878692E-07	469230.78125	6.11396626482019E-06
1	68	68.9629458258853	0.484771728515625	0.484771728515625	1.0125732421875E-06	4.90866852942418E-07	478752.28125	6.21589424554259E-06
1	69	69.063653825631	0.494842529296875	0.494842529296875	1.014404296875E-06	5.01970362165594E-07	487815.90625	6.317960924207E-06
1	70	69.1643618253768	0.504913330078125	0.504852294921875	1.016845703125E-06	5.13356837927859E-07	496488.625	6.42024224362103E-06
1	71	69.2650698251225	0.514984130859375	0.514923095703125	1.0205078125E-06	5.25483017099759E-07	504575.40625	6.52283142699162E-06
1	72	69.3657778248682	0.525054931640625	0.524993896484375	1.0235595703125E-06	5.37362495833804E-07	512909.96875	6.62575803289656E-06
1	73	69.466485824614	0.535125732421875	0.53509521484375	1.02813720703125E-06	5.50151241895946E-07	520451.1875	6.72906935506035E-06
1	74	69.5671938243597	0.545196533203125	0.54510498046875	1.03240966796875E-06	5.62771617751423E-07	527992.9375	6.83282632962801E-06
1	75	69.6679018241055	0.555267333984375	0.55523681640625	1.036376953125E-06	5.75434626171045E-07	535747.9375	6.93699803377967E-06
1	76	69.7686098238512	0.565338134765625	0.565277099609375	1.0406494140625E-06	5.88255261391168E-07	543196.5	7.04158446751535E-06
1	77	69.8693178235969	0.575408935546875	0.57537841796875	1.04522705078125E-06	6.01401040967176E-07	550481.75	7.14661655365489E-06
1	78	69.9700258233427	0.585479736328125	0.58538818359375	1.0504150390625E-06	6.14900500295334E-07	557292.3125	7.2521406764281E-06
1	79	70.0707338230884	0.595550537109375	0.595550537109375	1.055908203125E-06	6.28846692052321E-07	564017.3125	7.35820231057005E-06
1	80	70.1714418228341	0.605621337890625	0.605560302734375	1.060791015625E-06	6.42372924630763E-07	570857.3125	7.46478644941817E-06
1	81	70.2721498225799	0.615692138671875	0.615692138671875	1.0662841796875E-06	6.56502777474088E-07	577418.4375	7.57189354771981E-06
1	82	70.3728578223256	0.625762939453125	0.625701904296875	1.0711669921875E-06	6.70231202093419E-07	584131.0625	7.67952224123292E-06
1	83	70.4735658220714	0.635833740234375	0.6357421875	1.07574462890625E-06	6.83896246300719E-07	590978.6875	7.78762841946445E-06
1	84	70.5742738218171	0.645904541015625	0.645843505859375	1.080322265625E-06	6.97719087838777E-07	597824.875	7.89619480201509E-06
1	85	70.6749818215628	0.655975341796875	0.655914306640625	1.0845947265625E-06	7.11401185071736E-07	604755.1875	8.00520683696959E-06
1	86	70.7756898213086	0.666046142578125	0.66595458984375	1.08917236328125E-06	7.25339305063244E-07	611431.8125	8.11466452432796E-06
1	87	70.8763978210543	0.676116943359375	0.67608642578125	1.09344482421875E-06	7.39263157356618E-07	618308.6875	8.22456877358491E-06
1	88	70.9771058208	0.686187744140625	0.68609619140625	1.09771728515625E-06	7.53139602238662E-07	625020.875	8.33490230434109E-06
1	89	71.0778138205458	0.696258544921875	0.6961669921875	1.10137939453125E-06	7.66743937674619E-07	632086.5	8.44563510327134E-06
1	90	71.1785218202915	0.706329345703125	0.70623779296875	1.10504150390625E-06	7.80422055868257E-07	639105.1875	8.55673715705052E-06
1	91	71.2792298200372	0.716400146484375	0.716339111328125	1.107177734375E-06	7.93114679709106E-07	646995.625	8.66813206812367E-06
1	92	71.379937819783	0.726470947265625	0.72637939453125	1.1102294921875E-06	8.06447815193678E-07	654260.5625	8.77978709468152E-06
1	93	71.4806458195287	0.736541748046875	0.7364501953125	1.11236572265625E-06	8.19201943613734E-07	662057.625	8.89170314621879E-06
1	94	71.5813538192745	0.746612548828125	0.74652099609375	1.1151123046875E-06	8.32454702504037E-07	669458.1875	9.00386567082023E-06
1	95	71.6820618190202	0.756683349609375	0.7568359375	1.11846923828125E-06	8.46497698603343E-07	676671.25	9.11633560463088E-06
1	96	71.7827698187659	0.766754150390625	0.7672119140625	1.121826171875E-06	8.6067836946313E-07	683895.5625	9.22914387047058E-06
1	97	71.8834778185117	0.776824951171875	0.77667236328125	1.1260986328125E-06	8.74609668244375E-07	689701.9375	9.34233594307443E-06
1	98	71.9841858182574	0.786895751953125	0.7867431640625	1.13037109375E-06	8.89311706941953E-07	696004.3125	9.45595820667222E-06
1	99	72.0848938180031	0.796966552734375	0.7965087890625	1.13555908203125E-06	9.04482760688552E-07	701424.375	9.57005613599904E-06
1	100	72.1856018177489	0.807037353515625	0.80718994140625	1.14166259765625E-06	9.215385148309E-07	707030.25	9.68472340900917E-06
1	101	72.2863098174946	0.817108154296875	0.81787109375	1.1480712890625E-06	9.38974324071751E-07	712387	9.80002096184762E-06
1	102	72.3870178172403	0.827178955078125	0.82763671875	1.15631103515625E-06	9.57005454438331E-07	715756.1875	9.91605611488922E-06
1	103	72.4877258169861	0.837249755859375	0.83740234375	1.16424560546875E-06	9.74941940512508E-07	719266.125	1.00329052656889E-05
1	104	72.5884338167318	0.847320556640625	0.84747314453125	1.17340087890625E-06	9.94425704448076E-07	722236.6875	1.01506147984765E-05
1	105	72.6891418164776	0.857391357421875	0.8575439453125	1.182861328125E-06	1.01435557553486E-06	724974.25	1.02692620203015E-05
1	106	72.7898498162233	0.867462158203125	0.86761474609375	1.19110107421875E-06	1.03341687918146E-06	728414	1.03888005469344E-05
1	107	72.890557815969	0.877532958984375	0.87799072265625	1.19873046875E-06	1.05247420378873E-06	732433.875	1.050913851941E-05
1	108	72.9912658157148	0.887603759765625	0.88775634765625	1.2042236328125E-06	1.069057134373E-06	737202.25	1.06301367850392E-05
1	109	73.0919738154605	0.897674560546875	0.89813232421875	1.20941162109375E-06	1.08621168237732E-06	742619.25	1.07516725620371E-05
1	110	73.1926818152062	0.907745361328125	0.90789794921875	1.21337890625E-06	1.10162409328041E-06	748239.5	1.08736703623435E-05
1	111	73.293389814952	0.917816162109375	0.91827392578125	1.217041015625E-06	1.11757708509685E-06	754513.5625	1.09960510599194E-05
1	112	73.3940978146977	0.927886962890625	0.92803955078125	1.22039794921875E-06	1.13257760858687E-06	760440.125	1.1118786460429E-05
1	113	73.4948058144435	0.937957763671875	0.93841552734375	1.224365234375E-06	1.14896329250769E-06	766450.6875	1.12418902062927E-05
1	114	73.5955138141892	0.948028564453125	0.9478759765625	1.2286376953125E-06	1.16459614218911E-06	771485.375	1.13654086817405E-05
1	115	73.6962218139349	0.958099365234375	0.95794677734375	1.2322998046875E-06	1.18047751129779E-06	777365.0625	1.14893264253624E-05
1	116	73.7969298136807	0.968170166015625	0.968017578125	1.2359619140625E-06	1.19643289053784E-06	783209.875	1.16136134238332E-05
1	117	73.8976378134264	0.978240966796875	0.977783203125	1.2396240234375E-06	1.21208347536594E-06	788774	1.17382687676582E-05
1	118	73.9983458131721	0.988311767578125	0.98876953125	1.243896484375E-06	1.22992696560686E-06	794897	1.18633242891519E-05
1	119	74.0990538129179	0.998382568359375	0.99853515625	1.248779296875E-06	1.24695009162679E-06	799609	1.19888400149648E-05
1	120	74.1997618126636	1.00845336914063	1.00860595703125	1.25457763671875E-06	1.26537440792163E-06	803940.6875	1.21148941616411E-05
1	121	74.3004698124093	1.01852416992188	1.01837158203125	1.26068115234375E-06	1.28384181152796E-06	807794.75	1.22415476653259E-05
1	122	74.4011778121551	1.02859497070313	1.0284423828125	1.26678466796875E-06	1.30281500787532E-06	811852.625	1.23688159874291E-05
1	123	74.5018858119008	1.03866577148438	1.03851318359375	1.27349853515625E-06	1.32254490381456E-06	815480.5	1.24967291412759E-05
1	124	74.6025938116466	1.04873657226563	1.04888916015625	1.27960205078125E-06	1.34216065816872E-06	819699.5625	1.26252880363609E-05
1	125	74.7033018113923	1.05880737304688	1.058349609375	1.2872314453125E-06	1.36234086767217E-06	822190.625	1.27545381474192E-05
1	126	74.804009811138	1.06887817382813	1.06903076171875	1.2933349609375E-06	1.38261475512991E-06	826569.1875	1.28844803839456E-05
1	127	74.9047178108838	1.07894897460938	1.07818603515625	1.30126953125E-06	1.40301062856452E-06	828564.6875	1.30151283883606E-05
1	128	75.0054258106295	1.08901977539063	1.08856201171875	1.30859375E-06	1.4244853900891E-06	831856.375	1.31465458252933E-05
1	129	75.1061338103752	1.09909057617188	1.0986328125	1.31622314453125E-06	1.44604587148933E-06	834685.875	1.32787154143443E-05
1	130	75.206841810121	1.10916137695313	1.1090087890625	1.324462890625E-06	1.46884087826038E-06	837327.25	1.34116844492382E-05
1	131	75.3075498098667	1.11923217773438	1.119384765625	1.33270263671875E-06	1.4918069837222E-06	839935.9375	1.35454838527949E-05
1	132	75.4082578096125	1.12930297851563	1.129150390625	1.34002685546875E-06	1.51309188822779E-06	842632.625	1.36800663312897E-05
1	133	75.5089658093582	1.13937377929688	1.1395263671875	1.34857177734375E-06	1.53673317981884E-06	844987.5625	1.38154482556274E-05
1	134	75.6096738091039	1.14944458007813	1.1492919921875	1.3568115234375E-06	1.55937254930905E-06	847053.5625	1.39516751005431E-05
1	135	75.7103818088497	1.15951538085938	1.15966796875	1.36505126953125E-06	1.58300622388197E-06	849541.6875	1.40887314046267E-05
1	136	75.8110898085954	1.16958618164063	1.1700439453125	1.3739013671875E-06	1.60752495048655E-06	851621.5	1.4226649000193E-05
1	137	75.9117978083411	1.17965698242188	1.17919921875	1.38336181640625E-06	1.63125912422402E-06	852415.625	1.43654879138921E-05
1	138	76.0125058080869	1.18972778320313	1.190185546875	1.39312744140625E-06	1.6580801229793E-06	854326.4375	1.45052954394487E-05
1	139	76.1132138078326	1.19979858398438	1.19964599609375	1.40350341796875E-06	1.68370718256483E-06	854751.0625	1.46461170515977E-05
1	140	76.2139218075783	1.20986938476563	1.209716796875	1.41326904296875E-06	1.70965529378009E-06	855970.625	1.47879527503392E-05
1	141	76.3146298073241	1.21994018554688	1.2200927734375	1.4227294921875E-06	1.73586192886432E-06	857571.875	1.49307561514433E-05
1	142	76.4153378070698	1.23001098632813	1.23046875	1.43310546875E-06	1.76339153767913E-06	858603.0625	1.50745590872248E-05
1	143	76.5160458068156	1.24008178710938	1.240234375	1.44317626953125E-06	1.78987670551578E-06	859378.375	1.52193915710086E-05
1	144	76.6167538065613	1.25015258789063	1.24969482421875	1.4532470703125E-06	1.81611528660142E-06	859932.8125	1.53652381413849E-05
1	145	76.717461806307	1.26022338867188	1.26007080078125	1.46453857421875E-06	1.84542216175032E-06	860387.625	1.55121597344987E-05
1	146	76.8181698060528	1.27029418945313	1.27044677734375	1.47613525390625E-06	1.87535124496208E-06	860657.4375	1.56602345668944E-05
1	147	76.9188778057985	1.28036499023438	1.280517578125	1.4886474609375E-06	1.90623916296317E-06	860188.625	1.58095244842116E-05
1	148	77.0195858055442	1.29043579101563	1.2908935546875	1.5008544921875E-06	1.93744335774682E-06	860105.8125	1.59600567712914E-05
1	149	77.12029380529	1.30050659179688	1.3006591796875	1.513671875E-06	1.96877113012306E-06	859274.25	1.61118496180279E-05
1	150	77.2210018050357	1.31057739257813	1.3104248046875	1.52679443359375E-06	2.00074941858475E-06	858285	1.62649503181456E-05
1	151	77.3217098047814	1.32064819335938	1.32049560546875	1.54052734375E-06	2.03425952349789E-06	857171.1875	1.641940252739E-05
1	152	77.4224178045272	1.33071899414063	1.33056640625	1.55517578125E-06	2.06926461032708E-06	855573.0625	1.65752826433163E-05
1	153	77.5231258042729	1.34078979492188	1.34063720703125	1.57196044921875E-06	2.1074285996292E-06	852844.125	1.67327470990131E-05
1	154	77.6238338040187	1.35086059570313	1.3507080078125	1.5899658203125E-06	2.14757960748102E-06	849520.1875	1.68919632415054E-05
1	155	77.7245418037644	1.36093139648438	1.361083984375	1.60919189453125E-06	2.19024514080957E-06	845818.375	1.70530529430835E-05
1	156	77.8252498035101	1.37100219726563	1.370849609375	1.6290283203125E-06	2.23315282710246E-06	841513.6875	1.72161107911961E-05
1	157	77.9259578032559	1.38107299804688	1.3812255859375	1.65130615234375E-06	2.28082626563264E-06	836444.3125	1.73812877619639E-05
1	158	78.0266658030016	1.39114379882813	1.3909912109375	1.67572021484375E-06	2.33091213885928E-06	830085.5625	1.75488166860305E-05
1	159	78.1273738027473	1.40121459960938	1.4013671875	1.7034912109375E-06	2.38721668210928E-06	822644.25	1.77189740497852E-05
1	160	78.2280818024931	1.41128540039063	1.41143798828125	1.73553466796875E-06	2.44959960582491E-06	813258.3125	1.78921418410027E-05
1	161	78.3287898022388	1.42135620117188	1.4215087890625	1.7718505859375E-06	2.51870119427622E-06	802273.5625	1.80687529791612E-05
1	162	78.4294978019846	1.43142700195313	1.4312744140625	1.8145751953125E-06	2.59715511674585E-06	788765.5625	1.82493440661347E-05
1	163	78.5302058017303	1.44149780273438	1.441650390625	1.86492919921875E-06	2.68857570517866E-06	773032.25	1.8434622688801E-05
1	164	78.630913801476	1.45156860351563	1.451416015625	1.92169189453125E-06	2.78917423202074E-06	755280.3125	1.86252946150489E-05
1	165	78.7316218012218	1.46163940429688	1.4617919921875	1.98822021484375E-06	2.90636444333359E-06	735226.375	1.88221729331417E-05
1	166	78.8323298009675	1.47171020507813	1.47125244140625	2.06329345703125E-06	3.03562524095469E-06	713060.25	1.90261835086858E-05
1	167	78.9330378007132	1.48178100585938	1.48162841796875	2.14996337890625E-06	3.18544675792509E-06	689141.25	1.92383376997896E-05
1	168	79.033745800459	1.49185180664063	1.49200439453125	2.252197265625E-06	3.36028801939392E-06	662466.125	1.94600033864845E-05
1	169	79.1344538002047	1.50192260742188	1.50177001953125	2.3663330078125E-06	3.5536877476261E-06	634640.25	1.96925648197066E-05
1	170	79.2351617999504	1.49185180664063	1.49169921875	2.05780029296875E-06	3.0696189696755E-06	724899.9375	1.99153382709483E-05
1	171	79.3358697996962	1.48178100585938	1.48162841796875	1.83013916015625E-06	2.71158614850719E-06	809571.4375	2.01111124624731E-05
1	172	79.4365777994419	1.47171020507813	1.47186279296875	1.65130615234375E-06	2.43049589698785E-06	891332.5	2.02864157472504E-05
1	173	79.5372857991877	1.46163940429688	1.46209716796875	1.50634765625E-06	2.20242668547144E-06	970624	2.04454172489932E-05
1	174	79.6379937989334	1.45156860351563	1.45172119140625	1.38763427734375E-06	2.01445800485089E-06	1046184.3125	2.059114012809E-05
1	175	79.7387017986791	1.44149780273438	1.44195556640625	1.287841796875E-06	1.8570106021798E-06	1119668.25	2.07258617592743E-05
1	176	79.8394097984249	1.43142700195313	1.43157958984375	1.20452880859375E-06	1.72437876244658E-06	1188497.625	2.08513629331719E-05
1	177	79.9401177981706	1.42135620117188	1.42120361328125	1.13525390625E-06	1.61342700266687E-06	1251881.75	2.09691788768396E-05
1	178	80.0408257979163	1.41128540039063	1.41082763671875	1.07635498046875E-06	1.51855124386202E-06	1310745.75	2.10805428650929E-05
1	179	80.1415337976621	1.40121459960938	1.40106201171875	1.0260009765625E-06	1.43749093695078E-06	1365556.25	2.11864044104004E-05
1	180	80.2422417974078	1.39114379882813	1.39129638671875	9.8236083984375E-07	1.36675498652039E-06	1416278.375	2.12875347642694E-05
1	181	80.3429497971536	1.38107299804688	1.3812255859375	9.43908691406251E-07	1.30375076423661E-06	1463304.25	2.13845287362346E-05
1	182	80.4436577968993	1.37100219726563	1.370849609375	9.09423828125E-07	1.24668326861865E-06	1507382.625	2.14778519875836E-05
1	183	80.544365796645	1.36093139648438	1.361083984375	8.7890625E-07	1.1962652024522E-06	1548611.125	2.15679010580061E-05
1	184	80.6450737963908	1.35086059570313	1.3507080078125	8.52050781249999E-07	1.15087175345252E-06	1585243.625	2.16550615732558E-05
1	185	80.7457817961365	1.34078979492188	1.3409423828125	8.282470703125E-07	1.11063150143309E-06	1619012.625	2.17396718653617E-05
1	186	80.8464897958822	1.33071899414063	1.33056640625	8.06884765625E-07	1.07361381651572E-06	1649016.625	2.18220066017238E-05
1	187	80.947197795628	1.32064819335938	1.32110595703125	7.87963867187499E-07	1.04098376141337E-06	1676607.25	2.19023149838904E-05
1	188	81.0479057953737	1.31057739257813	1.3104248046875	7.70263671875E-07	1.00937256775069E-06	1701267.875	2.19807770918123E-05
1	189	81.1486137951194	1.30050659179688	1.30035400390625	7.54394531249999E-07	9.80979962150741E-07	1723705.5	2.20575493585784E-05
1	190	81.2493217948652	1.29043579101563	1.29058837890625	7.3883056640625E-07	9.53526068769861E-07	1746799	2.21327391045634E-05
1	191	81.3500297946109	1.28036499023438	1.2799072265625	7.2509765625E-07	9.28057716009789E-07	1765151.5	2.22064536501421E-05
1	192	81.4507377943567	1.27029418945313	1.2701416015625	7.122802734375E-07	9.04696776160563E-07	1783204.75	2.22788330574986E-05
1	193	81.5514457941024	1.26022338867188	1.26007080078125	7.0068359375E-07	8.82910910604551E-07	1798345	2.23499810090289E-05
1	194	81.6521537938481	1.25015258789063	1.24969482421875	6.9091796875E-07	8.63436582676513E-07	1808745.625	2.24200539378216E-05
1	195	81.7528617935939	1.24008178710938	1.240234375	6.817626953125E-07	8.45545514494006E-07	1819158.5	2.2489173716167E-05
1	196	81.8535697933396	1.23001098632813	1.23016357421875	6.7291259765625E-07	8.27792518975912E-07	1828118	2.25573858188E-05
1	197	81.9542777930853	1.21994018554688	1.21917724609375	6.6436767578125E-07	8.09981884231092E-07	1835094.25	2.26247248065192E-05
1	198	82.0549857928311	1.20986938476563	1.209716796875	6.5582275390625E-07	7.93359788531234E-07	1844578.875	2.26912015932612E-05
1	199	82.1556937925768	1.19979858398438	1.199951171875	6.4727783203125E-07	7.76701767790655E-07	1853842.5	2.27568179980153E-05
1	200	82.2564017923225	1.18972778320313	1.18927001953125	6.3934326171875E-07	7.60351724693464E-07	1860143.25	2.2821603124612E-05
1	201	82.3571097920683	1.17965698242188	1.17950439453125	6.3140869140625E-07	7.4474934308455E-07	1868052.25	2.28855915338499E-05
1	202	82.457817791814	1.16958618164063	1.1700439453125	6.243896484375E-07	7.3056332894339E-07	1873900.25	2.29488250624854E-05
1	203	82.5585257915598	1.15951538085938	1.1590576171875	6.1676025390625E-07	7.14860675543605E-07	1879267.75	2.30113219004124E-05
1	204	82.6592337913055	1.14944458007813	1.14990234375	6.09741210937501E-07	7.01142880643602E-07	1885885.875	2.3073082047631E-05
1	205	82.7599417910512	1.13937377929688	1.13922119140625	6.024169921875E-07	6.86286227846722E-07	1891084	2.3134118237067E-05
1	206	82.860649790797	1.12930297851563	1.12945556640625	5.9478759765625E-07	6.71786153816356E-07	1898922.5	2.31944031838793E-05
1	207	82.9613577905427	1.11923217773438	1.11907958984375	5.8624267578125E-07	6.56052179692779E-07	1908901.625	2.32538732234389E-05
1	208	83.0620657902884	1.10916137695313	1.1090087890625	5.780029296875E-07	6.41010331037251E-07	1918690.625	2.33124974329257E-05
1	209	83.1627737900342	1.09909057617188	1.0992431640625	5.70068359375001E-07	6.2664372535437E-07	1928265.625	2.33703067351598E-05
1	210	83.2634817897799	1.08901977539063	1.0894775390625	5.62744140625E-07	6.13097085988557E-07	1936008.75	2.34273484238656E-05
1	211	83.3641897895257	1.07894897460938	1.07879638671875	5.5511474609375E-07	5.98855763200845E-07	1943375.5	2.34836370509584E-05
1	212	83.4648977892714	1.06887817382813	1.06842041015625	5.48095703125E-07	5.85596581004211E-07	1949332	2.35391889873426E-05
1	213	83.5656057890171	1.05880737304688	1.05865478515625	5.41076660156251E-07	5.72813405597117E-07	1956570.875	2.35940315178595E-05
1	214	83.6663137887629	1.04873657226563	1.04888916015625	5.328369140625E-07	5.58886881663057E-07	1968499.5	2.36481082538376E-05
1	215	83.7670217885086	1.03866577148438	1.03851318359375	5.26123046875E-07	5.46385706456931E-07	1973898	2.37014319282025E-05
1	216	83.8677297882543	1.02859497070313	1.02874755859375	5.19409179687499E-07	5.34340927060839E-07	1980611	2.37540771195199E-05
1	217	83.9684377880001	1.01852416992188	1.0186767578125	5.1239013671875E-07	5.21959861998766E-07	1988088.25	2.38060329138534E-05
1	218	84.0691457877458	1.00845336914063	1.00860595703125	5.0689697265625E-07	5.11259315771895E-07	1989765.125	2.38573575188639E-05
1	219	84.1698537874915	0.998382568359375	0.99822998046875	5.0079345703125E-07	4.99907002904365E-07	1993296.875	2.39081000472652E-05
1	220	84.2705617872373	0.988311767578125	0.98785400390625	4.95300292968751E-07	4.89284389004752E-07	1994454.75	2.39582568610786E-05
1	221	84.371269786983	0.978240966796875	0.97808837890625	4.89501953125E-07	4.78776144063886E-07	1998129.75	2.4007846150198E-05
1	222	84.4719777867288	0.968170166015625	0.96832275390625	4.840087890625E-07	4.68676688569758E-07	2000630.625	2.40568660956342E-05
1	223	84.5726857864745	0.958099365234375	0.95855712890625	4.7760009765625E-07	4.57807004750066E-07	2007028.75	2.41052857745672E-05
1	224	84.6733937862202	0.948028564453125	0.9478759765625	4.7119140625E-07	4.46630991746133E-07	2011658.125	2.41530615312513E-05
1	225	84.774101785966	0.937957763671875	0.93780517578125	4.638671875E-07	4.35017028621587E-07	2021710.625	2.42001460719621E-05
1	226	84.8748097857117	0.927886962890625	0.9283447265625	4.5654296875E-07	4.2382924902995E-07	2033422.5	2.4246492102975E-05
1	227	84.9755177854574	0.917816162109375	0.91766357421875	4.4891357421875E-07	4.11951617707018E-07	2044187.625	2.42920850723749E-05
1	228	85.0762257852032	0.907745361328125	0.90789794921875	4.4097900390625E-07	4.00363916241986E-07	2058823.625	2.43368958763313E-05
1	229	85.1769337849489	0.897674560546875	0.8978271484375	4.32434082031249E-07	3.88251038430099E-07	2076217.5	2.43808754021302E-05
1	230	85.2776417846947	0.887603759765625	0.887451171875	4.2236328125E-07	3.74826754523383E-07	2101156.25	2.44239181483863E-05
1	231	85.3783497844404	0.877532958984375	0.87738037109375	4.119873046875E-07	3.61469545850923E-07	2129629.75	2.44659295276506E-05
1	232	85.4790577841861	0.867462158203125	0.86761474609375	4.00695800781251E-07	3.47649574905518E-07	2165270.5	2.45068513322622E-05
1	233	85.5797657839319	0.857391357421875	0.85723876953125	3.90625E-07	3.34858896167134E-07	2194531.25	2.45466981141362E-05
1	234	85.6804737836776	0.847320556640625	0.84716796875	3.80859375000001E-07	3.22651857231904E-07	2224359	2.45855462708278E-05
1	235	85.7811817834233	0.837249755859375	0.83770751953125	3.7200927734375E-07	3.11634977379072E-07	2251845.75	2.46234558289871E-05
1	236	85.8818897831691	0.827178955078125	0.8270263671875	3.6468505859375E-07	3.01604131891509E-07	2267782.5	2.46605504798936E-05
1	237	85.9825977829148	0.817108154296875	0.81695556640625	3.57666015624999E-07	2.92197228191071E-07	2284129.75	2.46969248109963E-05
1	238	86.0833057826605	0.807037353515625	0.806884765625	3.521728515625E-07	2.84162894104156E-07	2291161.25	2.4732667952776E-05
1	239	86.1840137824063	0.796966552734375	0.797119140625	3.46984863281249E-07	2.76588252745569E-07	2297273.75	2.47678726736922E-05
1	240	86.284721782152	0.786895751953125	0.78643798828125	3.41796875E-07	2.68802040181981E-07	2300893	2.48025553446496E-05
1	241	86.3854297818978	0.776824951171875	0.7763671875	3.3721923828125E-07	2.61805951140559E-07	2302262.5	2.4836746888468E-05
1	242	86.4861377816435	0.766754150390625	0.7666015625	3.3233642578125E-07	2.54769616958583E-07	2306703.5	2.48704618570628E-05
1	243	86.5868457813892	0.756683349609375	0.7568359375	3.277587890625E-07	2.48059620844288E-07	2309124.75	2.49037002504338E-05
1	244	86.687553781135	0.746612548828125	0.74652099609375	3.22875976562501E-07	2.41033689007963E-07	2312098.5	2.4936462068581E-05
1	245	86.7882617808807	0.736541748046875	0.736419677734375	3.17993164062499E-07	2.34176425806254E-07	2315835	2.49687327595893E-05
1	246	86.8889697806264	0.726470947265625	0.726409912109375	3.131103515625E-07	2.27446463441083E-07	2319980.5	2.50005105044693E-05
1	247	86.9896777803722	0.716400146484375	0.716278076171875	3.07312011718749E-07	2.20120853100525E-07	2330784.5	2.50317516474752E-05
1	248	87.0903857801179	0.706329345703125	0.706268310546875	3.01513671875001E-07	2.12949544220464E-07	2342409	2.50624088948825E-05
1	249	87.1910937798636	0.696258544921875	0.6961669921875	2.95104980468749E-07	2.054423333675E-07	2359048.75	2.50924513238715E-05
1	250	87.2918017796094	0.686187744140625	0.686004638671875	2.886962890625E-07	1.98046976152E-07	2376215.75	2.51218480116222E-05
1	251	87.3925097793551	0.676116943359375	0.67608642578125	2.8228759765625E-07	1.90850812487042E-07	2395027	2.51505989581347E-05
1	252	87.4932177791009	0.666046142578125	0.666015625	2.76794433593749E-07	1.84349417509111E-07	2406174.25	2.51787514571333E-05
1	253	87.5939257788466	0.655975341796875	0.655975341796875	2.716064453125E-07	1.78167127273809E-07	2415168.5	2.52063655352686E-05
1	254	87.6946337785923	0.645904541015625	0.645843505859375	2.66418457031251E-07	1.72064630987734E-07	2424169.5	2.5233457563445E-05
1	255	87.7953417783381	0.635833740234375	0.635711669921875	2.6214599609375E-07	1.66649257948848E-07	2425029.25	2.52600730163977E-05
1	256	87.8960497780838	0.625762939453125	0.62567138671875	2.57263183593751E-07	1.60962201789516E-07	2432028.5	2.52862264460418E-05
1	257	87.9967577778295	0.615692138671875	0.61566162109375	2.52685546875001E-07	1.55568784521165E-07	2436473.5	2.53119051194517E-05
1	258	88.0974657775753	0.605621337890625	0.60552978515625	2.47802734374999E-07	1.50051931768758E-07	2443596.25	2.53371053986484E-05
1	259	88.198173777321	0.595550537109375	0.595550537109375	2.43530273437501E-07	1.4503459055959E-07	2445488.75	2.53618472925154E-05
1	260	88.2988817770668	0.585479736328125	0.58551025390625	2.398681640625E-07	1.40445280294443E-07	2440966.75	2.53861871897243E-05
1	261	88.3995897768125	0.575408935546875	0.575408935546875	2.3681640625E-07	1.36266280037489E-07	2429768	2.54101905738935E-05
1	262	88.5002977765582	0.565338134765625	0.565338134765625	2.3345947265625E-07	1.31983540541114E-07	2421568.75	2.54338701779488E-05
1	263	88.601005776304	0.555267333984375	0.555206298828125	2.3040771484375E-07	1.27923811987785E-07	2409669	2.54572278208798E-05
1	264	88.7017137760497	0.545196533203125	0.545196533203125	2.276611328125E-07	1.2412006356044E-07	2394772	2.54802944255061E-05
1	265	88.8024217757954	0.535125732421875	0.53509521484375	2.2430419921875E-07	1.20024097327587E-07	2385578.25	2.55030518019339E-05
1	266	88.9031297755412	0.525054931640625	0.5250244140625	2.21862792968749E-07	1.16483384715593E-07	2366437.5	2.55255181400571E-05
1	267	89.0038377752869	0.514984130859375	0.51495361328125	2.19116210937501E-07	1.12834676713192E-07	2350139.25	2.55477243626956E-05
1	268	89.1045457750326	0.504913330078125	0.5048828125	2.17590332031251E-07	1.09857616337194E-07	2320336.75	2.55697141255951E-05
1	269	89.2052537747784	0.494842529296875	0.494781494140625	2.16064453125001E-07	1.06904693097931E-07	2289971.75	2.55915492743952E-05
1	270	89.3059617745241	0.484771728515625	0.4847412109375	2.1392822265625E-07	1.03699825615422E-07	2265906	2.5613202524255E-05
1	271	89.4066697742699	0.474700927734375	0.4747314453125	2.1331787109375E-07	1.01268696539591E-07	2225465	2.56347157119308E-05
1	272	89.5073777740156	0.464630126953125	0.464569091796875	2.1209716796875E-07	9.85337891279414E-08	2190359.75	2.56561361311469E-05
1	273	89.6080857737613	0.454559326171875	0.45458984375	2.09655761718749E-07	9.5307377989684E-08	2168268	2.56773728324333E-05
1	274	89.7087937735071	0.444488525390625	0.444488525390625	2.0721435546875E-07	9.2104400550852E-08	2145066.25	2.56983639701502E-05
1	275	89.8095017732528	0.434417724609375	0.43438720703125	2.0477294921875E-07	8.89507489887364E-08	2121311.5	2.57191095442977E-05
1	276	89.9102097729985	0.424346923828125	0.42431640625	2.0263671875E-07	8.59820801224487E-08	2093976	2.57396241067909E-05
1	277	90.0109177727443	0.414276123046875	0.41424560546875	2.00500488281249E-07	8.30564417242385E-08	2066057.875	2.57599240285344E-05
1	278	90.11162577249	0.404205322265625	0.404205322265625	1.9866943359375E-07	8.03032378371427E-08	2034562.25	2.57800238614436E-05
1	279	90.2123337722358	0.394134521484375	0.3941650390625	1.96228027343751E-07	7.73462289771487E-08	2008709.125	2.57999090536032E-05
1	280	90.3130417719815	0.384063720703125	0.38409423828125	1.9378662109375E-07	7.4432321639506E-08	1982047.25	2.58195468632039E-05
1	281	90.4137497717272	0.373992919921875	0.374053955078125	1.910400390625E-07	7.14592758299659E-08	1957987.375	2.58389245573198E-05
1	282	90.514457771473	0.363922119140625	0.363861083984375	1.8798828125E-07	6.84016185914516E-08	1935552	2.58580112131312E-05
1	283	90.6151657712187	0.353851318359375	0.35382080078125	1.8463134765625E-07	6.53264109473639E-08	1916363.625	2.58767740888288E-05
1	284	90.7158737709644	0.343780517578125	0.34381103515625	1.812744140625E-07	6.23241476205294E-08	1896633	2.58951986324973E-05
1	285	90.8165817707102	0.333709716796875	0.333740234375	1.7852783203125E-07	5.95819180659873E-08	1869401.75	2.59133157669567E-05
1	286	90.9172897704559	0.323638916015625	0.323638916015625	1.7578125E-07	5.68896503239102E-08	1841146	2.59311564150266E-05
1	287	91.0179977702016	0.313568115234375	0.313629150390625	1.73034667968749E-07	5.42687139670761E-08	1812522.125	2.59487205767073E-05
1	288	91.1187057699474	0.303497314453125	0.30352783203125	1.6937255859375E-07	5.14092839409841E-08	1792072.125	2.59659627772635E-05
1	289	91.2194137696931	0.293426513671875	0.29345703125	1.6632080078125E-07	4.88080083016484E-08	1764403.625	2.59828666457906E-05
1	290	91.3201217694389	0.283355712890625	0.28338623046875	1.62658691406251E-07	4.60952342962173E-08	1742213.875	2.59994321822887E-05
1	291	91.4208297691846	0.273284912109375	0.27325439453125	1.5899658203125E-07	4.3446515718415E-08	1718618	2.60156284639379E-05
1	292	91.5215377689303	0.263214111328125	0.26318359375	1.5594482421875E-07	4.10421172603037E-08	1687671.25	2.6031486413558E-05
1	293	91.6222457686761	0.253143310546875	0.253173828125	1.5228271484375E-07	3.85539955516379E-08	1662525.125	2.60470078501385E-05
1	294	91.7229537684218	0.243072509765625	0.243011474609375	1.495361328125E-07	3.63389958124571E-08	1625102	2.60622055066051E-05
1	295	91.8236617681675	0.233001708984375	0.23297119140625	1.45874023437501E-07	3.39844454799731E-08	1597071.125	2.60770793829579E-05
1	296	91.9243697679133	0.222930908203125	0.222900390625	1.422119140625E-07	3.16990913518111E-08	1567382	2.60915858234512E-05
1	297	92.025077767659	0.212860107421875	0.212921142578125	1.37939453124999E-07	2.9370225362868E-08	1543584.125	2.61056939052651E-05
1	298	92.1257857674048	0.202789306640625	0.20281982421875	1.33666992187501E-07	2.71103139937168E-08	1517351.625	2.61193690676009E-05
1	299	92.2264937671505	0.192718505859375	0.192718505859375	1.27258300781249E-07	2.45250308950062E-08	1514388.5	2.61325076280627E-05
1	300	92.3272017668962	0.182647705078125	0.182647705078125	1.20849609375E-07	2.20729035049771E-08	1511363.625	2.61450022662757E-05
1	301	92.427909766642	0.172576904296875	0.172607421875	1.11999511718749E-07	1.93319475982889E-08	1541144.375	2.61567256529815E-05
1	302	92.5286177663877	0.162506103515625	0.16253662109375	1.01623535156251E-07	1.65175464417189E-08	1599399.375	2.61674831563141E-05
1	303	92.6293257661334	0.152435302734375	0.152435302734375	8.91113281249995E-08	1.35837119330517E-08	1710616.5	2.61770874203648E-05
1	304	92.7300337658792	0.142364501953125	0.14239501953125	7.26318359375006E-08	1.03424113717665E-08	1960504.25	2.61852310359245E-05
1	305	92.8307417656249	0.132293701171875	0.13232421875	4.97436523437506E-08	6.58228982430842E-09	2660122.75	2.61913937720237E-05
1	306	92.9314497653706	0.122222900390625	0.122222900390625	1.92260742187506E-08	2.34986652358771E-09	6357143	2.61948662227951E-05
1	307	93.0321577651164	0.112152099609375	0.1121826171875	-2.288818359375E-08	-2.56765630979316E-09	-4901333.5	2.61946825048653E-05
1	308	93.1328657648621	0.102081298828125	0.10211181640625	-7.99560546874995E-08	-8.16445755447148E-09	-1277099.25	2.61895038420334E-05
1	309	93.2335737646079	0.092010498046875	0.0921630859375	-1.56555175781251E-07	-1.4428607642003E-08	-588693.9375	2.61775949184084E-05
1	310	93.3342817643536	0.081939697265625	0.08197021484375	-2.57568359375E-07	-2.11129336236127E-08	-318246.4375	2.61567420238862E-05
1	311	93.4349897640993	0.071868896484375	0.0718994140625	-3.9031982421875E-07	-2.80637664218375E-08	-184206.40625	2.61241184489336E-05
1	312	93.5356977638451	0.061798095703125	0.06182861328125	-5.55419921875E-07	-3.43408430580894E-08	-111318.6875	2.60764954873594E-05
1	313	93.6364057635908	0.051727294921875	0.051849365234375	-7.525634765625E-07	-3.90199375033262E-08	-68897	2.60106335190358E-05
1	314	93.7371137633365	0.041656494140625	0.0417510986328125	-9.74426269531251E-07	-4.06833677857321E-08	-42846.8515625	2.59236730926204E-05
1	315	93.8378217630823	0.031585693359375	0.0316650390625	-1.20361328125E-06	-3.81124607429228E-08	-26308.31640625	2.58140007645125E-05
1	316	93.938529762828	0.021514892578125	0.0216033935546875	-1.41754150390625E-06	-3.0623709790234E-08	-15240.0439453125	2.56820148933912E-05
1	317	94.0392377625737	0.011444091796875	0.0115509033203125	-1.5972900390625E-06	-1.84501409705717E-08	-7231.5634765625	2.553020567575E-05
1	318	94.1399457623195	0.001373291015625	0.00146484375	-1.72393798828125E-06	-2.52529974709148E-09	-849.707885742188	2.5362967789988E-05
1	319	94.2406537620652	-0.008697509765625	-0.00859375	-1.7919921875E-06	1.53999337726418E-08	4795.640625	2.51859273703303E-05
1	320	94.341361761811	-0.018768310546875	-0.01866455078125	-1.80511474609375E-06	3.36916556875622E-08	10339.8134765625	2.50047978624934E-05
1	321	94.4420697615567	-0.028839111328125	-0.0287109375	-1.7791748046875E-06	5.10817770305039E-08	16137.220703125	2.48243159148842E-05
1	322	94.5427777613024	-0.038909912109375	-0.0387786865234375	-1.7266845703125E-06	6.69585560331143E-08	22458.46484375	2.46477811742807E-05
1	323	94.6434857610482	-0.048980712890625	-0.0488250732421875	-1.66046142578125E-06	8.10721516586455E-08	29404.521484375	2.44772254518466E-05
1	324	94.7441937607939	-0.059051513671875	-0.058990478515625	-1.591796875E-06	9.39008586442469E-08	37059.05078125	2.4313460016856E-05
1	325	94.8449017605396	-0.069122314453125	-0.069061279296875	-1.52374267578125E-06	1.05231613645174E-07	45323.453125	2.41565812757472E-05
1	326	94.9456097602854	-0.079193115234375	-0.0791015625	-1.4599609375E-06	1.15485192964115E-07	54180.6015625	2.40063400269719E-05
1	327	95.0463177600311	-0.089263916015625	-0.089202880859375	-1.40228271484375E-06	1.25087652236289E-07	63612.625	2.38622142205713E-05
1	328	95.1470257597769	-0.099334716796875	-0.09930419921875	-1.3519287109375E-06	1.34252189809558E-07	73453.7265625	2.37235290114768E-05
1	329	95.2477337595226	-0.109405517578125	-0.10931396484375	-1.3079833984375E-06	1.42980837836149E-07	83574.4296875	2.35895913647255E-05
1	330	95.3484417592683	-0.119476318359375	-0.119415283203125	-1.26953125E-06	1.51601440734339E-07	94062.5	2.34598028328037E-05
1	331	95.4491497590141	-0.129547119140625	-0.129425048828125	-1.23809814453125E-06	1.60240901436737E-07	104535.375	2.33335340453777E-05
1	332	95.5498577587598	-0.139617919921875	-0.1395263671875	-1.212158203125E-06	1.69128028915111E-07	115105.7421875	2.32101538131246E-05
1	333	95.6505657585055	-0.149688720703125	-0.149566650390625	-1.1895751953125E-06	1.77920782107321E-07	125731.1484375	2.30892164836405E-05
1	334	95.7512737582513	-0.159759521484375	-0.159637451171875	-1.17095947265625E-06	1.86928971857014E-07	136330.46875	2.29703546210658E-05
1	335	95.851981757997	-0.169830322265625	-0.169708251953125	-1.15509033203125E-06	1.9602836687227E-07	146922.0625	2.28532280743821E-05
1	336	95.9526897577427	-0.179901123046875	-0.17974853515625	-1.1419677734375E-06	2.05267042474588E-07	157402.453125	2.27375621761894E-05
1	337	96.0533977574885	-0.189971923828125	-0.189849853515625	-1.13067626953125E-06	2.14658712138771E-07	167908.25	2.26231259148335E-05
1	338	96.1541057572342	-0.200042724609375	-0.19989013671875	-1.12274169921875E-06	2.24424979933247E-07	178037.515625	2.25096573558403E-05
1	339	96.25481375698	-0.189971923828125	-0.189849853515625	-9.72595214843749E-07	1.84647063861121E-07	195199.25	2.2404148694477E-05
2	340	96.3555217567257	-0.179901123046875	-0.1796875	-8.7158203125E-07	1.56612387058885E-07	206162.46875	2.23112874664366E-05
2	341	96.4562297564714	-0.169830322265625	-0.16973876953125	-7.91320800781251E-07	1.34317815536633E-07	214500.59375	2.22275539272232E-05
2	342	96.5569377562172	-0.159759521484375	-0.159637451171875	-7.244873046875E-07	1.15655304000484E-07	220345.421875	2.21512254938716E-05
2	343	96.6576457559629	-0.149688720703125	-0.1495361328125	-6.6497802734375E-07	9.94382389762904E-08	224873.796875	2.2081261704443E-05
2	344	96.7583537557086	-0.139617919921875	-0.139495849609375	-6.11267089843751E-07	8.526922101737E-08	228207.703125	2.20169968088157E-05
2	345	96.8590617554544	-0.129547119140625	-0.129425048828125	-5.62438964843751E-07	7.27936892985781E-08	230113.9375	2.19578960241051E-05
2	346	96.9597697552001	-0.119476318359375	-0.119354248046875	-5.16357421875E-07	6.16294499877768E-08	231146.5625	2.19035737245576E-05
2	347	97.0604777549459	-0.109405517578125	-0.1092529296875	-4.730224609375E-07	5.16790876758932E-08	230967.75	2.18537552427733E-05
2	348	97.1611857546916	-0.099334716796875	-0.099273681640625	-4.3060302734375E-07	4.27475477238204E-08	230545.71875	2.18082532228436E-05
2	349	97.2618937544373	-0.089263916015625	-0.089202880859375	-3.875732421875E-07	3.45726505202038E-08	230157.484375	2.17670549318427E-05
2	350	97.3626017541831	-0.079193115234375	-0.079132080078125	-3.41796875E-07	2.70470970065162E-08	231517.859375	2.17303295357851E-05
2	351	97.4633097539288	-0.069122314453125	-0.06903076171875	-2.911376953125E-07	2.00974561437306E-08	237106.921875	2.16984590224456E-05
2	352	97.5640177536745	-0.059051513671875	-0.058929443359375	-2.31323242187501E-07	1.36317499510596E-08	254749.34375	2.16721509787021E-05
2	353	97.6647257534203	-0.048980712890625	-0.0488067626953125	-1.5899658203125E-07	7.76010899983248E-09	306967.375	2.16524967981968E-05
2	354	97.765433753166	-0.038909912109375	-0.0387664794921875	-6.89697265624997E-08	2.67371347284495E-09	562079.6875	2.1641017156071E-05
2	355	97.8661417529117	-0.028839111328125	-0.0287139892578125	4.36401367187506E-08	-1.25308241560873E-09	-657972.0625	2.16397420444991E-05
2	356	97.9668497526575	-0.018768310546875	-0.01865234375	1.8585205078125E-07	-3.46657635930114E-09	-100361.25	2.16512980841799E-05
2	357	98.0675577524032	-0.008697509765625	-0.0085906982421875	3.5858154296875E-07	-3.08046566033227E-09	-23957.447265625	2.16787120734807E-05
2	358	98.168265752149	0.001373291015625	0.00147399902343751	5.62744140625E-07	8.29484259057267E-10	2619.30590820313	2.17251035792287E-05
2	359	98.2689737518947	0.011444091796875	0.0115631103515625	7.904052734375E-07	9.13954245618243E-09	14629.34375	2.17932411032962E-05
2	360	98.3696817516404	0.021514892578125	0.0216033935546875	1.02569580078125E-06	2.21585096937815E-08	21062.185546875	2.188468897657E-05
2	361	98.4703897513862	0.031585693359375	0.0316986083984375	1.2493896484375E-06	3.96039077088517E-08	25371.275390625	2.19992489292054E-05
2	362	98.5710977511319	0.041656494140625	0.0417572021484375	1.43829345703125E-06	6.00591150146101E-08	29032.46484375	2.21345835598186E-05
2	363	98.6718057508776	0.051727294921875	0.05181884765625	1.5765380859375E-06	8.16943810377779E-08	32868.7578125	2.22863927774597E-05
2	364	98.7725137506234	0.061798095703125	0.06182861328125	1.65679931640625E-06	1.02437603288763E-07	37318.10546875	2.24492050620029E-05
2	365	98.8732217503691	0.071868896484375	0.0718994140625	1.68365478515625E-06	1.21053787438541E-07	42704.3671875	2.26174088311382E-05
2	366	98.9739297501148	0.081939697265625	0.082061767578125	1.668701171875E-06	1.36936563421841E-07	49177.03125	2.2786214685766E-05
2	367	99.0746377498606	0.092010498046875	0.092041015625	1.627197265625E-06	1.4976887996454E-07	56564.14453125	2.29521756409667E-05
2	368	99.1753457496063	0.102081298828125	0.10211181640625	1.57073974609375E-06	1.60391095960222E-07	65008.7421875	2.31132053158944E-05
2	369	99.2760537493521	0.112152099609375	0.11212158203125	1.50848388671875E-06	1.69133585359305E-07	74327.3359375	2.32682559726527E-05
2	370	99.3767617490978	0.122222900390625	0.12225341796875	1.446533203125E-06	1.76843613530764E-07	84514.7734375	2.34170529438416E-05
2	371	99.4774697488435	0.132293701171875	0.132354736328125	1.38885498046875E-06	1.83821526889005E-07	95297.7421875	2.35598254221259E-05
2	372	99.5781777485893	0.142364501953125	0.142425537109375	1.33575439453125E-06	1.90245543763012E-07	106625.5390625	2.36970208788989E-05
2	373	99.678885748335	0.152435302734375	0.1524658203125	1.287841796875E-06	1.96351848558152E-07	118388.625	2.38291286223102E-05
2	374	99.7795937480807	0.162506103515625	0.16253662109375	1.24420166015625E-06	2.02228321199982E-07	130635.28125	2.3956627046573E-05
2	375	99.8803017478265	0.172576904296875	0.172637939453125	1.20635986328125E-06	2.08263472245562E-07	143106.515625	2.40800236497307E-05
2	376	99.9810097475722	0.182647705078125	0.18267822265625	1.17279052734375E-06	2.14243272012027E-07	155763.734375	2.41998222918482E-05
2	377	100.081717747318	0.192718505859375	0.1927490234375	1.14410400390625E-06	2.20524924543497E-07	168471.59375	2.43164886342129E-05
2	378	100.182425747064	0.202789306640625	0.20281982421875	1.11846923828125E-06	2.26847717499368E-07	181336.984375	2.44304173975252E-05
2	379	100.283133746809	0.212860107421875	0.212799072265625	1.0955810546875E-06	2.33138635508112E-07	194233.984375	2.45419032580685E-05
2	380	100.383841746555	0.222930908203125	0.222900390625	1.0748291015625E-06	2.3957983330547E-07	207382.15625	2.46511935984017E-05
2	381	100.484549746301	0.233001708984375	0.23297119140625	1.05560302734375E-06	2.45925093622645E-07	220699.640625	2.47584684984758E-05
2	382	100.585257746047	0.243072509765625	0.243072509765625	1.0382080078125E-06	2.52359825481108E-07	234126.984375	2.48639007622842E-05
2	383	100.685965745792	0.253143310546875	0.253173828125	1.021728515625E-06	2.58674930364577E-07	247789.734375	2.4967626814032E-05
2	384	100.786673745538	0.263214111328125	0.263275146484375	1.00799560546875E-06	2.65380180053398E-07	261186.796875	2.5069830371649E-05
2	385	100.887381745284	0.273284912109375	0.2733154296875	9.95788574218751E-07	2.72164385251017E-07	274471.34375	2.51707297138637E-05
2	386	100.98808974503	0.283355712890625	0.283355712890625	9.844970703125E-07	2.78962886568479E-07	287817.71875	2.52704448939767E-05
2	387	101.088797744775	0.293426513671875	0.29339599609375	9.747314453125E-07	2.85982281411634E-07	301001.90625	2.53690996032674E-05
2	388	101.189505744521	0.303497314453125	0.303497314453125	9.65270996093751E-07	2.92957139436112E-07	314416.71875	2.54667866101954E-05
2	389	101.290213744267	0.313568115234375	0.31365966796875	9.5703125E-07	3.00182108503577E-07	327742.34375	2.55635823123157E-05
2	390	101.390921744013	0.323638916015625	0.32366943359375	9.4970703125E-07	3.07391132992052E-07	340809.78125	2.56595940300031E-05
2	391	101.491629743758	0.333709716796875	0.333740234375	9.4268798828125E-07	3.14612890406352E-07	354030.4375	2.57548836088972E-05
2	392	101.592337743504	0.343780517578125	0.34381103515625	9.368896484375E-07	3.22113010042813E-07	366970.6875	2.58495274465531E-05
2	393	101.69304574325	0.353851318359375	0.35382080078125	9.3231201171875E-07	3.29871369331158E-07	379509	2.59436492342502E-05
2	394	101.793753742995	0.363922119140625	0.363983154296875	9.28649902343751E-07	3.38012910106045E-07	391948.75	2.60373562923633E-05
2	395	101.894461742741	0.373992919921875	0.37396240234375	9.259033203125E-07	3.46253017369236E-07	403889.28125	2.61307413893519E-05
2	396	101.995169742487	0.384063720703125	0.384063720703125	9.2315673828125E-07	3.54551019654537E-07	416033.0625	2.62238481809618E-05
2	397	102.095877742233	0.394134521484375	0.39410400390625	9.2193603515625E-07	3.63338671149904E-07	427474.34375	2.63167567027267E-05
2	398	102.196585741978	0.404205322265625	0.40423583984375	9.2041015625E-07	3.72062743281276E-07	439191	2.64095251623075E-05
2	399	102.297293741724	0.414276123046875	0.414276123046875	9.19494628906251E-07	3.80924660703386E-07	450547.65625	2.65021717495983E-05
2	400	102.39800174147	0.424346923828125	0.424346923828125	9.17968750000001E-07	3.89537206046953E-07	462267.28125	2.65946964645991E-05
2	401	102.498709741216	0.434417724609375	0.434417724609375	9.17968750000001E-07	3.98781907051671E-07	473238.03125	2.66871429630555E-05
2	402	102.599417740961	0.444488525390625	0.44451904296875	9.173583984375E-07	4.07783261380246E-07	484564.21875	2.67795585386921E-05
2	403	102.700125740707	0.454559326171875	0.45465087890625	9.173583984375E-07	4.17077785641595E-07	495608.8125	2.68719450104982E-05
2	404	102.800833740453	0.464630126953125	0.464599609375	9.17663574218749E-07	4.26346133508559E-07	506285.34375	2.69643442152301E-05
2	405	102.901541740199	0.474700927734375	0.474639892578125	9.17968750000001E-07	4.35704578194418E-07	517054.53125	2.70567761617713E-05
2	406	103.002249739944	0.484771728515625	0.484771728515625	9.17968750000001E-07	4.45005298388423E-07	528091.75	2.71492226602277E-05
2	407	103.10295773969	0.494842529296875	0.494873046875	9.1827392578125E-07	4.54428999319134E-07	538916.625	2.72416855295887E-05
2	408	103.203665739436	0.504913330078125	0.50494384765625	9.1888427734375E-07	4.63984946463825E-07	549518.4375	2.73341938736849E-05
2	409	103.304373739182	0.514984130859375	0.514923095703125	9.2010498046875E-07	4.73783302368247E-07	559635.1875	2.74267931672512E-05
2	410	103.405081738927	0.525054931640625	0.5250244140625	9.2193603515625E-07	4.84038935155695E-07	569480.3125	2.75195488939062E-05
2	411	103.505789738673	0.535125732421875	0.53509521484375	9.2437744140625E-07	4.94629944114422E-07	578870.9375	2.76125174423214E-05
2	412	103.606497738419	0.545196533203125	0.545166015625	9.27124023437501E-07	5.05436503317469E-07	588018.4375	2.77057479252107E-05
2	413	103.707205738164	0.555267333984375	0.55523681640625	9.3048095703125E-07	5.16637271630316E-07	596720.25	2.77992858173093E-05
2	414	103.80791373791	0.565338134765625	0.5653076171875	9.33227539062501E-07	5.27560644059122E-07	605755.4375	2.7893131118617E-05
2	415	103.908621737656	0.575408935546875	0.575347900390625	9.36279296875001E-07	5.38686322215653E-07	614504.5625	2.79872674582293E-05
2	416	104.009329737402	0.585479736328125	0.585479736328125	9.4024658203125E-07	5.50495315110311E-07	622687.5	2.80817585007753E-05
2	417	104.110037737147	0.595550537109375	0.595550537109375	9.4451904296875E-07	5.62508773782611E-07	630533.125	2.81766642729053E-05
2	418	104.210745736893	0.605621337890625	0.60552978515625	9.4940185546875E-07	5.74891089399898E-07	637801.375	2.82720302493544E-05
2	419	104.311453736639	0.615692138671875	0.615692138671875	9.552001953125E-07	5.88109287491534E-07	644568.6875	2.8367934646667E-05
2	420	104.412161736385	0.625762939453125	0.625640869140625	9.6160888671875E-07	6.01621820806031E-07	650618.875	2.84644538623979E-05
2	421	104.51286973613	0.635833740234375	0.635772705078125	9.6771240234375E-07	6.15245085100469E-07	656985.1875	2.85616024484625E-05
2	422	104.613577735876	0.645904541015625	0.645782470703125	9.74426269531251E-07	6.29267390195309E-07	662731	2.86593967757653E-05
2	423	104.714285735622	0.655975341796875	0.6558837890625	9.8114013671875E-07	6.43513942577556E-07	668491.4375	2.87578677671263E-05
2	424	104.814993735368	0.666046142578125	0.666015625	9.87548828125E-07	6.57722921459936E-07	674412.875	2.88569990516407E-05
2	425	104.915701735113	0.676116943359375	0.67608642578125	9.9365234375E-07	6.71794850859442E-07	680405.4375	2.89567615254782E-05
2	426	105.016409734859	0.686187744140625	0.68609619140625	1.0003662109375E-06	6.86347448208835E-07	685845.0625	2.90571679215645E-05
2	427	105.117117734605	0.696258544921875	0.6961669921875	1.00738525390625E-06	7.01308351835905E-07	691063.375	2.91582655336242E-05
2	428	105.217825734351	0.706329345703125	0.706298828125	1.01287841796875E-06	7.1539483315064E-07	697318.4375	2.92599943350069E-05
2	429	105.318533734096	0.716400146484375	0.716339111328125	1.0186767578125E-06	7.29717953618092E-07	703205.5625	2.93622906610835E-05
2	430	105.419241733842	0.726470947265625	0.726318359375	1.02386474609375E-06	7.43651696666348E-07	709389	2.94651417789282E-05
2	431	105.519949733588	0.736541748046875	0.736480712890625	1.0284423828125E-06	7.57427983444359E-07	716112.75	2.95684840239119E-05
2	432	105.620657733333	0.746612548828125	0.74652099609375	1.031494140625E-06	7.70031988395203E-07	723727.8125	2.96722100756597E-05
2	433	105.721365733079	0.756683349609375	0.7568359375	1.03546142578125E-06	7.83674408921797E-07	730916.625	2.97762890113518E-05
2	434	105.822073732825	0.766754150390625	0.76690673828125	1.03851318359375E-06	7.9644269135315E-07	738466.125	2.98807208309881E-05
2	435	105.922781732571	0.776824951171875	0.7769775390625	1.04248046875E-06	8.09983873750753E-07	745316.1875	2.99855073535582E-05
2	436	106.023489732316	0.786895751953125	0.78704833984375	1.04583740234375E-06	8.23124594262481E-07	752553.25	3.00906631309772E-05
2	437	106.124197732062	0.796966552734375	0.797119140625	1.05010986328125E-06	8.3706265741057E-07	759081.6875	3.01962027151603E-05
2	438	106.224905731808	0.807037353515625	0.806884765625	1.0546875E-06	8.51011236591148E-07	765046.3125	3.03021879517473E-05
2	439	106.325613731554	0.817108154296875	0.81695556640625	1.05865478515625E-06	8.64873925365828E-07	771692.125	3.04086024698336E-05
2	440	106.426321731299	0.827178955078125	0.82763671875	1.06292724609375E-06	8.79717617863207E-07	778639.125	3.05154335364932E-05
2	441	106.527029731045	0.837249755859375	0.83770751953125	1.068115234375E-06	8.94768163561821E-07	784285.6875	3.06227411783766E-05
2	442	106.627737730791	0.847320556640625	0.8477783203125	1.072998046875E-06	9.09664436221647E-07	790102.4375	3.07305526803248E-05
2	443	106.728445730537	0.857391357421875	0.85693359375	1.07818603515625E-06	9.23933782814856E-07	794792	3.08388734993059E-05
2	444	106.829153730282	0.867462158203125	0.86761474609375	1.0845947265625E-06	9.41010341648507E-07	799943.75	3.0947780032875E-05
2	445	106.929861730028	0.877532958984375	0.87799072265625	1.09039306640625E-06	9.57355041464325E-07	805205.6875	3.10572977468837E-05
2	446	107.030569729774	0.887603759765625	0.88714599609375	1.09527587890625E-06	9.71669578575529E-07	809974.9375	3.11673538817558E-05
2	447	107.13127772952	0.897674560546875	0.8978271484375	1.099853515625E-06	9.87478415481746E-07	816315.1875	3.12778902298305E-05
2	448	107.231985729265	0.907745361328125	0.9075927734375	1.103515625E-06	1.00154284154996E-06	822455.75	3.13888376695104E-05
2	449	107.332693729011	0.917816162109375	0.91796875	1.107177734375E-06	1.01635453120252E-06	829107	3.15001525450498E-05
2	450	107.433401728757	0.927886962890625	0.92803955078125	1.1102294921875E-06	1.03033687537391E-06	835898.8125	3.1611809390597E-05
2	451	107.534109728502	0.937957763671875	0.93780517578125	1.11419677734375E-06	1.04489947716502E-06	841687.25	3.17238191200886E-05
2	452	107.634817728248	0.948028564453125	0.9478759765625	1.1175537109375E-06	1.05930223526229E-06	848170.4375	3.18361962854397E-05
2	453	107.735525727994	0.958099365234375	0.95855712890625	1.12091064453125E-06	1.07445680441742E-06	855159.3125	3.19489117828198E-05
2	454	107.83623372774	0.968170166015625	0.9674072265625	1.12457275390625E-06	1.08791971342725E-06	860244.3125	3.20619801641442E-05
2	455	107.936941727485	0.978240966796875	0.9783935546875	1.12762451171875E-06	1.10326050162257E-06	867659	3.21753868774977E-05
2	456	108.037649727231	0.988311767578125	0.9881591796875	1.13037109375E-06	1.11698659566173E-06	874190.0625	3.22890882671345E-05
2	457	108.138357726977	0.998382568359375	0.99853515625	1.13250732421875E-06	1.13084843178513E-06	881703	3.24030334013514E-05
2	458	108.239065726723	1.00845336914063	1.00799560546875	1.13433837890625E-06	1.14340809886926E-06	888619.875	3.25171749864239E-05
2	459	108.339773726468	1.01852416992188	1.01806640625	1.13739013671875E-06	1.15793864097213E-06	895089.9375	3.26315675920341E-05
2	460	108.440481726214	1.02859497070313	1.0284423828125	1.1395263671875E-06	1.17193724236131E-06	902517.375	3.27462184941396E-05
2	461	108.54118972596	1.03866577148438	1.038818359375	1.142578125E-06	1.1869310583279E-06	909188.0625	3.28611313307192E-05
2	462	108.641897725706	1.04873657226563	1.048583984375	1.14593505859375E-06	1.2016090522593E-06	915046.625	3.29763679474127E-05
2	463	108.742605725451	1.05880737304688	1.058349609375	1.1492919921875E-06	1.21635264349607E-06	920871	3.30919428961352E-05
2	464	108.843313725197	1.06887817382813	1.0687255859375	1.15234375E-06	1.23153927233943E-06	927436.4375	3.32078379869927E-05
2	465	108.944021724943	1.07894897460938	1.0791015625	1.15570068359375E-06	1.24711834814661E-06	933720.6875	3.3324056857964E-05
2	466	109.044729724689	1.08901977539063	1.0888671875	1.1590576171875E-06	1.26205975448102E-06	939441.875	3.34406140609644E-05
2	467	109.145437724434	1.09909057617188	1.09893798828125	1.163330078125E-06	1.27842758956831E-06	944648.5625	3.35575568897184E-05
2	468	109.24614572418	1.10916137695313	1.10931396484375	1.16790771484375E-06	1.29557633954391E-06	949830.125	3.36749435518868E-05
2	469	109.346853723926	1.11923217773438	1.11907958984375	1.1737060546875E-06	1.31347042042762E-06	953458.1875	3.37928540830035E-05
2	470	109.447561723671	1.12930297851563	1.129150390625	1.18011474609375E-06	1.33252706291387E-06	956814.0625	3.39113757945597E-05
2	471	109.548269723417	1.13937377929688	1.1395263671875	1.18682861328125E-06	1.35242248688883E-06	960144	3.40305632562377E-05
2	472	109.648977723163	1.14944458007813	1.1492919921875	1.19354248046875E-06	1.37172867198387E-06	962925.125	3.41504237439949E-05
2	473	109.749685722909	1.15951538085938	1.15966796875	1.2005615234375E-06	1.39225278417143E-06	965937.9375	3.42709754477255E-05
2	474	109.850393722654	1.16958618164063	1.16943359375	1.20819091796875E-06	1.4128989960227E-06	967921.25	3.43922656611539E-05
2	475	109.9511017224	1.17965698242188	1.1798095703125	1.2158203125E-06	1.43443639899488E-06	970381.5625	3.45143234881107E-05
2	476	110.051809722146	1.18972778320313	1.18988037109375	1.2237548828125E-06	1.4561219359166E-06	972319.1875	3.46371671184897E-05
2	477	110.152517721892	1.19979858398438	1.1993408203125	1.23260498046875E-06	1.47831349295302E-06	973013.125	3.47608547599521E-05
2	478	110.253225721637	1.20986938476563	1.21002197265625	1.24237060546875E-06	1.50329572079499E-06	973962.1875	3.48854809999466E-05
2	479	110.353933721383	1.21994018554688	1.21978759765625	1.25213623046875E-06	1.5273401459126E-06	974165.3125	3.5011089494219E-05
2	480	110.454641721129	1.23001098632813	1.23046875	1.26190185546875E-06	1.55273073687567E-06	975090.6875	3.51376802427694E-05
2	481	110.555349720875	1.24008178710938	1.2396240234375	1.27197265625E-06	1.57676788603567E-06	974568.125	3.52652714354917E-05
2	482	110.65605772062	1.25015258789063	1.24969482421875	1.28265380859375E-06	1.60292574946652E-06	974304.0625	3.53939067281317E-05
2	483	110.756765720366	1.26022338867188	1.2603759765625	1.29364013671875E-06	1.63047297974117E-06	974286.375	3.55236334144138E-05
2	484	110.857473720112	1.27029418945313	1.27044677734375	1.3055419921875E-06	1.65862161338737E-06	973118.25	3.56545133399777E-05
2	485	110.958181719858	1.28036499023438	1.28082275390625	1.31866455078125E-06	1.68897554431169E-06	971302.9375	3.57866520062089E-05
2	486	111.058889719603	1.29043579101563	1.2908935546875	1.33209228515625E-06	1.7195892496602E-06	969072.25	3.59201294486411E-05
2	487	111.159597719349	1.30050659179688	1.30035400390625	1.34674072265625E-06	1.75123955159506E-06	965556.375	3.60550184268504E-05
2	488	111.260305719095	1.31057739257813	1.31072998046875	1.36322021484375E-06	1.78681364104705E-06	961495.375	3.61914753739256E-05
2	489	111.36101371884	1.32064819335938	1.3201904296875	1.380615234375E-06	1.82267501713795E-06	956233.4375	3.63296385330614E-05
2	490	111.461721718586	1.33071899414063	1.33087158203125	1.39862060546875E-06	1.86138447588746E-06	951560.125	3.64695843018126E-05
2	491	111.562429718332	1.34078979492188	1.34063720703125	1.417236328125E-06	1.8999996882485E-06	945951.8125	3.6611374525819E-05
2	492	111.663137718078	1.35086059570313	1.3507080078125	1.43768310546875E-06	1.94189010471746E-06	939503.3125	3.67551292583812E-05
2	493	111.763845717823	1.36093139648438	1.361083984375	1.45904541015625E-06	1.98588327293692E-06	932859.25	3.69009940186515E-05
2	494	111.864553717569	1.37100219726563	1.37115478515625	1.4825439453125E-06	2.03279705601744E-06	924866.25	3.70491143257823E-05
2	495	111.965261717315	1.38107299804688	1.38092041015625	1.5087890625E-06	2.08351752917224E-06	915250.8125	3.71997375623323E-05
2	496	112.065969717061	1.39114379882813	1.39129638671875	1.536865234375E-06	2.13823500416765E-06	905282	3.73531001969241E-05
2	497	112.166677716806	1.40121459960938	1.40106201171875	1.5679931640625E-06	2.19685557567573E-06	893538.375	3.75094423361588E-05
2	498	112.267385716552	1.41128540039063	1.41143798828125	1.60369873046875E-06	2.26352130994201E-06	880114.1875	3.76691496057902E-05
2	499	112.368093716298	1.42135620117188	1.4215087890625	1.64459228515625E-06	2.33780224334623E-06	864353.375	3.7832713132957E-05
2	500	112.468801716044	1.43142700195313	1.43157958984375	1.69189453125E-06	2.42208147938072E-06	846140	3.80007186322473E-05
2	501	112.569509715789	1.44149780273438	1.44134521484375	1.74560546875E-06	2.51602000389539E-06	825699.3125	3.81738100259099E-05
2	502	112.670217715535	1.45156860351563	1.451416015625	1.8072509765625E-06	2.62307298726228E-06	803107.125	3.83527112717275E-05
2	503	112.770925715281	1.46163940429688	1.461181640625	1.87744140625E-06	2.74328294835868E-06	778283.5	3.85382518288679E-05
2	504	112.871633715027	1.47171020507813	1.47125244140625	1.95709228515625E-06	2.8793767796742E-06	751754.25	3.87313339160755E-05
2	505	112.972341714772	1.48178100585938	1.48193359375	2.0458984375E-06	3.031885398741E-06	724343.6875	3.89328997698613E-05
2	506	113.073049714518	1.49185180664063	1.49200439453125	2.14599609375E-06	3.20183539770369E-06	695250.3125	3.91439789382275E-05
2	507	113.173757714264	1.50192260742188	1.50177001953125	2.25677490234375E-06	3.38915697284392E-06	665449.625	3.93656773667317E-05
2	508	113.274465714009	1.49185180664063	1.49139404296875	1.953125E-06	2.91287869913504E-06	763593.8125	3.95776623918209E-05
2	509	113.375173713755	1.48178100585938	1.48193359375	1.7303466796875E-06	2.5642589207564E-06	856437.4375	3.97631411033217E-05
2	510	113.475881713501	1.47171020507813	1.4715576171875	1.5557861328125E-06	2.28942894864304E-06	945861.1875	3.99286109313834E-05
2	511	113.576589713247	1.46163940429688	1.4617919921875	1.41387939453125E-06	2.06679737857485E-06	1033887.375	4.00781427742913E-05
2	512	113.677297712992	1.45156860351563	1.451416015625	1.29791259765625E-06	1.88381113730429E-06	1118269.5	4.02146943088155E-05
2	513	113.778005712738	1.44149780273438	1.44134521484375	1.2017822265625E-06	1.73218302279565E-06	1199339.75	4.03405647375621E-05
2	514	113.878713712484	1.43142700195313	1.43096923828125	1.121826171875E-06	1.60529873483028E-06	1275571.375	4.0457565773977E-05
2	515	113.97942171223	1.42135620117188	1.42120361328125	1.05377197265625E-06	1.49762445289525E-06	1348682.375	4.05671162297949E-05
2	516	114.080129711975	1.41128540039063	1.4111328125	9.9609375E-07	1.40562053729809E-06	1416666.75	4.06703366024885E-05
2	517	114.180837711721	1.40121459960938	1.4013671875	9.46655273437499E-07	1.3266115956867E-06	1480335.375	4.07681618526112E-05
2	518	114.281545711467	1.39114379882813	1.39129638671875	9.0545654296875E-07	1.25975839182502E-06	1536568.875	4.0861421439331E-05
2	519	114.382253711213	1.38107299804688	1.380615234375	8.6944580078125E-07	1.20037009310181E-06	1587925.625	4.09507956646848E-05
2	520	114.482961710958	1.37100219726563	1.370849609375	8.392333984375E-07	1.15046282189724E-06	1633454.5	4.10368338634726E-05
2	521	114.583669710704	1.36093139648438	1.36138916015625	8.1298828125E-07	1.10679343379161E-06	1674549.5	4.11200308008119E-05
2	522	114.68437771045	1.35086059570313	1.35101318359375	7.89794921875001E-07	1.067023390533E-06	1710587.375	4.12007357226685E-05
2	523	114.785085710196	1.34078979492188	1.34063720703125	7.6873779296875E-07	1.0305984687875E-06	1743946	4.12792142014951E-05
2	524	114.885793709941	1.33071899414063	1.33056640625	7.50732421875E-07	9.98899281512422E-07	1772357.75	4.1355724533787E-05
2	525	114.986501709687	1.32064819335938	1.32110595703125	7.33642578125E-07	9.69219513535791E-07	1800748.875	4.14304704463575E-05
2	526	115.087209709433	1.31057739257813	1.31072998046875	7.183837890625E-07	9.41607140703127E-07	1824554	4.15035865444224E-05
2	527	115.187917709178	1.30050659179688	1.3006591796875	7.0465087890625E-07	9.16510600745823E-07	1845820.75	4.15752401750069E-05
2	528	115.288625708924	1.29043579101563	1.29058837890625	6.91833496093749E-07	8.92872208169138E-07	1865461	4.16455586673692E-05
2	529	115.38933370867	1.28036499023438	1.280517578125	6.8084716796875E-07	8.71836789428926E-07	1880771	4.17146802647039E-05
2	530	115.490041708416	1.27029418945313	1.26953125	6.70471191406249E-07	8.51184154271323E-07	1893491.125	4.17827250203118E-05
2	531	115.590749708161	1.26022338867188	1.2603759765625	6.591796875E-07	8.30814201435714E-07	1912037.125	4.18496783822775E-05
2	532	115.691457707907	1.25015258789063	1.25	6.48193359375E-07	8.10241658655286E-07	1928437	4.19155076087918E-05
2	533	115.792165707653	1.24008178710938	1.240234375	6.378173828125E-07	7.91043021308724E-07	1944497.625	4.1980263631558E-05
2	534	115.892873707399	1.23001098632813	1.23016357421875	6.2774658203125E-07	7.72230919210415E-07	1959650.125	4.20439901063219E-05
2	535	115.993581707144	1.21994018554688	1.219482421875	6.18591308593749E-07	7.54361224153399E-07	1971386.375	4.2106748878723E-05
2	536	116.09428970689	1.20986938476563	1.21002197265625	6.0943603515625E-07	7.37430980279896E-07	1985478.25	4.21685836045071E-05
2	537	116.194997706636	1.19979858398438	1.199951171875	6.0089111328125E-07	7.21039953077707E-07	1996952.875	4.22295306634624E-05
2	538	116.295705706382	1.18972778320313	1.1895751953125	5.9326171875E-07	7.05729405581224E-07	2005144.125	4.2289659177186E-05
2	539	116.396413706127	1.17965698242188	1.1798095703125	5.85021972656249E-07	6.90214505993936E-07	2016692.875	4.23489909735508E-05
2	540	116.497121705873	1.16958618164063	1.16973876953125	5.7647705078125E-07	6.74327509386785E-07	2029116	4.24074787588324E-05
2	541	116.597829705619	1.15951538085938	1.15966796875	5.682373046875E-07	6.58966598621191E-07	2040816.375	4.2465118895052E-05
2	542	116.698537705365	1.14944458007813	1.1492919921875	5.5999755859375E-07	6.43600685634738E-07	2052316.125	4.25219295721035E-05
2	543	116.79924570511	1.13937377929688	1.1395263671875	5.5267333984375E-07	6.2978580217532E-07	2061844.375	4.25779580837116E-05
2	544	116.899953704856	1.12930297851563	1.129150390625	5.45349121093749E-07	6.15781175383745E-07	2070509.25	4.26332480856217E-05
2	545	117.000661704602	1.11923217773438	1.11907958984375	5.389404296875E-07	6.03117200626002E-07	2076444	4.26878468715586E-05
2	546	117.101369704347	1.10916137695313	1.1090087890625	5.33142089843749E-07	5.91259265547706E-07	2080137.375	4.27418272010982E-05
2	547	117.202077704093	1.09909057617188	1.09893798828125	5.25817871093751E-07	5.77841262838774E-07	2089959.375	4.27951526944526E-05
2	548	117.302785703839	1.08901977539063	1.08917236328125	5.19409179687499E-07	5.65726111290132E-07	2096944.75	4.28477833338547E-05
2	549	117.403493703585	1.07894897460938	1.0791015625	5.1239013671875E-07	5.52920937479939E-07	2106015.75	4.28997373091988E-05
2	550	117.50420170333	1.06887817382813	1.0687255859375	5.0567626953125E-07	5.40429141437926E-07	2113458	4.29510037065484E-05
2	551	117.604909703076	1.05880737304688	1.0589599609375	4.974365234375E-07	5.2676534778584E-07	2128834.25	4.3001513404306E-05
2	552	117.705617702822	1.04873657226563	1.048583984375	4.90417480468749E-07	5.14243879479181E-07	2138145.75	4.30512554885354E-05
2	553	117.806325702568	1.03866577148438	1.0382080078125	4.83093261718751E-07	5.01551255638333E-07	2149084.25	4.31002736149821E-05
2	554	117.907033702313	1.02859497070313	1.02874755859375	4.75463867187501E-07	4.8913227601588E-07	2163671.5	4.31485423177946E-05
2	555	118.007741702059	1.01852416992188	1.01898193359375	4.6875E-07	4.7764774535608E-07	2173828.25	4.31960870628245E-05
2	556	118.108449701805	1.00845336914063	1.00830078125	4.6051025390625E-07	4.64332856608962E-07	2189529.5	4.32428787462413E-05
2	557	118.209157701551	0.998382568359375	0.9979248046875	4.52270507812499E-07	4.51331942485922E-07	2206477.75	4.32888409704901E-05
2	558	118.309865701296	0.988311767578125	0.98846435546875	4.43115234374999E-07	4.38003610270243E-07	2230716.25	4.33339264418464E-05
2	559	118.410573701042	0.978240966796875	0.97869873046875	4.345703125E-07	4.25313402274696E-07	2252106.75	4.33781242463738E-05
2	560	118.511281700788	0.968170166015625	0.96832275390625	4.26330566406249E-07	4.12825585272003E-07	2271295.75	4.34214707638603E-05
2	561	118.611989700534	0.958099365234375	0.95855712890625	4.180908203125E-07	4.00763923380509E-07	2292700.75	4.34639914601576E-05
2	562	118.712697700279	0.948028564453125	0.948486328125	4.1015625E-07	3.89027604796865E-07	2312500	4.35056972492021E-05
2	563	118.813405700025	0.937957763671875	0.93780517578125	4.0252685546875E-07	3.77491744529834E-07	2329795.5	4.3546620872803E-05
2	564	118.914113699771	0.927886962890625	0.927734375	3.948974609375E-07	3.66359955705775E-07	2349304.5	4.35867732448969E-05
2	565	119.014821699516	0.917816162109375	0.9185791015625	3.86657714843749E-07	3.55175700406107E-07	2375690.5	4.3626128899632E-05
2	566	119.115529699262	0.907745361328125	0.908203125	3.7841796875E-07	3.43680369496724E-07	2400000	4.36646514572203E-05
2	567	119.216237699008	0.897674560546875	0.8978271484375	3.7078857421875E-07	3.32904050992511E-07	2421399.25	4.37023772974499E-05
2	568	119.316945698754	0.887603759765625	0.8880615234375	3.619384765625E-07	3.21423641480578E-07	2453625.75	4.37392736785114E-05
2	569	119.417653698499	0.877532958984375	0.877685546875	3.5400390625E-07	3.10704109551807E-07	2479310.5	4.37753260484897E-05
2	570	119.518361698245	0.867462158203125	0.86669921875	3.460693359375E-07	2.99938022862989E-07	2504409.25	4.38105744251516E-05
2	571	119.619069697991	0.857391357421875	0.85723876953125	3.38134765625001E-07	2.89862214231107E-07	2535198.75	4.38450297224335E-05
2	572	119.719777697737	0.847320556640625	0.8477783203125	3.2958984375E-07	2.79419111848256E-07	2572222.5	4.38786519225687E-05
2	573	119.820485697482	0.837249755859375	0.83709716796875	3.204345703125E-07	2.68234856548588E-07	2612381	4.39113828178961E-05
2	574	119.921193697228	0.827178955078125	0.82763671875	3.1158447265625E-07	2.57878753018304E-07	2656219.5	4.39432078565005E-05
2	575	120.021901696974	0.817108154296875	0.8172607421875	3.01513671875001E-07	2.46415282845192E-07	2710526.25	4.39740797446575E-05
2	576	120.12260969672	0.807037353515625	0.806884765625	2.92358398437501E-07	2.35899520362182E-07	2759916.75	4.40039839304518E-05
2	577	120.223317696465	0.796966552734375	0.79681396484375	2.83203125000001E-07	2.25660201635947E-07	2813577.5	4.40329640696291E-05
2	578	120.324025696211	0.786895751953125	0.787353515625	2.74658203125E-07	2.16253098983543E-07	2866666.75	4.40610565419775E-05
2	579	120.424733695957	0.776824951171875	0.77728271484375	2.66418457031251E-07	2.07082464953601E-07	2917525.75	4.40883013652638E-05
2	580	120.525441695703	0.766754150390625	0.76690673828125	2.581787109375E-07	1.97999000306481E-07	2970449	4.41147167293821E-05
2	581	120.626149695448	0.756683349609375	0.7568359375	2.5054931640625E-07	1.89624714153069E-07	3020706.5	4.41403317381628E-05
2	582	120.726857695194	0.746612548828125	0.746490478515625	2.42004394531251E-07	1.80653955794696E-07	3084615.75	4.41651354776695E-05
2	583	120.82756569494	0.736541748046875	0.7364501953125	2.34069824218749E-07	1.72380765661728E-07	3146284.25	4.41891061200295E-05
2	584	120.928273694685	0.726470947265625	0.7264404296875	2.26440429687499E-07	1.64495475019066E-07	3208086.5	4.42122945969459E-05
2	585	121.028981694431	0.716400146484375	0.716278076171875	2.19116210937501E-07	1.56948132712387E-07	3268941.75	4.42347300122492E-05
2	586	121.129689694177	0.706329345703125	0.70623779296875	2.12707519531249E-07	1.50222092543117E-07	3320229.5	4.42564742115792E-05
2	587	121.230397693923	0.696258544921875	0.6961669921875	2.056884765625E-07	1.43193517487816E-07	3384570	4.42775417468511E-05
2	588	121.331105693668	0.686187744140625	0.686126708984375	1.9989013671875E-07	1.37149967827099E-07	3432519	4.42979653598741E-05
2	589	121.431813693414	0.676116943359375	0.67608642578125	1.94702148437501E-07	1.31635474076575E-07	3472414	4.43178360001184E-05
2	590	121.53252169316	0.666046142578125	0.66595458984375	1.8890380859375E-07	1.25801349781796E-07	3525363.75	4.43371500296053E-05
2	591	121.633229692906	0.655975341796875	0.65594482421875	1.83715820312499E-07	1.2050743691816E-07	3570432	4.43559147242922E-05
2	592	121.733937692651	0.645904541015625	0.64581298828125	1.79138183593749E-07	1.15689765323168E-07	3605110.75	4.43741846538614E-05
2	593	121.834645692397	0.635833740234375	0.635772705078125	1.7547607421875E-07	1.11562897586737E-07	3623130.5	4.43920398538467E-05
2	594	121.935353692143	0.625762939453125	0.625762939453125	1.7242431640625E-07	1.07896738654745E-07	3629203.75	4.44095603597816E-05
2	595	122.036061691889	0.615692138671875	0.61566162109375	1.70288085937501E-07	1.0483983459153E-07	3615412.5	4.44268152932636E-05
2	596	122.136769691634	0.605621337890625	0.60565185546875	1.68762207031251E-07	1.02211139108022E-07	3588788.5	4.44438883278053E-05
2	597	122.23747769138	0.595550537109375	0.595489501953125	1.678466796875E-07	9.99509381927055E-08	3547818.25	4.44608376710676E-05
2	598	122.338185691126	0.585479736328125	0.585479736328125	1.6632080078125E-07	9.73774589851928E-08	3520183.5	4.44776633230504E-05
2	599	122.438893690872	0.575408935546875	0.575408935546875	1.6510009765625E-07	9.50000682564678E-08	3485212.75	4.44943543698173E-05
2	600	122.539601690617	0.565338134765625	0.5653076171875	1.6357421875E-07	9.24697474147251E-08	3455970.25	4.45109035354108E-05
2	601	122.640309690363	0.555267333984375	0.555206298828125	1.62353515624999E-07	9.01396930430565E-08	3419736.75	4.45273144578096E-05
2	602	122.741017690109	0.545196533203125	0.545196533203125	1.6143798828125E-07	8.80154260585186E-08	3377126.75	4.45436198788229E-05
2	603	122.841725689854	0.535125732421875	0.535064697265625	1.605224609375E-07	8.58899014133385E-08	3333270	4.45598307123873E-05
2	604	122.9424336896	0.525054931640625	0.5250244140625	1.59606933593751E-07	8.3797530692209E-08	3289484	4.45759505964816E-05
2	605	123.043141689346	0.514984130859375	0.51495361328125	1.5899658203125E-07	8.18758678633458E-08	3238771.5	4.45919940830208E-05
2	606	123.143849689092	0.504913330078125	0.5048828125	1.57470703125E-07	7.95042467416351E-08	3206201.75	4.46079284301959E-05
2	607	123.244557688837	0.494842529296875	0.494781494140625	1.56249999999999E-07	7.73096076045476E-08	3166601.75	4.46237281721551E-05
2	608	123.345265688583	0.484771728515625	0.48468017578125	1.5411376953125E-07	7.46958832564815E-08	3144950.5	4.46393532911316E-05
2	609	123.445973688329	0.474700927734375	0.4747314453125	1.5228271484375E-07	7.22933890529021E-08	3117435	4.46547819592524E-05
2	610	123.546681688075	0.464630126953125	0.46466064453125	1.50146484374999E-07	6.97671609373174E-08	3094715.5	4.46700105385389E-05
2	611	123.64738968782	0.454559326171875	0.454498291015625	1.4801025390625E-07	6.7270406134412E-08	3070721.75	4.46850244770758E-05
2	612	123.748097687566	0.444488525390625	0.44451904296875	1.4678955078125E-07	6.52507452514328E-08	3028274.5	4.46998674306087E-05
2	613	123.848805687312	0.434417724609375	0.43438720703125	1.4495849609375E-07	6.29681125019488E-08	2996631.75	4.47145612270106E-05
2	614	123.949513687058	0.424346923828125	0.424346923828125	1.4312744140625E-07	6.07356867021736E-08	2964818.75	4.47290658485144E-05
2	615	124.050221686803	0.414276123046875	0.414306640625	1.40380859375E-07	5.81607224603431E-08	2951304.25	4.47433412773535E-05
2	616	124.150929686549	0.404205322265625	0.4041748046875	1.38244628906251E-07	5.58749952972448E-08	2923620.25	4.47573729616124E-05
2	617	124.251637686295	0.394134521484375	0.394195556640625	1.3580322265625E-07	5.35330251238975E-08	2902696.75	4.47711718152277E-05
2	618	124.352345686041	0.384063720703125	0.38397216796875	1.3427734375E-07	5.15587608163059E-08	2859545.5	4.47847705800086E-05
2	619	124.453053685786	0.373992919921875	0.374053955078125	1.33361816406249E-07	4.98845125207481E-08	2804805.75	4.47982492914889E-05
2	620	124.553761685532	0.363922119140625	0.363922119140625	1.324462890625E-07	4.8200135438492E-08	2747695.75	4.48116334155202E-05
2	621	124.654469685278	0.353851318359375	0.353790283203125	1.3153076171875E-07	4.65343035216392E-08	2689791.25	4.48249229521025E-05
2	622	124.755177685023	0.343780517578125	0.343780517578125	1.3092041015625E-07	4.500788719497E-08	2625874	4.48381397291087E-05
2	623	124.855885684769	0.333709716796875	0.333740234375	1.30310058593749E-07	4.34897096113218E-08	2561124.25	4.48512946604751E-05
2	624	124.956593684515	0.323638916015625	0.323699951171875	1.29089355468751E-07	4.17862189294738E-08	2507565	4.48643550043926E-05
2	625	125.057301684261	0.313568115234375	0.313568115234375	1.27258300781249E-07	3.99041475418471E-08	2464028.75	4.48772625532001E-05
2	626	125.158009684006	0.303497314453125	0.303466796875	1.26037597656251E-07	3.82482241434445E-08	2407748.25	4.48900173068978E-05
2	627	125.258717683752	0.293426513671875	0.293426513671875	1.239013671875E-07	3.6355942256705E-08	2368226.75	4.49026047135703E-05
2	628	125.359425683498	0.283355712890625	0.28338623046875	1.2237548828125E-07	3.46795268058031E-08	2315710.75	4.49150029453449E-05
2	629	125.460133683244	0.273284912109375	0.27325439453125	1.202392578125E-07	3.28559046636201E-08	2272589	4.49272229161579E-05
2	630	125.560841682989	0.263214111328125	0.26324462890625	1.171875E-07	3.08489802591794E-08	2246354.25	4.4939177314518E-05
2	631	125.661549682735	0.253143310546875	0.253143310546875	1.141357421875E-07	2.88926980118731E-08	2217914.5	4.49508261226583E-05
2	632	125.762257682481	0.243072509765625	0.2431640625	1.10778808593751E-07	2.69374247352516E-08	2195041.25	4.49621511506848E-05
2	633	125.862965682227	0.233001708984375	0.23297119140625	1.05895996093749E-07	2.4670715248476E-08	2200000	4.49730614491273E-05
2	634	125.963673681972	0.222930908203125	0.222991943359375	1.007080078125E-07	2.24570744222774E-08	2214242.5	4.49834624305367E-05
2	635	126.064381681718	0.212860107421875	0.212799072265625	9.46044921875E-08	2.01317469361584E-08	2249355	4.49932995252311E-05
2	636	126.165089681464	0.202789306640625	0.2027587890625	8.94165039062506E-08	1.81299810719793E-08	2267576.75	4.50025654572528E-05
2	637	126.26579768121	0.192718505859375	0.192779541015625	8.30078124999995E-08	1.60022075590405E-08	2322426.5	4.50112456746865E-05
2	638	126.366505680955	0.182647705078125	0.182647705078125	7.50732421874997E-08	1.37119551268938E-08	2432927	4.50192055723164E-05
2	639	126.467213680701	0.172576904296875	0.172607421875	6.62231445312494E-08	1.14306057952263E-08	2606451.5	4.50263214588631E-05
2	640	126.567921680447	0.162506103515625	0.162628173828125	5.52368164062497E-08	8.98306229402124E-09	2944199	4.50324369012378E-05
2	641	126.668629680192	0.152435302734375	0.1524658203125	4.08935546875003E-08	6.2348690654801E-09	3728358.25	4.50372790510301E-05
2	642	126.769337679938	0.142364501953125	0.14239501953125	2.38037109375006E-08	3.38952999001663E-09	5982051.5	4.50405350420624E-05
2	643	126.870045679684	0.132293701171875	0.13238525390625	9.15527343750555E-10	1.21202312075575E-10	144600000	4.50417792308144E-05
2	644	126.97075367943	0.122222900390625	0.122314453125	-2.92968749999997E-08	-3.58343110740122E-09	-4175000	4.5040353143122E-05
2	645	127.071461679175	0.112152099609375	0.112213134765625	-6.92749023437495E-08	-7.7735542447499E-09	-1619823.75	4.50353873020504E-05
2	646	127.172169678921	0.102081298828125	0.10211181640625	-1.22985839843751E-07	-1.25583072829727E-08	-830272.9375	4.50257066404447E-05
2	647	127.272877678667	0.092010498046875	0.092071533203125	-1.97448730468749E-07	-1.81794064246787E-08	-466306.03125	4.50095722044352E-05
2	648	127.373585678413	0.081939697265625	0.08203125	-2.95410156250001E-07	-2.42328646038459E-08	-277685.9375	4.49847539130133E-05
2	649	127.474293678158	0.071868896484375	0.0718994140625	-4.241943359375E-07	-3.04993221789118E-08	-169496.40625	4.49485196440946E-05
2	650	127.575001677904	0.061798095703125	0.061859130859375	-5.865478515625E-07	-3.62833389999651E-08	-105463.0546875	4.48976243205834E-05
2	651	127.67570967765	0.051727294921875	0.051849365234375	-7.82470703125E-07	-4.05706082062807E-08	-66263.6484375	4.48286882601678E-05
2	652	127.776417677396	0.041656494140625	0.04178466796875	-1.00128173828125E-06	-4.1838223552304E-08	-41731.1796875	4.47388702013995E-05
2	653	127.877125677141	0.031585693359375	0.031671142578125	-1.23046875E-06	-3.89703522785112E-08	-25739.08984375	4.46264930360485E-05
2	654	127.977833676887	0.021514892578125	0.021588134765625	-1.44622802734375E-06	-3.12213650488502E-08	-14927.2001953125	4.44917095592245E-05
2	655	128.078541676633	0.011444091796875	0.0115386962890625	-1.62811279296875E-06	-1.87862987388598E-08	-7087.16064453125	4.43369062850252E-05
2	656	128.179249676379	0.001373291015625	0.00147705078125	-1.75933837890625E-06	-2.59863219831402E-09	-839.549011230469	4.41663323726971E-05
2	657	128.279957676124	-0.008697509765625	-0.00859680175781249	-1.83258056640625E-06	1.57543329493137E-08	4691.0908203125	4.39854666183237E-05
2	658	128.38066567587	-0.018768310546875	-0.01868896484375	-1.85272216796875E-06	3.46254580563254E-08	10087.30078125	4.37998969573528E-05
2	659	128.481373675616	-0.028839111328125	-0.0287017822265625	-1.832275390625E-06	5.25895664793552E-08	15664.5576171875	4.3614341848297E-05
2	660	128.582081675361	-0.038909912109375	-0.0387786865234375	-1.78375244140625E-06	6.91715698053486E-08	21739.94921875	4.34322610090021E-05
2	661	128.682789675107	-0.048980712890625	-0.0488372802734375	-1.72149658203125E-06	8.40732141682565E-08	28369.083984375	4.32557571912184E-05
2	662	128.783497674853	-0.059051513671875	-0.05889892578125	-1.654052734375E-06	9.74219247495967E-08	35608.859375	4.30857835453935E-05
2	663	128.884205674599	-0.069122314453125	-0.069091796875	-1.58721923828125E-06	1.09663830016871E-07	43530.08984375	4.29225729021709E-05
2	664	128.984913674344	-0.079193115234375	-0.079132080078125	-1.52557373046875E-06	1.20721821872394E-07	51870.375	4.27658305852674E-05
2	665	129.08562167409	-0.089263916015625	-0.0892333984375	-1.4697265625E-06	1.3114869545916E-07	60714.2890625	4.2615007259883E-05
2	666	129.186329673836	-0.099334716796875	-0.09930419921875	-1.42059326171875E-06	1.41070870540716E-07	69903.3359375	4.24694662797265E-05
2	667	129.287037673582	-0.109405517578125	-0.1092529296875	-1.37786865234375E-06	1.50536195064888E-07	79291.25	4.23285528086126E-05
2	668	129.387745673327	-0.119476318359375	-0.119415283203125	-1.341552734375E-06	1.60201892640544E-07	89012.7421875	4.21916192863137E-05
2	669	129.488453673073	-0.129547119140625	-0.12945556640625	-1.309814453125E-06	1.69562767382558E-07	98835.046875	4.2058112740051E-05
2	670	129.589161672819	-0.139617919921875	-0.139556884765625	-1.282958984375E-06	1.79045755999141E-07	108777.359375	4.19275565946009E-05
2	671	129.689869672565	-0.149688720703125	-0.149627685546875	-1.2591552734375E-06	1.88404484902094E-07	118831.796875	4.17995506722946E-05
2	672	129.79057767231	-0.159759521484375	-0.159637451171875	-1.2396240234375E-06	1.97890415165602E-07	128778.9296875	4.16737275372725E-05
2	673	129.891285672056	-0.169830322265625	-0.169677734375	-1.22222900390625E-06	2.07385042472197E-07	138826.46875	4.15497634094208E-05
2	674	129.991993671802	-0.179901123046875	-0.17974853515625	-1.20849609375E-06	2.17225405663157E-07	148737.375	4.14273672504351E-05
2	675	130.092701671548	-0.189971923828125	-0.189849853515625	-1.1981201171875E-06	2.27462933821698E-07	158456.4375	4.1306182538392E-05
2	676	130.193409671293	-0.200042724609375	-0.199951171875	-1.1907958984375E-06	2.38101023342097E-07	167913.890625	4.11858927691355E-05
2	677	130.294117671039	-0.189971923828125	-0.1898193359375	-1.0333251953125E-06	1.961450948329E-07	183697.59375	4.10738975915592E-05
