Potential - Start -0.2 V, Upper Vertex 1.5 V, Lower Vertex -0.2 V, Stop -0.19 V; Scan - # end cross 5, Rate 0.1 Vps, Step 0.01 V 
Scan	Index	Time (s)	Potential applied (V)	WE(1).Potential (V)	WE(1).Current (A)	WE(1).Power (W)	WE(1).Resistance (Ω)	WE(1).Charge (C)
1	1	64.7945528364095	-0.189971923828125	-0.189788818359375	-2.44140625E-07	4.63351561563741E-08	777375.0625	0
1	2	64.8952608361552	-0.179901123046875	-0.17974853515625	-2.0904541015625E-07	3.75756066262056E-08	859854	-2.2819728329182E-08
1	3	64.995968835901	-0.169830322265625	-0.16961669921875	-1.800537109375E-07	3.05401144373718E-08	942033.9375	-4.24124237952128E-08
1	4	65.0966768356467	-0.159759521484375	-0.15960693359375	-1.556396484375E-07	2.48411655690006E-08	1025490.25	-5.93159263928555E-08
1	5	65.1973848353924	-0.149688720703125	-0.14959716796875	-1.33361816406249E-07	1.99505496567554E-08	1121739.25	-7.38683070267143E-08
1	6	65.2980928351382	-0.139617919921875	-0.139495849609375	-1.13830566406251E-07	1.58788910908925E-08	1225469.125	-8.63154312469305E-08
1	7	65.3988008348839	-0.129547119140625	-0.1295166015625	-9.58251953125003E-08	1.24109531540739E-08	1351592.375	-9.68724407357513E-08
1	8	65.4995088346296	-0.119476318359375	-0.119384765625	-7.72094726562506E-08	9.21763465555614E-09	1546245.125	-1.05585428400445E-07
1	9	65.6002168343754	-0.109405517578125	-0.1092529296875	-5.76782226562503E-08	6.30151486546993E-09	1894180	-1.12377563254995E-07
1	10	65.7009248341211	-0.099334716796875	-0.099273681640625	-3.54003906249997E-08	3.51432705159027E-09	2804310.5	-1.17064438143188E-07
1	11	65.8016328338668	-0.089263916015625	-0.089141845703125	-8.23974609374945E-09	7.34506122590517E-10	10818519	-1.19261898134937E-07
1	12	65.9023408336126	-0.079193115234375	-0.079132080078125	2.53295898437506E-08	-2.00438310393736E-09	-3124096.5	-1.18401352722231E-07
1	13	66.0030488333583	-0.069122314453125	-0.06903076171875	6.89697265624997E-08	-4.76103290125707E-09	-1000884.9375	-1.13653008781966E-07
1	14	66.1037568331041	-0.059051513671875	-0.05902099609375	1.2481689453125E-07	-7.36681737834033E-09	-472860.65625	-1.03895075653782E-07
1	15	66.2044648328498	-0.048980712890625	-0.0488311767578125	1.98974609374999E-07	-9.7161638734633E-09	-245414.109375	-8.7590876773902E-08
1	16	66.3051728325955	-0.038909912109375	-0.0387298583984375	2.96630859374999E-07	-1.14884706192697E-08	-130565.8515625	-6.2635159281399E-08
1	17	66.4058808323413	-0.028839111328125	-0.0286956787109375	4.2236328125E-07	-1.21200001146349E-08	-67940.7578125	-2.64309321096334E-08
1	18	66.506588832087	-0.018768310546875	-0.018646240234375	5.78918457031249E-07	-1.07946522831526E-08	-32208.751953125	2.39876065677436E-08
1	19	66.6072968318327	-0.008697509765625	-0.00858154296874999	7.6507568359375E-07	-6.56552989752868E-09	-11216.5947265625	9.16630824576714E-08
1	20	66.7080048315785	0.001373291015625	0.0014678955078125	9.7320556640625E-07	1.42856393381408E-09	1508.30993652344	1.7919249728493E-07
1	21	66.8087128313242	0.011444091796875	0.011553955078125	1.18560791015625E-06	1.36984601439849E-08	9745.1748046875	2.87897393036474E-07
1	22	66.90942083107	0.021514892578125	0.02161865234375	1.383056640625E-06	2.98998230618963E-08	15631.068359375	4.17239903072186E-07
1	23	67.0101288308157	0.031585693359375	0.031695556640625	1.5447998046875E-06	4.89632867584078E-08	20517.58203125	5.64669164759835E-07
1	24	67.1108368305614	0.041656494140625	0.041729736328125	1.6583251953125E-06	6.92014694436693E-08	25163.78515625	7.25959353076178E-07
1	25	67.2115448303072	0.051727294921875	0.051788330078125	1.71905517578125E-06	8.90269973297109E-08	30126.04296875	8.96023948371294E-07
1	26	67.3122528300529	0.061798095703125	0.061859130859375	1.73248291015625E-06	1.07169881857772E-07	35705.48046875	1.06982270153821E-06
1	27	67.4129608297986	0.071868896484375	0.071929931640625	1.70989990234375E-06	1.22992972251268E-07	42066.75	1.24316045457817E-06
1	28	67.5136688295444	0.081939697265625	0.08197021484375	1.6656494140625E-06	1.36533643058101E-07	49212.16796875	1.4131328498479E-06
1	29	67.6143768292901	0.092010498046875	0.092041015625	1.60858154296875E-06	1.48055477211528E-07	57218.7421875	1.57800343458803E-06
1	30	67.7150848290358	0.102081298828125	0.102142333984375	1.546630859375E-06	1.57976487002998E-07	66041.828125	1.73688101767766E-06
1	31	67.8157928287816	0.112152099609375	0.1121826171875	1.48468017578125E-06	1.66555309988325E-07	75560.125	1.88951969448681E-06
1	32	67.9165008285273	0.122222900390625	0.1221923828125	1.4263916015625E-06	1.74294186194857E-07	85665.3828125	2.03610375137941E-06
1	33	68.0172088282731	0.132293701171875	0.13238525390625	1.37237548828125E-06	1.81682267452743E-07	96464.3125	2.17703291127691E-06
1	34	68.1179168280188	0.142364501953125	0.142425537109375	1.3238525390625E-06	1.8855040195831E-07	107584.140625	2.31279864237877E-06
1	35	68.2186248277645	0.152435302734375	0.152496337890625	1.28082275390625E-06	1.9532077999429E-07	119061.234375	2.44395459958469E-06
1	36	68.3193328275103	0.162506103515625	0.16259765625	1.2420654296875E-06	2.01956922296631E-07	130909.09375	2.5709921374073E-06
1	37	68.420040827256	0.172576904296875	0.172607421875	1.20819091796875E-06	2.08542701329861E-07	142864.375	2.69437236966041E-06
1	38	68.5207488270017	0.182647705078125	0.182647705078125	1.17828369140625E-06	2.15210818055311E-07	155011.65625	2.81454072137421E-06
1	39	68.6214568267475	0.192718505859375	0.192779541015625	1.1505126953125E-06	2.21795289689908E-07	167559.6875	2.93180505650525E-06
1	40	68.7221648264932	0.202789306640625	0.202880859375	1.12640380859375E-06	2.28525763645848E-07	180113.796875	3.04645686810545E-06
1	41	68.8228728262389	0.212860107421875	0.21282958984375	1.10382080078125E-06	2.34925721542822E-07	192811.734375	3.15875763590157E-06
1	42	68.9235808259847	0.222930908203125	0.222991943359375	1.08428955078125E-06	2.4178783064599E-07	205657.1875	3.26893768942682E-06
1	43	69.0242888257304	0.233001708984375	0.2330322265625	1.0662841796875E-06	2.48478585263001E-07	218546.078125	3.37722758558812E-06
1	44	69.1249968254762	0.243072509765625	0.2430419921875	1.051025390625E-06	2.55443296737212E-07	231242.75	3.4838426472561E-06
1	45	69.2257048252219	0.253143310546875	0.253173828125	1.03790283203125E-06	2.62769844994182E-07	243928.25	3.58902866537392E-06
1	46	69.3264128249676	0.263214111328125	0.26318359375	1.0247802734375E-06	2.69705338951098E-07	256819.546875	3.69289296031639E-06
1	47	69.4271208247134	0.273284912109375	0.27325439453125	1.01348876953125E-06	2.76940255616864E-07	269617.59375	3.79552784579573E-06
1	48	69.5278288244591	0.283355712890625	0.283355712890625	1.00341796875E-06	2.84324215726883E-07	282390.5	3.89708702641656E-06
1	49	69.6285368242048	0.293426513671875	0.293426513671875	9.9334716796875E-07	2.91474407276837E-07	295391.71875	3.99763257519226E-06
1	50	69.7292448239506	0.303497314453125	0.303497314453125	9.8419189453125E-07	2.98699575296268E-07	308372.09375	4.09720951211057E-06
1	51	69.8299528236963	0.313568115234375	0.3135986328125	9.75952148437501E-07	3.06057273746774E-07	321325.8125	4.19591060563107E-06
1	52	69.9306608234421	0.323638916015625	0.323638916015625	9.6923828125E-07	3.13683216290883E-07	333910.59375	4.29385863753851E-06
1	53	70.0313688231878	0.333709716796875	0.333740234375	9.625244140625E-07	3.21233102340557E-07	346734.3125	4.39113046013517E-06
1	54	70.1320768229335	0.343780517578125	0.34375	9.57336425781249E-07	3.2908440061874E-07	359069.1875	4.48780338047072E-06
1	55	70.2327848226793	0.353851318359375	0.353851318359375	9.5245361328125E-07	3.37026961005904E-07	371515.53125	4.58396880276268E-06
1	56	70.333492822425	0.363922119140625	0.363861083984375	9.478759765625E-07	3.44895170201198E-07	383869.9375	4.67965810457827E-06
1	57	70.4342008221707	0.373992919921875	0.373992919921875	9.43908691406251E-07	3.53015167320336E-07	396217.28125	4.77491676065256E-06
1	58	70.5349088219165	0.384063720703125	0.384033203125	9.3963623046875E-07	3.60851515779359E-07	408704.125	4.86976114189019E-06
1	59	70.6356168216622	0.394134521484375	0.3941650390625	9.36279296875001E-07	3.69048564152763E-07	420990.875	4.96422080686898E-06
1	60	70.7363248214079	0.404205322265625	0.404266357421875	9.3353271484375E-07	3.77395878103925E-07	433050.03125	5.05837306263857E-06
1	61	70.8370328211537	0.414276123046875	0.414306640625	9.31701660156251E-07	3.86010185593477E-07	444677.375	5.1522952162486E-06
1	62	70.9377408208994	0.424346923828125	0.42437744140625	9.3048095703125E-07	3.94875115716786E-07	456083.96875	5.24606366525404E-06
1	63	71.0384488206452	0.434417724609375	0.43438720703125	9.295654296875E-07	4.03791318603908E-07	467301.375	5.33972433913732E-06
1	64	71.1391568203909	0.444488525390625	0.44451904296875	9.295654296875E-07	4.13209534144698E-07	478200.90625	5.43333908353816E-06
1	65	71.2398648201366	0.454559326171875	0.45458984375	9.28955078125E-07	4.22293538804297E-07	489356.125	5.52692290511914E-06
1	66	71.3405728198824	0.464630126953125	0.464630126953125	9.28955078125E-07	4.31620492236107E-07	500164.28125	5.6204762586276E-06
1	67	71.4412808196281	0.474700927734375	0.4747314453125	9.295654296875E-07	4.41293934727582E-07	510702.5625	5.71406008020858E-06
1	68	71.5419888193738	0.484771728515625	0.484771728515625	9.3109130859375E-07	4.51366730658265E-07	520648.96875	5.80775167691172E-06
1	69	71.6426968191196	0.494842529296875	0.494781494140625	9.32922363281249E-07	4.61592691181067E-07	530356.5625	5.90161243962939E-06
1	70	71.7434048188653	0.504913330078125	0.5048828125	9.36279296875001E-07	4.7271132075366E-07	539243.8125	5.99573377257911E-06
1	71	71.8441128186111	0.514984130859375	0.5150146484375	9.40856933593751E-07	4.84555073398951E-07	547388.9375	6.09025528319762E-06
1	72	71.9448208183568	0.525054931640625	0.525054931640625	9.46044921875E-07	4.96725533594145E-07	555000	6.18526837570244E-06
1	73	72.0455288181025	0.535125732421875	0.535064697265625	9.51538085937501E-07	5.09134451931459E-07	562315.5625	6.28081943432335E-06
1	74	72.1462368178483	0.545196533203125	0.545166015625	9.5855712890625E-07	5.22572747740924E-07	568736.125	6.37700031802524E-06
1	75	72.246944817594	0.555267333984375	0.555267333984375	9.66796875000001E-07	5.36830725650361E-07	574337.125	6.47394927000278E-06
1	76	72.3476528173397	0.565338134765625	0.56524658203125	9.7625732421875E-07	5.51826076389261E-07	578993.4375	6.5717899815354E-06
1	77	72.4483608170855	0.575408935546875	0.575408935546875	9.8907470703125E-07	5.69122391880228E-07	581764.875	6.67075255478267E-06
1	78	72.5490688168312	0.585479736328125	0.585479736328125	1.004638671875E-06	5.88195575801365E-07	582776.4375	6.77114394420641E-06
1	79	72.6497768165769	0.595550537109375	0.59552001953125	1.02630615234375E-06	6.111858397162E-07	580255.75	6.87340980221052E-06
1	80	72.7504848163227	0.605621337890625	0.6055908203125	1.053466796875E-06	6.37969833405805E-07	574855.125	6.97813493388821E-06
1	81	72.8511928160684	0.615692138671875	0.61572265625	1.0888671875E-06	6.7044021534457E-07	565470.875	7.0860101004655E-06
1	82	72.9519008158142	0.625762939453125	0.625701904296875	1.1358642578125E-06	7.10712356521981E-07	550859.8125	7.19803392712492E-06
1	83	73.0526088155599	0.635833740234375	0.635772705078125	1.19384765625E-06	7.59015733819979E-07	532540.875	7.3153441917384E-06
1	84	73.1533168153056	0.645904541015625	0.64581298828125	1.26373291015625E-06	8.16135127479356E-07	511036	7.43909322409309E-06
1	85	73.2540248150514	0.655975341796875	0.655975341796875	1.34368896484375E-06	8.81426842624933E-07	488189.875	7.57038742449367E-06
1	86	73.3547328147971	0.666046142578125	0.665985107421875	1.42791748046875E-06	9.50971752899932E-07	466403.0625	7.70994938648073E-06
1	87	73.4554408145428	0.676116943359375	0.676055908203125	1.50909423828125E-06	1.02023204817669E-06	447987.875	7.85783959145192E-06
1	88	73.5561488142886	0.686187744140625	0.686065673828125	1.58050537109375E-06	1.08433050627355E-06	434079.9375	8.01341320766369E-06
1	89	73.6568568140343	0.696258544921875	0.696136474609375	1.6363525390625E-06	1.13912471988442E-06	425419.625	8.17539421404945E-06
1	90	73.75756481378	0.706329345703125	0.706298828125	1.67510986328125E-06	1.18312811991927E-06	421643.28125	8.34214006317779E-06
1	91	73.8582728135258	0.716400146484375	0.716339111328125	1.69830322265625E-06	1.21656103146961E-06	421796.9375	8.51200456963852E-06
1	92	73.9589808132715	0.726470947265625	0.726409912109375	1.7108154296875E-06	1.24275322832545E-06	424598.65625	8.68366714712465E-06
1	93	74.0596888130173	0.736541748046875	0.736419677734375	1.7205810546875E-06	1.26706970604573E-06	428006.375	8.85645204107277E-06
1	94	74.160396812763	0.746612548828125	0.74658203125	1.7327880859375E-06	1.29366844703327E-06	430855.9375	9.03034288057825E-06
1	95	74.2611048125087	0.756683349609375	0.7568359375	1.75201416015625E-06	1.32598722757393E-06	431980.5	9.20581715035951E-06
1	96	74.3618128122545	0.766754150390625	0.7672119140625	1.78558349609375E-06	1.36992093757726E-06	429670.15625	9.38394896365935E-06
1	97	74.4625208120002	0.776824951171875	0.7769775390625	1.8389892578125E-06	1.42885335208121E-06	422502.5	9.56646090344293E-06
1	98	74.5632288117459	0.786895751953125	0.78704833984375	1.91802978515625E-06	1.50958214817365E-06	410342.09375	9.75564125837991E-06
1	99	74.6639368114917	0.796966552734375	0.797119140625	2.0263671875E-06	1.61525599651213E-06	393373.5	9.95425762084778E-06
1	100	74.7646448112374	0.807037353515625	0.806884765625	2.1661376953125E-06	1.7478234894952E-06	372499.3125	1.01653668025392E-05
1	101	74.8653528109832	0.817108154296875	0.81787109375	2.3345947265625E-06	1.90939749700192E-06	350326.8125	1.03919974208111E-05
1	102	74.9660608107289	0.827178955078125	0.82733154296875	2.52288818359375E-06	2.08726487471722E-06	327930.34375	1.0636590559443E-05
1	103	75.0667688104746	0.837249755859375	0.83770751953125	2.71575927734375E-06	2.27501186600421E-06	308461.65625	1.09003776742611E-05
1	104	75.1674768102204	0.847320556640625	0.84686279296875	2.89581298828125E-06	2.45235628426599E-06	292443.875	1.11829431261867E-05
1	105	75.2681848099661	0.857391357421875	0.8575439453125	3.04534912109375E-06	2.61152058556036E-06	281591.34375	1.14821041279356E-05
1	106	75.3688928097118	0.867462158203125	0.86761474609375	3.15338134765625E-06	2.7359199066268E-06	275137.9375	1.17942345241318E-05
1	107	75.4696008094576	0.877532958984375	0.87738037109375	3.21533203125E-06	2.82106907434354E-06	272873.96875	1.2114925084461E-05
1	108	75.5703088092033	0.887603759765625	0.88775634765625	3.2366943359375E-06	2.87339594251534E-06	274278.71875	1.24398102343548E-05
1	109	75.671016808949	0.897674560546875	0.89813232421875	3.2293701171875E-06	2.90040179606876E-06	278113.78125	1.27654029711266E-05
1	110	75.7717248086948	0.907745361328125	0.908203125	3.2086181640625E-06	2.91407695840462E-06	283051.15625	1.30895814436371E-05
1	111	75.8724328084405	0.917816162109375	0.91766357421875	3.18695068359375E-06	2.92454842565348E-06	287944.09375	1.34116235130932E-05
1	112	75.9731408081863	0.927886962890625	0.92803955078125	3.177490234375E-06	2.94883648166433E-06	292066.875	1.37320985231781E-05
1	113	76.073848807932	0.937957763671875	0.93841552734375	3.1903076171875E-06	2.9938341867819E-06	294145.78125	1.40527426992776E-05
1	114	76.1745568076777	0.948028564453125	0.94818115234375	3.2342529296875E-06	3.06665742755285E-06	293168.53125	1.437624450773E-05
1	115	76.2752648074235	0.958099365234375	0.958251953125	3.31695556640625E-06	3.17847889164113E-06	288895.03125	1.4706124602526E-05
1	116	76.3759728071692	0.968170166015625	0.968017578125	3.44024658203125E-06	3.33021898768493E-06	281380.3125	1.50463765749009E-05
1	117	76.4766808069149	0.978240966796875	0.97808837890625	3.603515625E-06	3.52455663232831E-06	271426.15625	1.54010576807195E-05
1	118	76.5773888066607	0.988311767578125	0.98876953125	3.797607421875E-06	3.7549584703811E-06	260366.4375	1.57737340487074E-05
1	119	76.6780968064064	0.998382568359375	0.99853515625	4.0069580078125E-06	4.00108865505899E-06	249200.296875	1.61667248903541E-05
1	120	76.7788048061522	1.00845336914063	1.00830078125	4.20928955078125E-06	4.24422978539951E-06	239541.8125	1.6580446754233E-05
1	121	76.8795128058979	1.01852416992188	1.01806640625	4.3841552734375E-06	4.46336116510793E-06	232214.96875	1.70131606864743E-05
1	122	76.9802208056436	1.02859497070313	1.029052734375	4.5098876953125E-06	4.64091226604069E-06	228177.015625	1.74610104295425E-05
1	123	77.0809288053894	1.03866577148438	1.03851318359375	4.57794189453125E-06	4.75425258628093E-06	226851.5625	1.79186190507608E-05
1	124	77.1816368051351	1.04873657226563	1.0479736328125	4.58953857421875E-06	4.80971539218444E-06	228339.65625	1.83802385436138E-05
1	125	77.2823448048808	1.05880737304688	1.05865478515625	4.55474853515625E-06	4.82190625916701E-06	232428.8125	1.88406902452698E-05
1	126	77.3830528046266	1.06887817382813	1.0687255859375	4.486083984375E-06	4.79439268019632E-06	238231.296875	1.9295932361274E-05
1	127	77.4837608043723	1.07894897460938	1.0791015625	4.4000244140625E-06	4.74807302452973E-06	245249	1.97433837456629E-05
1	128	77.584468804118	1.08901977539063	1.08917236328125	4.30694580078125E-06	4.69100632471964E-06	252887.40625	2.01818147615995E-05
1	129	77.6851768038638	1.09909057617188	1.0992431640625	4.21417236328125E-06	4.63240030512679E-06	260844.375	2.06108870770549E-05
1	130	77.7858848036095	1.10916137695313	1.1090087890625	4.12750244140625E-06	4.5774363570672E-06	268687.625	2.10309244721429E-05
1	131	77.8865928033553	1.11923217773438	1.11907958984375	4.04693603515625E-06	4.52884341939352E-06	276525.15625	2.14425399462925E-05
1	132	77.987300803101	1.12930297851563	1.129150390625	3.97430419921875E-06	4.4875869207317E-06	284112.75	2.18464410863817E-05
1	133	78.0880088028467	1.13937377929688	1.13983154296875	3.90869140625E-06	4.45524938186281E-06	291614.625	2.22433809540235E-05
1	134	78.1887168025925	1.14944458007813	1.1492919921875	3.848876953125E-06	4.42348346041399E-06	298604.5	2.26340052904561E-05
1	135	78.2894248023382	1.15951538085938	1.15936279296875	3.79547119140625E-06	4.40032772530685E-06	305459.53125	2.30189289140981E-05
1	136	78.3901328020839	1.16958618164063	1.16943359375	3.74725341796875E-06	4.38216375187039E-06	312077.53125	2.33987357205478E-05
1	137	78.4908408018297	1.17965698242188	1.17950439453125	3.704833984375E-06	4.36986783824977E-06	318369.03125	2.37739786825841E-05
1	138	78.5915488015754	1.18972778320313	1.18927001953125	3.66729736328125E-06	4.36140680903918E-06	324290.59375	2.4145194402081E-05
1	139	78.6922568013212	1.19979858398438	1.19964599609375	3.63433837890625E-06	4.35991933045443E-06	330086.5	2.45128612732515E-05
1	140	78.7929648010669	1.20986938476563	1.209716796875	3.604736328125E-06	4.36071013609762E-06	335590.9375	2.4877377654775E-05
1	141	78.8936728008126	1.21994018554688	1.2200927734375	3.5784912109375E-06	4.36609116150066E-06	340951.75	2.52390818786807E-05
1	142	78.9943808005584	1.23001098632813	1.23016357421875	3.55377197265625E-06	4.37172093370464E-06	346157.15625	2.5598219508538E-05
1	143	79.0950888003041	1.24008178710938	1.23992919921875	3.53179931640625E-06	4.37918106399593E-06	351075.78125	2.59550070040859E-05
1	144	79.1957968000498	1.25015258789063	1.2506103515625	3.51165771484375E-06	4.39171571997576E-06	356131.0625	2.63096717389999E-05
1	145	79.2965047997956	1.26022338867188	1.2603759765625	3.49456787109375E-06	4.40446956417873E-06	360667.1875	2.66624647338176E-05
1	146	79.3972127995413	1.27029418945313	1.26983642578125	3.4796142578125E-06	4.41854081145721E-06	364936	2.7013642466045E-05
1	147	79.497920799287	1.28036499023438	1.28021240234375	3.4674072265625E-06	4.43901762992027E-06	369213.1875	2.73634523182409E-05
1	148	79.5986287990328	1.29043579101563	1.28997802734375	3.45672607421875E-06	4.45910063717747E-06	373179.125	2.77121107501443E-05
1	149	79.6993367987785	1.30050659179688	1.300048828125	3.44879150390625E-06	4.48359742222237E-06	376957.8125	2.80598305835156E-05
1	150	79.8000447985243	1.31057739257813	1.3104248046875	3.4417724609375E-06	4.5101837713446E-06	380741.28125	2.84067973552737E-05
1	151	79.90075279827	1.32064819335938	1.32080078125	3.436279296875E-06	4.53864049632102E-06	384369.46875	2.87531347566983E-05
1	152	80.0014607980157	1.33071899414063	1.33056640625	3.43231201171875E-06	4.5669189603359E-06	387658.96875	2.90989955828991E-05
1	153	80.1021687977615	1.34078979492188	1.3409423828125	3.4295654296875E-06	4.59884950032574E-06	390994.84375	2.94445198960602E-05
1	154	80.2028767975072	1.35086059570313	1.3507080078125	3.428955078125E-06	4.63151718577137E-06	393912.4375	2.97898732242174E-05
1	155	80.3035847972529	1.36093139648438	1.36077880859375	3.42987060546875E-06	4.66729488834972E-06	396743.5	3.01352429232793E-05
1	156	80.4042927969987	1.37100219726563	1.370849609375	3.4320068359375E-06	4.70476516056806E-06	399430.9375	3.0480765417451E-05
1	157	80.5050007967444	1.38107299804688	1.38092041015625	3.436279296875E-06	4.74522812510259E-06	401865	3.08266098727472E-05
1	158	80.6057087964901	1.39114379882813	1.39129638671875	3.43963623046875E-06	4.78555330118979E-06	404489.40625	3.11728399537969E-05
1	159	80.7064167962359	1.40121459960938	1.4013671875	3.443603515625E-06	4.82575296700816E-06	406947.90625	3.1519441108685E-05
1	160	80.8071247959816	1.41128540039063	1.4111328125	3.4466552734375E-06	4.86368844576646E-06	409420.9375	3.18663915095385E-05
1	161	80.9078327957274	1.42135620117188	1.4215087890625	3.44940185546875E-06	4.90335469294223E-06	412103	3.22136365866754E-05
1	162	81.0085407954731	1.43142700195313	1.4312744140625	3.45123291015625E-06	4.93966126668965E-06	414713.96875	3.25611108564772E-05
1	163	81.1092487952188	1.44149780273438	1.441650390625	3.4539794921875E-06	4.97943074151408E-06	417388.25	3.29088143189438E-05
1	164	81.2099567949646	1.45156860351563	1.451416015625	3.45611572265625E-06	5.01626163895708E-06	419955.875	3.32567651639692E-05
1	165	81.3106647947103	1.46163940429688	1.4617919921875	3.45916748046875E-06	5.05658317706548E-06	422584.9375	3.36049779434688E-05
1	166	81.411372794456	1.47171020507813	1.47186279296875	3.463134765625E-06	5.09725896336022E-06	425008.84375	3.39535436069127E-05
1	167	81.5120807942018	1.48178100585938	1.4813232421875	3.4686279296875E-06	5.1381593948463E-06	427063.15625	3.43025858455803E-05
1	168	81.6127887939475	1.49185180664063	1.49169921875	3.4747314453125E-06	5.1832539611496E-06	429299.15625	3.46522101608571E-05
1	169	81.7134967936933	1.50192260742188	1.50146484375	3.48358154296875E-06	5.23047492606565E-06	431011.84375	3.50025911757257E-05
1	170	81.814204793439	1.49185180664063	1.4923095703125	3.3294677734375E-06	4.96859638587921E-06	448212.65625	3.53456562152132E-05
1	171	81.9149127931847	1.48178100585938	1.48193359375	3.21746826171875E-06	4.76807417726377E-06	460589.96875	3.56753189407755E-05
1	172	82.0156207929305	1.47171020507813	1.4715576171875	3.128662109375E-06	4.60400633528479E-06	470347.25	3.59948717232328E-05
1	173	82.1163287926762	1.46163940429688	1.4617919921875	3.05450439453125E-06	4.46505009676912E-06	478569.3125	3.63062208634801E-05
1	174	82.2170367924219	1.45156860351563	1.451416015625	2.99102783203125E-06	4.34122557635419E-06	485256.625	3.66106360161211E-05
1	175	82.3177447921677	1.44149780273438	1.441650390625	2.9345703125E-06	4.23062419940834E-06	491264.59375	3.69090157619212E-05
1	176	82.4184527919134	1.43142700195313	1.431884765625	2.88482666015625E-06	4.13073939853348E-06	496350.34375	3.7202044040896E-05
1	177	82.5191607916591	1.42135620117188	1.42120361328125	2.8387451171875E-06	4.03443482355215E-06	500645.03125	3.74902483599726E-05
1	178	82.6198687914049	1.41128540039063	1.4117431640625	2.796630859375E-06	3.94812423110125E-06	504801.40625	3.77740107069258E-05
1	179	82.7205767911506	1.40121459960938	1.40106201171875	2.75787353515625E-06	3.86395186069421E-06	508022.5625	3.80537021555938E-05
1	180	82.8212847908964	1.39114379882813	1.39129638671875	2.72186279296875E-06	3.78691788682772E-06	511155.96875	3.83296319341753E-05
1	181	82.9219927906421	1.38107299804688	1.3812255859375	2.6885986328125E-06	3.71356122741417E-06	513734.375	3.86020692531019E-05
1	182	83.0227007903878	1.37100219726563	1.3714599609375	2.657470703125E-06	3.64461448043585E-06	516077.21875	3.88712651329115E-05
1	183	83.1234087901336	1.36093139648438	1.361083984375	2.62847900390625E-06	3.57758062818903E-06	517821.90625	3.91374342143536E-05
1	184	83.2241167898793	1.35086059570313	1.35101318359375	2.60009765625E-06	3.5127661703882E-06	519600.96875	3.94007147406228E-05
1	185	83.324824789625	1.34078979492188	1.34063720703125	2.57232666015625E-06	3.44855675393774E-06	521176.90625	3.96611649193801E-05
1	186	83.4255327893708	1.33071899414063	1.33056640625	2.5457763671875E-06	3.38732456839352E-06	522656.4375	3.99188829760533E-05
1	187	83.5262407891165	1.32064819335938	1.32080078125	2.51983642578125E-06	3.32820195581007E-06	524161.3125	4.01739562221337E-05
1	188	83.6269487888623	1.31057739257813	1.31103515625	2.49542236328125E-06	3.27158636537206E-06	525376.0625	4.04264937969856E-05
1	189	83.727656788608	1.30050659179688	1.30096435546875	2.47222900390625E-06	3.21628181154665E-06	526231.3125	4.06766375817824E-05
1	190	83.8283647883537	1.29043579101563	1.290283203125	2.4505615234375E-06	3.16191812999023E-06	526525.5625	4.09245185437612E-05
1	191	83.9290727880995	1.28036499023438	1.280517578125	2.4298095703125E-06	3.1114136618271E-06	527003.3125	4.11702640121803E-05
1	192	84.0297807878452	1.27029418945313	1.2701416015625	2.41058349609375E-06	3.06178230857768E-06	526902.125	4.1413997678319E-05
1	193	84.1304887875909	1.26022338867188	1.26007080078125	2.39166259765625E-06	3.01366412713833E-06	526859.8125	4.16558104916476E-05
1	194	84.2311967873367	1.25015258789063	1.25030517578125	2.37274169921875E-06	2.96665120913531E-06	526945.375	4.18957170040812E-05
1	195	84.3319047870824	1.24008178710938	1.23931884765625	2.354736328125E-06	2.91826904685877E-06	526308.9375	4.21337645093445E-05
1	196	84.4326127868281	1.23001098632813	1.23016357421875	2.33795166015625E-06	2.87606303572829E-06	526171.5	4.23700585088227E-05
1	197	84.5333207865739	1.21994018554688	1.22039794921875	2.32177734375E-06	2.83349208984873E-06	525630.9375	4.26046972279437E-05
1	198	84.6340287863196	1.20986938476563	1.209716796875	2.3065185546875E-06	2.79023424809566E-06	524477.375	4.28377497883048E-05
1	199	84.7347367860654	1.19979858398438	1.1993408203125	2.2930908203125E-06	2.75019738182891E-06	523023.6875	4.30693580710795E-05
1	200	84.8354447858111	1.18972778320313	1.18927001953125	2.279052734375E-06	2.71040903498942E-06	521826.46875	4.32995839219075E-05
1	201	84.9361527855568	1.17965698242188	1.1798095703125	2.265625E-06	2.67300606537901E-06	520743.53125	4.35284273407888E-05
1	202	85.0368607853026	1.16958618164063	1.16973876953125	2.2515869140625E-06	2.63376841758145E-06	519517.46875	4.37558846897446E-05
1	203	85.1375687850483	1.15951538085938	1.15997314453125	2.236328125E-06	2.59408056990651E-06	518695.40625	4.39818686572835E-05
1	204	85.238276784794	1.14944458007813	1.14898681640625	2.21923828125E-06	2.54987548942154E-06	517739.28125	4.42062264482956E-05
1	205	85.3389847845398	1.13937377929688	1.1395263671875	2.20001220703125E-06	2.5069718958548E-06	517963.65625	4.4428750697989E-05
1	206	85.4396927842855	1.12930297851563	1.12884521484375	2.17803955078125E-06	2.45866954173835E-06	518285	4.46492049377412E-05
1	207	85.5404007840312	1.11923217773438	1.119384765625	2.15301513671875E-06	2.4100522750814E-06	519915	4.48672908532899E-05
1	208	85.641108783777	1.10916137695313	1.10931396484375	2.12158203125E-06	2.35350034927251E-06	522871.15625	4.50825355073903E-05
1	209	85.7418167835227	1.09909057617188	1.0992431640625	2.081298828125E-06	2.28785347644589E-06	528152.5	4.52941640105564E-05
1	210	85.8425247832685	1.08901977539063	1.0888671875	2.02789306640625E-06	2.20810625251033E-06	536945.0625	4.55010813311674E-05
1	211	85.9432327830142	1.07894897460938	1.0791015625	1.9561767578125E-06	2.11091332857904E-06	551638.0625	4.57016940345056E-05
1	212	86.0439407827599	1.06887817382813	1.0687255859375	1.861572265625E-06	1.98950988306024E-06	574098.375	4.589393211063E-05
1	213	86.1446487825057	1.05880737304688	1.05926513671875	1.73828125E-06	1.8413006728224E-06	609375	4.60751980426721E-05
1	214	86.2453567822514	1.04873657226563	1.04827880859375	1.58050537109375E-06	1.65681024100195E-06	663255.4375	4.62423122371547E-05
1	215	86.3460647819971	1.03866577148438	1.03851318359375	1.387939453125E-06	1.44139335134241E-06	748241	4.63917858724017E-05
1	216	86.4467727817429	1.02859497070313	1.0284423828125	1.16119384765625E-06	1.19422099942312E-06	885676.75	4.65201446786523E-05
1	217	86.5474807814886	1.01852416992188	1.01837158203125	9.130859375E-07	9.29860732412635E-07	1115307.5	4.66245946881827E-05
1	218	86.6481887812344	1.00845336914063	1.00830078125	6.56738281249999E-07	6.62189734157437E-07	1535316	4.67036406917032E-05
1	219	86.7488967809801	0.998382568359375	0.99822998046875	4.168701171875E-07	4.16132252212265E-07	2394582.75	4.67577010567766E-05
1	220	86.8496047807258	0.988311767578125	0.9881591796875	2.117919921875E-07	2.09284195307191E-07	4665706	4.67893587483559E-05
1	221	86.9503127804716	0.978240966796875	0.977783203125	6.01196289062494E-08	5.87839608101604E-08	16263960	4.6803048462607E-05
1	222	87.0510207802173	0.968170166015625	0.96832275390625	-3.509521484375E-08	-3.39834969054209E-08	-27591304	4.6804310841253E-05
1	223	87.151728779963	0.958099365234375	0.958251953125	-7.62939453125E-08	-7.31088221073151E-08	-12560000	4.67987010779325E-05
1	224	87.2524367797088	0.948028564453125	0.94757080078125	-7.50732421874997E-08	-7.11372081241279E-08	-12621952	4.67910795123316E-05
1	225	87.3531447794545	0.937957763671875	0.93780517578125	-4.48608398437494E-08	-4.20707273462995E-08	-20904762	4.67850404675119E-05
1	226	87.4538527792002	0.927886962890625	0.927734375	-2.44140625000056E-09	-2.26497642863421E-09	-380000000	4.67826575913932E-05
1	227	87.554560778946	0.917816162109375	0.91796875	3.90625000000006E-08	3.58581537795999E-08	23500000	4.67845020466484E-05
1	228	87.6552687786917	0.907745361328125	0.9075927734375	6.43920898437497E-08	5.84417954030414E-08	14094787	4.67897116323002E-05
1	229	87.7559767784375	0.897674560546875	0.89813232421875	6.256103515625E-08	5.61880888483302E-08	14356097	4.67961035610642E-05
1	230	87.8566847781832	0.887603759765625	0.88775634765625	2.74658203125E-08	2.43829560986342E-08	32322222	4.68006364826579E-05
1	231	87.9573927779289	0.877532958984375	0.877685546875	-4.30297851562497E-08	-3.77666182771463E-08	-20397164	4.67998543172143E-05
1	232	88.0581007776747	0.867462158203125	0.86700439453125	-1.47399902343751E-07	-1.27796369042699E-07	-5881987.5	4.67902646050788E-05
1	233	88.1588087774204	0.857391357421875	0.85784912109375	-2.79541015625E-07	-2.39804023749457E-07	-3068777.25	4.67687641503289E-05
1	234	88.2595167771661	0.847320556640625	0.8477783203125	-4.26330566406249E-07	-3.6143379134046E-07	-1988546.875	4.67332210973836E-05
1	235	88.3602247769119	0.837249755859375	0.83770751953125	-5.7342529296875E-07	-4.80362643884291E-07	-1460883.5	4.66828823846299E-05
1	236	88.4609327766576	0.827178955078125	0.82733154296875	-7.02514648437499E-07	-5.81212532324571E-07	-1177671.625	4.66186320409179E-05
1	237	88.5616407764034	0.817108154296875	0.81695556640625	-8.00170898437499E-07	-6.53704034903058E-07	-1020976.375	4.65429657197092E-05
1	238	88.6623487761491	0.807037353515625	0.806884765625	-8.59375E-07	-6.93416552621784E-07	-938920.5	4.64594013465103E-05
1	239	88.7630567758948	0.796966552734375	0.797119140625	-8.8043212890625E-07	-7.01809256042907E-07	-905372.6875	4.63717951788567E-05
1	240	88.8637647756406	0.786895751953125	0.7867431640625	-8.70666503906251E-07	-6.84990936861141E-07	-903610.25	4.62836214865092E-05
1	241	88.9644727753863	0.776824951171875	0.777587890625	-8.392333984375E-07	-6.5257773940175E-07	-926545.4375	4.61975214420818E-05
1	242	89.065180775132	0.766754150390625	0.76690673828125	-7.97119140624999E-07	-6.11316011145391E-07	-962098	4.61151212221012E-05
1	243	89.1658887748778	0.756683349609375	0.7574462890625	-7.51647949218751E-07	-5.69332939903688E-07	-1007714.1875	4.60371375083923E-05
1	244	89.2665967746235	0.746612548828125	0.746490478515625	-7.1075439453125E-07	-5.30571355739085E-07	-1050279.125	4.59634975413792E-05
1	245	89.3673047743692	0.736541748046875	0.736419677734375	-6.78100585937499E-07	-4.99366592521255E-07	-1086003.625	4.58935646747705E-05
1	246	89.468012774115	0.726470947265625	0.7264404296875	-6.573486328125E-07	-4.77524622510828E-07	-1105106.875	4.58263202745002E-05
1	247	89.5687207738607	0.716400146484375	0.71630859375	-6.4971923828125E-07	-4.65399438098757E-07	-1102489.5	4.57605019619223E-05
1	248	89.6694287736065	0.706329345703125	0.70623779296875	-6.573486328125E-07	-4.64244436670924E-07	-1074373.25	4.56946872873232E-05
1	249	89.7701367733522	0.696258544921875	0.696258544921875	-6.7779541015625E-07	-4.71920856170982E-07	-1027240	4.56274574389681E-05
1	250	89.8708447730979	0.686187744140625	0.686126708984375	-7.080078125E-07	-4.85783061776601E-07	-969094.8125	4.55576773674693E-05
1	251	89.9715527728437	0.676116943359375	0.67608642578125	-7.4188232421875E-07	-5.01576550959726E-07	-911312.1875	4.54846667707898E-05
1	252	90.0722607725894	0.666046142578125	0.665985107421875	-7.7239990234375E-07	-5.14406792717637E-07	-862228.4375	4.54084183729719E-05
1	253	90.1729687723351	0.655975341796875	0.655914306640625	-7.94372558593751E-07	-5.21040306011855E-07	-825701.1875	4.53295251645613E-05
1	254	90.2736767720809	0.645904541015625	0.645843505859375	-8.02001953125001E-07	-5.17967748692172E-07	-805289.25	4.52491403848398E-05
1	255	90.3743847718266	0.635833740234375	0.635772705078125	-7.94372558593751E-07	-5.05040361531428E-07	-800345.8125	4.51687556051183E-05
1	256	90.4750927715723	0.625762939453125	0.625732421875	-7.7484130859375E-07	-4.84843326375994E-07	-807562.0625	4.50897423434071E-05
1	257	90.5758007713181	0.615692138671875	0.615631103515625	-7.45849609375E-07	-4.59168205679816E-07	-825409.1875	4.50131665274967E-05
1	258	90.6765087710638	0.605621337890625	0.6055908203125	-7.1075439453125E-07	-4.30426325692679E-07	-852039.5625	4.49398212367669E-05
1	259	90.7772167708096	0.595550537109375	0.59552001953125	-6.73522949218749E-07	-4.01096400537426E-07	-884186.6875	4.4870117562823E-05
1	260	90.8779247705553	0.585479736328125	0.58544921875	-6.365966796875E-07	-3.72695012629265E-07	-919654.875	4.4804150093114E-05
1	261	90.978632770301	0.575408935546875	0.575408935546875	-6.01806640625E-07	-3.46284906527217E-07	-956135.9375	4.47417914983816E-05
1	262	91.0793407700468	0.565338134765625	0.56536865234375	-5.694580078125E-07	-3.21953706361455E-07	-992818.875	4.46828125859611E-05
1	263	91.1800487697925	0.555267333984375	0.555267333984375	-5.40771484374999E-07	-3.00272716913241E-07	-1026805.9375	4.46269077656325E-05
1	264	91.2807567695382	0.545196533203125	0.545196533203125	-5.145263671875E-07	-2.80517980399964E-07	-1059608.625	4.45737678091973E-05
1	265	91.381464769284	0.535125732421875	0.53509521484375	-4.90722656250001E-07	-2.62583341736899E-07	-1090422.875	4.45231526100542E-05
1	266	91.4821727690297	0.525054931640625	0.525054931640625	-4.6844482421875E-07	-2.45959256517381E-07	-1120846.875	4.44748511654325E-05
1	267	91.5828807687755	0.514984130859375	0.51495361328125	-4.4891357421875E-07	-2.31169664743902E-07	-1147110.875	4.44286597485188E-05
1	268	91.6835887685212	0.504913330078125	0.504913330078125	-4.3060302734375E-07	-2.17417209569248E-07	-1172572.625	4.43843746325001E-05
1	269	91.7842967682669	0.494842529296875	0.494781494140625	-4.13818359375E-07	-2.04749667886972E-07	-1195649	4.43418539362028E-05
1	270	91.8850047680127	0.484771728515625	0.48480224609375	-3.99169921875001E-07	-1.9351847413418E-07	-1214526	4.43009157606866E-05
1	271	91.9857127677584	0.474700927734375	0.474761962890625	-3.8604736328125E-07	-1.83280604915126E-07	-1229802.375	4.42613782070111E-05
1	272	92.0864207675041	0.464630126953125	0.46466064453125	-3.741455078125E-07	-1.7385067963005E-07	-1241925	4.42230993940029E-05
1	273	92.1871287672499	0.454559326171875	0.454559326171875	-3.631591796875E-07	-1.65077381097944E-07	-1251680.75	4.41859738202766E-05
1	274	92.2878367669956	0.444488525390625	0.444488525390625	-3.53088378906249E-07	-1.56943727347425E-07	-1258859.125	4.41499068983831E-05
1	275	92.3885447667413	0.434417724609375	0.4344482421875	-3.43017578125E-07	-1.49023378526181E-07	-1266548	4.41148549725767E-05
1	276	92.4892527664871	0.424346923828125	0.424346923828125	-3.338623046875E-07	-1.4167343920235E-07	-1271023.875	4.40807707491331E-05
1	277	92.5899607662328	0.414276123046875	0.41424560546875	-3.25927734375001E-07	-1.35014118995969E-07	-1270973.875	4.40475487266667E-05
1	278	92.6906687659786	0.404205322265625	0.40423583984375	-3.18298339843751E-07	-1.28667593912724E-07	-1269990.5	4.40151088696439E-05
1	279	92.7913767657243	0.394134521484375	0.394195556640625	-3.1158447265625E-07	-1.22825213111355E-07	-1265132.25	4.39833929704037E-05
1	280	92.89208476547	0.384063720703125	0.384063720703125	-3.0670166015625E-07	-1.17792978926445E-07	-1252238.875	4.39522591477726E-05
1	281	92.9927927652158	0.373992919921875	0.373992919921875	-3.01208496093749E-07	-1.12649850336766E-07	-1241641.375	4.39216455561109E-05
1	282	93.0935007649615	0.363922119140625	0.363922119140625	-2.96936035156251E-07	-1.08061591674868E-07	-1225591	4.3891526729567E-05
1	283	93.1942087647072	0.353851318359375	0.35382080078125	-2.9296875E-07	-1.03658429395637E-07	-1207708.375	4.38618226326071E-05
1	284	93.294916764453	0.343780517578125	0.34381103515625	-2.886962890625E-07	-9.92569653135433E-08	-1190909.125	4.383253690321E-05
1	285	93.3956247641987	0.333709716796875	0.333709716796875	-2.84729003906251E-07	-9.50168299596044E-08	-1172025.75	4.38036622654181E-05
1	286	93.4963327639445	0.323638916015625	0.32366943359375	-2.81982421875E-07	-9.12690865106924E-08	-1147835.5	4.37751259596553E-05
1	287	93.5970407636902	0.313568115234375	0.313629150390625	-2.79541015625E-07	-8.76722126008644E-08	-1121943.25	4.37468515883666E-05
1	288	93.6977487634359	0.303497314453125	0.303466796875	-2.789306640625E-07	-8.46461958303735E-08	-1087965	4.37187300121877E-05
1	289	93.7984567631817	0.293426513671875	0.29345703125	-2.7740478515625E-07	-8.14063838561196E-08	-1057865.75	4.36907139373943E-05
1	290	93.8991647629274	0.283355712890625	0.2833251953125	-2.7740478515625E-07	-7.8595761010547E-08	-1021342.125	4.36627778981347E-05
1	291	93.9998727626731	0.273284912109375	0.27325439453125	-2.76794433593749E-07	-7.56352918074299E-08	-987210.625	4.36348709627055E-05
1	292	94.1005807624189	0.263214111328125	0.26318359375	-2.7618408203125E-07	-7.26871149936414E-08	-952928.25	4.3607025872916E-05
1	293	94.2012887621646	0.253143310546875	0.25311279296875	-2.75573730468751E-07	-6.97512305691816E-08	-918494	4.35792426287662E-05
1	294	94.3019967619103	0.243072509765625	0.24310302734375	-2.7435302734375E-07	-6.66960531248151E-08	-886095.6875	4.35515539720654E-05
1	295	94.4027047616561	0.233001708984375	0.233001708984375	-2.74047851562501E-07	-6.38536121755351E-08	-850222.75	4.35239380749408E-05
1	296	94.5034127614018	0.222930908203125	0.222900390625	-2.73742675781249E-07	-6.10173458426289E-08	-814269.8125	4.34963549196254E-05
1	297	94.6041207611476	0.212860107421875	0.212890625	-2.7435302734375E-07	-5.84071884190962E-08	-775973.3125	4.34687572123948E-05
1	298	94.7048287608933	0.202789306640625	0.202850341796875	-2.74047851562501E-07	-5.55906964905262E-08	-740200.5	4.34411413152702E-05
1	299	94.805536760639	0.192718505859375	0.192779541015625	-2.7496337890625E-07	-5.30073158699906E-08	-701109.875	4.34134963143151E-05
1	300	94.9062447603848	0.182647705078125	0.18267822265625	-2.7435302734375E-07	-5.01183237133773E-08	-665850.9375	4.33858367614448E-05
1	301	95.0069527601305	0.172576904296875	0.172637939453125	-2.74658203125E-07	-4.7416424564517E-08	-628555.5625	4.33581917604897E-05
1	302	95.1076607598762	0.162506103515625	0.16253662109375	-2.75268554687499E-07	-4.47412205062392E-08	-590465.625	4.33304994658101E-05
1	303	95.208368759622	0.152435302734375	0.1524658203125	-2.7801513671875E-07	-4.23878070421324E-08	-548408.3125	4.33026398241054E-05
1	304	95.3090767593677	0.142364501953125	0.1424560546875	-2.82897949218749E-07	-4.03005238069909E-08	-503559.90625	4.3274398194626E-05
1	305	95.4097847591134	0.132293701171875	0.132354736328125	-2.90527343749999E-07	-3.84526686048048E-08	-455567.21875	4.32455235568341E-05
1	306	95.5104927588592	0.122222900390625	0.122283935546875	-3.0364990234375E-07	-3.71315032055008E-08	-402713.5625	4.32156048191246E-05
1	307	95.6112007586049	0.112152099609375	0.1121826171875	-3.24096679687499E-07	-3.63580134887798E-08	-346139.375	4.31839944212697E-05
1	308	95.7119087583507	0.102081298828125	0.10211181640625	-3.53088378906249E-07	-3.60544945010588E-08	-289196.1875	4.31498956459109E-05
1	309	95.8126167580964	0.092010498046875	0.092041015625	-3.948974609375E-07	-3.6346762044559E-08	-233075.734375	4.31122316513211E-05
1	310	95.9133247578421	0.081939697265625	0.08197021484375	-4.55627441406251E-07	-3.73478776793945E-08	-179906.234375	4.30694017268252E-05
1	311	96.0140327575879	0.071868896484375	0.0718994140625	-5.389404296875E-07	-3.87495013853822E-08	-133408.84375	4.30193213105667E-05
1	312	96.1147407573336	0.061798095703125	0.061859130859375	-6.500244140625E-07	-4.02099438190362E-08	-95164.3203125	4.29594547313172E-05
1	313	96.2154487570793	0.051727294921875	0.0517578125	-7.9315185546875E-07	-4.10518055105058E-08	-65255.8671875	4.28867824666668E-05
1	314	96.3161567568251	0.041656494140625	0.04173583984375	-9.674072265625E-07	-4.03755535671735E-08	-43141.953125	4.27981321990956E-05
1	315	96.4168647565708	0.031585693359375	0.031695556640625	-1.16851806640625E-06	-3.70368269386745E-08	-27124.576171875	4.26905789936427E-05
1	316	96.5175727563166	0.021514892578125	0.021600341796875	-1.3800048828125E-06	-2.980857516377E-08	-15652.3662109375	4.25622529292013E-05
1	317	96.6182807560623	0.011444091796875	0.01153564453125	-1.58355712890625E-06	-1.82673502990838E-08	-7284.64111328125	4.24130266765133E-05
1	318	96.718988755808	0.001373291015625	0.00144042968749999	-1.75933837890625E-06	-2.53420329165976E-09	-818.733764648438	4.22446973971091E-05
1	319	96.8196967555538	-0.008697509765625	-0.008587646484375	-1.8896484375E-06	1.62276325710309E-08	4544.57373046875	4.20609576394781E-05
1	320	96.9204047552995	-0.018768310546875	-0.0186370849609375	-1.96807861328125E-06	3.66792463069032E-08	9469.685546875	4.18667041230947E-05
1	321	97.0211127550452	-0.028839111328125	-0.0286895751953125	-1.99798583984375E-06	5.73213583265897E-08	14359.2490234375	4.16669972764794E-05
1	322	97.121820754791	-0.038909912109375	-0.03873291015625	-1.988525390625E-06	7.70213688383592E-08	19478.20703125	4.14662608818617E-05
1	323	97.2225287545367	-0.048980712890625	-0.048828125	-1.95404052734375E-06	9.54121333052171E-08	24988.287109375	4.12677363783587E-05
1	324	97.3232367542824	-0.059051513671875	-0.058929443359375	-1.9036865234375E-06	1.12183180078773E-07	30955.435546875	4.10734828619752E-05
1	325	97.4239447540282	-0.069122314453125	-0.06903076171875	-1.8475341796875E-06	1.27536694094488E-07	37363.7265625	4.08845953643322E-05
1	326	97.5246527537739	-0.079193115234375	-0.079193115234375	-1.790771484375E-06	1.41816769883008E-07	44222.90625	4.07013903895859E-05
1	327	97.6253607535197	-0.089263916015625	-0.089202880859375	-1.73675537109375E-06	1.54923569084531E-07	51361.80078125	4.05237660743296E-05
1	328	97.7260687532654	-0.099334716796875	-0.0992431640625	-1.68853759765625E-06	1.67575805676279E-07	58774.62890625	4.03512894990854E-05
1	329	97.8267767530111	-0.109405517578125	-0.109283447265625	-1.64581298828125E-06	1.79860109028596E-07	66400.890625	4.01833931391593E-05
1	330	97.9274847527569	-0.119476318359375	-0.119384765625	-1.6094970703125E-06	1.92149428812627E-07	74175.1953125	4.00194730900694E-05
1	331	98.0281927525026	-0.129547119140625	-0.129486083984375	-1.5802001953125E-06	2.04613940013587E-07	81942.8359375	3.98588599637151E-05
1	332	98.1289007522483	-0.139617919921875	-0.1395263671875	-1.556396484375E-06	2.17158344639756E-07	89647.0625	3.9700920751784E-05
1	333	98.2296087519941	-0.149688720703125	-0.149566650390625	-1.53839111328125E-06	2.30091998787429E-07	97222.7734375	3.95450842916034E-05
1	334	98.3303167517398	-0.159759521484375	-0.15960693359375	-1.52496337890625E-06	2.43394708832056E-07	104662.8046875	3.93908339901827E-05
1	335	98.4310247514856	-0.169830322265625	-0.169647216796875	-1.51580810546875E-06	2.57152635185776E-07	111918.6640625	3.92377187381499E-05
1	336	98.5317327512313	-0.179901123046875	-0.1798095703125	-1.5118408203125E-06	2.71843447308129E-07	118934.1953125	3.90852619602811E-05
1	337	98.632440750977	-0.189971923828125	-0.1898193359375	-1.512451171875E-06	2.87092461803695E-07	125504.4375	3.8932979805395E-05
1	338	98.7331487507228	-0.200042724609375	-0.19989013671875	-1.5185546875E-06	3.0354408409039E-07	131631.828125	3.87803556805011E-05
1	339	98.8338567504685	-0.189971923828125	-0.189849853515625	-1.318359375E-06	2.50290327130642E-07	144004.640625	3.8637503166683E-05
2	340	98.9345647502142	-0.179901123046875	-0.1798095703125	-1.17767333984375E-06	2.117569266602E-07	152682.046875	3.85118182748556E-05
2	341	99.03527274996	-0.169830322265625	-0.169677734375	-1.065673828125E-06	1.80821118078711E-07	159221.078125	3.83988590328954E-05
2	342	99.1359807497057	-0.159759521484375	-0.159637451171875	-9.716796875E-07	1.55116467226435E-07	164290.203125	3.82962680305354E-05
2	343	99.2366887494514	-0.149688720703125	-0.149566650390625	-8.9080810546875E-07	1.33235189991865E-07	167899.96875	3.82024845748674E-05
2	344	99.3373967491972	-0.139617919921875	-0.1395263671875	-8.18481445312499E-07	1.14199735889997E-07	170469.8125	3.81164172722492E-05
2	345	99.4381047489429	-0.129547119140625	-0.129425048828125	-7.52868652343749E-07	9.74400578002133E-08	171909.203125	3.8037291233195E-05
2	346	99.5388127486887	-0.119476318359375	-0.11932373046875	-6.927490234375E-07	8.26613941740106E-08	172246.703125	3.79644989152439E-05
2	347	99.6395207484344	-0.109405517578125	-0.1092529296875	-6.35681152343751E-07	6.94500243980656E-08	171867.5	3.78976073989179E-05
2	348	99.7402287481801	-0.099334716796875	-0.099273681640625	-5.810546875E-07	5.76834366938783E-08	170850.84375	3.78363401978277E-05
2	349	99.8409367479259	-0.089263916015625	-0.089202880859375	-5.25817871093751E-07	4.69044714179745E-08	169645.96875	3.7780606362503E-05
2	350	99.9416447476716	-0.079193115234375	-0.079132080078125	-4.656982421875E-07	3.68516701598764E-08	169921.359375	3.77306787413545E-05
2	351	100.042352747417	-0.069122314453125	-0.069061279296875	-3.985595703125E-07	2.75250329195842E-08	173277.1875	3.76871576008853E-05
2	352	100.143060747163	-0.059051513671875	-0.05902099609375	-3.192138671875E-07	1.88403195267028E-08	184894.84375	3.76510179194156E-05
2	353	100.243768746909	-0.048980712890625	-0.0488494873046875	-2.2308349609375E-07	1.08975140022949E-08	218974.015625	3.76237112504896E-05
2	354	100.344476746655	-0.038909912109375	-0.0387664794921875	-1.04675292968751E-07	4.05789268853596E-09	370349.875	3.76072057406418E-05
2	355	100.4451847464	-0.028839111328125	-0.028692626953125	4.08935546875003E-08	-1.17334353344489E-09	-701641.8125	3.76039934053551E-05
2	356	100.545892746146	-0.018768310546875	-0.0186492919921875	2.1484375E-07	-4.00668387356973E-09	-86803.9765625	3.76168718503322E-05
2	357	100.646600745892	-0.008697509765625	-0.00858154296874999	4.168701171875E-07	-3.577388829612E-09	-20585.65234375	3.76486823370215E-05
2	358	100.747308745637	0.001373291015625	0.00146484375	6.38427734375E-07	9.3519680888221E-10	2294.455078125	3.77018186554778E-05
2	359	100.848016745383	0.011444091796875	0.011517333984375	8.63037109375001E-07	9.93988624742315E-09	13345.1201171875	3.77774231310468E-05
2	360	100.948724745129	0.021514892578125	0.02159423828125	1.072998046875E-06	2.31705730158183E-08	20125.142578125	3.78749100491405E-05
2	361	101.049432744875	0.031585693359375	0.031658935546875	1.24786376953125E-06	3.95060411051418E-08	25370.505859375	3.79917764803395E-05
2	362	101.15014074462	0.041656494140625	0.0417572021484375	1.37420654296875E-06	5.7383019225199E-08	30386.412109375	3.81238060072064E-05
2	363	101.250848744366	0.051727294921875	0.0517578125	1.44683837890625E-06	7.488519315757E-08	35773.04296875	3.8265858165687E-05
2	364	101.351556744112	0.061798095703125	0.06182861328125	1.47064208984375E-06	9.0927755991288E-08	42041.91796875	3.84127633878961E-05
2	365	101.452264743858	0.071868896484375	0.0718994140625	1.456298828125E-06	1.04707034154217E-07	49371.33203125	3.85601488233078E-05
2	366	101.552972743603	0.081939697265625	0.082000732421875	1.4178466796875E-06	1.16264466498706E-07	57834.69921875	3.87048712582327E-05
2	367	101.653680743349	0.092010498046875	0.092071533203125	1.3653564453125E-06	1.25710457155037E-07	67434.0625	3.88450171158183E-05
2	368	101.754388743095	0.102081298828125	0.102081298828125	1.3092041015625E-06	1.33645258415527E-07	77972.03125	3.89796914532781E-05
2	369	101.855096742841	0.112152099609375	0.1121826171875	1.25396728515625E-06	1.40673336090913E-07	89462.15625	3.91087596653961E-05
2	370	101.955804742586	0.122222900390625	0.122222900390625	1.2030029296875E-06	1.47034498354515E-07	101598.1796875	3.92324764106888E-05
2	371	102.056512742332	0.132293701171875	0.13232421875	1.15631103515625E-06	1.53007945868922E-07	114436.53125	3.93512782466132E-05
2	372	102.157220742078	0.142364501953125	0.14239501953125	1.11419677734375E-06	1.58656064286333E-07	127800.609375	3.94656090065837E-05
2	373	102.257928741824	0.152435302734375	0.15240478515625	1.07696533203125E-06	1.64134661417847E-07	141513.1875	3.95759416278452E-05
2	374	102.358636741569	0.162506103515625	0.16253662109375	1.0443115234375E-06	1.69738854083334E-07	155639.984375	3.96827563236002E-05
2	375	102.459344741315	0.172576904296875	0.17254638671875	1.0150146484375E-06	1.75137103042289E-07	169993.984375	3.97864496335387E-05
2	376	102.560052741061	0.182647705078125	0.182647705078125	9.9029541015625E-07	1.80875176170048E-07	184437.609375	3.98874253733084E-05
2	377	102.660760740806	0.192718505859375	0.19281005859375	9.686279296875E-07	1.86761198506247E-07	199054.828125	3.99860655306838E-05
2	378	102.761468740552	0.202789306640625	0.202850341796875	9.5062255859375E-07	1.92834093581951E-07	213386.84375	4.00827084376942E-05
2	379	102.862176740298	0.212860107421875	0.212890625	9.3505859375E-07	1.99065198103199E-07	227676.25	4.01776596845593E-05
2	380	102.962884740044	0.222930908203125	0.222991943359375	9.21020507812501E-07	2.05380146667267E-07	242113.984375	4.02711193601135E-05
2	381	103.063592739789	0.233001708984375	0.2330322265625	9.08203125E-07	2.11640596603502E-07	256586.03125	4.03632293455303E-05
2	382	103.164300739535	0.243072509765625	0.2430419921875	8.9752197265625E-07	2.18135525642538E-07	270792.25	4.04541533498559E-05
2	383	103.265008739281	0.253143310546875	0.253143310546875	8.868408203125E-07	2.24497810563662E-07	285443.9375	4.05440041504335E-05
2	384	103.365716739027	0.263214111328125	0.26324462890625	8.77685546875E-07	2.3104600188617E-07	299930.46875	4.06328545068391E-05
2	385	103.466424738772	0.273284912109375	0.27325439453125	8.6944580078125E-07	2.37579882877981E-07	314285.71875	4.0720831748331E-05
2	386	103.567132738518	0.283355712890625	0.2833251953125	8.63037109375001E-07	2.44520151682082E-07	328288.5625	4.08080668421462E-05
2	387	103.667840738264	0.293426513671875	0.293426513671875	8.5662841796875E-07	2.51357477054626E-07	342536.53125	4.08946616516914E-05
2	388	103.76854873801	0.303497314453125	0.303436279296875	8.5174560546875E-07	2.58450512546915E-07	356252.25	4.09806852985639E-05
2	389	103.869256737755	0.313568115234375	0.3135986328125	8.465576171875E-07	2.65479314975892E-07	370439.8125	4.10661996284034E-05
2	390	103.969964737501	0.323638916015625	0.32366943359375	8.4197998046875E-07	2.72523180910866E-07	384414.65625	4.11512264690828E-05
2	391	104.070672737247	0.333709716796875	0.333740234375	8.3740234375E-07	2.79474846820449E-07	398542.28125	4.12357876484748E-05
2	392	104.171380736993	0.343780517578125	0.343780517578125	8.331298828125E-07	2.86413836647625E-07	412637.375	4.13199049944524E-05
2	393	104.272088736738	0.353851318359375	0.353851318359375	8.2977294921875E-07	2.93616238877803E-07	426443.5625	4.14036403526552E-05
2	394	104.372796736484	0.363922119140625	0.363922119140625	8.270263671875E-07	3.00973169942154E-07	440036.9375	4.14870664826594E-05
2	395	104.47350473623	0.373992919921875	0.373992919921875	8.2550048828125E-07	3.08731330278533E-07	453049.90625	4.1570277971914E-05
2	396	104.574212735975	0.384063720703125	0.384124755859375	8.24890136718751E-07	3.16860706561783E-07	465667.8125	4.16533803218044E-05
2	397	104.674920735721	0.394134521484375	0.3941650390625	8.24584960937499E-07	3.25022568858913E-07	478016.28125	4.17364390159491E-05
2	398	104.775628735467	0.404205322265625	0.40423583984375	8.24584960937499E-07	3.33326795498579E-07	490229.46875	4.18194831581786E-05
2	399	104.876336735213	0.414276123046875	0.414306640625	8.24890136718751E-07	3.41757441901791E-07	502256.78125	4.19025382143445E-05
2	400	104.977044734958	0.424346923828125	0.42431640625	8.24584960937499E-07	3.49884913930509E-07	514581.78125	4.19855969084892E-05
2	401	105.077752734704	0.434417724609375	0.434417724609375	8.2550048828125E-07	3.5861202718479E-07	526247.6875	4.20686847064644E-05
2	402	105.17846073445	0.444488525390625	0.444488525390625	8.26416015625001E-07	3.67332432915646E-07	537850.8125	4.21518670918886E-05
2	403	105.279168734196	0.454559326171875	0.45458984375	8.282470703125E-07	3.76512701905085E-07	548857.8125	4.22351840825286E-05
2	404	105.379876733941	0.464630126953125	0.464630126953125	8.30993652343751E-07	3.86104687777333E-07	559125.9375	4.23187339038122E-05
2	405	105.480584733687	0.474700927734375	0.47467041015625	8.33740234374999E-07	3.95751811765876E-07	569326.5	4.24025602114853E-05
2	406	105.581292733433	0.484771728515625	0.4847412109375	8.36791992187499E-07	4.05627559985078E-07	579285.1875	4.24866775574628E-05
2	407	105.682000733179	0.494842529296875	0.49481201171875	8.39843749999999E-07	4.15564755940068E-07	589171.5625	4.2571104131639E-05
2	408	105.782708732924	0.504913330078125	0.5048828125	8.43505859375E-07	4.25871604647909E-07	598552.8125	4.26558653998654E-05
2	409	105.88341673267	0.514984130859375	0.515045166015625	8.4716796875E-07	4.36329742115049E-07	607961.125	4.27409977419302E-05
2	410	105.984124732416	0.525054931640625	0.52508544921875	8.514404296875E-07	4.47078974730175E-07	616702.5	4.28265302616637E-05
2	411	106.084832732162	0.535125732421875	0.53509521484375	8.5723876953125E-07	4.58704363381912E-07	624207.875	4.29125684604514E-05
2	412	106.185540731907	0.545196533203125	0.54522705078125	8.6334228515625E-07	4.70717566258827E-07	631530.5625	4.29992069257423E-05
2	413	106.286248731653	0.555267333984375	0.55517578125	8.7158203125E-07	4.83881251511775E-07	636974.8125	4.30865693488158E-05
2	414	106.386956731399	0.565338134765625	0.565338134765625	8.81042480468749E-07	4.98086933475861E-07	641669.5625	4.31748194387183E-05
2	415	106.487664731144	0.575408935546875	0.575408935546875	8.93249511718749E-07	5.13983707151056E-07	644174.9375	4.32641609222628E-05
2	416	106.58837273089	0.585479736328125	0.585418701171875	9.075927734375E-07	5.31321802554885E-07	645023.5625	4.33548411820084E-05
2	417	106.689080730636	0.595550537109375	0.595458984375	9.2681884765625E-07	5.51882578747609E-07	642476.125	4.34472131018993E-05
2	418	106.789788730382	0.605621337890625	0.605621337890625	9.5184326171875E-07	5.76456557155325E-07	636261.625	4.35418114648201E-05
2	419	106.890496730127	0.615692138671875	0.61566162109375	9.8541259765625E-07	6.06680714554386E-07	624775.4375	4.36393602285534E-05
2	420	106.991204729873	0.625762939453125	0.625762939453125	1.0302734375E-06	6.44706915409188E-07	607375.5625	4.37408561992925E-05
2	421	107.091912729619	0.635833740234375	0.635772705078125	1.08795166015625E-06	6.91689990617306E-07	584375.875	4.38475180999376E-05
2	422	107.192620729365	0.645904541015625	0.645843505859375	1.15753173828125E-06	7.47584351756814E-07	557948.875	4.3960586481262E-05
2	423	107.29332872911	0.655975341796875	0.6558837890625	1.23748779296875E-06	8.11648135368159E-07	530012.375	4.40811854787171E-05
2	424	107.394036728856	0.666046142578125	0.665985107421875	1.32171630859375E-06	8.80243305800832E-07	503879.03125	4.42100536020007E-05
2	425	107.494744728602	0.676116943359375	0.676116943359375	1.4019775390625E-06	9.47900787195977E-07	482259.46875	4.43472017650492E-05
2	426	107.595452728348	0.686187744140625	0.686187744140625	1.4739990234375E-06	1.01144007658149E-06	465527.96875	4.44920187874231E-05
2	427	107.696160728093	0.696258544921875	0.696197509765625	1.53167724609375E-06	1.06634979601949E-06	454532.78125	4.46433659817558E-05
2	428	107.796868727839	0.706329345703125	0.706298828125	1.57562255859375E-06	1.11286033188662E-06	448266.53125	4.479983181227E-05
2	429	107.897576727585	0.716400146484375	0.71630859375	1.6058349609375E-06	1.15027330593875E-06	446066.15625	4.49600302090403E-05
2	430	107.998284727331	0.726470947265625	0.72637939453125	1.62872314453125E-06	1.1830709354399E-06	445980.90625	4.51229025202338E-05
2	431	108.098992727076	0.736541748046875	0.736480712890625	1.64794921875E-06	1.21368270811217E-06	446907.4375	4.52878957730718E-05
2	432	108.199700726822	0.746612548828125	0.74658203125	1.66900634765625E-06	1.24605014661938E-06	447321.28125	4.54549190180842E-05
2	433	108.300408726568	0.756683349609375	0.7568359375	1.6949462890625E-06	1.28279623368144E-06	446525.03125	4.56243069493212E-05
2	434	108.401116726313	0.766754150390625	0.7672119140625	1.7315673828125E-06	1.32847901568311E-06	443073.6875	4.57968453702051E-05
2	435	108.501824726059	0.776824951171875	0.77667236328125	1.78314208984375E-06	1.38491714096745E-06	435563.9375	4.59738257632125E-05
2	436	108.602532725805	0.786895751953125	0.78704833984375	1.8560791015625E-06	1.46082390983793E-06	424038.15625	4.61570743937045E-05
2	437	108.703240725551	0.796966552734375	0.79742431640625	1.95404052734375E-06	1.5581994148306E-06	408089.96875	4.63489304820541E-05
2	438	108.803948725296	0.807037353515625	0.806884765625	2.080078125E-06	1.67838334164117E-06	387910.8125	4.65520643047057E-05
2	439	108.904656725042	0.817108154296875	0.81695556640625	2.23175048828125E-06	1.82324095021613E-06	366060.46875	4.67691825178917E-05
2	440	109.005364724788	0.827178955078125	0.8270263671875	2.40325927734375E-06	1.98755878955126E-06	344127	4.70025734102819E-05
2	441	109.106072724534	0.837249755859375	0.83770751953125	2.578125E-06	2.15971454053943E-06	324929	4.72534047730733E-05
2	442	109.206780724279	0.847320556640625	0.8477783203125	2.74261474609375E-06	2.32512934417173E-06	309113.15625	4.75213237223215E-05
2	443	109.307488724025	0.857391357421875	0.8575439453125	2.87872314453125E-06	2.46863146458054E-06	297890.40625	4.78043803013861E-05
2	444	109.408196723771	0.867462158203125	0.86700439453125	2.97760009765625E-06	2.58159229815647E-06	291175.59375	4.80992712255102E-05
2	445	109.508904723517	0.877532958984375	0.877685546875	3.0352783203125E-06	2.66401980297815E-06	289161.46875	4.84020420117304E-05
2	446	109.609612723262	0.887603759765625	0.887451171875	3.056640625E-06	2.71261910711473E-06	290335.46875	4.87087963847443E-05
2	447	109.710320723008	0.897674560546875	0.89752197265625	3.05328369140625E-06	2.74038916359132E-06	293953.03125	4.90164566144813E-05
2	448	109.811028722754	0.907745361328125	0.908203125	3.03863525390625E-06	2.75969796348363E-06	298885.21875	4.93232073495165E-05
2	449	109.9117367225	0.917816162109375	0.91796875	3.02337646484375E-06	2.77536514659005E-06	303623.71875	4.96284555993043E-05
2	450	110.012444722245	0.927886962890625	0.92803955078125	3.01971435546875E-06	2.8024142011418E-06	307326.9375	4.99327470606659E-05
2	451	110.113152721991	0.937957763671875	0.93841552734375	3.03741455078125E-06	2.85035685010371E-06	308952.09375	5.02377479278948E-05
2	452	110.213860721737	0.948028564453125	0.94818115234375	3.08441162109375E-06	2.9245807127154E-06	307410.71875	5.05460084241349E-05
2	453	110.314568721482	0.958099365234375	0.95855712890625	3.1683349609375E-06	3.03702995552158E-06	302542.875	5.08608572999947E-05
2	454	110.415276721228	0.968170166015625	0.968017578125	3.29254150390625E-06	3.18723800774023E-06	294003.15625	5.11861871927977E-05
2	455	110.515984720974	0.978240966796875	0.9783935546875	3.45733642578125E-06	3.38263566845853E-06	282990.5625	5.15260726388078E-05
2	456	110.61669272072	0.988311767578125	0.98846435546875	3.6529541015625E-06	3.61081492883386E-06	270593.15625	5.18841043231077E-05
2	457	110.717400720465	0.998382568359375	0.99822998046875	3.863525390625E-06	3.85668681701645E-06	258372.828125	5.22625887242611E-05
2	458	110.818108720211	1.00845336914063	1.0089111328125	4.06890869140625E-06	4.10516713600373E-06	247956.1875	5.2662016969407E-05
2	459	110.918816719957	1.01852416992188	1.01806640625	4.246826171875E-06	4.32355091106729E-06	239724.078125	5.30807483301032E-05
2	460	111.019524719703	1.02859497070313	1.0284423828125	4.37713623046875E-06	4.50163224741118E-06	234957.828125	5.35149993083905E-05
2	461	111.120232719448	1.03866577148438	1.03851318359375	4.45068359375E-06	4.62209345641895E-06	233337.921875	5.39595166628715E-05
2	462	111.220940719194	1.04873657226563	1.04888916015625	4.4677734375E-06	4.68619873572607E-06	234767.78125	5.44085960427765E-05
2	463	111.32164871894	1.05880737304688	1.05865478515625	4.437255859375E-06	4.69752239951049E-06	238583.21875	5.48569987586234E-05
2	464	111.422356718686	1.06887817382813	1.06903076171875	4.37408447265625E-06	4.67603058496024E-06	244401.046875	5.53006866539363E-05
2	465	111.523064718431	1.07894897460938	1.07879638671875	4.2913818359375E-06	4.62952721136389E-06	251386.734375	5.57370258320589E-05
2	466	111.623772718177	1.08901977539063	1.08917236328125	4.19921875E-06	4.57367286799126E-06	259375.015625	5.61645611014683E-05
2	467	111.724480717923	1.09909057617188	1.0986328125	4.10675048828125E-06	4.51181085736607E-06	267518.75	5.65828013350256E-05
2	468	111.825188717669	1.10916137695313	1.10931396484375	4.01641845703125E-06	4.45546857008594E-06	276194.84375	5.69918338442221E-05
2	469	111.925896717414	1.11923217773438	1.119384765625	3.931884765625E-06	4.40129178969073E-06	284694.1875	5.73920624447055E-05
2	470	112.02660471716	1.12930297851563	1.12945556640625	3.85467529296875E-06	4.35368428952643E-06	293009.28125	5.77841492486186E-05
2	471	112.127312716906	1.13937377929688	1.13922119140625	3.785400390625E-06	4.31240823672852E-06	300951.3125	5.8168858231511E-05
2	472	112.228020716651	1.14944458007813	1.14959716796875	3.72314453125E-06	4.28011617259472E-06	308770.5	5.85469424549956E-05
2	473	112.328728716397	1.15951538085938	1.15997314453125	3.66790771484375E-06	4.25467442255467E-06	316249.28125	5.89191113249399E-05
2	474	112.429436716143	1.16958618164063	1.1700439453125	3.6187744140625E-06	4.23412484451546E-06	323326.03125	5.92860233155079E-05
2	475	112.530144715889	1.17965698242188	1.1798095703125	3.575439453125E-06	4.21833783548209E-06	329976.09375	5.96482823311817E-05
2	476	112.630852715634	1.18972778320313	1.190185546875	3.53607177734375E-06	4.20858168581617E-06	336584.09375	6.00063758611213E-05
2	477	112.73156071538	1.19979858398438	1.19964599609375	3.499755859375E-06	4.19846810473246E-06	342779.90625	6.03606567892712E-05
2	478	112.832268715126	1.20986938476563	1.21002197265625	3.46771240234375E-06	4.19600792156416E-06	348939.5625	6.07114961894695E-05
2	479	112.932976714872	1.21994018554688	1.22039794921875	3.43963623046875E-06	4.19772504756111E-06	354804.375	6.10593124292791E-05
2	480	113.033684714617	1.23001098632813	1.2298583984375	3.414306640625E-06	4.19911339122336E-06	360207.375	6.14044329267927E-05
2	481	113.134392714363	1.24008178710938	1.240234375	3.3929443359375E-06	4.20804599343683E-06	365533.375	6.17472032899968E-05
2	482	113.235100714109	1.25015258789063	1.25030517578125	3.37432861328125E-06	4.21894037572201E-06	370534.5	6.20879654888995E-05
2	483	113.335808713855	1.26022338867188	1.26007080078125	3.3575439453125E-06	4.23074288846692E-06	375295.40625	6.24269450781867E-05
2	484	113.4365167136	1.27029418945313	1.2701416015625	3.34320068359375E-06	4.24633844886557E-06	379917.84375	6.27643530606292E-05
2	485	113.537224713346	1.28036499023438	1.28021240234375	3.3294677734375E-06	4.26242604589788E-06	384509.625	6.31003495072946E-05
2	486	113.637932713092	1.29043579101563	1.29058837890625	3.31756591796875E-06	4.28161183663178E-06	389016.65625	6.34350508335046E-05
2	487	113.738640712838	1.30050659179688	1.30035400390625	3.30780029296875E-06	4.30131103712483E-06	393117.46875	6.37686680420302E-05
2	488	113.839348712583	1.31057739257813	1.31072998046875	3.29925537109375E-06	4.32443266618066E-06	397280.5625	6.41013539279811E-05
2	489	113.940056712329	1.32064819335938	1.32080078125	3.2928466796875E-06	4.34919411418377E-06	401112.15625	6.44332976662554E-05
2	490	114.040764712075	1.33071899414063	1.33026123046875	3.28826904296875E-06	4.37425660493318E-06	404547.5625	6.47646811557934E-05
2	491	114.14147271182	1.34078979492188	1.3409423828125	3.2861328125E-06	4.40651456301566E-06	408060.90625	6.50957299512811E-05
2	492	114.242180711566	1.35086059570313	1.3507080078125	3.284912109375E-06	4.43695716967341E-06	411185.4375	6.54266041237861E-05
2	493	114.342888711312	1.36093139648438	1.36077880859375	3.28521728515625E-06	4.4704538595397E-06	414212.75	6.5757441916503E-05
2	494	114.443596711058	1.37100219726563	1.37115478515625	3.2861328125E-06	4.5057968236506E-06	417254.8125	6.60883306409232E-05
2	495	114.544304710803	1.38107299804688	1.3818359375	3.28765869140625E-06	4.54300470664748E-06	420310.0625	6.64193503325805E-05
2	496	114.645012710549	1.39114379882813	1.3916015625	3.291015625E-06	4.57978239865042E-06	422848.6875	6.6750610130839E-05
2	497	114.745720710295	1.40121459960938	1.4013671875	3.29498291015625E-06	4.61748095403891E-06	425303.3125	6.70822410029359E-05
2	498	114.846428710041	1.41128540039063	1.4111328125	3.3001708984375E-06	4.65697939944221E-06	427593.875	6.74143375363201E-05
2	499	114.947136709786	1.42135620117188	1.4215087890625	3.3062744140625E-06	4.69989799967152E-06	429942.78125	6.77469943184406E-05
2	500	115.047844709532	1.43142700195313	1.43035888671875	3.3135986328125E-06	4.73963518743403E-06	431663.28125	6.80803350405768E-05
2	501	115.148552709278	1.44149780273438	1.44134521484375	3.3203125E-06	4.78571610074141E-06	434099.28125	6.84143742546439E-05
2	502	115.249260709024	1.45156860351563	1.45050048828125	3.32611083984375E-06	4.82452514916076E-06	436095.0625	6.87490537529811E-05
2	503	115.349968708769	1.46163940429688	1.4617919921875	3.3319091796875E-06	4.87055785924895E-06	438725.0625	6.90843080519699E-05
2	504	115.450676708515	1.47171020507813	1.4715576171875	3.33831787109375E-06	4.91252694700961E-06	440808.125	6.94201808073558E-05
2	505	115.551384708261	1.48178100585938	1.48162841796875	3.34503173828125E-06	4.95609401696129E-06	442934.03125	6.97567156748846E-05
2	506	115.652092708007	1.49185180664063	1.49169921875	3.35418701171875E-06	5.00343776366208E-06	444727.53125	7.0094050897751E-05
2	507	115.752800707752	1.50192260742188	1.50177001953125	3.365478515625E-06	5.05417483509518E-06	446227.78125	7.0432412030641E-05
2	508	115.853508707498	1.49185180664063	1.49169921875	3.2415771484375E-06	4.83545818497078E-06	460177	7.07651051925495E-05
2	509	115.954216707244	1.48178100585938	1.48162841796875	3.1524658203125E-06	4.67078280053101E-06	469990.34375	7.10870663169771E-05
2	510	116.054924706989	1.47171020507813	1.47125244140625	3.0810546875E-06	4.53300890512764E-06	477515.875	7.1400951128453E-05
2	511	116.155632706735	1.46163940429688	1.46148681640625	3.01971435546875E-06	4.41327256339719E-06	483981.8125	7.17081493348815E-05
2	512	116.256340706481	1.45156860351563	1.451416015625	2.9669189453125E-06	4.30623367719818E-06	489199.78125	7.20095995347947E-05
2	513	116.357048706227	1.44149780273438	1.4410400390625	2.91900634765625E-06	4.20640481024748E-06	493674.875	7.23059783922508E-05
2	514	116.457756705972	1.43142700195313	1.43157958984375	2.8759765625E-06	4.11718929171911E-06	497771.6875	7.25977806723677E-05
2	515	116.558464705718	1.42135620117188	1.4215087890625	2.8363037109375E-06	4.03183048547362E-06	501183.59375	7.28854138287716E-05
2	516	116.659172705464	1.41128540039063	1.4111328125	2.801513671875E-06	3.953307896154E-06	503703.71875	7.31692998670042E-05
2	517	116.75988070521	1.40121459960938	1.4007568359375	2.7679443359375E-06	3.87721684091957E-06	506063.9375	7.34497443772852E-05
2	518	116.860588704955	1.39114379882813	1.39129638671875	2.73712158203125E-06	3.80814731215651E-06	508306.375	7.3726951086428E-05
2	519	116.961296704701	1.38107299804688	1.38153076171875	2.70751953125E-06	3.74052160623251E-06	510256.96875	7.40011091693304E-05
2	520	117.062004704447	1.37100219726563	1.370849609375	2.67852783203125E-06	3.67185884897481E-06	511792.1875	7.42723204893991E-05
2	521	117.162712704193	1.36093139648438	1.361083984375	2.6507568359375E-06	3.60790272679878E-06	513469.9375	7.45406650821678E-05
2	522	117.263420703938	1.35086059570313	1.3507080078125	2.62420654296875E-06	3.54453663931054E-06	514711.03125	7.48062811908312E-05
2	523	117.364128703684	1.34078979492188	1.34124755859375	2.5994873046875E-06	3.48655589732516E-06	515966.1875	7.50693143345416E-05
2	524	117.46483670343	1.33071899414063	1.3299560546875	2.57568359375E-06	3.42554585586186E-06	516350.71875	7.53299100324512E-05
2	525	117.565544703176	1.32064819335938	1.32049560546875	2.5537109375E-06	3.372163973836E-06	517088.9375	7.55881919758394E-05
2	526	117.666252702921	1.31057739257813	1.31072998046875	2.532958984375E-06	3.32002514369378E-06	517469.90625	7.58443275117315E-05
2	527	117.766960702667	1.30050659179688	1.30035400390625	2.51312255859375E-06	3.26794906868599E-06	517425.625	7.6098418503534E-05
2	528	117.867668702413	1.29043579101563	1.290283203125	2.49420166015625E-06	3.21822653859272E-06	517313.09375	7.6350559538696E-05
2	529	117.968376702158	1.28036499023438	1.280517578125	2.4749755859375E-06	3.16924956678122E-06	517385.96875	7.66007724450901E-05
2	530	118.069084701904	1.27029418945313	1.2701416015625	2.45758056640625E-06	3.12147517433914E-06	516826.0625	7.68491518101655E-05
2	531	118.16979270165	1.26022338867188	1.26007080078125	2.44110107421875E-06	3.07596019410994E-06	516189.53125	7.70958140492439E-05
2	532	118.270500701396	1.25015258789063	1.25	2.42523193359375E-06	3.031540018128E-06	515414.625	7.73408537497744E-05
2	533	118.371208701141	1.24008178710938	1.24053955078125	2.41058349609375E-06	2.9904240363976E-06	514622.125	7.75843582232483E-05
2	534	118.471916700887	1.23001098632813	1.2298583984375	2.3974609375E-06	2.94853725790745E-06	512983.75	7.78264657128602E-05
2	535	118.572624700633	1.21994018554688	1.219482421875	2.3846435546875E-06	2.90803086500091E-06	511389.8125	7.80672635301016E-05
2	536	118.673332700379	1.20986938476563	1.21002197265625	2.37152099609375E-06	2.86959243567253E-06	510230.375	7.83067516749725E-05
2	537	118.774040700124	1.19979858398438	1.19903564453125	2.35870361328125E-06	2.82816972685396E-06	508345.1875	7.85449374234304E-05
2	538	118.87474869987	1.18972778320313	1.18988037109375	2.34527587890625E-06	2.79059759122902E-06	507352	7.87818062235601E-05
2	539	118.975456699616	1.17965698242188	1.17950439453125	2.33154296875E-06	2.7500650503498E-06	505890.0625	7.90172998677008E-05
2	540	119.076164699362	1.16958618164063	1.16943359375	2.31719970703125E-06	2.70981126959668E-06	504675.375	7.92513819760643E-05
2	541	119.176872699107	1.15951538085938	1.15966796875	2.30194091796875E-06	2.66948700300418E-06	503778.34375	7.94839725131169E-05
2	542	119.277580698853	1.14944458007813	1.14959716796875	2.28607177734375E-06	2.6280615657015E-06	502870.125	7.97149987192824E-05
2	543	119.378288698599	1.13937377929688	1.13922119140625	2.26776123046875E-06	2.58348154602572E-06	502355.03125	7.99443005234934E-05
2	544	119.478996698345	1.12930297851563	1.12945556640625	2.24609375E-06	2.5368631213496E-06	502853.25	8.01715941634029E-05
2	545	119.57970469809	1.11923217773438	1.11907958984375	2.2198486328125E-06	2.48418723458599E-06	504124.3125	8.03964721853845E-05
2	546	119.680412697836	1.10916137695313	1.1090087890625	2.18597412109375E-06	2.42426449403865E-06	507329.3125	8.06183234089985E-05
2	547	119.781120697582	1.09909057617188	1.09893798828125	2.1417236328125E-06	2.35362131206784E-06	513109.15625	8.08362383395433E-05
2	548	119.881828697327	1.08901977539063	1.08917236328125	2.08526611328125E-06	2.27121404350328E-06	522318.1875	8.10490819276311E-05
2	549	119.982536697073	1.07894897460938	1.07879638671875	2.01080322265625E-06	2.16924718188238E-06	536500.25	8.12553407740779E-05
2	550	120.083244696819	1.06887817382813	1.06903076171875	1.9122314453125E-06	2.04423417926591E-06	559048.8125	8.14528757473454E-05
2	551	120.183952696565	1.05880737304688	1.0589599609375	1.78466796875E-06	1.88989190519351E-06	593365.25	8.16390311229043E-05
2	552	120.28466069631	1.04873657226563	1.0491943359375	1.62261962890625E-06	1.70244334185554E-06	646605.25	8.18106054794043E-05
2	553	120.385368696056	1.03866577148438	1.03912353515625	1.42486572265625E-06	1.48061144500389E-06	729278.25	8.19640554254875E-05
2	554	120.486076695802	1.02859497070313	1.029052734375	1.195068359375E-06	1.22978826766484E-06	861082.75	8.20959830889478E-05
2	555	120.586784695548	1.01852416992188	1.01837158203125	9.42382812500001E-07	9.59695853453013E-07	1080634.75	8.22036090539768E-05
2	556	120.687492695293	1.00845336914063	1.00830078125	6.86035156250001E-07	6.91729781010508E-07	1469750.875	8.22856090962887E-05
2	557	120.788200695039	0.998382568359375	0.9979248046875	4.498291015625E-07	4.48895605131838E-07	2218453.25	8.23428053990938E-05
2	558	120.888908694785	0.988311767578125	0.9881591796875	2.5177001953125E-07	2.48788865064853E-07	3924848.5	8.23781301733106E-05
2	559	120.989616694531	0.978240966796875	0.97808837890625	1.07727050781251E-07	1.05366574132404E-07	9079320	8.23962327558547E-05
2	560	121.090324694276	0.968170166015625	0.968017578125	2.19726562499994E-08	2.1269915606581E-08	44055560	8.24027665657923E-05
2	561	121.191032694022	0.958099365234375	0.958251953125	-1.03759765625003E-08	-9.94279947263976E-09	-92352944	8.24033486424014E-05
2	562	121.291740693768	0.948028564453125	0.94818115234375	-3.96728515625056E-09	-3.76170516958041E-09	-239000000	8.24026283225976E-05
2	563	121.392448693514	0.937957763671875	0.93780517578125	2.92968749999997E-08	2.74747602446723E-08	32010418	8.24039016151801E-05
2	564	121.493156693259	0.927886962890625	0.92803955078125	7.171630859375E-08	6.6555571720528E-08	12940426	8.24089875095524E-05
2	565	121.593864693005	0.917816162109375	0.91827392578125	1.10473632812499E-07	1.01445053246607E-07	8312155	8.24181624921039E-05
2	566	121.694572692751	0.907745361328125	0.90789794921875	1.2969970703125E-07	1.17754090922517E-07	7000000.5	8.24302551336586E-05
2	567	121.795280692496	0.897674560546875	0.89813232421875	1.21459960937501E-07	1.09087118005391E-07	7394472.5	8.24429007479921E-05
2	568	121.895988692242	0.887603759765625	0.887451171875	8.05664062500003E-08	7.14987464789374E-08	11015152	8.24530725367367E-05
2	569	121.996696691988	0.877532958984375	0.87738037109375	3.0517578125E-09	2.6775524020195E-09	287500000	8.24572853161953E-05
2	570	122.097404691734	0.867462158203125	0.8673095703125	-1.07421874999999E-07	-9.31680119720113E-08	-8073864	8.24520320747979E-05
2	571	122.198112691479	0.857391357421875	0.85784912109375	-2.4688720703125E-07	-2.11791970627928E-07	-3474660.25	8.24341914267279E-05
2	572	122.298820691225	0.847320556640625	0.84747314453125	-3.997802734375E-07	-3.38803062049919E-07	-2119847.25	8.24016242404468E-05
2	573	122.399528690971	0.837249755859375	0.83740234375	-5.511474609375E-07	-4.61532152939981E-07	-1519380	8.23537411633879E-05
2	574	122.500236690717	0.827178955078125	0.82733154296875	-6.8328857421875E-07	-5.65306152111589E-07	-1210808.5	8.22915826574899E-05
2	575	122.600944690462	0.817108154296875	0.81695556640625	-7.82165527343751E-07	-6.38994436030771E-07	-1044479.1875	8.22177898953669E-05
2	576	122.701652690208	0.807037353515625	0.80718994140625	-8.38623046875001E-07	-6.76928038956248E-07	-962518.25	8.21361827547662E-05
2	577	122.802360689954	0.796966552734375	0.79681396484375	-8.5784912109375E-07	-6.83546147683955E-07	-928850.9375	8.20507557364181E-05
2	578	122.9030686897	0.786895751953125	0.78704833984375	-8.4503173828125E-07	-6.65080790440697E-07	-931383.1875	8.19650085759349E-05
2	579	123.003776689445	0.776824951171875	0.7769775390625	-8.123779296875E-07	-6.31199384315551E-07	-956423.8125	8.18815533421002E-05
2	580	123.104484689191	0.766754150390625	0.76690673828125	-7.6904296875E-07	-5.89784235671686E-07	-997222.25	8.1801917986013E-05
2	581	123.205192688937	0.756683349609375	0.75653076171875	-7.2357177734375E-07	-5.47404283679498E-07	-1045550.4375	8.17267646198161E-05
2	582	123.305900688683	0.746612548828125	0.746490478515625	-6.81457519531251E-07	-5.08701532453415E-07	-1095432.25	8.16560132079758E-05
2	583	123.406608688428	0.736541748046875	0.736480712890625	-6.488037109375E-07	-4.77831406442419E-07	-1135136.5	8.15890307421796E-05
2	584	123.507316688174	0.726470947265625	0.726409912109375	-6.26525878906251E-07	-4.55114616215724E-07	-1159425.25	8.15248131402768E-05
2	585	123.60802468792	0.716400146484375	0.716339111328125	-6.1767578125E-07	-4.42465307060047E-07	-1159733.25	8.14621598692611E-05
2	586	123.708732687665	0.706329345703125	0.706298828125	-6.2286376953125E-07	-4.39927930528938E-07	-1133954	8.13996957731433E-05
2	587	123.809440687411	0.696258544921875	0.6961669921875	-6.4239501953125E-07	-4.47214176801936E-07	-1083705.5	8.13359802123159E-05
2	588	123.910148687157	0.686187744140625	0.686065673828125	-6.719970703125E-07	-4.61034090903922E-07	-1020935.5625	8.12697981018573E-05
2	589	124.010856686903	0.676116943359375	0.676025390625	-7.0648193359375E-07	-4.77599712667143E-07	-956889.875	8.1200385466218E-05
2	590	124.111564686648	0.666046142578125	0.666015625	-7.38525390625E-07	-4.91869457164285E-07	-901818.1875	8.11276258900762E-05
2	591	124.212272686394	0.655975341796875	0.65594482421875	-7.60803222656251E-07	-4.99044915613922E-07	-862174.125	8.10521305538714E-05
2	592	124.31298068614	0.645904541015625	0.645843505859375	-7.6934814453125E-07	-4.96878499234299E-07	-839468.5	8.09750781627372E-05
2	593	124.413688685886	0.635833740234375	0.6357421875	-7.62329101562501E-07	-4.84644772313914E-07	-833947.1875	8.08979530120268E-05
2	594	124.514396685631	0.625762939453125	0.625762939453125	-7.415771484375E-07	-4.64051481685601E-07	-843827.1875	8.08222248451784E-05
2	595	124.615104685377	0.615692138671875	0.615692138671875	-7.1136474609375E-07	-4.37981697132273E-07	-865508.375	8.07490650913678E-05
2	596	124.715812685123	0.605621337890625	0.605621337890625	-6.76574707031249E-07	-4.09748082574879E-07	-895128.5625	8.0679172242526E-05
2	597	124.816520684869	0.595550537109375	0.595489501953125	-6.396484375E-07	-3.80903912855501E-07	-930963.75	8.06128955446184E-05
2	598	124.917228684614	0.585479736328125	0.58544921875	-6.0272216796875E-07	-3.52863196440012E-07	-971341.8125	8.05503368610516E-05
2	599	125.01793668436	0.575408935546875	0.57537841796875	-5.6915283203125E-07	-3.27478232975409E-07	-1010938.375	8.04913288448006E-05
2	600	125.118644684106	0.565338134765625	0.5653076171875	-5.3741455078125E-07	-3.0380454063561E-07	-1051902.25	8.04356095613912E-05
2	601	125.219352683852	0.555267333984375	0.55523681640625	-5.0811767578125E-07	-2.82125625972185E-07	-1092732.875	8.03829607320949E-05
2	602	125.320060683597	0.545196533203125	0.545166015625	-4.81567382812501E-07	-2.62534172179585E-07	-1132065.875	8.03331276983954E-05
2	603	125.420768683343	0.535125732421875	0.535064697265625	-4.56848144531249E-07	-2.44443299379782E-07	-1171209.125	8.02858776296489E-05
2	604	125.521476683089	0.525054931640625	0.52508544921875	-4.33959960937499E-07	-2.27866053137404E-07	-1209986	8.02410213509575E-05
2	605	125.622184682834	0.514984130859375	0.514984130859375	-4.13818359375E-07	-2.13109885294216E-07	-1244469	8.0198333307635E-05
2	606	125.72289268258	0.504913330078125	0.50494384765625	-3.955078125E-07	-1.99709234038892E-07	-1276697.5	8.0157580669038E-05
2	607	125.823600682326	0.494842529296875	0.49481201171875	-3.79638671875E-07	-1.87849764188286E-07	-1303376.25	8.01185451564379E-05
2	608	125.924308682072	0.484771728515625	0.4847412109375	-3.64990234375E-07	-1.76925809114437E-07	-1328093.625	8.0081052146852E-05
2	609	126.025016681817	0.474700927734375	0.4747314453125	-3.51867675781251E-07	-1.67042642829074E-07	-1349176.125	8.00449561211281E-05
2	610	126.125724681563	0.464630126953125	0.46466064453125	-3.39660644531251E-07	-1.57826931967975E-07	-1368014.375	8.00101333879866E-05
2	611	126.226432681309	0.454559326171875	0.454620361328125	-3.28369140625E-07	-1.49283295058922E-07	-1384479.5	7.99764966359362E-05
2	612	126.327140681055	0.444488525390625	0.444549560546875	-3.16772460937501E-07	-1.40821057925677E-07	-1403371.875	7.99440094851889E-05
2	613	126.4278486808	0.434417724609375	0.43438720703125	-3.07312011718749E-07	-1.3349240646221E-07	-1413505.5	7.99125846242532E-05
2	614	126.528556680546	0.424346923828125	0.42425537109375	-2.98461914062501E-07	-1.26624073004677E-07	-1421472.375	7.98820838099346E-05
2	615	126.629264680292	0.414276123046875	0.414276123046875	-2.911376953125E-07	-1.20611389320402E-07	-1422956	7.98523906269111E-05
2	616	126.729972680038	0.404205322265625	0.40423583984375	-2.84729003906251E-07	-1.15097662956032E-07	-1419721.375	7.98233959358186E-05
2	617	126.830680679783	0.394134521484375	0.3941650390625	-2.79541015625E-07	-1.10185297330645E-07	-1410043.625	7.97949833213352E-05
2	618	126.931388679529	0.384063720703125	0.384063720703125	-2.75573730468751E-07	-1.05837862918179E-07	-1393687.75	7.97670290921815E-05
2	619	127.032096679275	0.373992919921875	0.373992919921875	-2.70996093750001E-07	-1.01350615011597E-07	-1380067.625	7.97395114204846E-05
2	620	127.132804679021	0.363922119140625	0.3638916015625	-2.6702880859375E-07	-9.71695399698547E-08	-1362742.875	7.97124157543294E-05
2	621	127.233512678766	0.353851318359375	0.3538818359375	-2.6214599609375E-07	-9.27687011653688E-08	-1349941.875	7.96857711975463E-05
2	622	127.334220678512	0.343780517578125	0.343780517578125	-2.5909423828125E-07	-8.9071548359243E-08	-1326855.125	7.96595268184319E-05
2	623	127.434928678258	0.333709716796875	0.333740234375	-2.5665283203125E-07	-8.56553796779735E-08	-1300356.625	7.96335516497493E-05
2	624	127.535636678003	0.323638916015625	0.323638916015625	-2.5482177734375E-07	-8.24702439672365E-08	-1270059.875	7.96078020357527E-05
2	625	127.636344677749	0.313568115234375	0.313568115234375	-2.53906249999999E-07	-7.96169032923899E-08	-1234976	7.95821833889931E-05
2	626	127.737052677495	0.303497314453125	0.303497314453125	-2.54211425781251E-07	-7.71524781839616E-08	-1193877.625	7.95566011220217E-05
2	627	127.837760677241	0.293426513671875	0.293365478515625	-2.5360107421875E-07	-7.43977963679754E-08	-1156799.125	7.95310261310078E-05
2	628	127.938468676986	0.283355712890625	0.283355712890625	-2.5360107421875E-07	-7.18593113901989E-08	-1117328.625	7.9505487519782E-05
2	629	128.039176676732	0.273284912109375	0.2733154296875	-2.532958984375E-07	-6.9229677990279E-08	-1079036.125	7.94799634604715E-05
2	630	128.139884676478	0.263214111328125	0.263275146484375	-2.5360107421875E-07	-6.67668587084336E-08	-1038146.875	7.94544394011609E-05
2	631	128.240592676224	0.253143310546875	0.253204345703125	-2.53906249999999E-07	-6.42901625269587E-08	-997235.5625	7.94288862380199E-05
2	632	128.341300675969	0.243072509765625	0.24310302734375	-2.545166015625E-07	-6.18737558966131E-08	-955155.875	7.94032821431756E-05
2	633	128.442008675715	0.233001708984375	0.23309326171875	-2.5634765625E-07	-5.97529066226343E-08	-909285.75	7.93775616330095E-05
2	634	128.542716675461	0.222930908203125	0.222991943359375	-2.57568359375E-07	-5.74356704419188E-08	-865758.3125	7.93516810517758E-05
2	635	128.643424675207	0.212860107421875	0.212890625	-2.5909423828125E-07	-5.51587326924619E-08	-821672.5625	7.93256622273475E-05
2	636	128.744132674952	0.202789306640625	0.202911376953125	-2.61840820312501E-07	-5.31304813478073E-08	-774941.6875	7.92994324001484E-05
2	637	128.844840674698	0.192718505859375	0.192779541015625	-2.63366699218751E-07	-5.07717103914729E-08	-731981.4375	7.92729915701784E-05
2	638	128.945548674444	0.182647705078125	0.182647705078125	-2.64892578125001E-07	-4.83820201679919E-08	-689516.125	7.9246390669141E-05
2	639	129.04625667419	0.172576904296875	0.172637939453125	-2.67944335937501E-07	-4.6257355279522E-08	-644305.25	7.92195569374599E-05
2	640	129.146964673935	0.162506103515625	0.1624755859375	-2.7130126953125E-07	-4.4079833116939E-08	-598875.125	7.91924030636437E-05
2	641	129.247672673681	0.152435302734375	0.1524658203125	-2.7587890625E-07	-4.2062104910201E-08	-552654.875	7.91648490121588E-05
2	642	129.348380673427	0.142364501953125	0.142364501953125	-2.81982421875E-07	-4.01442861175383E-08	-504870.15625	7.91367638157681E-05
2	643	129.449088673172	0.132293701171875	0.13232421875	-2.911376953125E-07	-3.85245684242363E-08	-454507.34375	7.91079000919126E-05
2	644	129.549796672918	0.122222900390625	0.12225341796875	-3.03955078125E-07	-3.71595447745676E-08	-402208.84375	7.90779376984574E-05
2	645	129.650504672664	0.112152099609375	0.1121826171875	-3.22570800781249E-07	-3.61868366383078E-08	-347776.71875	7.90463891462423E-05
2	646	129.75121267241	0.102081298828125	0.102142333984375	-3.497314453125E-07	-3.57223868263645E-08	-292059.34375	7.90125341154635E-05
2	647	129.851920672155	0.092010498046875	0.092132568359375	-3.9031982421875E-07	-3.59611682654304E-08	-236043.78125	7.89752739365213E-05
2	648	129.952628671901	0.081939697265625	0.08203125	-4.473876953125E-07	-3.66997703338257E-08	-183356.078125	7.89330879342742E-05
2	649	130.053336671647	0.071868896484375	0.071929931640625	-5.2825927734375E-07	-3.79976512476787E-08	-136164.078125	7.88839606684633E-05
2	650	130.154044671393	0.061798095703125	0.06182861328125	-6.378173828125E-07	-3.94353634192157E-08	-96937.796875	7.88252436905168E-05
2	651	130.254752671138	0.051727294921875	0.051788330078125	-7.79113769531251E-07	-4.03490005851381E-08	-66470.8203125	7.87538956501521E-05
2	652	130.355460670884	0.041656494140625	0.041778564453125	-9.5245361328125E-07	-3.97921446904093E-08	-43864.1484375	7.86667078500614E-05
2	653	130.45616867063	0.031585693359375	0.031640625	-1.15264892578125E-06	-3.64705350364147E-08	-27450.359375	7.85607044235803E-05
2	654	130.556876670376	0.021514892578125	0.0216064453125	-1.3653564453125E-06	-2.95004980443991E-08	-15824.765625	7.84339135861956E-05
2	655	130.657584670121	0.011444091796875	0.0115234375	-1.57135009765625E-06	-1.8107353838559E-08	-7333.46337890625	7.82860370236449E-05
2	656	130.758292669867	0.001373291015625	0.00146484375	-1.75262451171875E-06	-2.56732102243973E-09	-835.800109863281	7.81186608946882E-05
2	657	130.859000669613	-0.008697509765625	-0.00859985351562501	-1.8902587890625E-06	1.62559476990509E-08	4549.56396484375	7.7935226727277E-05
2	658	130.959708669359	-0.018768310546875	-0.0186676025390625	-1.9757080078125E-06	3.68817296703128E-08	9448.564453125	7.77405657572672E-05
2	659	131.060416669104	-0.028839111328125	-0.02874755859375	-2.01263427734375E-06	5.78583190247173E-08	14283.548828125	7.75397347752005E-05
2	660	131.16112466885	-0.038909912109375	-0.03875732421875	-2.00836181640625E-06	7.78387274635861E-08	19297.98046875	7.7337259426713E-05
2	661	131.261832668596	-0.048980712890625	-0.0488677978515625	-1.976318359375E-06	9.65783257811381E-08	24726.68359375	7.71366176195443E-05
2	662	131.362540668341	-0.059051513671875	-0.058990478515625	-1.927490234375E-06	1.13703563897616E-07	30604.81640625	7.69400430726819E-05
2	663	131.463248668087	-0.069122314453125	-0.069000244140625	-1.87164306640625E-06	1.29143828075939E-07	36866.13671875	7.67487435950898E-05
2	664	131.563956667833	-0.079193115234375	-0.07916259765625	-1.81427001953125E-06	1.43622315817993E-07	43633.30859375	7.65631411923096E-05
2	665	131.664664667579	-0.089263916015625	-0.08917236328125	-1.76055908203125E-06	1.56993209543543E-07	50650.02734375	7.63831340009347E-05
2	666	131.765372667324	-0.099334716796875	-0.0992431640625	-1.71173095703125E-06	1.69877594657919E-07	57978.25390625	7.62082927394658E-05
2	667	131.86608066707	-0.109405517578125	-0.109344482421875	-1.66961669921875E-06	1.82563368866795E-07	65490.7734375	7.60380280553363E-05
2	668	131.966788666816	-0.119476318359375	-0.119354248046875	-1.63421630859375E-06	1.95050645857009E-07	73034.546875	7.5871663284488E-05
2	669	132.067496666562	-0.129547119140625	-0.129425048828125	-1.60552978515625E-06	2.07795764595176E-07	80612.0546875	7.57085290388204E-05
2	670	132.168204666307	-0.139617919921875	-0.1395263671875	-1.58294677734375E-06	2.2086281603606E-07	88143.4375	7.55479777581058E-05
2	671	132.268912666053	-0.149688720703125	-0.14959716796875	-1.5655517578125E-06	2.34202104820724E-07	95555.5546875	7.53894419176504E-05
2	672	132.369620665799	-0.159759521484375	-0.159698486328125	-1.55303955078125E-06	2.480180683051E-07	102829.6328125	7.52324049244635E-05
2	673	132.470328665545	-0.169830322265625	-0.169677734375	-1.5447998046875E-06	2.62118106775233E-07	109838.015625	7.5076415669173E-05
2	674	132.57103666529	-0.179901123046875	-0.17987060546875	-1.54296875E-06	2.77534695669601E-07	116574.375	7.49209357309155E-05
2	675	132.671744665036	-0.189971923828125	-0.1898193359375	-1.54571533203125E-06	2.93406657192463E-07	122803.5546875	7.47654048609547E-05
2	676	132.772452664782	-0.200042724609375	-0.19989013671875	-1.5545654296875E-06	3.10742279907572E-07	128582.6484375	7.46092991903424E-05
2	677	132.873160664528	-0.189971923828125	-0.189727783203125	-1.3458251953125E-06	2.55340410149074E-07	140975.0625	7.44632488931529E-05
