Potential,Current,Normalized_Potential,Normalized_Current
1.50497436523438,6.84204101562499e-07,1.460266113281255,0.10095006528884672
1.49993896484375,7.35168457031249e-07,1.455230712890625,0.10846953937592851
1.49490356445313,7.15942382812502e-07,1.450195312500005,0.10563285154667056
1.4898681640625,6.951904296875e-07,1.445159912109375,0.10257102976270882
1.48483276367188,6.744384765625e-07,1.440124511718755,0.09950920797874736
1.47979736328125,6.55517578124998e-07,1.435089111328125,0.09671754694042925
1.47476196289063,6.38427734375e-07,1.430053710937505,0.09419604664775541
1.4697265625,6.23474121093748e-07,1.425018310546875,0.09198973389166525
1.46469116210938,6.097412109375e-07,1.419982910156255,0.08996352829933811
1.45965576171875,5.97534179687501e-07,1.414947509765625,0.08816245666171385
1.45462036132813,5.86547851562502e-07,1.409912109375005,0.08654149218785206
1.4495849609375,5.767822265625e-07,1.404876708984375,0.08510063487775225
1.44454956054688,5.67932128906251e-07,1.399841308593755,0.08379485794047473
1.43951416015625,5.5999755859375e-07,1.394805908203125,0.08262416137601873
1.43447875976563,5.52978515625e-07,1.389770507812505,0.08158854518438471
1.429443359375,5.46874999999999e-07,1.384735107421875,0.08068800936557237
1.42440795898438,5.41992187500001e-07,1.379699707031255,0.0799675807105229
1.41937255859375,5.37414550781251e-07,1.374664306640625,0.07929217884641375
1.41433715820313,5.33447265625001e-07,1.369628906250005,0.07870683056418584
1.4093017578125,5.29174804687502e-07,1.364593505859375,0.07807645549101745
1.40426635742188,5.27343750000001e-07,1.359558105468755,0.07780629474537364
1.39923095703125,5.23681640624999e-07,1.354522705078125,0.07726597325408603
1.39419555664063,5.22155761718751e-07,1.349487304687505,0.07704083929938327
1.38916015625,5.21545410156249e-07,1.344451904296875,0.07695078571750176
1.38412475585938,5.19714355468751e-07,1.339416503906255,0.07668062497185839
1.37908935546875,5.18493652343749e-07,1.334381103515625,0.07650051780809566
1.37405395507813,5.17883300781252e-07,1.329345703125005,0.07641046422621489
1.3690185546875,5.17883300781252e-07,1.324310302734375,0.07641046422621489
1.36398315429688,5.1788330078125e-07,1.319274902343755,0.07641046422621459
1.35894775390625,5.18188476562501e-07,1.314239501953125,0.07645549101715535
1.35391235351563,5.18798828125e-07,1.309204101562505,0.07654554459903642
1.348876953125,5.19714355468748e-07,1.304168701171875,0.07668062497185796
1.34384155273438,5.19409179687499e-07,1.299133300781255,0.07663559818091749
1.33880615234375,5.20629882812501e-07,1.294097900390625,0.07681570534468023
1.33377075195313,5.22460937499999e-07,1.289062500000005,0.0770858660903236
1.3287353515625,5.22766113281251e-07,1.284027099609375,0.0771308928812645
1.32369995117188,5.23986816406249e-07,1.278991699218755,0.07731100004502664
1.31866455078125,5.26123046874999e-07,1.273956298828125,0.07762618758161091
1.31362915039063,5.27038574218749e-07,1.268920898437505,0.07776126795443274
1.30859375,5.28259277343751e-07,1.263885498046875,0.07794137511819547
1.30355834960938,5.30395507812501e-07,1.258850097656255,0.07825656265477975
1.29852294921875,5.3192138671875e-07,1.253814697265625,0.07848169660948265
1.29348754882813,5.33752441406249e-07,1.248779296875005,0.07875185735512615
1.2884521484375,5.35278320312502e-07,1.243743896484375,0.07897699130982964
1.28341674804688,5.37414550781251e-07,1.238708496093755,0.07929217884641375
1.27838134765625,5.38940429687498e-07,1.233673095703125,0.07951731280111637
1.27334594726563,5.42297363281249e-07,1.228637695312505,0.08001260750146322
1.268310546875,5.45959472656252e-07,1.223602294921875,0.08055292899275097
1.26327514648438,5.49621582031251e-07,1.218566894531255,0.08109325048403815
1.25823974609375,5.53283691406251e-07,1.213531494140625,0.08163357197532546
1.25320434570313,5.59082031250002e-07,1.208496093750005,0.0824890810031972
1.2481689453125,5.65185546875002e-07,1.203460693359375,0.08338961682200938
1.24313354492188,5.7220458984375e-07,1.198425292968755,0.08442523301364312
1.23809814453125,5.81665039062499e-07,1.193389892578125,0.08582106353280186
1.23306274414063,5.92956542968748e-07,1.188354492187505,0.08748705479760427
1.22802734375,6.05468749999999e-07,1.183319091796875,0.08933315322616943
1.22299194335938,6.2042236328125e-07,1.178283691406255,0.09153946598225944
1.21795654296875,6.38732910156251e-07,1.173248291015625,0.09424107343869616
1.21292114257813,6.59790039062502e-07,1.168212890625005,0.09734792201359839
1.2078857421875,6.84814453124999e-07,1.163177490234375,0.10104011887072793
1.20285034179688,7.14111328125e-07,1.158142089843755,0.10536269080102661
1.19781494140625,7.49511718749998e-07,1.153106689453125,0.11058579855013703
1.19277954101563,7.89794921875e-07,1.148071289062505,0.1165293349542978
1.187744140625,8.37097167968751e-07,1.143035888671875,0.12350848755009246
1.18270874023438,8.941650390625e-07,1.138000488281255,0.1319284974559863
1.17767333984375,9.613037109375e-07,1.132965087890625,0.14183439146292043
1.17263793945313,1.0394287109375e-06,1.127929687500005,0.1533612499437165
1.1676025390625,1.1309814453125e-06,1.122894287109375,0.16686928722589942
1.16256713867188,1.23992919921875e-06,1.117858886718755,0.18294385159169704
1.15753173828125,1.36749267578125e-06,1.112823486328125,0.2017650502048719
1.15249633789063,1.51702880859375e-06,1.107788085937505,0.2238281777657706
1.1474609375,1.69219970703125e-06,1.102752685546875,0.24967355576568057
1.14242553710938,1.89605712890625e-06,1.097717285156255,0.2797514521140078
1.13739013671875,2.1337890625e-06,1.092681884765625,0.3148273222567427
1.13235473632813,2.40753173828125e-06,1.087646484375005,0.3552163537304696
1.1273193359375,2.72216796875e-06,1.082611083984375,0.40163897519023817
1.12228393554688,3.0792236328125e-06,1.077575683593755,0.4543203205907515
1.11724853515625,3.4820556640625e-06,1.072540283203125,0.5137556846323562
1.11221313476563,3.9312744140625e-06,1.067504882812505,0.5800351208969337
1.107177734375,4.42596435546875e-06,1.062469482421875,0.6530235490116619
1.10214233398438,4.96307373046875e-06,1.057434082031255,0.7322707010671349
1.09710693359375,5.5401611328125e-06,1.052398681640625,0.8174163627358279
1.09207153320313,6.1444091796875e-06,1.047363281250005,0.9065694087982349
1.0870361328125,6.77398681640625e-06,1.042327880859375,0.9994596785087126
1.08200073242188,7.40936279296875e-06,1.037292480468755,1.093205457247062
1.07696533203125,8.03955078125e-06,1.032257080078125,1.186185780539421
1.07192993164063,8.6468505859375e-06,1.027221679687505,1.275789094511234
1.06689453125,9.2193603515625e-06,1.022186279296875,1.3602593543158177
1.06185913085938,9.7412109375e-06,1.017150878906255,1.4372551668242604
1.05682373046875,1.019287109375e-05,1.012115478515625,1.5038948174163627
1.05178833007813,1.055908203125e-05,1.007080078125005,1.557926966545094
1.0467529296875,1.08428955078125e-05,1.002044677734375,1.5998018821198612
1.04171752929688,1.102294921875e-05,0.9970092773437551,1.626367688774821
1.03668212890625,1.1102294921875e-05,0.991973876953125,1.6380746544193796
1.03164672851563,1.107177734375e-05,0.9869384765625051,1.6335719753253186
1.026611328125,1.09344482421875e-05,0.981903076171875,1.6133099194020442
1.02157592773438,1.0699462890625e-05,0.9768676757812551,1.5786392903777748
1.01654052734375,1.03607177734375e-05,0.971832275390625,1.528659552433698
1.01150512695313,9.9359130859375e-06,0.9667968750000051,1.4659822594443692
1.0064697265625,9.439697265625e-06,0.961761474609375,1.392768697374938
1.00143432617188,8.88916015625e-06,0.9567260742187551,1.311540366518078
0.99639892578125,8.2940673828125e-06,0.951690673828125,1.2237381241838894
0.991363525390625,7.68646240234375e-06,0.9466552734375,1.1340897834211354
0.986328125,7.08404541015625e-06,0.941619873046875,1.045206898104372
0.981292724609375,6.50146484375e-06,0.93658447265625,0.9592507541987483
0.97625732421875,5.955810546875e-06,0.931549072265625,0.8787428519969381
0.971221923828125,5.46417236328125e-06,0.926513671875,0.8062046917916159
0.9661865234375,5.03753662109375e-06,0.921478271484375,0.7432572380566437
0.961151123046875,4.6807861328125e-06,0.91644287109375,0.6906209194470709
0.95611572265625,4.39849853515625e-06,0.911407470703125,0.6489711378270071
0.951080322265625,4.19677734375e-06,0.9063720703125,0.6192084290152641
0.946044921875,4.07440185546875e-06,0.901336669921875,0.6011526858480796
0.941009521484375,4.02862548828125e-06,0.89630126953125,0.5943986672069881
0.93597412109375,4.05364990234375e-06,0.891265869140625,0.5980908640641182
0.930938720703125,4.1522216796875e-06,0.88623046875,0.612634517537935
0.9259033203125,4.312744140625e-06,0.881195068359375,0.6363186095726957
0.920867919921875,4.527587890625e-06,0.87615966796875,0.6680174703948849
0.91583251953125,4.781494140625e-06,0.871124267578125,0.7054797604574722
0.910797119140625,5.06378173828125e-06,0.8660888671875,0.7471295420775361
0.90576171875,5.35980224609375e-06,0.861053466796875,0.7908055292899275
0.900726318359375,5.6524658203125e-06,0.85601806640625,0.8339862218019721
0.89569091796875,5.92376708984375e-06,0.850982666015625,0.8740150389481741
0.890655517578125,6.1669921875e-06,0.845947265625,0.9099013913278401
0.8856201171875,6.36138916015625e-06,0.840911865234375,0.9385834571570084
0.880584716796875,6.49871826171875e-06,0.83587646484375,0.9588455130802828
0.87554931640625,6.56890869140625e-06,0.830841064453125,0.9692016749966229
0.870513916015625,6.5728759765625e-06,0.8258056640625,0.9697870232788508
0.865478515625,6.502685546875e-06,0.820770263671875,0.9594308613625107
0.860443115234375,6.36505126953125e-06,0.81573486328125,0.9391237786482958
0.85540771484375,6.1669921875e-06,0.810699462890625,0.9099013913278401
0.850372314453125,5.9210205078125e-06,0.8056640625,0.8736097978297086
0.8453369140625,5.63720703125e-06,0.800628662109375,0.8317348822549416
0.840301513671875,5.3265380859375e-06,0.79559326171875,0.785897609077401
0.83526611328125,5.00457763671875e-06,0.790557861328125,0.7383943446350578
0.830230712890625,4.68536376953125e-06,0.7855224609375,0.6912963213111801
0.8251953125,4.38262939453125e-06,0.780487060546875,0.6466297446980953
0.820159912109375,4.102783203125e-06,0.77545166015625,0.6053401774055563
0.81512451171875,3.86260986328125e-06,0.770416259765625,0.5699040929352964
0.810089111328125,3.66455078125e-06,0.765380859375,0.5406817056148409
0.8050537109375,3.515625e-06,0.760345458984375,0.5187086316358233
0.800018310546875,3.424072265625e-06,0.75531005859375,0.5052005943536404
0.79498291015625,3.38134765625e-06,0.750274658203125,0.498896843621955
0.789947509765625,3.39935302734375e-06,0.7452392578125,0.501553424287451
0.784912109375,3.47686767578125e-06,0.740203857421875,0.5129902291863658
0.779876708984375,3.61083984375e-06,0.73516845703125,0.5327569904092935
0.77484130859375,3.80157470703125e-06,0.730133056640625,0.5608987347471746
0.769805908203125,4.0478515625e-06,0.72509765625,0.5972353550362466
0.7647705078125,4.34234619140625e-06,0.720062255859375,0.6406862082939349
0.759735107421875,4.6807861328125e-06,0.71502685546875,0.6906209194470709
0.75469970703125,5.059814453125e-06,0.709991455078125,0.7465441937953082
0.749664306640625,5.46600341796875e-06,0.7049560546875,0.8064748525372596
0.74462890625,5.87982177734375e-06,0.699920654296875,0.8675311810527264
0.739593505859375,6.298828125e-06,0.69488525390625,0.9293529650141834
0.73455810546875,6.70501708984375e-06,0.689849853515625,0.9892836237561348
0.729522705078125,7.08099365234375e-06,0.684814453125,1.044756630194966
0.7244873046875,7.412109375e-06,0.679779052734375,1.0936106983655276
0.719451904296875,7.6806640625e-06,0.67474365234375,1.133234274393264
0.71441650390625,7.8814697265625e-06,0.669708251953125,1.1628619028321852
0.709381103515625,7.996826171875e-06,0.6646728515625,1.1798820298077355
0.704345703125,8.0206298828125e-06,0.659637451171875,1.183394119501103
0.699310302734375,7.9510498046875e-06,0.65460205078125,1.173128011166644
0.69427490234375,7.789306640625e-06,0.649566650390625,1.149263811968121
0.689239501953125,7.545166015625e-06,0.64453125,1.1132423792156332
0.6842041015625,7.22076416015625e-06,0.639495849609375,1.0653789004457652
0.679168701171875,6.8292236328125e-06,0.63446044921875,1.007609527668963
0.67413330078125,6.3909912109375e-06,0.629425048828125,0.9429510558782475
0.669097900390625,5.9161376953125e-06,0.6243896484375,0.8728893691746589
0.6640625,5.42755126953125e-06,0.619354248046875,0.8008014768787428
0.659027099609375,4.9310302734375e-06,0.61431884765625,0.7275428880183709
0.65399169921875,4.44976806640625e-06,0.609283447265625,0.6565356387050294
0.648956298828125,3.9923095703125e-06,0.604248046875,0.5890404790850555
0.6439208984375,3.56231689453125e-06,0.599212646484375,0.5255977306497366
0.638885498046875,3.167724609375e-06,0.59417724609375,0.4673780899635283
0.63385009765625,2.8118896484375e-06,0.589141845703125,0.4148768517267774
0.628814697265625,2.4957275390625e-06,0.5841064453125,0.3682290963123058
0.623779296875,2.2174072265625e-06,0.579071044921875,0.32716466297446983
0.618743896484375,1.976318359375e-06,0.57403564453125,0.29159349813138813
0.61370849609375,1.7706298828125e-06,0.569000244140625,0.26124544103741726
0.608673095703125,1.59393310546875e-06,0.56396484375,0.23517492908280424
0.6036376953125,1.44317626953125e-06,0.558929443359375,0.21293169435814308
0.598602294921875,1.31805419921875e-06,0.55389404296875,0.1944707100724931
0.59356689453125,1.2139892578125e-06,0.548858642578125,0.17911657436174525
0.588531494140625,1.126708984375e-06,0.5438232421875,0.16623891215273087
0.58349609375,1.0546875e-06,0.538787841796875,0.155612589490747
0.578460693359375,9.94262695312501e-07,0.53375244140625,0.14669728488450642
0.57342529296875,9.46044921875e-07,0.528717041015625,0.13958305191588996
0.568389892578125,9.05151367187501e-07,0.523681640625,0.1335494619298484
0.5633544921875,8.72802734375e-07,0.518646240234375,0.12877662209014362
0.558319091796875,8.4686279296875e-07,0.51361083984375,0.12494934486019181
0.55328369140625,8.24584960937499e-07,0.508575439453125,0.12166238912152716
0.548248291015625,8.0657958984375e-07,0.5035400390625,0.11900580845603133
0.543212890625,7.92236328125e-07,0.498504638671875,0.11688954928182269
0.538177490234375,7.8094482421875e-07,0.49346923828125,0.11522355801702013
0.53314208984375,7.7178955078125e-07,0.488433837890625,0.11387275428880184
0.528106689453125,7.635498046875e-07,0.4833984375,0.11265703093340537
0.5230712890625,7.5714111328125e-07,0.478363037109375,0.11171146832365256
0.518035888671875,7.5164794921875e-07,0.47332763671875,0.1109009860867216
0.51300048828125,7.4737548828125e-07,0.468292236328125,0.11027061101355307
0.507965087890625,7.43408203125e-07,0.4632568359375,0.10968526273132513
0.5029296875,7.39135742187501e-07,0.458221435546875,0.10905488765815675
0.497894287109375,7.3699951171875e-07,0.45318603515625,0.10873970012157233
0.49285888671875,7.34252929687501e-07,0.448150634765625,0.108334459003107
0.487823486328125,7.31506347656249e-07,0.443115234375,0.10792921788464122
0.4827880859375,7.2967529296875e-07,0.438079833984375,0.1076590571389977
0.477752685546875,7.2784423828125e-07,0.43304443359375,0.10738889639335404
0.47271728515625,7.26318359375e-07,0.428009033203125,0.107163762438651
0.467681884765625,7.25097656250001e-07,0.4229736328125,0.10698365527488869
0.462646484375,7.244873046875e-07,0.417938232421875,0.10689360169300734
0.457611083984375,7.2357177734375e-07,0.41290283203125,0.1067585213201855
0.45257568359375,7.2296142578125e-07,0.407867431640625,0.10666846773830428
0.447540283203125,7.220458984375e-07,0.40283203125,0.10653338736548246
0.4425048828125,7.2174072265625e-07,0.397796630859375,0.10648836057454185
0.437469482421875,7.21435546874999e-07,0.39276123046875,0.10644333378360109
0.43243408203125,7.21130371093749e-07,0.387725830078125,0.10639830699266048
0.427398681640625,7.2021484375e-07,0.3826904296875,0.1062632266198388
0.42236328125,7.19604492187501e-07,0.377655029296875,0.10617317303795772
0.417327880859375,7.183837890625e-07,0.37261962890625,0.10599306587419513
0.41229248046875,7.1746826171875e-07,0.367584228515625,0.1058579855013733
0.407257080078125,7.171630859375e-07,0.362548828125,0.1058129587104327
0.4022216796875,7.1624755859375e-07,0.357513427734375,0.10567787833761089
0.397186279296875,7.1533203125e-07,0.35247802734375,0.10554279796478903
0.39215087890625,7.14111328125e-07,0.347442626953125,0.10536269080102661
0.387115478515625,7.13195800781249e-07,0.3424072265625,0.10522761042820462
0.382080078125,7.1258544921875e-07,0.337371826171875,0.10513755684632356
0.377044677734375,7.11669921875001e-07,0.33233642578125,0.10500247647350187
0.37200927734375,7.1075439453125e-07,0.327301025390625,0.10486739610067991
0.366973876953125,7.10144042968749e-07,0.322265625,0.10477734251879854
0.3619384765625,7.10144042968751e-07,0.317230224609375,0.10477734251879883
0.356903076171875,7.09838867187501e-07,0.31219482421875,0.10473231572785822
0.35186767578125,7.08923339843749e-07,0.307159423828125,0.1045972353550361
0.346832275390625,7.086181640625e-07,0.3021240234375,0.10455220856409564
0.341796875,7.08312988281251e-07,0.297088623046875,0.10450718177315517
0.336761474609375,7.0831298828125e-07,0.29205322265625,0.10450718177315503
0.33172607421875,7.0831298828125e-07,0.287017822265625,0.10450718177315503
0.326690673828125,7.0831298828125e-07,0.281982421875,0.10450718177315503
0.3216552734375,7.0953369140625e-07,0.276947021484375,0.10468728893691746
0.316619873046875,7.098388671875e-07,0.27191162109375,0.10473231572785807
0.31158447265625,7.10144042968749e-07,0.266876220703125,0.10477734251879854
0.306549072265625,7.1075439453125e-07,0.2618408203125,0.10486739610067991
0.301513671875,7.11669921875001e-07,0.256805419921875,0.10500247647350187
0.296478271484375,7.13195800781249e-07,0.25177001953125,0.10522761042820462
0.29144287109375,7.15026855468751e-07,0.246734619140625,0.10549777117384859
0.286407470703125,7.17468261718751e-07,0.24169921875,0.10585798550137347
0.2813720703125,7.19604492187501e-07,0.236663818359375,0.10617317303795772
0.276336669921875,7.22656250000001e-07,0.23162841796875,0.10662344094736383
0.27130126953125,7.25402832031251e-07,0.226593017578125,0.10702868206582931
0.266265869140625,7.293701171875e-07,0.2215576171875,0.1076140303480571
0.26123046875,7.33337402343751e-07,0.216522216796875,0.10819937863028517
0.256195068359375,7.3822021484375e-07,0.21148681640625,0.10891980728533476
0.25115966796875,7.44018554687501e-07,0.206451416015625,0.1097753163132065
0.246124267578125,7.50122070312501e-07,0.201416015625,0.11067585213201869
0.2410888671875,7.57446289062499e-07,0.196380615234375,0.11175649511459303
0.236053466796875,7.6629638671875e-07,0.19134521484375,0.11306227205187086
0.23101806640625,7.75146484375e-07,0.186309814453125,0.11436804898914853
0.225982666015625,7.861328125e-07,0.1812744140625,0.11598901346301049
0.220947265625,7.98339843750001e-07,0.176239013671875,0.11779008510063503
0.215911865234375,8.123779296875e-07,0.17120361328125,0.11986131748390293
0.21087646484375,8.2794189453125e-07,0.166168212890625,0.12215768382187402
0.205841064453125,8.45947265624999e-07,0.1611328125,0.12481426448736983
0.2008056640625,8.6639404296875e-07,0.156097412109375,0.1278310594803908
0.195770263671875,8.892822265625e-07,0.15106201171875,0.13120806880093655
0.19073486328125,9.1705322265625e-07,0.146026611328125,0.13530550677653203
0.185699462890625,9.4940185546875e-07,0.1409912109375,0.14007834661623664
0.1806640625,9.8602294921875e-07,0.135955810546875,0.14548156152910982
0.175628662109375,1.0302734375e-06,0.13092041015625,0.1520104462154982
0.17059326171875,1.08154296875e-06,0.125885009765625,0.15957494709352063
0.165557861328125,1.14501953125e-06,0.120849609375,0.16894051960916745
0.1605224609375,1.21673583984375e-06,0.115814208984375,0.17952181548021073
0.155487060546875,1.30340576171875e-06,0.11077880859375,0.19230942410734386
0.15045166015625,1.4031982421875e-06,0.105743408203125,0.20703318474492322
