Potential,Current,Normalized_Potential,Normalized_Current
1.50497436523438,6.87561035156249e-07,1.430053710937505,0.09318388617751662
1.49993896484375,7.4432373046875e-07,1.425018310546875,0.10087683017619323
1.49490356445313,7.25708007812499e-07,1.419982910156255,0.09835387542393899
1.4898681640625,7.04040527343749e-07,1.414947509765625,0.09541732153197108
1.48483276367188,6.85424804687501e-07,1.409912109375005,0.09289436677971723
1.47979736328125,6.6650390625e-07,1.404876708984375,0.0903300521134916
1.47476196289063,6.50634765625001e-07,1.399841308593755,0.08817933658698004
1.4697265625,6.3629150390625e-07,1.394805908203125,0.08623542063032509
1.46469116210938,6.2408447265625e-07,1.389770507812505,0.08458102407146993
1.45965576171875,6.12792968749999e-07,1.384735107421875,0.08305070725452877
1.45462036132813,6.0302734375e-07,1.379699707031255,0.08172719000744479
1.4495849609375,5.9478759765625e-07,1.374664306640625,0.08061047233021755
1.44454956054688,5.86547851562499e-07,1.369628906250005,0.07949375465299019
1.43951416015625,5.80444335937501e-07,1.364593505859375,0.07866655637356289
1.43447875976563,5.755615234375e-07,1.359558105468755,0.07800479775002067
1.429443359375,5.70983886718749e-07,1.354522705078125,0.07738439904044986
1.42440795898438,5.6732177734375e-07,1.349487304687505,0.07688808007279345
1.41937255859375,5.6365966796875e-07,1.344451904296875,0.0763917611051369
1.41433715820313,5.615234375e-07,1.339416503906255,0.07610224170733725
1.4093017578125,5.59082031249999e-07,1.334381103515625,0.07577136239556609
1.40426635742188,5.5816650390625e-07,1.329345703125005,0.07564728265365209
1.39923095703125,5.572509765625e-07,1.324310302734375,0.07552320291173793
1.39419555664063,5.56640625e-07,1.319274902343755,0.07544048308379518
1.38916015625,5.56640625e-07,1.314239501953125,0.07544048308379518
1.38412475585938,5.57556152343751e-07,1.309204101562505,0.07556456282570946
1.37908935546875,5.5816650390625e-07,1.304168701171875,0.07564728265365209
1.37405395507813,5.59082031249999e-07,1.299133300781255,0.07577136239556609
1.3690185546875,5.60913085937501e-07,1.294097900390625,0.07601952187939462
1.36398315429688,5.62133789062501e-07,1.289062500000005,0.07618496153528015
1.35894775390625,5.645751953125e-07,1.284027099609375,0.07651584084705104
1.35391235351563,5.6732177734375e-07,1.278991699218755,0.07688808007279345
1.348876953125,5.6915283203125e-07,1.273956298828125,0.07713623955662173
1.34384155273438,5.72509765625e-07,1.268920898437505,0.07759119861030689
1.33880615234375,5.755615234375e-07,1.263885498046875,0.07800479775002067
1.33377075195313,5.79223632812499e-07,1.258850097656255,0.07850111671767708
1.3287353515625,5.81970214843749e-07,1.253814697265625,0.07887335594341952
1.32369995117188,5.85021972656251e-07,1.248779296875005,0.07928695508313358
1.31866455078125,5.8868408203125e-07,1.243743896484375,0.07978327405078998
1.31362915039063,5.9234619140625e-07,1.238708496093755,0.08027959301844652
1.30859375,5.95703125000001e-07,1.233673095703125,0.08073455207213183
1.30355834960938,5.99365234375e-07,1.228637695312505,0.08123087103978824
1.29852294921875,6.03637695312501e-07,1.223602294921875,0.08180990983538769
1.29348754882813,6.0760498046875e-07,1.218566894531255,0.08234758871701547
1.2884521484375,6.11267089843749e-07,1.213531494140625,0.08284390768467188
1.28341674804688,6.15539550781249e-07,1.208496093750005,0.08342294648027118
1.27838134765625,6.201171875e-07,1.203460693359375,0.08404334518984201
1.27334594726563,6.25305175781249e-07,1.198425292968755,0.08474646372735531
1.268310546875,6.3140869140625e-07,1.193389892578125,0.08557366200678303
1.26327514648438,6.37512207031249e-07,1.188354492187505,0.08640086028621047
1.25823974609375,6.4361572265625e-07,1.183319091796875,0.08722805856563819
1.25320434570313,6.50939941406249e-07,1.178283691406255,0.08822069650095114
1.2481689453125,6.59790039062499e-07,1.173248291015625,0.08942013400612113
1.24313354492188,6.6986083984375e-07,1.168212890625005,0.09078501116717677
1.23809814453125,6.8023681640625e-07,1.163177490234375,0.09219124824220366
1.23306274414063,6.92443847656249e-07,1.158142089843755,0.09384564480105868
1.22802734375,7.061767578125e-07,1.153106689453125,0.09570684092977087
1.22299194335938,7.220458984375e-07,1.148071289062505,0.09785755645628258
1.21795654296875,7.4066162109375e-07,1.143035888671875,0.1003805112085367
1.21292114257813,7.60498046875e-07,1.138000488281255,0.10306890561667632
1.2078857421875,7.83996582031249e-07,1.132965087890625,0.10625361899247236
1.20285034179688,8.11767578125e-07,1.127929687500005,0.11001737116386798
1.19781494140625,8.4320068359375e-07,1.122894287109375,0.11427744230292
1.19277954101563,8.81347656249999e-07,1.117858886718755,0.11944743154934225
1.187744140625,9.2437744140625e-07,1.112823486328125,0.1252791794193068
1.18270874023438,9.7564697265625e-07,1.107788085937505,0.13222764496649847
1.17767333984375,1.03546142578125e-06,1.102752685546875,0.14033418810488876
1.17263793945313,1.1041259765625e-06,1.097717285156255,0.149640168748449
1.1676025390625,1.18438720703125e-06,1.092681884765625,0.16051782612292165
1.16256713867188,1.27899169921875e-06,1.087646484375005,0.17333939945404916
1.15753173828125,1.38824462890625e-06,1.082611083984375,0.18814624865580282
1.15249633789063,1.513671875e-06,1.077575683593755,0.20514517329803952
1.1474609375,1.65679931640625e-06,1.072540283203125,0.22454297295061626
1.14242553710938,1.8206787109375e-06,1.067504882812505,0.24675324675324675
1.13739013671875,2.00439453125e-06,1.062469482421875,0.2716519149640169
1.13235473632813,2.20947265625e-06,1.057434082031255,0.29944577715278353
1.1273193359375,2.43560791015625e-06,1.052398681640625,0.3300934734055753
1.12228393554688,2.68157958984375e-06,1.047363281250005,0.3634295640665068
1.11724853515625,2.94342041015625e-06,1.042327880859375,0.3989163702539499
1.11221313476563,3.21929931640625e-06,1.037292480468755,0.43630573248407645
1.107177734375,3.50341796875e-06,1.032257080078125,0.4748118123914302
1.10214233398438,3.78936767578125e-06,1.027221679687505,0.5135660517826123
1.09710693359375,4.06951904296875e-06,1.022186279296875,0.5515344528083381
1.09207153320313,4.3328857421875e-06,1.017150878906255,0.5872280585656382
1.0870361328125,4.5745849609375e-06,1.012115478515625,0.6199851104309704
1.08200073242188,4.78118896484375e-06,1.007080078125005,0.6479857721895939
1.07696533203125,4.9462890625e-06,1.002044677734375,0.6703614856481098
1.07192993164063,5.06072998046875e-06,0.9970092773437551,0.685871453387377
1.06689453125,5.1220703125e-06,0.991973876953125,0.6941847960956241
1.06185913085938,5.1275634765625e-06,0.9869384765625051,0.694929274547109
1.05682373046875,5.07415771484375e-06,0.981903076171875,0.6876912896021177
1.05178833007813,4.96368408203125e-06,0.9768676757812551,0.6727190007444784
1.0467529296875,4.8089599609375e-06,0.971832275390625,0.6517495243609893
1.04171752929688,4.61334228515625e-06,0.9667968750000051,0.6252378195053354
1.03668212890625,4.38446044921875e-06,0.961761474609375,0.5942178840268012
1.03164672851563,4.13421630859375e-06,0.9567260742187551,0.5603027545702706
1.026611328125,3.873291015625e-06,0.951690673828125,0.5249400281247415
1.02157592773438,3.60992431640625e-06,0.9466552734375051,0.48924642236744154
1.01654052734375,3.3514404296875e-06,0.941619873046875,0.4542145752336835
1.01150512695313,3.104248046875e-06,0.9365844726562551,0.4207130449168666
1.0064697265625,2.87689208984375e-06,0.931549072265625,0.38989990900818927
1.00143432617188,2.6727294921875e-06,0.9265136718750051,0.3622301265613368
0.99639892578125,2.493896484375e-06,0.921478271484375,0.3379932169741087
0.991363525390625,2.34283447265625e-06,0.91644287109375,0.31752005955827617
0.986328125,2.22137451171875e-06,0.911407470703125,0.3010588137976673
0.981292724609375,2.1295166015625e-06,0.9063720703125,0.28860947969228223
0.97625732421875,2.06573486328125e-06,0.901336669921875,0.27996525767226405
0.971221923828125,2.03216552734375e-06,0.89630126953125,0.2754156671354123
0.9661865234375,2.0263671875e-06,0.891265869140625,0.2746298287699562
0.961151123046875,2.04498291015625e-06,0.88623046875,0.2771527835222103
0.95611572265625,2.08648681640625e-06,0.881195068359375,0.2827777318223178
0.951080322265625,2.149658203125e-06,0.87615966796875,0.29133923401439327
0.946044921875,2.227783203125e-06,0.871124267578125,0.30192737199106623
0.941009521484375,2.31781005859375e-06,0.8660888671875,0.31412854661262307
0.93597412109375,2.4127197265625e-06,0.861053466796875,0.3269914798577219
0.930938720703125,2.5128173828125e-06,0.85601806640625,0.3405575316403342
0.9259033203125,2.611083984375e-06,0.850982666015625,0.3538754239391182
0.920867919921875,2.7001953125e-06,0.845947265625,0.3659525188187609
0.91583251953125,2.77740478515625e-06,0.840911865234375,0.3764165770535197
0.910797119140625,2.83782958984375e-06,0.83587646484375,0.38460584001985276
0.90576171875,2.87933349609375e-06,0.830841064453125,0.39023078831996033
0.900726318359375,2.89764404296875e-06,0.8258056640625,0.3927123831582431
0.89569091796875,2.8924560546875e-06,0.820770263671875,0.3920092646207296
0.890655517578125,2.86468505859375e-06,0.81573486328125,0.3882455124493341
0.8856201171875,2.81829833984375e-06,0.810699462890625,0.3819588055256845
0.880584716796875,2.75421142578125e-06,0.8056640625,0.3732732235916949
0.87554931640625,2.677001953125e-06,0.800628662109375,0.3628091653569361
0.870513916015625,2.59246826171875e-06,0.79559326171875,0.3513524691868641
0.865478515625,2.5042724609375e-06,0.790557861328125,0.3393994540491356
0.860443115234375,2.41790771484375e-06,0.7855224609375,0.32769459839523535
0.85540771484375,2.33795166015625e-06,0.780487060546875,0.31685830093473405
0.850372314453125,2.27142333984375e-06,0.77545166015625,0.30784183968897344
0.8453369140625,2.2210693359375e-06,0.770416259765625,0.30101745388369594
0.840301513671875,2.19146728515625e-06,0.765380859375,0.29700554222847214
0.83526611328125,2.18475341796875e-06,0.760345458984375,0.29609562412110185
0.830230712890625,2.2064208984375e-06,0.75531005859375,0.29903217801306975
0.8251953125,2.25738525390625e-06,0.750274658203125,0.30593928364629
0.820159912109375,2.34039306640625e-06,0.7452392578125,0.31718918024650505
0.81512451171875,2.45880126953125e-06,0.740203857421875,0.33323682686740014
0.810089111328125,2.61322021484375e-06,0.73516845703125,0.35416494333691784
0.8050537109375,2.80242919921875e-06,0.730133056640625,0.3798080899991728
0.800018310546875,3.02978515625e-06,0.72509765625,0.4106212259078501
0.79498291015625,3.287353515625e-06,0.720062255859375,0.4455289932996939
0.789947509765625,3.57757568359375e-06,0.71502685546875,0.4848622714864753
0.784912109375,3.89373779296875e-06,0.709991455078125,0.527711142360824
0.779876708984375,4.2291259765625e-06,0.7049560546875,0.5731656878153694
0.77484130859375,4.57794189453125e-06,0.699920654296875,0.6204400694846555
0.769805908203125,4.93072509765625e-06,0.69488525390625,0.6682521300355695
0.7647705078125,5.27435302734375e-06,0.689849853515625,0.7148233931673422
0.759735107421875,5.59661865234375e-06,0.684814453125,0.7584994623211184
0.75469970703125,5.885009765625e-06,0.679779052734375,0.7975845810240715
0.749664306640625,6.13494873046875e-06,0.67474365234375,0.8314583505666308
0.74462890625,6.318359375e-06,0.669708251953125,0.8563156588634296
0.739593505859375,6.43646240234375e-06,0.6646728515625,0.8723219455703531
0.73455810546875,6.48223876953125e-06,0.659637451171875,0.87852593266606
0.729522705078125,6.45416259765625e-06,0.65460205078125,0.8747208205806932
0.7244873046875,6.34552001953125e-06,0.649566650390625,0.8599966912068823
0.719451904296875,6.16912841796875e-06,0.64453125,0.8360906609314253
0.71441650390625,5.92742919921875e-06,0.639495849609375,0.8033336090660932
0.709381103515625,5.63140869140625e-06,0.63446044921875,0.7632144925138555
0.704345703125,5.29052734375e-06,0.629425048828125,0.7170154686078253
0.699310302734375,4.9237060546875e-06,0.6243896484375,0.6673008520142278
0.69427490234375,4.542236328125e-06,0.619354248046875,0.6156009595500042
0.689239501953125,4.16015625e-06,0.61431884765625,0.5638183472578377
0.6842041015625,3.78265380859375e-06,0.609283447265625,0.512656133675242
0.679168701171875,3.42315673828125e-06,0.604248046875,0.4639341550169576
0.67413330078125,3.08502197265625e-06,0.599212646484375,0.4181073703366697
0.669097900390625,2.7752685546875e-06,0.59417724609375,0.3761270576557201
0.6640625,2.493896484375e-06,0.589141845703125,0.3379932169741087
0.659027099609375,2.2418212890625e-06,0.5841064453125,0.3038299280337497
0.65399169921875,2.0208740234375e-06,0.579071044921875,0.27388535031847133
0.648956298828125,1.82769775390625e-06,0.57403564453125,0.24770452477458846
0.6439208984375,1.66015625e-06,0.569000244140625,0.22499793200430143
0.638885498046875,1.51702880859375e-06,0.56396484375,0.2056001323517247
0.63385009765625,1.39495849609375e-06,0.558929443359375,0.18905616676317313
0.628814697265625,1.29058837890625e-06,0.55389404296875,0.17491107618496154
0.623779296875,1.20208740234375e-06,0.548858642578125,0.16291670113326165
0.618743896484375,1.12823486328125e-06,0.5438232421875,0.15290760195218794
0.61370849609375,1.0662841796875e-06,0.538787841796875,0.144511539415998
0.608673095703125,1.0125732421875e-06,0.53375244140625,0.13723219455703534
0.6036376953125,9.6893310546875e-07,0.528717041015625,0.13131772685912813
0.598602294921875,9.3231201171875e-07,0.523681640625,0.12635453718256268
0.59356689453125,9.00878906250001e-07,0.518646240234375,0.12209446604351076
0.588531494140625,8.746337890625e-07,0.51361083984375,0.11853751344197205
0.58349609375,8.5174560546875e-07,0.508575439453125,0.11543551989411863
0.578460693359375,8.33740234374999e-07,0.5035400390625,0.11299528496980712
0.57342529296875,8.1787109375e-07,0.498504638671875,0.11084456944329557
0.568389892578125,8.0413818359375e-07,0.49346923828125,0.1089833733145835
0.5633544921875,7.92846679687501e-07,0.488433837890625,0.10745305649764263
0.558319091796875,7.83691406249999e-07,0.4833984375,0.10621225907850099
0.55328369140625,7.76062011718749e-07,0.478363037109375,0.1051782612292165
0.548248291015625,7.6873779296875e-07,0.47332763671875,0.10418562329390356
0.543212890625,7.623291015625e-07,0.468292236328125,0.10331706510050459
0.538177490234375,7.574462890625e-07,0.4632568359375,0.10265530647696253
0.53314208984375,7.537841796875e-07,0.458221435546875,0.10215898750930598
0.528106689453125,7.49816894531249e-07,0.45318603515625,0.10162130862767792
0.5230712890625,7.464599609375e-07,0.448150634765625,0.10116634957399288
0.518035888671875,7.44934082031251e-07,0.443115234375,0.10095955000413613
0.51300048828125,7.427978515625e-07,0.438079833984375,0.10067003060633635
0.507965087890625,7.4188232421875e-07,0.43304443359375,0.1005459508644222
0.5029296875,7.40356445312501e-07,0.428009033203125,0.10033915129456544
0.497894287109375,7.39746093749999e-07,0.4229736328125,0.10025643146662241
0.49285888671875,7.391357421875e-07,0.417938232421875,0.10017371163867979
0.487823486328125,7.38830566406251e-07,0.41290283203125,0.10013235172470855
0.4827880859375,7.391357421875e-07,0.407867431640625,0.10017371163867979
0.477752685546875,7.4005126953125e-07,0.40283203125,0.10029779138059393
0.47271728515625,7.4005126953125e-07,0.397796630859375,0.10029779138059393
0.467681884765625,7.39440917968749e-07,0.39276123046875,0.10021507155265104
0.462646484375,7.4005126953125e-07,0.387725830078125,0.10029779138059393
0.457611083984375,7.40966796874999e-07,0.3826904296875,0.10042187112250793
0.45257568359375,7.40966796875001e-07,0.377655029296875,0.10042187112250821
0.447540283203125,7.415771484375e-07,0.37261962890625,0.10050459095045082
0.4425048828125,7.415771484375e-07,0.367584228515625,0.10050459095045082
0.437469482421875,7.415771484375e-07,0.362548828125,0.10050459095045082
0.43243408203125,7.415771484375e-07,0.357513427734375,0.10050459095045082
0.427398681640625,7.41271972656249e-07,0.35247802734375,0.10046323103647932
0.42236328125,7.421875e-07,0.347442626953125,0.10058731077839358
0.417327880859375,7.427978515625e-07,0.3424072265625,0.10067003060633635
0.41229248046875,7.427978515625e-07,0.337371826171875,0.10067003060633635
0.407257080078125,7.43408203125e-07,0.33233642578125,0.1007527504342791
0.4022216796875,7.44018554687499e-07,0.327301025390625,0.10083547026222173
0.397186279296875,7.45849609375e-07,0.322265625,0.10108362974605013
0.39215087890625,7.47070312499999e-07,0.317230224609375,0.10124906940193551
0.387115478515625,7.476806640625e-07,0.31219482421875,0.10133178922987841
0.382080078125,7.5042724609375e-07,0.307159423828125,0.10170402845562082
0.377044677734375,7.51953124999999e-07,0.3021240234375,0.10191082802547757
0.37200927734375,7.5408935546875e-07,0.297088623046875,0.10220034742327735
0.366973876953125,7.568359375e-07,0.29205322265625,0.10257258664901976
0.3619384765625,7.59277343750001e-07,0.287017822265625,0.10290346596079095
0.356903076171875,7.62329101562499e-07,0.281982421875,0.10331706510050447
0.35186767578125,7.65075683593751e-07,0.276947021484375,0.10368930432624714
0.346832275390625,7.67822265625e-07,0.27191162109375,0.1040615435519894
0.341796875,7.71179199218749e-07,0.266876220703125,0.10451650260567444
0.336761474609375,7.7484130859375e-07,0.2618408203125,0.10501282157333112
0.33172607421875,7.7880859375e-07,0.256805419921875,0.10555050045495906
0.326690673828125,7.8277587890625e-07,0.25177001953125,0.10608817933658699
0.3216552734375,7.8643798828125e-07,0.246734619140625,0.10658449830424353
0.316619873046875,7.904052734375e-07,0.24169921875,0.10712217718587146
0.31158447265625,7.9498291015625e-07,0.236663818359375,0.10774257589544214
0.306549072265625,7.99560546875e-07,0.23162841796875,0.10836297460501283
0.301513671875,8.05053710937499e-07,0.226593017578125,0.10910745305649751
0.296478271484375,8.10852050781251e-07,0.2215576171875,0.10989329142195398
0.29144287109375,8.16650390625e-07,0.216522216796875,0.11067912978741004
0.286407470703125,8.2275390625e-07,0.21148681640625,0.11150632806683763
0.2813720703125,8.30078125e-07,0.206451416015625,0.11249896600215072
0.276336669921875,8.38317871093751e-07,0.201416015625,0.11361568367937809
0.27130126953125,8.46252441406251e-07,0.196380615234375,0.11469104144263394
0.266265869140625,8.55407714843751e-07,0.19134521484375,0.11593183886177531
0.26123046875,8.65783691406251e-07,0.186309814453125,0.11733807593680219
0.256195068359375,8.7738037109375e-07,0.1812744140625,0.11890975266771446
0.25115966796875,8.90502929687499e-07,0.176239013671875,0.12068822896848361
0.246124267578125,9.0484619140625e-07,0.17120361328125,0.12263214492513856
0.2410888671875,9.22241210937499e-07,0.166168212890625,0.12498966002150702
0.236053466796875,9.40551757812499e-07,0.1611328125,0.12747125485978977
0.23101806640625,9.63134765625001e-07,0.156097412109375,0.13053188849367206
0.225982666015625,9.88159179687501e-07,0.15106201171875,0.13392340143932516
0.220947265625,1.01776123046875e-06,0.146026611328125,0.13793531309454876
0.215911865234375,1.0528564453125e-06,0.1409912109375,0.14269170320125735
0.21087646484375,1.09405517578125e-06,0.135955810546875,0.1482752915873935
0.205841064453125,1.141357421875e-06,0.13092041015625,0.15468607825295724
0.2008056640625,1.197509765625e-06,0.125885009765625,0.16229630242369095
0.195770263671875,1.263427734375e-06,0.120849609375,0.1712300438415088
0.19073486328125,1.3409423828125e-06,0.115814208984375,0.18173546199023907
0.185699462890625,1.43280029296875e-06,0.11077880859375,0.1941847960956241
0.1806640625,1.54052734375e-06,0.105743408203125,0.20878484572752087
0.175628662109375,1.66595458984375e-06,0.1007080078125,0.22578377036975764
0.17059326171875,1.81396484375e-06,0.095672607421875,0.2458433286458764
0.165557861328125,1.98486328125e-06,0.09063720703125,0.2690048804698486
0.1605224609375,2.1820068359375e-06,0.085601806640625,0.2957233848953594
0.155487060546875,2.406005859375e-06,0.08056640625,0.3260815617503515
0.15045166015625,2.6617431640625e-06,0.075531005859375,0.36074116965836717
