Potential,Current,Normalized_Potential,Normalized_Current
1.50497436523438,7.97424316406251e-07,1.45523071289063,0.11453995528865135
1.49993896484375,8.41369628906249e-07,1.4501953125,0.12085214570639533
1.49490356445313,8.14208984375001e-07,1.44515991210938,0.11695086135098423
1.4898681640625,7.83691406249999e-07,1.44012451171875,0.11256739578310598
1.48483276367188,7.56530761718752e-07,1.43508911132813,0.10866611142769503
1.47979736328125,7.30590820312499e-07,1.4300537109375,0.10494016569499832
1.47476196289063,7.07092285156251e-07,1.42501831054688,0.10156489720773258
1.4697265625,6.86035156250001e-07,1.41998291015625,0.09854030596589677
1.46469116210938,6.67114257812501e-07,1.41494750976563,0.09582255731381244
1.45965576171875,6.500244140625e-07,1.409912109375,0.09336781659580064
1.45462036132813,6.34460449218749e-07,1.40487670898438,0.09113224915618275
1.4495849609375,6.20117187500001e-07,1.39984130859375,0.08907202033928038
1.44454956054688,6.08215332031251e-07,1.39480590820313,0.08736246876780798
1.43951416015625,5.96923828125e-07,1.3897705078125,0.08574058650769299
1.43447875976563,5.8685302734375e-07,1.38473510742188,0.08429404287029325
1.429443359375,5.7830810546875e-07,1.37969970703125,0.08306667251128744
1.42440795898438,5.70373535156251e-07,1.37466430664063,0.0819269714636393
1.41937255859375,5.63659667968749e-07,1.36962890625,0.08096260903870585
1.41433715820313,5.57861328125001e-07,1.36459350585938,0.08012975058080933
1.4093017578125,5.523681640625e-07,1.35955810546875,0.07934072677859116
1.40426635742188,5.48095703125e-07,1.35452270507813,0.07872704159908823
1.39923095703125,5.438232421875e-07,1.3494873046875,0.07811335641958532
1.39419555664063,5.40771484374999e-07,1.34445190429688,0.07767500986279739
1.38916015625,5.38330078125e-07,1.33941650390625,0.07732433261736729
1.38412475585938,5.3558349609375e-07,1.33438110351563,0.07692982071625827
1.37908935546875,5.3436279296875e-07,1.329345703125,0.07675448209354316
1.37405395507813,5.3253173828125e-07,1.32431030273438,0.07649147415947048
1.3690185546875,5.30700683593749e-07,1.31927490234375,0.07622846622539765
1.36398315429688,5.2978515625e-07,1.31423950195313,0.07609696225836146
1.35894775390625,5.3009033203125e-07,1.3092041015625,0.07614079691404024
1.35391235351563,5.30700683593749e-07,1.30416870117188,0.07622846622539765
1.348876953125,5.30700683593749e-07,1.29913330078125,0.07622846622539765
1.34384155273438,5.31311035156251e-07,1.29409790039063,0.07631613553675551
1.33880615234375,5.3253173828125e-07,1.2890625,0.07649147415947048
1.33377075195313,5.3314208984375e-07,1.28402709960938,0.07657914347082803
1.3287353515625,5.34973144531249e-07,1.27899169921875,0.07684215140490057
1.32369995117188,5.36193847656249e-07,1.27395629882813,0.0770174900276157
1.31866455078125,5.37719726562501e-07,1.2689208984375,0.07723666330600987
1.31362915039063,5.39550781249999e-07,1.26388549804688,0.07749967124008227
1.30859375,5.41076660156249e-07,1.25885009765625,0.07771884451847617
1.30355834960938,5.43518066406251e-07,1.25381469726563,0.07806952176390669
1.29852294921875,5.4473876953125e-07,1.248779296875,0.07824486038662166
1.29348754882813,5.462646484375e-07,1.24374389648438,0.07846403366501556
1.2884521484375,5.4779052734375e-07,1.23870849609375,0.07868320694340947
1.28341674804688,5.49926757812501e-07,1.23367309570313,0.07899004953316106
1.27838134765625,5.517578125e-07,1.2286376953125,0.07925305746723359
1.27334594726563,5.53283691406251e-07,1.22360229492188,0.07947223074562763
1.268310546875,5.5572509765625e-07,1.21856689453125,0.07982290799105773
1.26327514648438,5.57861328125e-07,1.21353149414063,0.08012975058080919
1.25823974609375,5.60913085937499e-07,1.20849609375,0.08056809713759683
1.25320434570313,5.63659667968751e-07,1.20346069335938,0.08096260903870614
1.2481689453125,5.66711425781249e-07,1.19842529296875,0.08140095559549367
1.24313354492188,5.7098388671875e-07,1.19338989257813,0.08201464077499672
1.23809814453125,5.755615234375e-07,1.1883544921875,0.0826721606101784
1.23306274414063,5.810546875e-07,1.18331909179688,0.08346118441239644
1.22802734375,5.8746337890625e-07,1.17828369140625,0.08438171218165082
1.22299194335938,5.9478759765625e-07,1.17324829101563,0.08543374391794152
1.21795654296875,6.03637695312501e-07,1.168212890625,0.08670494893262629
1.21292114257813,6.14318847656249e-07,1.16317749023438,0.08823916188138328
1.2078857421875,6.26220703124999e-07,1.15814208984375,0.0899487134528557
1.20285034179688,6.40258789062499e-07,1.15310668945313,0.09196510761407956
1.19781494140625,6.57348632812501e-07,1.1480712890625,0.0944198483320915
1.19277954101563,6.768798828125e-07,1.14303588867188,0.09722526629553324
1.187744140625,6.99768066406249e-07,1.13800048828125,0.10051286547144159
1.18270874023438,7.27539062499999e-07,1.13296508789063,0.10450181913821054
1.17767333984375,7.598876953125e-07,1.1279296875,0.1091482926401613
1.17263793945313,7.97424316406249e-07,1.12289428710938,0.11453995528865106
1.1676025390625,8.41369628906251e-07,1.11785888671875,0.12085214570639562
1.16256713867188,8.9447021484375e-07,1.11282348632813,0.12847937579450314
1.15753173828125,9.5794677734375e-07,1.1077880859375,0.1375969841756893
1.15249633789063,1.031494140625e-06,1.10275268554688,0.14816113619427518
1.1474609375,1.11724853515625e-06,1.09771728515625,0.16047867444001226
1.14242553710938,1.21978759765625e-06,1.09268188476563,0.17520711874808223
1.13739013671875,1.339111328125e-06,1.087646484375,0.19234646911848508
1.13235473632813,1.4788818359375e-06,1.08261108398438,0.21242274141936615
1.1273193359375,1.6387939453125e-06,1.07757568359375,0.23539210099504668
1.12228393554688,1.82647705078125e-06,1.07254028320313,0.26235041423749617
1.11724853515625,2.04010009765625e-06,1.0675048828125,0.2930346732126419
1.11221313476563,2.2821044921875e-06,1.06246948242188,0.3277955551659142
1.107177734375,2.55279541015625e-06,1.05743408203125,0.3666768947529917
1.10214233398438,2.85552978515625e-06,1.05239868164063,0.41016087318634115
1.09710693359375,3.18389892578125e-06,1.04736328125,0.45732696269670803
1.09207153320313,3.53668212890625e-06,1.04232788085938,0.5079998246613773
1.0870361328125,3.9111328125e-06,1.03729248046875,0.5617849471792399
1.08200073242188,4.29901123046875e-06,1.03225708007813,0.6174987945469688
1.07696533203125,4.6923828125e-06,1.0272216796875,0.6740016657169158
1.07192993164063,5.0811767578125e-06,1.02218627929688,0.7298470170516811
1.06689453125,5.45501708984375e-06,1.01715087890625,0.7835444702581861
1.06185913085938,5.8001708984375e-06,1.01211547851563,0.833121465830886
1.05682373046875,6.104736328125e-06,1.007080078125,0.876868452198308
1.05178833007813,6.3543701171875e-06,1.00204467773438,0.9127252005435497
1.0467529296875,6.5423583984375e-06,0.99700927734375,0.9397273484416779
1.04171752929688,6.65924072265625e-06,0.9919738769531301,0.9565160215666505
1.03668212890625,6.6986083984375e-06,0.9869384765625,0.9621706921492131
1.03164672851563,6.65985107421875e-06,0.9819030761718801,0.9566036908780082
1.026611328125,6.54510498046875e-06,0.97686767578125,0.940121860342787
1.02157592773438,6.36138916015625e-06,0.9718322753906301,0.9137333976241616
1.01654052734375,6.11114501953125e-06,0.966796875,0.8777889799675624
1.01150512695313,5.8111572265625e-06,0.9617614746093801,0.834699513435322
1.0064697265625,5.47515869140625e-06,0.95672607421875,0.7864375575329855
1.00143432617188,5.11505126953125e-06,0.9516906738281301,0.7347126638320256
0.99639892578125,4.74365234375e-06,0.9466552734375,0.6813658878709508
0.991363525390625,4.3743896484375e-06,0.941619873046875,0.6283259544996274
0.986328125,4.0203857421875e-06,0.93658447265625,0.577477753912243
0.981292724609375,3.687744140625e-06,0.931549072265625,0.5296979792223733
0.97625732421875,3.3819580078125e-06,0.926513671875,0.485775654232236
0.971221923828125,3.114013671875e-06,0.921478271484375,0.4472888265462675
0.9661865234375,2.88482666015625e-06,0.91644287109375,0.41436900013150396
0.961151123046875,2.6971435546875e-06,0.911407470703125,0.3874106868890545
0.95611572265625,2.55126953125e-06,0.9063720703125,0.36645772147459776
0.951080322265625,2.44903564453125e-06,0.901336669921875,0.35177311182220666
0.946044921875,2.39013671875e-06,0.89630126953125,0.34331302327620217
0.941009521484375,2.37274169921875e-06,0.891265869140625,0.34081444790251175
0.93597412109375,2.39227294921875e-06,0.88623046875,0.3436198658659536
0.930938720703125,2.45086669921875e-06,0.881195068359375,0.35203611975627935
0.9259033203125,2.54058837890625e-06,0.87615966796875,0.36492350852584055
0.920867919921875,2.65655517578125e-06,0.871124267578125,0.3815806776837768
0.91583251953125,2.791748046875e-06,0.8660888671875,0.4009994301494762
0.910797119140625,2.93914794921875e-06,0.861053466796875,0.42217156884232676
0.90576171875,3.0926513671875e-06,0.85601806640625,0.4442204006487529
0.900726318359375,3.24127197265625e-06,0.850982666015625,0.4655678779643186
0.89569091796875,3.37860107421875e-06,0.845947265625,0.48529347301976944
0.890655517578125,3.4991455078125e-06,0.840911865234375,0.5026081620128874
0.8856201171875,3.592529296875e-06,0.83587646484375,0.516021566650594
0.880584716796875,3.65386962890625e-06,0.830841064453125,0.5248323324420286
0.87554931640625,3.681640625e-06,0.8258056640625,0.5288212861087976
0.870513916015625,3.67340087890625e-06,0.820770263671875,0.5276377504054706
0.865478515625,3.6279296875e-06,0.81573486328125,0.5211063867093324
0.860443115234375,3.5498046875e-06,0.810699462890625,0.5098847148555649
0.85540771484375,3.44268798828125e-06,0.8056640625,0.49449875071231314
0.850372314453125,3.3154296875e-06,0.800628662109375,0.47621969929426206
0.8453369140625,3.1732177734375e-06,0.79559326171875,0.45579274974795075
0.840301513671875,3.02490234375e-06,0.790557861328125,0.4344891070880638
0.83526611328125,2.877197265625e-06,0.7855224609375,0.4132731337395345
0.830230712890625,2.73834228515625e-06,0.780487060546875,0.3933283654056898
0.8251953125,2.61260986328125e-06,0.77545166015625,0.37526848726603257
0.820159912109375,2.50640869140625e-06,0.770416259765625,0.36001402708981717
0.81512451171875,2.42645263671875e-06,0.765380859375,0.34852934730197693
0.810089111328125,2.3760986328125e-06,0.760345458984375,0.3412966291149783
0.8050537109375,2.3577880859375e-06,0.75531005859375,0.3386665497742515
0.800018310546875,2.3785400390625e-06,0.750274658203125,0.3416473063604085
0.79498291015625,2.43194580078125e-06,0.7452392578125,0.34931837110419495
0.789947509765625,2.52777099609375e-06,0.740203857421875,0.36308245298733177
0.784912109375,2.666015625e-06,0.73516845703125,0.38293955200981894
0.779876708984375,2.8448486328125e-06,0.730133056640625,0.4086266602375838
0.77484130859375,3.065185546875e-06,0.72509765625,0.4402752816376627
0.769805908203125,3.3245849609375e-06,0.720062255859375,0.4775347389646254
0.7647705078125,3.62030029296875e-06,0.71502685546875,0.520010520317363
0.759735107421875,3.9453125e-06,0.709991455078125,0.5666944286152632
0.75469970703125,4.29656982421875e-06,0.7049560546875,0.6171481173015386
0.749664306640625,4.66705322265625e-06,0.699920654296875,0.6703633892955772
0.74462890625,5.03814697265625e-06,0.69488525390625,0.7236663306009731
0.739593505859375,5.404052734375e-06,0.689849853515625,0.7762240827598299
0.73455810546875,5.75408935546875e-06,0.684814453125,0.8265024328233902
0.729522705078125,6.07025146484375e-06,0.679779052734375,0.8719151361066059
0.7244873046875,6.34185791015625e-06,0.67474365234375,0.9109279796607197
0.719451904296875,6.55609130859375e-06,0.669708251953125,0.941699907947223
0.71441650390625,6.700439453125e-06,0.6646728515625,0.9624337000832859
0.709381103515625,6.76727294921875e-06,0.659637451171875,0.9720334896769386
0.704345703125,6.75323486328125e-06,0.65460205078125,0.9700170955157147
0.699310302734375,6.65374755859375e-06,0.649566650390625,0.9557269977644326
0.69427490234375,6.4813232421875e-06,0.64453125,0.9309604173059222
0.689239501953125,6.23291015625e-06,0.639495849609375,0.8952790075833954
0.6842041015625,5.92620849609375e-06,0.63446044921875,0.8512251786262219
0.679168701171875,5.5682373046875e-06,0.629425048828125,0.7998071275150134
0.67413330078125,5.1788330078125e-06,0.6243896484375,0.7438741068688906
0.669097900390625,4.7711181640625e-06,0.619354248046875,0.6853110068820409
0.6640625,4.35577392578125e-06,0.61431884765625,0.6256520405032219
0.659027099609375,3.9447021484375e-06,0.609283447265625,0.5666067593039057
0.65399169921875,3.55224609375e-06,0.604248046875,0.5102353921009951
0.648956298828125,3.1829833984375e-06,0.599212646484375,0.4571954587296717
0.6439208984375,2.84210205078125e-06,0.59417724609375,0.40823214833647486
0.638885498046875,2.5335693359375e-06,0.589141845703125,0.3639153114452286
0.63385009765625,2.25830078125e-06,0.5841064453125,0.32437645202296933
0.628814697265625,2.0159912109375e-06,0.579071044921875,0.2895717354140183
0.623779296875,1.80328369140625e-06,0.57403564453125,0.25901898040590887
0.618743896484375,1.62017822265625e-06,0.569000244140625,0.2327181869986411
0.61370849609375,1.463623046875e-06,0.56396484375,0.21023100863542718
0.608673095703125,1.33148193359375e-06,0.558929443359375,0.1912506027265156
0.6036376953125,1.21795654296875e-06,0.55389404296875,0.17494411081400957
0.598602294921875,1.12396240234375e-06,0.548858642578125,0.16144303686494543
0.59356689453125,1.044921875e-06,0.5438232421875,0.1500898610441415
0.588531494140625,9.783935546875e-07,0.538787841796875,0.14053390610616753
0.58349609375,9.22546386718751e-07,0.53375244140625,0.132512164116951
0.578460693359375,8.7738037109375e-07,0.528717041015625,0.12602463507649148
0.57342529296875,8.38623046874999e-07,0.523681640625,0.12045763380528632
0.568389892578125,8.06884765625e-07,0.518646240234375,0.11589882961469339
0.5633544921875,7.8094482421875e-07,0.51361083984375,0.11217288388199712
0.558319091796875,7.58666992187501e-07,0.508575439453125,0.10897295401744633
0.55328369140625,7.4066162109375e-07,0.5035400390625,0.10638670933239819
0.548248291015625,7.2540283203125e-07,0.498504638671875,0.1041949765484592
0.543212890625,7.1258544921875e-07,0.49346923828125,0.10235392100995046
0.538177490234375,7.0220947265625e-07,0.488433837890625,0.10086354271687195
0.53314208984375,6.9305419921875e-07,0.4833984375,0.09954850304650857
0.528106689453125,6.854248046875e-07,0.478363037109375,0.09845263665453909
0.5230712890625,6.78405761718751e-07,0.47332763671875,0.0974444395739273
0.518035888671875,6.73217773437501e-07,0.468292236328125,0.09669925042738804
0.51300048828125,6.683349609375e-07,0.4632568359375,0.09599789593652741
0.507965087890625,6.640625e-07,0.458221435546875,0.09538421075702451
0.5029296875,6.60400390624999e-07,0.45318603515625,0.094858194888879
0.497894287109375,6.5765380859375e-07,0.448150634765625,0.09446368298777014
0.49285888671875,6.55212402343749e-07,0.443115234375,0.09411300574233976
0.487823486328125,6.5277099609375e-07,0.438079833984375,0.09376232849690966
0.4827880859375,6.50634765625e-07,0.43304443359375,0.0934554859071582
0.477752685546875,6.49108886718751e-07,0.428009033203125,0.09323631262876445
0.47271728515625,6.47888183593751e-07,0.4229736328125,0.09306097400604933
0.467681884765625,6.4697265625e-07,0.417938232421875,0.09292947003901285
0.462646484375,6.46057128906249e-07,0.41290283203125,0.09279796607197636
0.457611083984375,6.44836425781249e-07,0.407867431640625,0.09262262744926125
0.45257568359375,6.4422607421875e-07,0.40283203125,0.09253495813790383
0.447540283203125,6.4422607421875e-07,0.397796630859375,0.09253495813790383
0.4425048828125,6.4422607421875e-07,0.39276123046875,0.09253495813790383
0.437469482421875,6.439208984375e-07,0.387725830078125,0.09249112348222505
0.43243408203125,6.43005371093751e-07,0.3826904296875,0.09235961951518885
0.427398681640625,6.4208984375e-07,0.377655029296875,0.09222811554815237
0.42236328125,6.41479492187499e-07,0.37261962890625,0.09214044623679465
0.417327880859375,6.4117431640625e-07,0.367584228515625,0.09209661158111604
0.41229248046875,6.40869140625e-07,0.362548828125,0.09205277692543726
0.407257080078125,6.39648437500001e-07,0.357513427734375,0.09187743830272228
0.4022216796875,6.3934326171875e-07,0.35247802734375,0.09183360364704335
0.397186279296875,6.390380859375e-07,0.347442626953125,0.09178976899136457
0.39215087890625,6.390380859375e-07,0.3424072265625,0.09178976899136457
0.387115478515625,6.38732910156251e-07,0.337371826171875,0.09174593433568594
0.382080078125,6.396484375e-07,0.33233642578125,0.09187743830272213
0.377044677734375,6.40869140625e-07,0.327301025390625,0.09205277692543726
0.37200927734375,6.4056396484375e-07,0.322265625,0.09200894226975848
0.366973876953125,6.4208984375e-07,0.317230224609375,0.09222811554815237
0.3619384765625,6.4361572265625e-07,0.31219482421875,0.09244728882654628
0.356903076171875,6.46362304687499e-07,0.307159423828125,0.09284180072765513
0.35186767578125,6.48193359375e-07,0.3021240234375,0.09310480866172796
0.346832275390625,6.5032958984375e-07,0.297088623046875,0.09341165125147942
0.341796875,6.53686523437501e-07,0.29205322265625,0.09389383246394614
0.336761474609375,6.5643310546875e-07,0.287017822265625,0.09428834436505502
0.33172607421875,6.6070556640625e-07,0.281982421875,0.09490202954455793
0.326690673828125,6.64672851562501e-07,0.276947021484375,0.0954718800683822
0.3216552734375,6.69250488281251e-07,0.27191162109375,0.0961293999035639
0.316619873046875,6.744384765625e-07,0.266876220703125,0.09687458905010302
0.31158447265625,6.79321289062501e-07,0.2618408203125,0.09757594354096363
0.306549072265625,6.84814453125e-07,0.256805419921875,0.09836496734318152
0.301513671875,6.9091796875e-07,0.25177001953125,0.09924166045675711
0.296478271484375,6.97937011718751e-07,0.246734619140625,0.10024985753736919
0.29144287109375,7.05871582031251e-07,0.24169921875,0.10138955858501746
0.286407470703125,7.12890625000001e-07,0.236663818359375,0.10239775566562939
0.2813720703125,7.220458984375e-07,0.23162841796875,0.10371279533599263
0.276336669921875,7.305908203125e-07,0.226593017578125,0.10494016569499846
0.27130126953125,7.4005126953125e-07,0.2215576171875,0.10629904002104064
0.266265869140625,7.50122070312501e-07,0.216522216796875,0.1077455836584405
0.26123046875,7.60498046875e-07,0.21148681640625,0.10923596195151887
0.256195068359375,7.7239990234375e-07,0.206451416015625,0.11094551352299127
0.25115966796875,7.843017578125e-07,0.201416015625,0.11265506509446369
0.246124267578125,7.97119140624999e-07,0.196380615234375,0.11449612063297228
0.2410888671875,8.11157226562499e-07,0.19134521484375,0.11651251479419615
0.236053466796875,8.26110839843749e-07,0.186309814453125,0.11866041292245634
0.23101806640625,8.41674804687501e-07,0.1812744140625,0.1208959803620744
0.225982666015625,8.587646484375e-07,0.176239013671875,0.1233507210800859
0.220947265625,8.770751953125e-07,0.17120361328125,0.1259808004208127
0.215911865234375,8.97216796875e-07,0.166168212890625,0.12887388769561214
0.21087646484375,9.17968749999999e-07,0.1611328125,0.13185464428176902
0.205841064453125,9.417724609375e-07,0.156097412109375,0.13527374742471399
0.2008056640625,9.67102050781249e-07,0.15106201171875,0.13891202384605256
0.195770263671875,9.95788574218749e-07,0.146026611328125,0.1430324814798578
0.19073486328125,1.0272216796875e-06,0.1409912109375,0.1475474510147723
0.185699462890625,1.06353759765625e-06,0.135955810546875,0.15276377504054706
0.1806640625,1.10382080078125e-06,0.13092041015625,0.15854994959014598
0.175628662109375,1.15081787109375e-06,0.125885009765625,0.16530048656467802
0.17059326171875,1.2060546875e-06,0.120849609375,0.17323455924253714
0.165557861328125,1.26922607421875e-06,0.115814208984375,0.18230833296804455
0.1605224609375,1.34368896484375e-06,0.11077880859375,0.19300398895366677
0.155487060546875,1.4312744140625e-06,0.105743408203125,0.20558453513347652
0.15045166015625,1.5350341796875e-06,0.1007080078125,0.22048831806426158
0.145416259765625,1.65771484375e-06,0.095672607421875,0.23810984964713103
0.140380859375,1.800537109375e-06,0.09063720703125,0.25862446850479986
