Potential,Current,Normalized_Potential,Normalized_Current
1.50497436523438,6.16455078125e-07,1.45523071289063,0.0898576512455516
1.49993896484375,6.70166015625001e-07,1.4501953125,0.09768683274021367
1.49490356445313,6.5521240234375e-07,1.44515991210938,0.09550711743772242
1.4898681640625,6.37207031249998e-07,1.44012451171875,0.09288256227757978
1.48483276367188,6.2042236328125e-07,1.43508911132813,0.09043594306049822
1.47979736328125,6.04248046875e-07,1.4300537109375,0.08807829181494663
1.47476196289063,5.90820312500001e-07,1.42501831054688,0.0861209964412813
1.4697265625,5.78002929687499e-07,1.41998291015625,0.08425266903914576
1.46469116210938,5.6610107421875e-07,1.41494750976563,0.08251779359430605
1.45965576171875,5.55419921875e-07,1.409912109375,0.0809608540925267
1.45462036132813,5.45959472656252e-07,1.40487670898438,0.07958185053380812
1.4495849609375,5.37414550781251e-07,1.39984130859375,0.07833629893238449
1.44454956054688,5.29174804687499e-07,1.39480590820313,0.07713523131672582
1.43951416015625,5.22766113281251e-07,1.3897705078125,0.07620106761565852
1.43447875976563,5.16662597656248e-07,1.38473510742188,0.07531138790035558
1.429443359375,5.10864257812499e-07,1.37969970703125,0.07446619217081836
1.42440795898438,5.06591796875e-07,1.37466430664063,0.07384341637010676
1.41937255859375,5.0201416015625e-07,1.36962890625,0.07317615658362989
1.41433715820313,4.9896240234375e-07,1.36459350585938,0.07273131672597864
1.4093017578125,4.95605468750002e-07,1.35955810546875,0.07224199288256257
1.40426635742188,4.9285888671875e-07,1.35452270507813,0.07184163701067617
1.39923095703125,4.91638183593751e-07,1.3494873046875,0.07166370106761581
1.39419555664063,4.888916015625e-07,1.34445190429688,0.07126334519572954
1.38916015625,4.87976074218752e-07,1.33941650390625,0.07112989323843447
1.38412475585938,4.87060546874998e-07,1.33438110351563,0.07099644128113851
1.37908935546875,4.8675537109375e-07,1.329345703125,0.07095195729537367
1.37405395507813,4.85839843750002e-07,1.32431030273438,0.07081850533807858
1.3690185546875,4.8614501953125e-07,1.31927490234375,0.07086298932384341
1.36398315429688,4.86450195312502e-07,1.31423950195313,0.07090747330960884
1.35894775390625,4.87060546874998e-07,1.3092041015625,0.07099644128113851
1.35391235351563,4.87670898437501e-07,1.30416870117188,0.07108540925266918
1.348876953125,4.8828125e-07,1.29913330078125,0.0711743772241993
1.34384155273438,4.89501953124999e-07,1.29409790039063,0.07135231316725964
1.33880615234375,4.90722656250001e-07,1.2890625,0.07153024911032042
1.33377075195313,4.92248535156251e-07,1.28402709960938,0.07175266903914605
1.3287353515625,4.92553710937499e-07,1.27899169921875,0.07179715302491088
1.32369995117188,4.94079589843749e-07,1.27395629882813,0.07201957295373651
1.31866455078125,4.95300292968751e-07,1.2689208984375,0.0721975088967973
1.31362915039063,4.974365234375e-07,1.26388549804688,0.07250889679715301
1.30859375,4.98352050781251e-07,1.25885009765625,0.07264234875444854
1.30355834960938,4.99267578125001e-07,1.25381469726563,0.07277580071174393
1.29852294921875,5.01403808593751e-07,1.248779296875,0.07308718861209978
1.29348754882813,5.0201416015625e-07,1.24374389648438,0.07317615658362989
1.2884521484375,5.03845214843751e-07,1.23870849609375,0.07344306049822077
1.28341674804688,5.0567626953125e-07,1.23367309570313,0.0737099644128114
1.27838134765625,5.07202148437502e-07,1.2286376953125,0.0739323843416373
1.27334594726563,5.09948730468751e-07,1.22360229492188,0.07433274021352328
1.268310546875,5.12390136718752e-07,1.21856689453125,0.07468861209964442
1.26327514648438,5.157470703125e-07,1.21353149414063,0.07517793594306049
1.25823974609375,5.19104003906248e-07,1.20849609375,0.07566725978647658
1.25320434570313,5.23071289062502e-07,1.20346069335938,0.07624555160142378
1.2481689453125,5.279541015625e-07,1.19842529296875,0.07695729537366548
1.24313354492188,5.34362792968748e-07,1.19338989257813,0.07789145907473281
1.23809814453125,5.4168701171875e-07,1.1883544921875,0.07895907473309607
1.23306274414063,5.50231933593751e-07,1.18331909179688,0.08020462633451972
1.22802734375,5.61218261718751e-07,1.17828369140625,0.0818060498220642
1.22299194335938,5.73425292968749e-07,1.17324829101563,0.08358540925266889
1.21795654296875,5.88378906250001e-07,1.168212890625,0.08576512455516029
1.21292114257813,6.06689453125001e-07,1.16317749023438,0.08843416370106777
1.2078857421875,6.27441406250001e-07,1.15814208984375,0.09145907473309624
1.20285034179688,6.53381347656251e-07,1.15310668945313,0.09524021352313182
1.19781494140625,6.829833984375e-07,1.1480712890625,0.09955516014234876
1.19277954101563,7.19604492187498e-07,1.14303588867188,0.10489323843416341
1.187744140625,7.623291015625e-07,1.13800048828125,0.11112099644128114
1.18270874023438,8.14208984374999e-07,1.13296508789063,0.11868327402135218
1.17767333984375,8.746337890625e-07,1.1279296875,0.12749110320284698
1.17263793945313,9.4635009765625e-07,1.12289428710938,0.13794483985765124
1.1676025390625,1.03179931640625e-06,1.11785888671875,0.15040035587188613
1.16256713867188,1.134033203125e-06,1.11282348632813,0.16530249110320283
1.15753173828125,1.253662109375e-06,1.1077880859375,0.18274021352313166
1.15249633789063,1.39556884765625e-06,1.10275268554688,0.2034252669039146
1.1474609375,1.56158447265625e-06,1.09771728515625,0.22762455516014235
1.14242553710938,1.7559814453125e-06,1.09268188476563,0.25596085409252667
1.13739013671875,1.981201171875e-06,1.087646484375,0.28879003558718863
1.13235473632813,2.239990234375e-06,1.08261108398438,0.32651245551601427
1.1273193359375,2.53631591796875e-06,1.07757568359375,0.3697064056939502
1.12228393554688,2.87261962890625e-06,1.07254028320313,0.4187277580071175
1.11724853515625,3.24951171875e-06,1.0675048828125,0.47366548042704626
1.11221313476563,3.6676025390625e-06,1.06246948242188,0.5346085409252669
1.107177734375,4.124755859375e-06,1.05743408203125,0.6012455516014235
1.10214233398438,4.620361328125e-06,1.05239868164063,0.6734875444839858
1.09710693359375,5.146484375e-06,1.04736328125,0.7501779359430606
1.09207153320313,5.69610595703125e-06,1.04232788085938,0.8302935943060499
1.0870361328125,6.259765625e-06,1.03729248046875,0.9124555160142349
1.08200073242188,6.8310546875e-06,1.03225708007813,0.9957295373665481
1.07696533203125,7.3919677734375e-06,1.0272216796875,1.077491103202847
1.07192993164063,7.92816162109375e-06,1.02218627929688,1.155649466192171
1.06689453125,8.42681884765625e-06,1.01715087890625,1.2283362989323843
1.06185913085938,8.8775634765625e-06,1.01211547851563,1.2940391459074734
1.05682373046875,9.2620849609375e-06,1.007080078125,1.3500889679715302
1.05178833007813,9.5672607421875e-06,1.00204467773438,1.394572953736655
1.0467529296875,9.7869873046875e-06,0.99700927734375,1.4266014234875444
1.04171752929688,9.918212890625e-06,0.9919738769531301,1.4457295373665482
1.03668212890625,9.9517822265625e-06,0.9869384765625,1.4506227758007118
1.03164672851563,9.8876953125e-06,0.9819030761718801,1.4412811387900357
1.026611328125,9.72900390625e-06,0.97686767578125,1.4181494661921707
1.02157592773438,9.4818115234375e-06,0.9718322753906301,1.38211743772242
1.01654052734375,9.144287109375e-06,0.966796875,1.3329181494661924
1.01150512695313,8.73016357421875e-06,0.9617614746093801,1.2725533807829181
1.0064697265625,8.26324462890625e-06,0.95672607421875,1.2044928825622776
1.00143432617188,7.750244140625e-06,0.9516906738281301,1.1297153024911033
0.99639892578125,7.21038818359375e-06,0.9466552734375,1.051023131672598
0.991363525390625,6.66595458984375e-06,0.941619873046875,0.9716637010676157
0.986328125,6.13555908203125e-06,0.93658447265625,0.8943505338078293
0.981292724609375,5.62744140625e-06,0.931549072265625,0.8202846975088969
0.97625732421875,5.15838623046875e-06,0.926513671875,0.7519128113879004
0.971221923828125,4.74365234375e-06,0.921478271484375,0.6914590747330961
0.9661865234375,4.3878173828125e-06,0.91644287109375,0.6395907473309608
0.961151123046875,4.09881591796875e-06,0.911407470703125,0.597464412811388
0.95611572265625,3.87786865234375e-06,0.9063720703125,0.5652580071174377
0.951080322265625,3.72772216796875e-06,0.901336669921875,0.5433718861209964
0.946044921875,3.65020751953125e-06,0.89630126953125,0.5320729537366548
0.941009521484375,3.64105224609375e-06,0.891265869140625,0.530738434163701
0.93597412109375,3.6981201171875e-06,0.88623046875,0.5390569395017794
0.930938720703125,3.81927490234375e-06,0.881195068359375,0.5567170818505338
0.9259033203125,3.99627685546875e-06,0.87615966796875,0.5825177935943061
0.920867919921875,4.2156982421875e-06,0.871124267578125,0.6145017793594306
0.91583251953125,4.46746826171875e-06,0.8660888671875,0.6512010676156583
0.910797119140625,4.73968505859375e-06,0.861053466796875,0.6908807829181495
0.90576171875,5.0177001953125e-06,0.85601806640625,0.731405693950178
0.900726318359375,5.28778076171875e-06,0.850982666015625,0.7707740213523132
0.89569091796875,5.53375244140625e-06,0.845947265625,0.8066281138790036
0.890655517578125,5.7464599609375e-06,0.840911865234375,0.8376334519572953
0.8856201171875,5.91094970703125e-06,0.83587646484375,0.8616103202846975
0.880584716796875,6.01898193359375e-06,0.830841064453125,0.8773576512455515
0.87554931640625,6.0650634765625e-06,0.8258056640625,0.8840747330960854
0.870513916015625,6.044921875e-06,0.820770263671875,0.8811387900355873
0.865478515625,5.963134765625e-06,0.81573486328125,0.8692170818505338
0.860443115234375,5.81695556640625e-06,0.810699462890625,0.8479092526690392
0.85540771484375,5.61798095703125e-06,0.8056640625,0.818905693950178
0.850372314453125,5.37689208984375e-06,0.800628662109375,0.7837633451957295
0.8453369140625,5.106201171875e-06,0.79559326171875,0.744306049822064
0.840301513671875,4.81475830078125e-06,0.790557861328125,0.70182384341637
0.83526611328125,4.51934814453125e-06,0.7855224609375,0.6587633451957295
0.830230712890625,4.232177734375e-06,0.780487060546875,0.6169039145907473
0.8251953125,3.96270751953125e-06,0.77545166015625,0.5776245551601423
0.820159912109375,3.71978759765625e-06,0.770416259765625,0.5422153024911032
0.81512451171875,3.5162353515625e-06,0.765380859375,0.5125444839857651
0.810089111328125,3.35662841796875e-06,0.760345458984375,0.489279359430605
0.8050537109375,3.24615478515625e-06,0.75531005859375,0.47317615658362994
0.800018310546875,3.19183349609375e-06,0.750274658203125,0.46525800711743776
0.79498291015625,3.187255859375e-06,0.7452392578125,0.4645907473309609
0.789947509765625,3.24462890625e-06,0.740203857421875,0.4729537366548043
0.784912109375,3.358154296875e-06,0.73516845703125,0.4895017793594306
0.779876708984375,3.52874755859375e-06,0.730133056640625,0.5143683274021352
0.77484130859375,3.758544921875e-06,0.72509765625,0.547864768683274
0.769805908203125,4.0411376953125e-06,0.720062255859375,0.5890569395017794
0.7647705078125,4.371337890625e-06,0.71502685546875,0.6371886120996442
0.759735107421875,4.74273681640625e-06,0.709991455078125,0.6913256227758007
0.75469970703125,5.1470947265625e-06,0.7049560546875,0.7502669039145907
0.749664306640625,5.57464599609375e-06,0.699920654296875,0.8125889679715302
0.74462890625,6.00433349609375e-06,0.69488525390625,0.8752224199288257
0.739593505859375,6.4276123046875e-06,0.689849853515625,0.9369217081850534
0.73455810546875,6.832275390625e-06,0.684814453125,0.9959074733096085
0.729522705078125,7.1966552734375e-06,0.679779052734375,1.0490213523131673
0.7244873046875,7.51068115234375e-06,0.67474365234375,1.0947953736654803
0.719451904296875,7.75482177734375e-06,0.669708251953125,1.13038256227758
0.71441650390625,7.92449951171875e-06,0.6646728515625,1.1551156583629894
0.709381103515625,8.0084228515625e-06,0.659637451171875,1.1673487544483985
0.704345703125,8.00048828125e-06,0.65460205078125,1.1661921708185055
0.699310302734375,7.900390625e-06,0.649566650390625,1.1516014234875445
0.69427490234375,7.713623046875e-06,0.64453125,1.1243772241992882
0.689239501953125,7.44140625e-06,0.639495849609375,1.0846975088967972
0.6842041015625,7.09503173828125e-06,0.63446044921875,1.0342081850533809
0.679168701171875,6.68914794921875e-06,0.629425048828125,0.9750444839857652
0.67413330078125,6.2347412109375e-06,0.6243896484375,0.9088078291814947
0.669097900390625,5.75042724609375e-06,0.619354248046875,0.838211743772242
0.6640625,5.25482177734375e-06,0.61431884765625,0.7659697508896798
0.659027099609375,4.7552490234375e-06,0.609283447265625,0.6931494661921708
0.65399169921875,4.27520751953125e-06,0.604248046875,0.6231761565836299
0.648956298828125,3.814697265625e-06,0.599212646484375,0.556049822064057
0.6439208984375,3.38653564453125e-06,0.59417724609375,0.4936387900355872
0.638885498046875,2.99591064453125e-06,0.589141845703125,0.4366992882562277
0.63385009765625,2.64312744140625e-06,0.5841064453125,0.3852758007117438
0.628814697265625,2.330322265625e-06,0.579071044921875,0.3396797153024911
0.623779296875,2.0562744140625e-06,0.57403564453125,0.2997330960854092
0.618743896484375,1.817626953125e-06,0.569000244140625,0.26494661921708185
0.61370849609375,1.61407470703125e-06,0.56396484375,0.23527580071174378
0.608673095703125,1.439208984375e-06,0.558929443359375,0.2097864768683274
0.6036376953125,1.29241943359375e-06,0.55389404296875,0.1883896797153025
0.598602294921875,1.168212890625e-06,0.548858642578125,0.1702846975088968
0.59356689453125,1.06414794921875e-06,0.5438232421875,0.15511565836298932
0.588531494140625,9.77172851562501e-07,0.538787841796875,0.14243772241992897
0.58349609375,9.051513671875e-07,0.53375244140625,0.13193950177935942
0.578460693359375,8.453369140625e-07,0.528717041015625,0.12322064056939501
0.57342529296875,7.958984375e-07,0.523681640625,0.11601423487544484
0.568389892578125,7.5469970703125e-07,0.518646240234375,0.11000889679715302
0.5633544921875,7.2052001953125e-07,0.51361083984375,0.10502669039145907
0.558319091796875,6.927490234375e-07,0.508575439453125,0.10097864768683275
0.55328369140625,6.6986083984375e-07,0.5035400390625,0.0976423487544484
0.548248291015625,6.512451171875e-07,0.498504638671875,0.09492882562277581
0.543212890625,6.35986328125e-07,0.49346923828125,0.09270462633451958
0.538177490234375,6.2286376953125e-07,0.488433837890625,0.09079181494661923
0.53314208984375,6.1370849609375e-07,0.4833984375,0.08945729537366548
0.528106689453125,6.0394287109375e-07,0.478363037109375,0.08803380782918149
0.5230712890625,5.97229003906249e-07,0.47332763671875,0.0870551601423486
0.518035888671875,5.92651367187501e-07,0.468292236328125,0.08638790035587204
0.51300048828125,5.8746337890625e-07,0.4632568359375,0.08563167259786476
0.507965087890625,5.83801269531251e-07,0.458221435546875,0.08509786476868342
0.5029296875,5.80749511718751e-07,0.45318603515625,0.08465302491103217
0.497894287109375,5.7861328125e-07,0.448150634765625,0.08434163701067617
0.49285888671875,5.767822265625e-07,0.443115234375,0.08407473309608542
0.487823486328125,5.7525634765625e-07,0.438079833984375,0.08385231316725979
0.4827880859375,5.74951171874999e-07,0.43304443359375,0.08380782918149451
0.477752685546875,5.7403564453125e-07,0.428009033203125,0.08367437722419929
0.47271728515625,5.7373046875e-07,0.4229736328125,0.08362989323843417
0.467681884765625,5.7403564453125e-07,0.417938232421875,0.08367437722419929
0.462646484375,5.74645996093751e-07,0.41290283203125,0.08376334519572969
0.457611083984375,5.74340820312499e-07,0.407867431640625,0.08371886120996427
0.45257568359375,5.7525634765625e-07,0.40283203125,0.08385231316725979
0.447540283203125,5.75866699218749e-07,0.397796630859375,0.08394128113878989
0.4425048828125,5.755615234375e-07,0.39276123046875,0.08389679715302491
0.437469482421875,5.767822265625e-07,0.387725830078125,0.08407473309608542
0.43243408203125,5.7708740234375e-07,0.3826904296875,0.08411921708185054
0.427398681640625,5.77392578124999e-07,0.377655029296875,0.08416370106761552
0.42236328125,5.77697753906251e-07,0.37261962890625,0.08420818505338093
0.417327880859375,5.780029296875e-07,0.367584228515625,0.0842526690391459
0.41229248046875,5.7830810546875e-07,0.362548828125,0.08429715302491105
0.407257080078125,5.77697753906249e-07,0.357513427734375,0.08420818505338064
0.4022216796875,5.780029296875e-07,0.35247802734375,0.0842526690391459
0.397186279296875,5.78613281250001e-07,0.347442626953125,0.0843416370106763
0.39215087890625,5.78918457031249e-07,0.3424072265625,0.08438612099644113
0.387115478515625,5.78613281250001e-07,0.337371826171875,0.0843416370106763
0.382080078125,5.78918457031251e-07,0.33233642578125,0.08438612099644142
0.377044677734375,5.79223632812501e-07,0.327301025390625,0.08443060498220654
0.37200927734375,5.804443359375e-07,0.322265625,0.0846085409252669
0.366973876953125,5.8013916015625e-07,0.317230224609375,0.08456405693950178
0.3619384765625,5.816650390625e-07,0.31219482421875,0.08478647686832741
0.356903076171875,5.8319091796875e-07,0.307159423828125,0.08500889679715302
0.35186767578125,5.83801269531251e-07,0.3021240234375,0.08509786476868342
0.346832275390625,5.84716796875e-07,0.297088623046875,0.08523131672597865
0.341796875,5.86853027343749e-07,0.29205322265625,0.08554270462633437
0.336761474609375,5.88073730468749e-07,0.287017822265625,0.08572064056939488
0.33172607421875,5.89904785156249e-07,0.281982421875,0.08598754448398563
0.326690673828125,5.91430664062501e-07,0.276947021484375,0.08620996441281153
0.3216552734375,5.9356689453125e-07,0.27191162109375,0.08652135231316725
0.316619873046875,5.96008300781251e-07,0.266876220703125,0.08687722419928841
0.31158447265625,5.9844970703125e-07,0.2618408203125,0.08723309608540925
0.306549072265625,6.00585937499999e-07,0.256805419921875,0.08754448398576499
0.301513671875,6.03942871093749e-07,0.25177001953125,0.08803380782918135
0.296478271484375,6.0638427734375e-07,0.246734619140625,0.08838967971530248
0.29144287109375,6.103515625e-07,0.24169921875,0.08896797153024912
0.286407470703125,6.13708496093751e-07,0.236663818359375,0.08945729537366563
0.2813720703125,6.170654296875e-07,0.23162841796875,0.08994661921708184
0.276336669921875,6.21948242187501e-07,0.226593017578125,0.09065836298932399
0.27130126953125,6.25915527343751e-07,0.2215576171875,0.09123665480427061
0.266265869140625,6.31103515625001e-07,0.216522216796875,0.09199288256227772
0.26123046875,6.365966796875e-07,0.21148681640625,0.09279359430604982
0.256195068359375,6.41784667968751e-07,0.206451416015625,0.09354982206405708
0.25115966796875,6.488037109375e-07,0.201416015625,0.09457295373665481
0.246124267578125,6.56433105468751e-07,0.196380615234375,0.09568505338078306
0.2410888671875,6.640625e-07,0.19134521484375,0.09679715302491104
0.236053466796875,6.732177734375e-07,0.186309814453125,0.09813167259786476
0.23101806640625,6.8359375e-07,0.1812744140625,0.099644128113879
0.225982666015625,6.95190429687501e-07,0.176239013671875,0.10133451957295388
0.220947265625,7.07702636718749e-07,0.17120361328125,0.1031583629893237
0.215911865234375,7.22961425781249e-07,0.166168212890625,0.10538256227757993
0.21087646484375,7.4005126953125e-07,0.1611328125,0.10787366548042705
0.205841064453125,7.6019287109375e-07,0.156097412109375,0.11080960854092528
0.2008056640625,7.83386230468751e-07,0.15106201171875,0.11419039145907488
0.195770263671875,8.10852050781251e-07,0.146026611328125,0.11819395017793607
0.19073486328125,8.4228515625e-07,0.1409912109375,0.12277580071174377
0.185699462890625,8.80126953125e-07,0.135955810546875,0.12829181494661923
0.1806640625,9.246826171875e-07,0.13092041015625,0.1347864768683274
0.175628662109375,9.765625e-07,0.125885009765625,0.1423487544483986
0.17059326171875,1.03668212890625e-06,0.120849609375,0.1511120996441281
0.165557861328125,1.10992431640625e-06,0.115814208984375,0.161788256227758
0.1605224609375,1.1944580078125e-06,0.11077880859375,0.1741103202846975
0.155487060546875,1.2933349609375e-06,0.105743408203125,0.18852313167259788
0.15045166015625,1.4093017578125e-06,0.1007080078125,0.20542704626334518
0.145416259765625,1.54388427734375e-06,0.095672607421875,0.22504448398576513
0.140380859375,1.70135498046875e-06,0.09063720703125,0.2479982206405694
