Potential - Start -0.2 V, Upper Vertex 1.5 V, Lower Vertex -0.2 V, Stop -0.19 V; Scan - # end cross 5, Rate 0.1 Vps, Step 0.01 V 
Scan	Index	Time (s)	Potential applied (V)	WE(1).Potential (V)	WE(1).Current (A)	WE(1).Power (W)	WE(1).Resistance (Ω)	WE(1).Charge (C)
1	1	65.7765698339301	-0.189971923828125	-0.1898193359375	-1.971435546875E-07	3.74216568843622E-08	962848.3125	0
1	2	65.8772778336759	-0.179901123046875	-0.179840087890625	-1.65405273437499E-07	2.97464985976603E-08	1087269.375	-1.82557826633456E-08
1	3	65.9779858334216	-0.169830322265625	-0.169647216796875	-1.40380859375E-07	2.38152217946208E-08	1208478.25	-3.36533396705363E-08
1	4	66.0786938331673	-0.159759521484375	-0.159576416015625	-1.190185546875E-07	1.89925533078394E-08	1340769.25	-4.67151366478902E-08
1	5	66.1794018329131	-0.149688720703125	-0.149627685546875	-9.97924804687495E-08	1.4931718084199E-08	1499388.375	-5.77331462636721E-08
1	6	66.2801098326588	-0.139617919921875	-0.139495849609375	-8.20922851562503E-08	1.14515330551512E-08	1699256.5	-6.68917721213802E-08
1	7	66.3808178324045	-0.129547119140625	-0.12945556640625	-6.561279296875E-08	8.49394066193554E-09	1973023.375	-7.43293142591028E-08
1	8	66.4815258321503	-0.119476318359375	-0.119384765625	-4.8828125E-08	5.82933390447238E-09	2445000	-8.00918726895361E-08
1	9	66.582233831896	-0.109405517578125	-0.109344482421875	-3.26538085937494E-08	3.57051388455432E-09	3348598.25	-8.41948093466272E-08
1	10	66.6829418316418	-0.099334716796875	-0.099212646484375	-1.49536132812503E-08	1.48358758611522E-09	6634694	-8.65920384285346E-08
1	11	66.7836498313875	-0.089263916015625	-0.08917236328125	4.88281249999972E-09	-4.35411928734197E-10	-18262500	-8.70991385681918E-08
1	12	66.8843578311332	-0.079193115234375	-0.07916259765625	2.71606445312503E-08	-2.15010720339137E-09	-2914606.75	-8.54856239129731E-08
1	13	66.985065830879	-0.069122314453125	-0.069061279296875	5.43212890625006E-08	-3.75149777909201E-09	-1271348.375	-8.1382687255882E-08
1	14	67.0857738306247	-0.059051513671875	-0.059051513671875	8.94165039062506E-08	-5.28017984890994E-09	-660409.5625	-7.41449142083184E-08
1	15	67.1864818303704	-0.048980712890625	-0.0488250732421875	1.34887695312499E-07	-6.58590115776292E-09	-361968.34375	-6.28502974109324E-08
1	16	67.2871898301162	-0.038909912109375	-0.03878173828125	1.96533203125E-07	-7.62189955594295E-09	-197329.203125	-4.61619329428231E-08
1	17	67.3878978298619	-0.028839111328125	-0.0287261962890625	2.789306640625E-07	-8.01261634819639E-09	-102986.875	-2.22204246114188E-08
1	18	67.4886058296076	-0.018768310546875	-0.0186553955078125	3.89709472656249E-07	-7.27018401036617E-09	-47870.0078125	1.14482796575999E-08
1	19	67.5893138293534	-0.008697509765625	-0.0086029052734375	5.36499023437501E-07	-4.61544980012718E-09	-16035.2685546875	5.80865808785802E-08
1	20	67.6900218290991	0.001373291015625	0.00147399902343751	7.25402832031249E-07	1.06924302745171E-09	2031.97314453125	1.21628389138095E-07
1	21	67.7907298288449	0.011444091796875	0.0114990234375	9.5672607421875E-07	1.10014148901882E-08	12019.138671875	2.0633029862438E-07
1	22	67.8914378285906	0.021514892578125	0.021612548828125	1.22528076171875E-06	2.64814392636481E-08	17638.85546875	3.16203056627273E-07
1	23	67.9921458283363	0.031585693359375	0.0316558837890625	1.51275634765625E-06	4.78876387433047E-08	20925.96484375	4.54074182698605E-07
1	24	68.0928538280821	0.041656494140625	0.0417633056640625	1.79534912109375E-06	7.49797095522808E-08	23261.943359375	6.206504963302E-07
1	25	68.1935618278278	0.051727294921875	0.051788330078125	2.04376220703125E-06	1.05843028563868E-07	25339.705078125	8.13965129964345E-07
1	26	68.2942698275735	0.061798095703125	0.061798095703125	2.23419189453125E-06	1.38068813271275E-07	27660.15625	1.0293772447767E-06
1	27	68.3949778273193	0.071868896484375	0.0718994140625	2.35260009765625E-06	1.69150553119835E-07	30561.68359375	1.26034058212099E-06
1	28	68.495685827065	0.081939697265625	0.082000732421875	2.40142822265625E-06	1.96918875872143E-07	34146.65234375	1.49972481722216E-06
1	29	68.5963938268108	0.092010498046875	0.092071533203125	2.392578125E-06	2.20288342234198E-07	38482.140625	1.7411222188457E-06
1	30	68.6971018265565	0.102081298828125	0.10211181640625	2.3419189453125E-06	2.39137591506733E-07	43601.7734375	1.97952317648742E-06
1	31	68.7978098263022	0.112152099609375	0.11224365234375	2.26806640625E-06	2.54576036695653E-07	49488.69921875	2.21165441871563E-06
1	32	68.898517826048	0.122222900390625	0.12225341796875	2.18292236328125E-06	2.66869705001227E-07	56004.47265625	2.43577937908412E-06
1	33	68.9992258257937	0.132293701171875	0.13232421875	2.095947265625E-06	2.77344554433512E-07	63133.375	2.65123753706575E-06
1	34	69.0999338255394	0.142364501953125	0.142333984375	2.01202392578125E-06	2.86379389535796E-07	70741.6953125	2.85809028355288E-06
1	35	69.2006418252852	0.152435302734375	0.152435302734375	1.9329833984375E-06	2.94654910248937E-07	78860.1171875	3.05673734146694E-06
1	36	69.3013498250309	0.162506103515625	0.16253662109375	1.86126708984375E-06	3.02524057360642E-07	87325.796875	3.2477928471053E-06
1	37	69.4020578247766	0.172576904296875	0.172607421875	1.796875E-06	3.10153950522363E-07	96059.7890625	3.43199508279213E-06
1	38	69.5027658245224	0.182647705078125	0.18267822265625	1.739501953125E-06	3.17769121238598E-07	105017.546875	3.61006573257328E-06
1	39	69.6034738242681	0.192718505859375	0.192779541015625	1.688232421875E-06	3.25456653627043E-07	114190.171875	3.78266599909693E-06
1	40	69.7041818240139	0.202789306640625	0.20281982421875	1.64154052734375E-06	3.32936963332031E-07	123554.5625	3.95033339373185E-06
1	41	69.8048898237596	0.212860107421875	0.212860107421875	1.600341796875E-06	3.40648909968877E-07	133009.15625	4.11357495977427E-06
1	42	69.9055978235053	0.222930908203125	0.22296142578125	1.56402587890625E-06	3.48717435372237E-07	142556.09375	4.27291342930403E-06
1	43	70.0063058232511	0.233001708984375	0.2330322265625	1.5301513671875E-06	3.56574560100853E-07	152293.59375	4.42871760242269E-06
1	44	70.1070138229968	0.243072509765625	0.2430419921875	1.50115966796875E-06	3.6484482279775E-07	161902.828125	4.58135627923184E-06
1	45	70.2077218227425	0.253143310546875	0.253173828125	1.4739990234375E-06	3.73177954315906E-07	171759.84375	4.73116733701318E-06
1	46	70.3084298224883	0.263214111328125	0.26318359375	1.4495849609375E-06	3.81506964686196E-07	181557.890625	4.87838178742095E-06
1	47	70.409137822234	0.273284912109375	0.27325439453125	1.4276123046875E-06	3.90101320135727E-07	191406.59375	5.02326020068722E-06
1	48	70.5098458219798	0.283355712890625	0.2833251953125	1.40777587890625E-06	3.98858361450039E-07	201257.328125	5.16603313371888E-06
1	49	70.6105538217255	0.293426513671875	0.293426513671875	1.38946533203125E-06	4.07705954330595E-07	211179.453125	5.30688566868776E-06
1	50	70.7112618214712	0.303497314453125	0.303497314453125	1.37298583984375E-06	4.16697503169416E-07	221049.125	5.44598606211366E-06
1	51	70.811969821217	0.313568115234375	0.3135986328125	1.3580322265625E-06	4.25877033194411E-07	230921.359375	5.58350348001113E-06
1	52	70.9126778209627	0.323638916015625	0.323699951171875	1.34429931640625E-06	4.3514961589608E-07	240794.546875	5.71957662032219E-06
1	53	71.0133858207084	0.333709716796875	0.333740234375	1.331787109375E-06	4.44470941829422E-07	250595.796875	5.85432826483157E-06
1	54	71.1140938204542	0.343780517578125	0.343780517578125	1.32049560546875E-06	4.5396066639114E-07	260342.046875	5.98788165007136E-06
1	55	71.2148018201999	0.353851318359375	0.353851318359375	1.3104248046875E-06	4.63695528196695E-07	270027.96875	6.12035910307895E-06
1	56	71.3155098199456	0.363922119140625	0.363983154296875	1.30218505859375E-06	4.73973415182627E-07	279517.21875	6.25191432845895E-06
1	57	71.4162178196914	0.373992919921875	0.3740234375	1.29364013671875E-06	4.83851749777386E-07	289124.78125	6.382624633261E-06
1	58	71.5169258194371	0.384063720703125	0.38409423828125	1.28692626953125E-06	4.94300934406056E-07	298458.625	6.51256641504006E-06
1	59	71.6176338191829	0.394134521484375	0.394134521484375	1.28082275390625E-06	5.04816455304535E-07	307719.8125	6.6418629103282E-06
1	60	71.7183418189286	0.404205322265625	0.4041748046875	1.2762451171875E-06	5.15826059199753E-07	316690.59375	6.77062143950025E-06
1	61	71.8190498186743	0.414276123046875	0.41424560546875	1.27288818359375E-06	5.27288364082779E-07	325437.53125	6.89898024575086E-06
1	62	71.9197578184201	0.424346923828125	0.424346923828125	1.26922607421875E-06	5.38592132670601E-07	334335.1875	7.02698616805719E-06
1	63	72.0204658181658	0.434417724609375	0.4344482421875	1.26708984375E-06	5.50484969608078E-07	342870.90625	7.1546996878169E-06
1	64	72.1211738179115	0.444488525390625	0.444549560546875	1.26556396484375E-06	5.62605862342025E-07	351266	7.2822290348995E-06
1	65	72.2218818176573	0.454559326171875	0.454559326171875	1.26495361328125E-06	5.74996420255047E-07	359348.625	7.40965060685994E-06
1	66	72.322589817403	0.464630126953125	0.46466064453125	1.2646484375E-06	5.87632314363873E-07	367422.78125	7.53702624933794E-06
1	67	72.4232978171488	0.474700927734375	0.474639892578125	1.26495361328125E-06	6.00397413563769E-07	375223.1875	7.66440189181594E-06
1	68	72.5240058168945	0.484771728515625	0.4847412109375	1.26678466796875E-06	6.14062685144745E-07	382654.8125	7.79188485466875E-06
1	69	72.6247138166402	0.494842529296875	0.494781494140625	1.26861572265625E-06	6.2768759789833E-07	390016.84375	7.91955244494602E-06
1	70	72.725421816386	0.504913330078125	0.50494384765625	1.27197265625E-06	6.4227475604639E-07	396976.96875	8.0474810602027E-06
1	71	72.8261298161317	0.514984130859375	0.514984130859375	1.27655029296875E-06	6.57403120385425E-07	403418.59375	8.17580985312816E-06
1	72	72.9268378158774	0.525054931640625	0.5250244140625	1.2823486328125E-06	6.73264366923831E-07	409424.09375	8.30466069601243E-06
1	73	73.0275458156232	0.535125732421875	0.535125732421875	1.2896728515625E-06	6.90137085257447E-07	414931.40625	8.4341718320502E-06
1	74	73.1282538153689	0.545196533203125	0.545135498046875	1.29852294921875E-06	7.07870924543386E-07	419812	8.56449787534075E-06
1	75	73.2289618151146	0.555267333984375	0.55523681640625	1.31134033203125E-06	7.28104396330309E-07	423411.6875	8.69591531227343E-06
1	76	73.3296698148604	0.565338134765625	0.56536865234375	1.32720947265625E-06	7.50362630697055E-07	425982.96875	8.82877611729782E-06
1	77	73.4303778146061	0.575408935546875	0.575347900390625	1.34857177734375E-06	7.75897945004544E-07	426634.96875	8.96351230039727E-06
1	78	73.5310858143519	0.585479736328125	0.585418701171875	1.37725830078125E-06	8.06272737463587E-07	425060.9375	9.10076960281003E-06
1	79	73.6317938140976	0.595550537109375	0.59552001953125	1.417236328125E-06	8.43992552290729E-07	420198.125	9.24148298508953E-06
1	80	73.7325018138433	0.605621337890625	0.605682373046875	1.473388671875E-06	8.92405466856871E-07	411081.21875	9.38703760766657E-06
1	81	73.8332098135891	0.615692138671875	0.615631103515625	1.55364990234375E-06	9.56475219027197E-07	396248.28125	9.5394607342314E-06
1	82	73.9339178133348	0.625762939453125	0.625732421875	1.66839599609375E-06	1.04396940514562E-06	375050.3125	9.70170367509127E-06
1	83	74.0346258130805	0.635833740234375	0.6357421875	1.8292236328125E-06	1.16291460017237E-06	347547.5625	9.87782277661609E-06
1	84	74.1353338128263	0.645904541015625	0.645843505859375	2.04620361328125E-06	1.32152717924328E-06	315630.15625	1.00729666883126E-05
1	85	74.236041812572	0.655975341796875	0.6558837890625	2.32940673828125E-06	1.52782013174146E-06	281566.875	1.02932963272906E-05
1	86	74.3367498123177	0.666046142578125	0.665985107421875	2.68463134765625E-06	1.78792436145159E-06	248073.21875	1.05457729659975E-05
1	87	74.4374578120635	0.676116943359375	0.676055908203125	3.10394287109375E-06	2.0984389266232E-06	217805.53125	1.08372505565058E-05
1	88	74.5381658118092	0.686187744140625	0.68609619140625	3.57025146484375E-06	2.44953594119579E-06	192170.265625	1.11733234007261E-05
1	89	74.638873811555	0.696258544921875	0.696136474609375	4.0496826171875E-06	2.81913162325509E-06	171899.03125	1.15570173875312E-05
1	90	74.7395818113007	0.706329345703125	0.706207275390625	4.50653076171875E-06	3.18254478770541E-06	156707.515625	1.19878568511922E-05
1	91	74.8402898110464	0.716400146484375	0.71630859375	4.89501953125E-06	3.50634468304634E-06	146334.15625	1.24612624858855E-05
1	92	74.9409978107922	0.726470947265625	0.72637939453125	5.181884765625E-06	3.76401430912665E-06	140176.6875	1.29686750369729E-05
1	93	75.0417058105379	0.736541748046875	0.736419677734375	5.3497314453125E-06	3.93964774048072E-06	137655.453125	1.34989841171773E-05
1	94	75.1424138102836	0.746612548828125	0.74639892578125	5.4046630859375E-06	4.03403464588337E-06	138102.765625	1.40405109050334E-05
1	95	75.2431218100294	0.756683349609375	0.75653076171875	5.364990234375E-06	4.0587801777292E-06	141012.515625	1.45828062159126E-05
1	96	75.3438298097751	0.766754150390625	0.76690673828125	5.267333984375E-06	4.03955391448108E-06	145596.75	1.51181857290794E-05
1	97	75.4445378095209	0.776824951171875	0.7763671875	5.13916015625E-06	3.98987504013348E-06	151068.890625	1.564219382999E-05
1	98	75.5452458092666	0.786895751953125	0.787353515625	5.0079345703125E-06	3.94301468986669E-06	157221.21875	1.61531406774884E-05
1	99	75.6459538090123	0.796966552734375	0.79681396484375	4.8883056640625E-06	3.89507022191538E-06	163004.125	1.66514564625686E-05
1	100	75.7466618087581	0.807037353515625	0.80718994140625	4.79583740234375E-06	3.8711518755008E-06	168310.53125	1.71390911418712E-05
1	101	75.8473698085038	0.817108154296875	0.8172607421875	4.73846435546875E-06	3.87256068279385E-06	172473.765625	1.76191824721172E-05
1	102	75.9480778082495	0.827178955078125	0.82733154296875	4.7216796875E-06	3.90639434044715E-06	175219.765625	1.80955375981284E-05
1	103	76.0487858079953	0.837249755859375	0.83740234375	4.747314453125E-06	3.97541225538589E-06	176394.953125	1.85723401955329E-05
1	104	76.149493807741	0.847320556640625	0.84716796875	4.81231689453125E-06	4.07684046876966E-06	176041.609375	1.90537048183614E-05
1	105	76.2502018074867	0.857391357421875	0.85784912109375	4.90570068359375E-06	4.20835112890927E-06	174867.8125	1.95430457097245E-05
1	106	76.3509098072325	0.867462158203125	0.86669921875	5.0140380859375E-06	4.34566254625679E-06	172854.546875	2.00425456569064E-05
1	107	76.4516178069782	0.877532958984375	0.87799072265625	5.11474609375E-06	4.49069921160117E-06	171658.71875	2.05525702767773E-05
1	108	76.552325806724	0.887603759765625	0.88775634765625	5.1910400390625E-06	4.60837827631622E-06	171017.0625	2.10715079447255E-05
1	109	76.6530338064697	0.897674560546875	0.8978271484375	5.224609375E-06	4.69079577669618E-06	171845.796875	2.15959771594498E-05
1	110	76.7537418062154	0.907745361328125	0.908203125	5.224609375E-06	4.74500620839535E-06	173831.78125	2.21221362153301E-05
1	111	76.8544498059612	0.917816162109375	0.91827392578125	5.1910400390625E-06	4.76679633720778E-06	176895.953125	2.26466072490439E-05
1	112	76.9551578057069	0.927886962890625	0.9283447265625	5.13916015625E-06	4.7709118007333E-06	180641.34375	2.31667727348395E-05
1	113	77.0558658054526	0.937957763671875	0.93780517578125	5.078125E-06	4.76229206469725E-06	184675.484375	2.3681253878749E-05
1	114	77.1565738051984	0.948028564453125	0.94818115234375	5.023193359375E-06	4.76289733342128E-06	188760.625	2.41898960666731E-05
1	115	77.2572818049441	0.958099365234375	0.95855712890625	4.9835205078125E-06	4.77698904433055E-06	192345.390625	2.46937743213493E-05
1	116	77.3579898046899	0.968170166015625	0.9686279296875	4.96826171875E-06	4.81239703731262E-06	194963.140625	2.51948858931428E-05
1	117	77.4586978044356	0.978240966796875	0.97869873046875	4.9896240234375E-06	4.88333853354561E-06	196146.796875	2.56963048741454E-05
1	118	77.5594058041813	0.988311767578125	0.98876953125	5.047607421875E-06	4.99092038808158E-06	195888.75	2.62017201748677E-05
1	119	77.6601138039271	0.998382568359375	0.99853515625	5.1483154296875E-06	5.14077373736654E-06	193953.765625	2.67151262960397E-05
1	120	77.7608218036728	1.00845336914063	1.00860595703125	5.291748046875E-06	5.33728871232597E-06	190599.765625	2.72408251476008E-05
1	121	77.8615298034185	1.01852416992188	1.01898193359375	5.462646484375E-06	5.56633767700987E-06	186536.328125	2.77823510259623E-05
1	122	77.9622378031643	1.02859497070313	1.0284423828125	5.6427001953125E-06	5.80319192522438E-06	182260.6875	2.83415502053685E-05
1	123	78.06294580291	1.03866577148438	1.038818359375	5.8074951171875E-06	6.03293210588163E-06	178875.46875	2.89181134576211E-05
1	124	78.1636538026557	1.04873657226563	1.04888916015625	5.9356689453125E-06	6.22585866949521E-06	176709.515625	2.95094287139364E-05
1	125	78.2643618024015	1.05880737304688	1.0589599609375	6.011962890625E-06	6.36642789686448E-06	176142.140625	3.01110394502757E-05
1	126	78.3650698021472	1.06887817382813	1.0687255859375	6.0302734375E-06	6.44470719635137E-06	177226.734375	3.07174159388524E-05
1	127	78.465777801893	1.07894897460938	1.0791015625	5.999755859375E-06	6.47434580969275E-06	179857.59375	3.13231757900212E-05
1	128	78.5664858016387	1.08901977539063	1.08917236328125	5.9326171875E-06	6.46164244244574E-06	183590.53125	3.19240170938428E-05
1	129	78.6671938013844	1.09909057617188	1.09954833984375	5.8441162109375E-06	6.42588793198229E-06	188146.21875	3.2517022191314E-05
1	130	78.7679018011302	1.10916137695313	1.1090087890625	5.743408203125E-06	6.36949016552535E-06	193092.453125	3.31004994222894E-05
1	131	78.8686098008759	1.11923217773438	1.11968994140625	5.6396484375E-06	6.31465763945016E-06	198538.96875	3.36736848112196E-05
1	132	78.9693178006216	1.12930297851563	1.1297607421875	5.5419921875E-06	6.26112478130381E-06	203854.640625	3.42367238772567E-05
1	133	79.0700258003674	1.13937377929688	1.13983154296875	5.450439453125E-06	6.21258277533343E-06	209126.546875	3.47902350767981E-05
1	134	79.1707338001131	1.14944458007813	1.14959716796875	5.364990234375E-06	6.1675773395109E-06	214277.59375	3.53348368662409E-05
1	135	79.2714417998588	1.15951538085938	1.15997314453125	5.2886962890625E-06	6.1347454902716E-06	219330.640625	3.58712932211347E-05
1	136	79.3721497996046	1.16958618164063	1.16943359375	5.218505859375E-06	6.10269580647582E-06	224093.578125	3.64003717550077E-05
1	137	79.4728577993503	1.17965698242188	1.17950439453125	5.1544189453125E-06	6.07965966992197E-06	228833.625	3.6922690924257E-05
1	138	79.5735657990961	1.18972778320313	1.18988037109375	5.0994873046875E-06	6.06777985012741E-06	233333.34375	3.74390147044323E-05
1	139	79.6742737988418	1.19979858398438	1.199951171875	5.047607421875E-06	6.05688228461077E-06	237726.71875	3.79499615519308E-05
1	140	79.7749817985875	1.20986938476563	1.21002197265625	5.0018310546875E-06	6.05232571615488E-06	241915.796875	3.84559934900608E-05
1	141	79.8756897983333	1.21994018554688	1.2200927734375	4.96063232421875E-06	6.05243167228764E-06	245955.09375	3.89576416637283E-05
1	142	79.976397798079	1.23001098632813	1.2298583984375	4.92401123046875E-06	6.05583636570373E-06	249767.59375	3.94553717342205E-05
1	143	80.0771057978247	1.24008178710938	1.23992919921875	4.891357421875E-06	6.06493631494232E-06	253493.90625	3.99496166210156E-05
1	144	80.1778137975705	1.25015258789063	1.2506103515625	4.86175537109375E-06	6.08016171099734E-06	257234.328125	4.04407255700789E-05
1	145	80.2785217973162	1.26022338867188	1.26007080078125	4.8358154296875E-06	6.09346943747369E-06	260570.5	4.09290369134396E-05
1	146	80.379229797062	1.27029418945313	1.27044677734375	4.8126220703125E-06	6.11418045082246E-06	263982.25	4.14148744312115E-05
1	147	80.4799377968077	1.28036499023438	1.280517578125	4.79217529296875E-06	6.1364648900053E-06	267210.09375	4.18985146097839E-05
1	148	80.5806457965534	1.29043579101563	1.290283203125	4.77447509765625E-06	6.16042507317616E-06	270246.09375	4.23802339355461E-05
1	149	80.6813537962992	1.30050659179688	1.30035400390625	4.7589111328125E-06	6.18826879872358E-06	273246.125	4.28602761530783E-05
1	150	80.7820617960449	1.31057739257813	1.31011962890625	4.74609375E-06	6.21795015831594E-06	276041.6875	4.33388922829181E-05
1	151	80.8827697957906	1.32064819335938	1.32080078125	4.73541259765625E-06	6.25453640168416E-06	278919.90625	4.38163224316668E-05
1	152	80.9834777955364	1.33071899414063	1.33087158203125	4.72747802734375E-06	6.29166606813669E-06	281518.3125	4.4292817619862E-05
1	153	81.0841857952821	1.34078979492188	1.34063720703125	4.72198486328125E-06	6.33046829534578E-06	283913.9375	4.47686361439992E-05
1	154	81.1848937950278	1.35086059570313	1.3507080078125	4.71923828125E-06	6.37431230643415E-06	286213.15625	4.52440399385523E-05
1	155	81.2856017947736	1.36093139648438	1.36077880859375	4.718017578125E-06	6.42017812424456E-06	288421.75	4.5719243644271E-05
1	156	81.3863097945193	1.37100219726563	1.370849609375	4.71893310546875E-06	6.46894704914303E-06	290499.90625	4.61944291600958E-05
1	157	81.4870177942651	1.38107299804688	1.380615234375	4.72137451171875E-06	6.51840127829928E-06	292418.09375	4.66697892989032E-05
1	158	81.5877257940108	1.39114379882813	1.39129638671875	4.72564697265625E-06	6.57477539789397E-06	294413.96875	4.71454841317609E-05
1	159	81.6884337937565	1.40121459960938	1.40106201171875	4.7314453125E-06	6.62904812998022E-06	296117.125	4.76216846436728E-05
1	160	81.7891417935023	1.41128540039063	1.4117431640625	4.73846435546875E-06	6.6894945121021E-06	297932.65625	4.80985327158123E-05
1	161	81.889849793248	1.42135620117188	1.4208984375	4.7479248046875E-06	6.74631883157417E-06	299267.25	4.85762102471199E-05
1	162	81.9905577929937	1.43142700195313	1.43096923828125	4.7601318359375E-06	6.81160190652008E-06	300615.46875	4.90549791720696E-05
1	163	82.0912657927395	1.44149780273438	1.44134521484375	4.77569580078125E-06	6.88342606736114E-06	301808.4375	4.953514871886E-05
1	164	82.1919737924852	1.45156860351563	1.451416015625	4.79644775390625E-06	6.96164079272421E-06	302602.28125	5.00171408930328E-05
1	165	82.292681792231	1.46163940429688	1.4617919921875	4.822998046875E-06	7.05022011970868E-06	303087.8125	5.0501519581303E-05
1	166	82.3933897919767	1.47171020507813	1.47186279296875	4.8590087890625E-06	7.15179385224474E-06	302914.21875	5.09890487592202E-05
1	167	82.4940977917224	1.48178100585938	1.48162841796875	4.90509033203125E-06	7.26752068658243E-06	302059.375	5.14807106810622E-05
1	168	82.5948057914682	1.49185180664063	1.49139404296875	4.96826171875E-06	7.40963605494471E-06	300184.28125	5.19778732268605E-05
1	169	82.6955137912139	1.50192260742188	1.5020751953125	5.047607421875E-06	7.58188571126084E-06	297581.625	5.24822098668665E-05
1	170	82.7962217909596	1.49185180664063	1.49200439453125	4.771728515625E-06	7.11943994247122E-06	312675.875	5.29766548424959E-05
1	171	82.8969297907054	1.48178100585938	1.48162841796875	4.5721435546875E-06	6.77421803629841E-06	324055.53125	5.34471546416171E-05
1	172	82.9976377904511	1.47171020507813	1.47216796875	4.415283203125E-06	6.50003812552313E-06	333425.5	5.38997082912829E-05
1	173	83.0983457901968	1.46163940429688	1.4617919921875	4.287109375E-06	6.26686187388259E-06	340973.8125	5.43379101145547E-05
1	174	83.1990537899426	1.45156860351563	1.45172119140625	4.1796875E-06	6.06774074185523E-06	347327.6875	5.47642448509578E-05
1	175	83.2997617896883	1.44149780273438	1.4410400390625	4.08966064453125E-06	5.89336468692636E-06	352361.75	5.51806406292599E-05
1	176	83.4004697894341	1.43142700195313	1.4312744140625	4.0130615234375E-06	5.74379191675689E-06	356654.03125	5.5588643590454E-05
1	177	83.5011777891798	1.42135620117188	1.4215087890625	3.94561767578125E-06	5.60873013455421E-06	360275.34375	5.59893960598856E-05
1	178	83.6018857889255	1.41128540039063	1.41143798828125	3.8873291015625E-06	5.48672369404812E-06	363086.84375	5.63838148082141E-05
1	179	83.7025937886713	1.40121459960938	1.40106201171875	3.83514404296875E-06	5.37327468919102E-06	365321.875	5.67726747249253E-05
1	180	83.803301788417	1.39114379882813	1.39068603515625	3.7884521484375E-06	5.26854728377657E-06	367085.5625	5.71565506106708E-05
1	181	83.9040097881627	1.38107299804688	1.38092041015625	3.74603271484375E-06	5.17297303304076E-06	368635.4375	5.7535944506526E-05
1	182	84.0047177879085	1.37100219726563	1.370849609375	3.707275390625E-06	5.0821167860704E-06	369772.8125	5.7911249314202E-05
1	183	84.1054257876542	1.36093139648438	1.36077880859375	3.67156982421875E-06	4.99619409310981E-06	370625.90625	5.82828033657279E-05
1	184	84.2061337873999	1.35086059570313	1.35101318359375	3.638916015625E-06	4.91622313347762E-06	371268.0625	5.86509158893023E-05
1	185	84.3068417871457	1.34078979492188	1.34033203125	3.6083984375E-06	4.83645180793246E-06	371447.90625	5.90158451814204E-05
1	186	84.4075497868914	1.33071899414063	1.33056640625	3.58001708984375E-06	4.76345030619996E-06	371664.84375	5.93778095208108E-05
1	187	84.5082577866372	1.32064819335938	1.32080078125	3.55316162109375E-06	4.69301858174731E-06	371725.5	5.97369944443926E-05
1	188	84.6089657863829	1.31057739257813	1.31011962890625	3.52813720703125E-06	4.62228172182222E-06	371334.6875	6.00935672991909E-05
1	189	84.7096737861286	1.30050659179688	1.300048828125	3.50372314453125E-06	4.55501094620558E-06	371047.8125	6.04476481385063E-05
1	190	84.8103817858744	1.29043579101563	1.290283203125	3.48114013671875E-06	4.49165645477478E-06	370649.59375	6.07993642915972E-05
1	191	84.9110897856201	1.28036499023438	1.280517578125	3.45977783203125E-06	4.43030603491934E-06	370115.5625	6.11488649155945E-05
1	192	85.0117977853658	1.27029418945313	1.2701416015625	3.43963623046875E-06	4.36882510257419E-06	369266.25	6.14962773397565E-05
1	193	85.1125057851116	1.26022338867188	1.26007080078125	3.42071533203125E-06	4.31034368375549E-06	368364.71875	6.18417252553627E-05
1	194	85.2132137848573	1.25015258789063	1.25030517578125	3.40179443359375E-06	4.25328107667156E-06	367542.84375	6.2185266870074E-05
1	195	85.3139217846031	1.24008178710938	1.24053955078125	3.3837890625E-06	4.19772413806641E-06	366612.5625	6.2526945839636E-05
1	196	85.4146297843488	1.23001098632813	1.2298583984375	3.3660888671875E-06	4.13981251767837E-06	365367.1875	6.2866834923625E-05
1	197	85.5153377840945	1.21994018554688	1.21978759765625	3.349609375E-06	4.08581172450795E-06	364158.1875	6.32049923297018E-05
1	198	85.6160457838403	1.20986938476563	1.21002197265625	3.33221435546875E-06	4.03205240218085E-06	363128.5	6.35414544376545E-05
1	199	85.716753783586	1.19979858398438	1.1993408203125	3.31634521484375E-06	3.97742815039237E-06	361645.375	6.38762357993983E-05
1	200	85.8174617833317	1.18972778320313	1.18988037109375	3.2989501953125E-06	3.92535594073706E-06	360684.5625	6.42093364149332E-05
1	201	85.9181697830775	1.17965698242188	1.17950439453125	3.28125E-06	3.87024874726194E-06	359468	6.45406762487255E-05
1	202	86.0188777828232	1.16958618164063	1.16943359375	3.26263427734375E-06	3.81543395633344E-06	358432.34375	6.48701898171566E-05
1	203	86.1195857825689	1.15951538085938	1.15936279296875	3.24188232421875E-06	3.75851777789649E-06	357620.25	6.51977170491591E-05
1	204	86.2202937823147	1.14944458007813	1.14959716796875	3.21807861328125E-06	3.69949384548818E-06	357230.9375	6.55230032862164E-05
1	205	86.3210017820604	1.13937377929688	1.13922119140625	3.18939208984375E-06	3.63342292075686E-06	357190.71875	6.58456410747021E-05
1	206	86.4217097818062	1.12930297851563	1.129150390625	3.15460205078125E-06	3.56202008333639E-06	357937.53125	6.61650919937529E-05
1	207	86.5224177815519	1.11923217773438	1.119384765625	3.109130859375E-06	3.48031358043954E-06	360031.40625	6.64804902044125E-05
1	208	86.6231257812976	1.10916137695313	1.109619140625	3.04962158203125E-06	3.38391828336171E-06	363854.71875	6.67906133458018E-05
1	209	86.7238337810434	1.09909057617188	1.09954833984375	2.97088623046875E-06	3.26663280247885E-06	370107.875	6.70937661197968E-05
1	210	86.8245417807891	1.08901977539063	1.08917236328125	2.8668212890625E-06	3.12246243083791E-06	379923.375	6.73877220833674E-05
1	211	86.9252497805348	1.07894897460938	1.07879638671875	2.7313232421875E-06	2.94654137178441E-06	394972.09375	6.76696072332561E-05
1	212	87.0259577802806	1.06887817382813	1.06903076171875	2.559814453125E-06	2.73652040050365E-06	417620.40625	6.79360382491723E-05
1	213	87.1266657800263	1.05880737304688	1.05865478515625	2.35107421875E-06	2.4889759515645E-06	450285.5625	6.81833189446479E-05
1	214	87.2273737797721	1.04873657226563	1.0479736328125	2.110595703125E-06	2.21184859583445E-06	496529.78125	6.84079859638587E-05
1	215	87.3280817795178	1.03866577148438	1.038818359375	1.85546875E-06	1.92749484995147E-06	559868.4375	6.86076891724952E-05
1	216	87.4287897792635	1.02859497070313	1.0284423828125	1.60491943359375E-06	1.65056712830847E-06	640806.25	6.87819338054396E-05
1	217	87.5294977790093	1.01852416992188	1.01837158203125	1.385498046875E-06	1.41095176786621E-06	735022.0625	6.89325170242228E-05
1	218	87.630205778755	1.00845336914063	1.00860595703125	1.21734619140625E-06	1.22782262224064E-06	828528.5	6.9063578848727E-05
1	219	87.7309137785007	0.998382568359375	0.99853515625	1.11358642578125E-06	1.11195527097152E-06	896684	6.91809545969591E-05
1	220	87.8316217782465	0.988311767578125	0.98846435546875	1.07330322265625E-06	1.06092193163931E-06	920955.375	6.92910689394921E-05
1	221	87.9323297779922	0.978240966796875	0.97869873046875	1.0858154296875E-06	1.06268612398708E-06	901349.125	6.93997935741208E-05
1	222	88.0330377777379	0.968170166015625	0.968017578125	1.129150390625E-06	1.09303744011413E-06	857297.3125	6.95113194524311E-05
1	223	88.1337457774837	0.958099365234375	0.95794677734375	1.180419921875E-06	1.13077942387463E-06	811530.5625	6.96276183589362E-05
1	224	88.2344537772294	0.948028564453125	0.94818115234375	1.221923828125E-06	1.15860507321486E-06	775974.0625	6.97485884302296E-05
1	225	88.3351617769752	0.937957763671875	0.93780517578125	1.2445068359375E-06	1.16710498332395E-06	753555.6875	6.98727817507461E-05
1	226	88.4358697767209	0.927886962890625	0.927734375	1.2408447265625E-06	1.1511742741277E-06	747663.625	6.999792822171E-05
1	227	88.5365777764666	0.917816162109375	0.9173583984375	1.204833984375E-06	1.10526457319793E-06	761398.1875	7.01210810802877E-05
1	228	88.6372857762124	0.907745361328125	0.90789794921875	1.1328125E-06	1.02847809557716E-06	801454.75	7.023879152257E-05
1	229	88.7379937759581	0.897674560546875	0.89752197265625	1.02203369140625E-06	9.1729765472337E-07	878172.625	7.03472906025127E-05
1	230	88.8387017757038	0.887603759765625	0.88714599609375	8.770751953125E-07	7.78093749431719E-07	1011482.25	7.04429185134359E-05
1	231	88.9394097754496	0.877532958984375	0.877685546875	7.086181640625E-07	6.21943911482958E-07	1238587.5	7.05227648722939E-05
1	232	89.0401177751953	0.867462158203125	0.8673095703125	5.3558349609375E-07	4.64516659803849E-07	1619373.25	7.05854181433097E-05
1	233	89.140825774941	0.857391357421875	0.858154296875	3.76281738281251E-07	3.22907766303615E-07	2280616.5	7.06313367118128E-05
1	234	89.2415337746868	0.847320556640625	0.8477783203125	2.5299072265625E-07	2.14480039062437E-07	3351025.5	7.06630162312649E-05
1	235	89.3422417744325	0.837249755859375	0.83740234375	1.7425537109375E-07	1.45921845273733E-07	4805604.5	7.06845312379301E-05
1	236	89.4429497741783	0.827178955078125	0.82733154296875	1.4068603515625E-07	1.1639398422858E-07	5880694.5	7.0700392825529E-05
1	237	89.543657773924	0.817108154296875	0.8172607421875	1.45568847656249E-07	1.18967705020623E-07	5614256	7.07148064975627E-05
1	238	89.6443657736697	0.807037353515625	0.806884765625	1.74560546874999E-07	1.40850247021262E-07	4622378	7.07309227436781E-05
1	239	89.7450737734155	0.796966552734375	0.797119140625	2.093505859375E-07	1.66877356377881E-07	3807580.5	7.0750254963059E-05
1	240	89.8457817731612	0.786895751953125	0.78704833984375	2.2857666015625E-07	1.79900879970774E-07	3443257.75	7.07723083905876E-05
1	241	89.9464897729069	0.776824951171875	0.7769775390625	2.1484375E-07	1.66928771250241E-07	3616477.25	7.07946383045055E-05
1	242	90.0471977726527	0.766754150390625	0.76690673828125	1.5411376953125E-07	1.18190882858471E-07	4976238	7.08132138242945E-05
1	243	90.1479057723984	0.756683349609375	0.7574462890625	3.02124023437503E-08	2.28842722549416E-08	25070708	7.08224979462102E-05
1	244	90.2486137721442	0.746612548828125	0.746490478515625	-1.67236328125001E-07	-1.24840326520825E-07	-4463686.5	7.0815600338392E-05
1	245	90.3493217718899	0.736541748046875	0.7364501953125	-4.45556640625E-07	-3.28130255411452E-07	-1652876.75	7.07847430021502E-05
1	246	90.4500297716356	0.726470947265625	0.726348876953125	-8.0230712890625E-07	-5.82754864808521E-07	-905325.25	7.07219078321941E-05
1	247	90.5507377713814	0.716400146484375	0.716339111328125	-1.2249755859375E-06	-8.77497882356693E-07	-584778.3125	7.06198261468671E-05
1	248	90.6514457711271	0.706329345703125	0.70623779296875	-1.6827392578125E-06	-1.18841410312598E-06	-419695.3125	7.04734120517969E-05
1	249	90.7521537708728	0.696258544921875	0.696197509765625	-2.1368408203125E-06	-1.48766321217408E-06	-325806.9375	7.02810793882236E-05
1	250	90.8528617706186	0.686187744140625	0.6861572265625	-2.53814697265625E-06	-1.74156787124957E-06	-270337.875	7.00456730555743E-05
1	251	90.9535697703643	0.676116943359375	0.676116943359375	-2.84820556640625E-06	-1.92571997104096E-06	-237383.484375	6.97744471835904E-05
1	252	91.05427777011	0.666046142578125	0.665985107421875	-3.03863525390625E-06	-2.02368573809508E-06	-219172.4375	6.94780246703885E-05
1	253	91.1549857698558	0.655975341796875	0.655853271484375	-3.1048583984375E-06	-2.03633135242853E-06	-211234.53125	6.91686727805063E-05
1	254	91.2556937696015	0.645904541015625	0.6458740234375	-3.0615234375E-06	-1.97735835172352E-06	-210964.921875	6.8858171289321E-05
1	255	91.3564017693473	0.635833740234375	0.635833740234375	-2.94097900390625E-06	-1.86997363016417E-06	-216198	6.85559207340702E-05
1	256	91.457109769093	0.625762939453125	0.625762939453125	-2.77252197265625E-06	-1.73494140653929E-06	-225701.71875	6.82682220940478E-05
1	257	91.5578177688387	0.615692138671875	0.61572265625	-2.5830078125E-06	-1.59041633196466E-06	-238374.296875	6.79985532769933E-05
1	258	91.6585257685845	0.605621337890625	0.6055908203125	-2.39105224609375E-06	-1.44799923873506E-06	-253273.765625	6.77480857120827E-05
1	259	91.7592337683302	0.595550537109375	0.59552001953125	-2.20489501953125E-06	-1.31305910144874E-06	-270089.96875	6.7516666604206E-05
1	260	91.8599417680759	0.585479736328125	0.58544921875	-2.032470703125E-06	-1.18990828923415E-06	-288048.0625	6.73032918712124E-05
1	261	91.9606497678217	0.575408935546875	0.575408935546875	-1.8743896484375E-06	-1.07854054931522E-06	-306984.71875	6.71065718051977E-05
1	262	92.0613577675674	0.565338134765625	0.565338134765625	-1.73187255859375E-06	-9.79093556452426E-07	-326431.71875	6.6924978455063E-05
1	263	92.1620657673132	0.555267333984375	0.55523681640625	-1.60247802734375E-06	-8.89754744548554E-07	-346486.40625	6.67570784571581E-05
1	264	92.2627737670589	0.545196533203125	0.545196533203125	-1.48681640625E-06	-8.10607104995142E-07	-366687.21875	6.66015257593244E-05
1	265	92.3634817668046	0.535125732421875	0.535125732421875	-1.3818359375E-06	-7.39455913389975E-07	-387257.09375	6.645707617281E-05
1	266	92.4641897665504	0.525054931640625	0.5250244140625	-1.28692626953125E-06	-6.75667706673266E-07	-407967.75	6.63226892356761E-05
1	267	92.5648977662961	0.514984130859375	0.51495361328125	-1.2005615234375E-06	-6.18233514160238E-07	-428927.28125	6.61974336253479E-05
1	268	92.6656057660418	0.504913330078125	0.504913330078125	-1.12213134765625E-06	-5.66579046790139E-07	-449959.25	6.60804798826575E-05
1	269	92.7663137657876	0.494842529296875	0.49481201171875	-1.05072021484375E-06	-5.19909008289687E-07	-470926.5	6.59710713080131E-05
1	270	92.8670217655333	0.484771728515625	0.484771728515625	-9.8541259765625E-07	-4.7770015498827E-07	-491947.96875	6.5868538513314E-05
1	271	92.967729765279	0.474700927734375	0.474700927734375	-9.246826171875E-07	-4.38947665770684E-07	-513366.34375	6.57723576296121E-05
1	272	93.0684377650248	0.464630126953125	0.464599609375	-8.6822509765625E-07	-4.03377015345541E-07	-535114.25	6.56820775475353E-05
1	273	93.1691457647705	0.454559326171875	0.45458984375	-8.1695556640625E-07	-3.71379684338535E-07	-556443.8125	6.55972253298387E-05
1	274	93.2698537645163	0.444488525390625	0.444549560546875	-7.6873779296875E-07	-3.4174203733528E-07	-578285.0625	6.55173789709806E-05
1	275	93.370561764262	0.434417724609375	0.434417724609375	-7.2357177734375E-07	-3.14332396555983E-07	-600379.625	6.54422328807414E-05
1	276	93.4712697640077	0.424346923828125	0.424346923828125	-6.8206787109375E-07	-2.8943341590093E-07	-622147.625	6.53714523650706E-05
1	277	93.5719777637535	0.414276123046875	0.41424560546875	-6.427001953125E-07	-2.66235730350672E-07	-644539.4375	6.53047463856637E-05
1	278	93.6726857634992	0.404205322265625	0.404205322265625	-6.04858398437499E-07	-2.44486983547176E-07	-668264.4375	6.52419257676229E-05
1	279	93.7733937632449	0.394134521484375	0.394195556640625	-5.6915283203125E-07	-2.24357506795059E-07	-692600.5625	6.51828086120076E-05
1	280	93.8741017629907	0.384063720703125	0.384063720703125	-5.35888671875E-07	-2.05815396725484E-07	-716685.6875	6.5127169364132E-05
1	281	93.9748097627364	0.373992919921875	0.373931884765625	-5.035400390625E-07	-1.8828967540685E-07	-742606.0625	6.50748261250556E-05
1	282	94.0755177624821	0.363922119140625	0.3638916015625	-4.72412109375001E-07	-1.71906791024412E-07	-770284.25	6.50256843073294E-05
1	283	94.1762257622279	0.353851318359375	0.35382080078125	-4.43420410156251E-07	-1.56891360347799E-07	-797935.3125	6.49795692879707E-05
1	284	94.2769337619736	0.343780517578125	0.343780517578125	-4.1534423828125E-07	-1.42787257573218E-07	-827700.25	6.49363282718696E-05
1	285	94.3776417617194	0.333709716796875	0.333709716796875	-3.875732421875E-07	-1.29336953591519E-07	-861023.625	6.48958957754076E-05
1	286	94.4783497614651	0.323638916015625	0.323699951171875	-3.6041259765625E-07	-1.16665539451333E-07	-898137.1875	6.48582354187965E-05
1	287	94.5790577612108	0.313568115234375	0.3135986328125	-3.3416748046875E-07	-1.04794466437852E-07	-938447.5	6.48232598905452E-05
1	288	94.6797657609566	0.303497314453125	0.303436279296875	-3.09143066406251E-07	-9.38052124865862E-08	-981540.0625	6.47908673272468E-05
1	289	94.7804737607023	0.293426513671875	0.29339599609375	-2.84423828124999E-07	-8.34488105283526E-08	-1031545.0625	6.47609776933677E-05
1	290	94.881181760448	0.283355712890625	0.2833251953125	-2.60009765624999E-07	-7.36673158030499E-08	-1089671.375	6.47335618850775E-05
1	291	94.9818897601938	0.273284912109375	0.27325439453125	-2.37121582031249E-07	-6.47945128662286E-08	-1152381	6.47085325908847E-05
1	292	95.0825977599395	0.263214111328125	0.263153076171875	-2.14538574218751E-07	-5.64564857086225E-08	-1226600.25	6.46857879473828E-05
1	293	95.1833057596853	0.253143310546875	0.253143310546875	-1.9256591796875E-07	-4.8746770175967E-08	-1314580.125	6.46652915747836E-05
1	294	95.284013759431	0.243072509765625	0.243072509765625	-1.71813964843751E-07	-4.17632506355403E-08	-1414742.5	6.46469416096807E-05
1	295	95.3847217591767	0.233001708984375	0.233001708984375	-1.5228271484375E-07	-3.5482131011122E-08	-1530060.125	6.4630621636752E-05
1	296	95.4854297589225	0.222930908203125	0.222900390625	-1.34887695312499E-07	-3.00665163877056E-08	-1652488.875	6.4616157033015E-05
1	297	95.5861377586682	0.212860107421875	0.21282958984375	-1.202392578125E-07	-2.55904701873533E-08	-1770050.875	6.4603314967826E-05
1	298	95.6868457584139	0.202789306640625	0.202880859375	-1.068115234375E-07	-2.16700133393033E-08	-1899428.625	6.45918844384141E-05
1	299	95.7875537581597	0.192718505859375	0.1927490234375	-9.765625E-08	-1.88231457087795E-08	-1973750	6.45815816824324E-05
1	300	95.8882617579054	0.182647705078125	0.1826171875	-9.06372070312494E-08	-1.65519118411339E-08	-2014814.75	6.45721011096612E-05
1	301	95.9889697576511	0.172576904296875	0.172607421875	-8.78906250000006E-08	-1.51705741302521E-08	-1963888.875	6.45631153020076E-05
1	302	96.0896777573969	0.162506103515625	0.162567138671875	-8.85009765625E-08	-1.43873499780511E-08	-1836896.625	6.45542313577607E-05
1	303	96.1903857571426	0.152435302734375	0.15252685546875	-9.67407226562494E-08	-1.47555576646141E-08	-1576656.25	6.45449035800993E-05
1	304	96.2910937568884	0.142364501953125	0.142425537109375	-1.129150390625E-07	-1.60819855210548E-08	-1261351.375	6.45343461656012E-05
1	305	96.3918017566341	0.132293701171875	0.132354736328125	-1.4007568359375E-07	-1.85396800134185E-08	-944880.1875	6.45216059638187E-05
1	306	96.4925097563798	0.122222900390625	0.122222900390625	-1.84020996093751E-07	-2.24915783775259E-08	-664179.125	6.45052859908901E-05
1	307	96.5932177561256	0.112152099609375	0.112213134765625	-2.490234375E-07	-2.79436989103488E-08	-450612.75	6.44834799459204E-05
1	308	96.6939257558713	0.102081298828125	0.102081298828125	-3.41186523437501E-07	-3.48287620965948E-08	-299195	6.44537649350241E-05
1	309	96.794633755617	0.092010498046875	0.092071533203125	-4.6844482421875E-07	-4.31304343351258E-08	-196547.234375	6.44129977445118E-05
1	310	96.8953417553628	0.081939697265625	0.082000732421875	-6.38427734375E-07	-5.23515382155892E-08	-128441.6875	6.43572566332296E-05
1	311	96.9960497551085	0.071868896484375	0.07183837890625	-8.52355957031251E-07	-6.12318657999822E-08	-84282.140625	6.4282190578524E-05
1	312	97.0967577548543	0.061798095703125	0.06182861328125	-1.104736328125E-06	-6.83043097637892E-08	-55966.85546875	6.41836450085975E-05
1	313	97.1974657546	0.051727294921875	0.05181884765625	-1.38397216796875E-06	-7.17158457064215E-08	-37442.1171875	6.40583311906084E-05
1	314	97.2981737543457	0.041656494140625	0.0417633056640625	-1.6644287109375E-06	-6.95120405680427E-08	-25091.677734375	6.3904830312822E-05
1	315	97.3988817540915	0.031585693359375	0.0316802978515625	-1.9195556640625E-06	-6.08120913625498E-08	-16503.974609375	6.37243647361174E-05
1	316	97.4995897538372	0.021514892578125	0.0215972900390625	-2.120361328125E-06	-4.57940600995244E-08	-10185.6650390625	6.35209362371825E-05
1	317	97.6002977535829	0.011444091796875	0.0115478515625	-2.252197265625E-06	-2.60080383895911E-08	-5127.37158203125	6.33007584838197E-05
1	318	97.7010057533287	0.001373291015625	0.0014678955078125	-2.3101806640625E-06	-3.39110362013173E-09	-635.402893066406	6.30710273981094E-05
1	319	97.8017137530744	-0.008697509765625	-0.0086090087890625	-2.3065185546875E-06	1.98568397280496E-08	3732.46899414063	6.28385605523363E-05
1	320	97.9024217528201	-0.018768310546875	-0.0186614990234375	-2.25738525390625E-06	4.21261923122529E-08	8266.865234375	6.26087494310923E-05
1	321	98.0031297525659	-0.028839111328125	-0.02872314453125	-2.18048095703125E-06	6.26302636419496E-08	13172.849609375	6.23852829448879E-05
1	322	98.1038377523116	-0.038909912109375	-0.0387969970703125	-2.0916748046875E-06	8.11507021580837E-08	18548.29296875	6.21701619820669E-05
1	323	98.2045457520574	-0.048980712890625	-0.048846435546875	-2.0001220703125E-06	9.76988303591497E-08	24421.7265625	6.19641214143485E-05
1	324	98.3052537518031	-0.059051513671875	-0.058990478515625	-1.91192626953125E-06	1.12785436101603E-07	30853.953125	6.17671394138597E-05
1	325	98.4059617515488	-0.069122314453125	-0.069061279296875	-1.82952880859375E-06	1.26349590345853E-07	37748.125	6.1578735767398E-05
1	326	98.5066697512946	-0.079193115234375	-0.079132080078125	-1.75537109375E-06	1.38906159463659E-07	45079.97265625	6.13982265349478E-05
1	327	98.6073777510403	-0.089263916015625	-0.089202880859375	-1.68975830078125E-06	1.50731310100127E-07	52790.3203125	6.12247458775528E-05
1	328	98.708085750786	-0.099334716796875	-0.099212646484375	-1.63238525390625E-06	1.619532525865E-07	60777.71875	6.10574643360451E-05
1	329	98.8087937505318	-0.109405517578125	-0.10931396484375	-1.58294677734375E-06	1.73038188222563E-07	69057.2578125	6.08955597272143E-05
1	330	98.9095017502775	-0.119476318359375	-0.119384765625	-1.53961181640625E-06	1.83806179165913E-07	77542.125	6.07383262831718E-05
1	331	99.0102097500233	-0.129547119140625	-0.129425048828125	-1.5032958984375E-06	1.94564137245834E-07	86094.1953125	6.05851055297535E-05
1	332	99.110917749769	-0.139617919921875	-0.1395263671875	-1.47125244140625E-06	2.05278496423489E-07	94835.1015625	6.04353263042867E-05
1	333	99.2116257495147	-0.149688720703125	-0.149566650390625	-1.4453125E-06	2.16170548128503E-07	103483.953125	6.02884647378232E-05
1	334	99.3123337492605	-0.159759521484375	-0.15960693359375	-1.42303466796875E-06	2.27126193408367E-07	112159.5546875	6.01440297032241E-05
1	335	99.4130417490062	-0.169830322265625	-0.16973876953125	-1.4056396484375E-06	2.38591553625156E-07	120755.5390625	6.00015955569688E-05
1	336	99.5137497487519	-0.179901123046875	-0.179718017578125	-1.39190673828125E-06	2.5015071969392E-07	129116.421875	5.98607293795794E-05
1	337	99.6144577484977	-0.189971923828125	-0.1898193359375	-1.3812255859375E-06	2.62183306176667E-07	137428.203125	5.9721089201048E-05
1	338	99.7151657482434	-0.200042724609375	-0.199920654296875	-1.3751220703125E-06	2.74915294085076E-07	145383.9375	5.95822966715787E-05
1	339	99.8158737479891	-0.189971923828125	-0.1898193359375	-1.21124267578125E-06	2.29917276328706E-07	156714.546875	5.94520643062424E-05
2	340	99.9165817477349	-0.179901123046875	-0.17974853515625	-1.09527587890625E-06	1.96874225366628E-07	164112.578125	5.9335921832826E-05
2	341	100.017289747481	-0.169830322265625	-0.169647216796875	-1.0028076171875E-06	1.70123513498766E-07	169172.25	5.9230274928268E-05
2	342	100.117997747226	-0.159759521484375	-0.159637451171875	-9.2376708984375E-07	1.47467815736491E-07	172811.375	5.91332645853981E-05
2	343	100.218705746972	-0.149688720703125	-0.14959716796875	-8.53881835937501E-07	1.27738303490332E-07	175196.578125	5.90437521168496E-05
2	344	100.319413746718	-0.139617919921875	-0.139495849609375	-7.92541503906249E-07	1.10556243271276E-07	176010.78125	5.89608462178148E-05
2	345	100.420121746464	-0.129547119140625	-0.12945556640625	-7.373046875E-07	9.5448193349057E-08	175579.46875	5.88838120165747E-05
2	346	100.520829746209	-0.119476318359375	-0.11944580078125	-6.85729980468749E-07	8.1907565174788E-08	174187.8125	5.88121583859902E-05
2	347	100.621537745955	-0.109405517578125	-0.109283447265625	-6.36901855468749E-07	6.96028337188181E-08	171586	5.87455579079688E-05
2	348	100.722245745701	-0.099334716796875	-0.0992431640625	-5.908203125E-07	5.86348782860568E-08	167975.203125	5.86837377340999E-05
2	349	100.822953745447	-0.089263916015625	-0.089202880859375	-5.4443359375E-07	4.85650453185826E-08	163845.296875	5.8626574173104E-05
2	350	100.923661745192	-0.079193115234375	-0.079071044921875	-4.9713134765625E-07	3.93086949657118E-08	159054.640625	5.85741254326422E-05
2	351	101.024369744938	-0.069122314453125	-0.069061279296875	-4.46166992187499E-07	3.08128633719207E-08	154787.96875	5.85266279813368E-05
2	352	101.125077744684	-0.059051513671875	-0.058929443359375	-3.8909912109375E-07	2.29293934950192E-08	151450.984375	5.8484569308348E-05
2	353	101.225785744429	-0.048980712890625	-0.0488800048828125	-3.2196044921875E-07	1.57374273612731E-08	151819.90625	5.84487643209286E-05
2	354	101.326493744175	-0.038909912109375	-0.0388092041015625	-2.392578125E-07	9.28540533351452E-09	162206.625	5.84205045015551E-05
2	355	101.427201743921	-0.028839111328125	-0.0286895751953125	-1.35498046875E-07	3.88738108370035E-09	211734.234375	5.84016343054827E-05
2	356	101.527909743667	-0.018768310546875	-0.0186676025390625	-2.44140625000056E-09	4.55751998640341E-11	7646250.5	5.839468940394E-05
2	357	101.628617743412	-0.008697509765625	-0.00859375	1.67236328125001E-07	-1.43718714706864E-09	-51386.86328125	5.8402987633599E-05
2	358	101.729325743158	0.001373291015625	0.00144042968749999	3.7811279296875E-07	5.44644884747925E-10	3809.52392578125	5.84304470976349E-05
2	359	101.830033742904	0.011444091796875	0.0115570068359375	6.32629394531251E-07	7.31130267439539E-09	18268.2109375	5.84813424211461E-05
2	360	101.93074174265	0.021514892578125	0.021630859375	9.2193603515625E-07	1.99422682811701E-08	23462.4296875	5.85596208111383E-05
2	361	102.031449742395	0.031585693359375	0.0316741943359375	1.22772216796875E-06	3.88871086443032E-08	25799.15625	5.86678652325645E-05
2	362	102.132157742141	0.041656494140625	0.041741943359375	1.52557373046875E-06	6.36804102782662E-08	27361.474609375	5.8806504966924E-05
2	363	102.232865741887	0.051727294921875	0.05169677734375	1.78466796875E-06	9.22615797094295E-08	28967.169921875	5.89731862419285E-05
2	364	102.333573741633	0.061798095703125	0.061859130859375	1.98150634765625E-06	1.22574263627939E-07	31218.234375	5.91628304391634E-05
2	365	102.434281741378	0.071868896484375	0.071868896484375	2.10540771484375E-06	1.51313329865843E-07	34135.3828125	5.93686199863441E-05
2	366	102.534989741124	0.081939697265625	0.08197021484375	2.15728759765625E-06	1.7683332487195E-07	37996.88671875	5.95832643739413E-05
2	367	102.63569774087	0.092010498046875	0.09197998046875	2.15057373046875E-06	1.9780972593253E-07	42769.97265625	5.9800182498293E-05
2	368	102.736405740616	0.102081298828125	0.102081298828125	2.1038818359375E-06	2.14766984640846E-07	48520.453125	6.00144121563062E-05
2	369	102.837113740361	0.112152099609375	0.112213134765625	2.03338623046875E-06	2.2817263811703E-07	55185.3515625	6.02227410126943E-05
2	370	102.937821740107	0.122222900390625	0.122314453125	1.953125E-06	2.38895410120676E-07	62625.00390625	6.0423477407312E-05
2	371	103.038529739853	0.132293701171875	0.132354736328125	1.87103271484375E-06	2.47640031147967E-07	70738.875	6.06160392635502E-05
2	372	103.139237739598	0.142364501953125	0.14239501953125	1.79168701171875E-06	2.55127304171765E-07	79475.390625	6.08004702371545E-05
2	373	103.239945739344	0.152435302734375	0.15252685546875	1.71844482421875E-06	2.62108983406506E-07	88758.6640625	6.09772214374971E-05
2	374	103.34065373909	0.162506103515625	0.1624755859375	1.65252685546875E-06	2.6849525625039E-07	98319.484375	6.11469658906572E-05
2	375	103.441361738836	0.172576904296875	0.172637939453125	1.5936279296875E-06	2.75120640935711E-07	108330.1484375	6.13104202784598E-05
2	376	103.542069738581	0.182647705078125	0.1826171875	1.54052734375E-06	2.81326748563515E-07	118542.0078125	6.14682357991114E-05
2	377	103.642777738327	0.192718505859375	0.19268798828125	1.49444580078125E-06	2.87961739786624E-07	128936.0859375	6.16210600128397E-05
2	378	103.743485738073	0.202789306640625	0.202850341796875	1.453857421875E-06	2.94915480480995E-07	139525.609375	6.17695186519995E-05
2	379	103.844193737819	0.212860107421875	0.212860107421875	1.41754150390625E-06	3.01738026564635E-07	150161.46875	6.19141064817086E-05
2	380	103.944901737564	0.222930908203125	0.222991943359375	1.385498046875E-06	3.08954895444913E-07	160947.140625	6.20552455075085E-05
2	381	104.04560973731	0.233001708984375	0.2330322265625	1.35711669921875E-06	3.16251913545784E-07	171711.28125	6.21933504589833E-05
2	382	104.146317737056	0.243072509765625	0.243072509765625	1.331787109375E-06	3.23720826145291E-07	182516.046875	6.23287487542257E-05
2	383	104.247025736802	0.253143310546875	0.253173828125	1.3092041015625E-06	3.31456220692417E-07	193379.953125	6.24617314315401E-05
2	384	104.347733736547	0.263214111328125	0.26318359375	1.2890625E-06	3.3926008313756E-07	204166.671875	6.25925677013583E-05
2	385	104.448441736293	0.273284912109375	0.2733154296875	1.270751953125E-06	3.47316102988771E-07	215081.65625	6.27214612904936E-05
2	386	104.549149736039	0.283355712890625	0.283355712890625	1.25457763671875E-06	3.55491721393264E-07	225857.46875	6.28486232017167E-05
2	387	104.649857735785	0.293426513671875	0.293426513671875	1.23992919921875E-06	3.63828092986296E-07	236647.8125	6.29742280580103E-05
2	388	104.75056573553	0.303497314453125	0.30352783203125	1.2274169921875E-06	3.72555206240577E-07	247289.90625	6.30984723102301E-05
2	389	104.851273735276	0.313568115234375	0.313568115234375	1.21551513671875E-06	3.81146776362584E-07	257971.390625	6.32214796496555E-05
2	390	104.951981735022	0.323638916015625	0.323638916015625	1.2054443359375E-06	3.90128690241909E-07	268481.03125	6.33433883194812E-05
2	391	105.052689734767	0.333709716796875	0.333709716796875	1.1956787109375E-06	3.99009593365918E-07	279096.46875	6.34642929071561E-05
2	392	105.153397734513	0.343780517578125	0.34375	1.18804931640625E-06	4.08391940709407E-07	289339.84375	6.35843243799172E-05
2	393	105.254105734259	0.353851318359375	0.3538818359375	1.1810302734375E-06	4.17945159369992E-07	299638.25	6.37036137050018E-05
2	394	105.354813734005	0.363922119140625	0.363861083984375	1.1749267578125E-06	4.27510116196572E-07	309688.3125	6.3822248193901E-05
2	395	105.45552173375	0.373992919921875	0.373992919921875	1.1700439453125E-06	4.3758814172179E-07	319640.0625	6.39403297100216E-05
2	396	105.556229733496	0.384063720703125	0.384063720703125	1.16607666015625E-06	4.47847753548558E-07	329364.03125	6.40579601167701E-05
2	397	105.656937733242	0.394134521484375	0.3941650390625	1.1627197265625E-06	4.58303475170396E-07	339002.625	6.41752267256379E-05
2	398	105.757645732988	0.404205322265625	0.40423583984375	1.16058349609375E-06	4.69149426862714E-07	348303.96875	6.42922095721588E-05
2	399	105.858353732733	0.414276123046875	0.414276123046875	1.1590576171875E-06	4.80169887850934E-07	357424.96875	6.44090177956969E-05
2	400	105.959061732479	0.424346923828125	0.424285888671875	1.15814208984375E-06	4.91383332246187E-07	366350.46875	6.45256950519979E-05
2	401	106.059769732225	0.434417724609375	0.4344482421875	1.1578369140625E-06	5.03020203268534E-07	375224.03125	6.4642314100638E-05
2	402	106.160477731971	0.444488525390625	0.444488525390625	1.158447265625E-06	5.14916507654561E-07	383693.34375	6.47589477011934E-05
2	403	106.261185731716	0.454559326171875	0.45452880859375	1.15966796875E-06	5.27102486103104E-07	391947.375	6.48756758891977E-05
2	404	106.361893731462	0.464630126953125	0.464599609375	1.1614990234375E-06	5.39631969331822E-07	400000.03125	6.4992556872312E-05
2	405	106.462601731208	0.474700927734375	0.474700927734375	1.16363525390625E-06	5.52378764950845E-07	407946.5	6.51096343062818E-05
2	406	106.563309730954	0.484771728515625	0.4847412109375	1.16668701171875E-06	5.65541256491997E-07	415485.25	6.52269736747257E-05
2	407	106.664017730699	0.494842529296875	0.49481201171875	1.170654296875E-06	5.79253821797465E-07	422679.875	6.53446695650928E-05
2	408	106.764725730445	0.504913330078125	0.50494384765625	1.17645263671875E-06	5.94042546708806E-07	429208.8125	6.54628602205776E-05
2	409	106.865433730191	0.514984130859375	0.514923095703125	1.182861328125E-06	6.09082576374931E-07	435319.9375	6.55816547805443E-05
2	410	106.966141729936	0.525054931640625	0.525054931640625	1.1907958984375E-06	6.25233212758758E-07	440927.75	6.57011842122301E-05
2	411	107.066849729682	0.535125732421875	0.535125732421875	1.201171875E-06	6.42777933990146E-07	445503.0625	6.58216231386177E-05
2	412	107.167557729428	0.545196533203125	0.545196533203125	1.21337890625E-06	6.61529952594719E-07	449320.96875	6.59432116663083E-05
2	413	107.268265729174	0.555267333984375	0.555206298828125	1.23016357421875E-06	6.8299453914733E-07	451327.21875	6.60662481095642E-05
2	414	107.368973728919	0.565338134765625	0.56524658203125	1.25091552734375E-06	7.07075685113523E-07	451866.3125	6.61911835777573E-05
2	415	107.469681728665	0.575408935546875	0.575408935546875	1.27960205078125E-06	7.36294396119774E-07	449678.0625	6.63186074234545E-05
2	416	107.570389728411	0.585479736328125	0.585357666015625	1.317138671875E-06	7.7099718964746E-07	444416.125	6.6449363657739E-05
2	417	107.671097728157	0.595550537109375	0.595489501953125	1.3690185546875E-06	8.15236148810072E-07	434975.5	6.65846164338291E-05
2	418	107.771805727902	0.605621337890625	0.605560302734375	1.44012451171875E-06	8.72082239311567E-07	420491.625	6.67260683258064E-05
2	419	107.872513727648	0.615692138671875	0.615631103515625	1.539306640625E-06	9.47644991811103E-07	399940.53125	6.68760985718109E-05
2	420	107.973221727394	0.625762939453125	0.625762939453125	1.67388916015625E-06	1.04745777207427E-06	373837.75	6.70378940412775E-05
2	421	108.07392972714	0.635833740234375	0.6357421875	1.8560791015625E-06	1.17998774840089E-06	342518.90625	6.7215645685792E-05
2	422	108.174637726885	0.645904541015625	0.645843505859375	2.09564208984375E-06	1.35345680973842E-06	308184.09375	6.74146285746247E-05
2	423	108.275345726631	0.655975341796875	0.655853271484375	2.398681640625E-06	1.57318311266863E-06	273422.40625	6.76409326842986E-05
2	424	108.376053726377	0.666046142578125	0.66595458984375	2.76947021484375E-06	1.84434145467094E-06	240462.8125	6.79011718602851E-05
2	425	108.476761726123	0.676116943359375	0.676025390625	3.1988525390625E-06	2.16250555240549E-06	211333.71875	6.82016980135813E-05
2	426	108.577469725868	0.686187744140625	0.68609619140625	3.6688232421875E-06	2.51716551247227E-06	187007.15625	6.85475170030259E-05
2	427	108.678177725614	0.696258544921875	0.6961669921875	4.1473388671875E-06	2.88724027086573E-06	167858.734375	6.89410881022923E-05
2	428	108.77888572536	0.706329345703125	0.706298828125	4.5965576171875E-06	3.24654320138507E-06	153658.21875	6.93813781253994E-05
2	429	108.879593725105	0.716400146484375	0.71630859375	4.974365234375E-06	3.56318059857585E-06	144000	6.986331572989E-05
2	430	108.980301724851	0.726470947265625	0.726287841796875	5.2490234375E-06	3.81230165658053E-06	138366.28125	7.03781042830087E-05
2	431	109.081009724597	0.736541748046875	0.736297607421875	5.4046630859375E-06	3.97944040742004E-06	136233.765625	7.09145606379025E-05
2	432	109.181717724343	0.746612548828125	0.746429443359375	5.4534912109375E-06	4.07064635510324E-06	136871.859375	7.14613124728203E-05
2	433	109.282425724088	0.756683349609375	0.7568359375	5.413818359375E-06	4.09737231166218E-06	139797.078125	7.20085226930678E-05
2	434	109.383133723834	0.766754150390625	0.7672119140625	5.316162109375E-06	4.07862307838514E-06	144316.875	7.25488207535818E-05
2	435	109.48384172358	0.776824951171875	0.77728271484375	5.194091796875E-06	4.03727744924254E-06	149647.484375	7.30780520825647E-05
2	436	109.584549723326	0.786895751953125	0.787353515625	5.0689697265625E-06	3.99107102566632E-06	155328.125	7.35948415240273E-05
2	437	109.685257723071	0.796966552734375	0.797119140625	4.9560546875E-06	3.95056576962816E-06	160837.453125	7.40996401873417E-05
2	438	109.785965722817	0.807037353515625	0.806884765625	4.8681640625E-06	3.92804759030696E-06	165747.234375	7.45943325455301E-05
2	439	109.886673722563	0.817108154296875	0.81756591796875	4.8126220703125E-06	3.9346359699266E-06	169879.515625	7.50817926018499E-05
2	440	109.987381722309	0.827178955078125	0.82763671875	4.79522705078125E-06	3.96870609620237E-06	172595.9375	7.55655855755322E-05
2	441	110.088089722054	0.837249755859375	0.83770751953125	4.81597900390625E-06	4.03438207285944E-06	173943.34375	7.60495531721972E-05
2	442	110.1887977218	0.847320556640625	0.8477783203125	4.87213134765625E-06	4.13048746850109E-06	174005.640625	7.65373843023553E-05
2	443	110.289505721546	0.857391357421875	0.8575439453125	4.9560546875E-06	4.25003463533358E-06	173029.5625	7.70322731113993E-05
2	444	110.390213721292	0.867462158203125	0.8673095703125	5.047607421875E-06	4.37783819506876E-06	171825.875	7.75360022089444E-05
2	445	110.490921721037	0.877532958984375	0.877685546875	5.133056640625E-06	4.5052097448206E-06	170986.921875	7.80486370786093E-05
2	446	110.591629720783	0.887603759765625	0.88714599609375	5.1910400390625E-06	4.60521005152259E-06	170899.484375	7.85684969741851E-05
2	447	110.692337720529	0.897674560546875	0.8978271484375	5.218505859375E-06	4.685316071118E-06	172046.796875	7.90926569607109E-05
2	448	110.793045720274	0.907745361328125	0.908203125	5.2093505859375E-06	4.73114823762444E-06	174340.953125	7.96177409938537E-05
2	449	110.89375372002	0.917816162109375	0.91766357421875	5.17578125E-06	4.74962598673301E-06	177299.53125	8.01406786195002E-05
2	450	110.994461719766	0.927886962890625	0.92803955078125	5.1239013671875E-06	4.75518299936084E-06	181119.71875	8.06593088782392E-05
2	451	111.095169719512	0.937957763671875	0.93780517578125	5.0689697265625E-06	4.75370597996516E-06	185009.03125	8.11725549283437E-05
2	452	111.195877719257	0.948028564453125	0.94757080078125	5.0201416015625E-06	4.75693968837732E-06	188753.796875	8.16805841168389E-05
2	453	111.296585719003	0.958099365234375	0.958251953125	4.9896240234375E-06	4.78131687486893E-06	192048.9375	8.21846188046038E-05
2	454	111.397293718749	0.968170166015625	0.9674072265625	4.9835205078125E-06	4.82109362565097E-06	194121.265625	8.26868053991348E-05
2	455	111.498001718495	0.978240966796875	0.977783203125	5.0140380859375E-06	4.90264210384339E-06	195009.140625	8.31902216305025E-05
2	456	111.59870971824	0.988311767578125	0.98876953125	5.0811767578125E-06	5.02411285197013E-06	194594.59375	8.36985564092174E-05
2	457	111.699417717986	0.998382568359375	0.99853515625	5.1910400390625E-06	5.18343540534261E-06	192357.453125	8.42158042360097E-05
2	458	111.800125717732	1.00845336914063	1.00799560546875	5.3375244140625E-06	5.38020094609237E-06	188850.78125	8.47459596116096E-05
2	459	111.900833717478	1.01852416992188	1.0186767578125	5.5084228515625E-06	5.61130218557082E-06	184930.75	8.52920929901302E-05
2	460	112.001541717223	1.02859497070313	1.02874755859375	5.682373046875E-06	5.8457271734369E-06	181041.890625	8.58555940794758E-05
2	461	112.102249716969	1.03866577148438	1.038818359375	5.841064453125E-06	6.06780486123171E-06	177847.453125	8.64358444232494E-05
2	462	112.202957716715	1.04873657226563	1.04888916015625	5.95703125E-06	6.24826543571544E-06	176075.828125	8.70299263624474E-05
2	463	112.303665716461	1.05880737304688	1.0589599609375	6.01806640625E-06	6.37289122096263E-06	175963.484375	8.76329213497229E-05
2	464	112.404373716206	1.06887817382813	1.06903076171875	6.0272216796875E-06	6.44328520138515E-06	177367.09375	8.82394524523988E-05
2	465	112.505081715952	1.07894897460938	1.0791015625	5.987548828125E-06	6.46117314317962E-06	180224.265625	8.88444410520606E-05
2	466	112.605789715698	1.08901977539063	1.0888671875	5.914306640625E-06	6.43989460513694E-06	184107.328125	8.94437471288256E-05
2	467	112.706497715443	1.09909057617188	1.09832763671875	5.8197021484375E-06	6.39193967799656E-06	188725.75	9.00346058188006E-05
2	468	112.807205715189	1.10916137695313	1.10931396484375	5.7159423828125E-06	6.34077468930627E-06	194073.6875	9.06154673430137E-05
2	469	112.907913714935	1.11923217773438	1.119384765625	5.6121826171875E-06	6.28219186182832E-06	199456.234375	9.11858878680505E-05
2	470	113.008621714681	1.12930297851563	1.129150390625	5.511474609375E-06	6.22328388999449E-06	204872.640625	9.17460056371056E-05
2	471	113.109329714426	1.13937377929688	1.13922119140625	5.4168701171875E-06	6.17101295574685E-06	210309.859375	9.22962935874239E-05
2	472	113.210037714172	1.14944458007813	1.14990234375	5.3314208984375E-06	6.13061320109409E-06	215684.046875	9.28375084185973E-05
2	473	113.310745713918	1.15951538085938	1.15997314453125	5.2520751953125E-06	6.09226572123589E-06	220859.96875	9.33704359340481E-05
2	474	113.411453713664	1.16958618164063	1.16973876953125	5.181884765625E-06	6.06145158599247E-06	225736.15625	9.38958255574107E-05
2	475	113.512161713409	1.17965698242188	1.17950439453125	5.11474609375E-06	6.03286525802105E-06	230608.609375	9.44143030210398E-05
2	476	113.612869713155	1.18972778320313	1.18988037109375	5.0567626953125E-06	6.01694227952976E-06	235304.78125	9.4926479505375E-05
2	477	113.713577712901	1.19979858398438	1.199951171875	5.0048828125E-06	6.00561452301918E-06	239756.109375	9.54331189859658E-05
2	478	113.814285712647	1.20986938476563	1.21002197265625	4.95635986328125E-06	5.99730401518173E-06	244135.234375	9.59347089519724E-05
2	479	113.914993712392	1.21994018554688	1.21978759765625	4.9139404296875E-06	5.99396344114211E-06	248230.046875	9.64317150646821E-05
2	480	114.015701712138	1.23001098632813	1.23016357421875	4.87548828125E-06	5.997647804179E-06	252315.984375	9.69246539170854E-05
2	481	114.116409711884	1.24008178710938	1.23992919921875	4.84100341796875E-06	6.00250132265501E-06	256130.625	9.74139184108935E-05
2	482	114.217117711629	1.25015258789063	1.25030517578125	4.80987548828125E-06	6.01381225351361E-06	259945.4375	9.78998796199448E-05
2	483	114.317825711375	1.26022338867188	1.259765625	4.78240966796875E-06	6.02471527599846E-06	263416.5	9.83828867902048E-05
2	484	114.418533711121	1.27029418945313	1.27044677734375	4.75799560546875E-06	6.04478009336162E-06	267013.03125	9.88632891676389E-05
2	485	114.519241710867	1.28036499023438	1.28021240234375	4.73663330078125E-06	6.06389676249819E-06	270278.96875	9.93413777905516E-05
2	486	114.619949710612	1.29043579101563	1.29058837890625	4.7186279296875E-06	6.08980599281495E-06	273509.25	9.98174873529933E-05
2	487	114.720657710358	1.30050659179688	1.30035400390625	4.7027587890625E-06	6.1152513808338E-06	276508.75	0.000100291894341353
2	488	114.821365710104	1.31057739257813	1.31072998046875	4.69024658203125E-06	6.14764667261625E-06	279458.65625	0.000100764867966063
2	489	114.92207370985	1.32064819335938	1.32080078125	4.6807861328125E-06	6.18238573224517E-06	282175	0.000101236735645216
2	490	115.022781709595	1.33071899414063	1.33056640625	4.674072265625E-06	6.21916296950076E-06	284669.65625	0.000101707795693073
2	491	115.123489709341	1.34078979492188	1.3409423828125	4.67010498046875E-06	6.26234123046743E-06	287133.25	0.00010217831004411
2	492	115.224197709087	1.35086059570313	1.35040283203125	4.66888427734375E-06	6.30487465969054E-06	289234.59375	0.000102648562460672
2	493	115.324905708833	1.36093139648438	1.361083984375	4.67010498046875E-06	6.35640481050359E-06	291446.125	0.000103118822153192
2	494	115.425613708578	1.37100219726563	1.370849609375	4.67376708984375E-06	6.40703137833043E-06	293307.21875	0.000103589321952313
2	495	115.526321708324	1.38107299804688	1.380615234375	4.678955078125E-06	6.45983664071537E-06	295069.125	0.000104060272860806
2	496	115.62702970807	1.39114379882813	1.39129638671875	4.68658447265625E-06	6.52042808724218E-06	296867.875	0.00010453186405357
2	497	115.727737707816	1.40121459960938	1.4013671875	4.6954345703125E-06	6.58002818454406E-06	298453.125	0.000105004284705501
2	498	115.828445707561	1.41128540039063	1.41082763671875	4.70611572265625E-06	6.63951823298703E-06	299786	0.00010547768761171
2	499	115.929153707307	1.42135620117188	1.4215087890625	4.71832275390625E-06	6.70713689032709E-06	301274.1875	0.00010595224739518
2	500	116.029861707053	1.43142700195313	1.4312744140625	4.7314453125E-06	6.77199659548933E-06	302502.59375	0.000106428080471233
2	501	116.130569706798	1.44149780273438	1.441650390625	4.7479248046875E-06	6.84484757584869E-06	303638	0.000106905405118596
2	502	116.231277706544	1.45156860351563	1.45172119140625	4.76715087890625E-06	6.92057346896036E-06	304525.96875	0.00010738452692749
2	503	116.33198570629	1.46163940429688	1.46148681640625	4.791259765625E-06	7.00236250850139E-06	305031.875	0.000107865831523668
2	504	116.432693706036	1.47171020507813	1.47186279296875	4.82177734375E-06	7.09699452272616E-06	305253.1875	0.000108349886431824
2	505	116.533401705781	1.48178100585938	1.48223876953125	4.86114501953125E-06	7.20537764209439E-06	304915.5625	0.000108837462903466
2	506	116.634109705527	1.49185180664063	1.49169921875	4.912109375E-06	7.32738908482133E-06	303677.96875	0.000109329579572659
2	507	116.734817705273	1.50192260742188	1.50146484375	4.9774169921875E-06	7.47341618989594E-06	301655.4375	0.000109827560663689
2	508	116.835525705019	1.49185180664063	1.49139404296875	4.7265625E-06	7.04916737959138E-06	315534.59375	0.000110316192149185
2	509	116.936233704764	1.48178100585938	1.48162841796875	4.5452880859375E-06	6.73442764309584E-06	325970.1875	0.000110783068521414
2	510	117.03694170451	1.47171020507813	1.47186279296875	4.40338134765625E-06	6.48117338641896E-06	334257.40625	0.00011123366857646
2	511	117.137649704256	1.46163940429688	1.46148681640625	4.2877197265625E-06	6.26644578005653E-06	340854.09375	0.000111671302875038
2	512	117.238357704002	1.45156860351563	1.451416015625	4.19097900390625E-06	6.08285381531459E-06	346319.09375	0.000112098241515923
2	513	117.339065703747	1.44149780273438	1.441650390625	4.10980224609375E-06	5.92489732298418E-06	350783.4375	0.000112516216177028
2	514	117.439773703493	1.43142700195313	1.43157958984375	4.0386962890625E-06	5.78171511733672E-06	354465.78125	0.000112926521978807
2	515	117.540481703239	1.42135620117188	1.4215087890625	3.9776611328125E-06	5.65427990295575E-06	357373.03125	0.000113330184831284
2	516	117.641189702985	1.41128540039063	1.4111328125	3.9227294921875E-06	5.53549216419924E-06	359732.40625	0.000113727997813839
2	517	117.74189770273	1.40121459960938	1.40106201171875	3.8739013671875E-06	5.42757607036037E-06	361666.9375	0.000114120586658828
2	518	117.842605702476	1.39114379882813	1.39129638671875	3.82965087890625E-06	5.32817921339301E-06	363295.90625	0.000114508497063071
2	519	117.943313702222	1.38107299804688	1.38092041015625	3.7890625E-06	5.23239350513904E-06	364449.09375	0.000114892129204236
2	520	118.044021701967	1.37100219726563	1.3714599609375	3.75213623046875E-06	5.14590419697925E-06	365514.4375	0.000115271854156163
2	521	118.144729701713	1.36093139648438	1.36077880859375	3.7176513671875E-06	5.05890102431295E-06	366031.875	0.000115647992060985
2	522	118.245437701459	1.35086059570313	1.3507080078125	3.685302734375E-06	4.97776773045189E-06	366512.09375	0.000116020761197433
2	523	118.346145701205	1.34078979492188	1.34033203125	3.6553955078125E-06	4.89944341097726E-06	366672.25	0.000116390394396149
2	524	118.44685370095	1.33071899414063	1.33026123046875	3.6273193359375E-06	4.82528230349999E-06	366733.96875	0.000116757102659903
2	525	118.547561700696	1.32064819335938	1.32080078125	3.60107421875E-06	4.75630167784402E-06	366779.65625	0.000117121082439553
2	526	118.648269700442	1.31057739257813	1.3104248046875	3.57635498046875E-06	4.68654388896539E-06	366413.53125	0.000117482493806165
2	527	118.748977700188	1.30050659179688	1.3006591796875	3.55224609375E-06	4.62026127934223E-06	366151.21875	0.00011784145317506
2	528	118.849685699933	1.29043579101563	1.29058837890625	3.52996826171875E-06	4.5557358134829E-06	365609.0625	0.000118198069685604
2	529	118.950393699679	1.28036499023438	1.28082275390625	3.50830078125E-06	4.49351136921905E-06	365083.5	0.000118552474305034
2	530	119.051101699425	1.27029418945313	1.27044677734375	3.48785400390625E-06	4.43113276560325E-06	364248.84375	0.00011890475434484
2	531	119.151809699171	1.26022338867188	1.26007080078125	3.46771240234375E-06	4.36956315752468E-06	363372.34375	0.000119254997116514
2	532	119.252517698916	1.25015258789063	1.25	3.4490966796875E-06	4.31137050327379E-06	362413.75	0.000119603289931547
2	533	119.353225698662	1.24008178710938	1.240234375	3.4307861328125E-06	4.25497910327977E-06	361501.5	0.000119949712825473
2	534	119.453933698408	1.23001098632813	1.23046875	3.4124755859375E-06	4.19894467995618E-06	360579.5	0.000120294302178081
2	535	119.554641698154	1.21994018554688	1.2200927734375	3.39599609375E-06	4.14343003285467E-06	359273.9375	0.000120637138024904
2	536	119.655349697899	1.20986938476563	1.21002197265625	3.37921142578125E-06	4.08891992265126E-06	358078.21875	0.000120978293125518
2	537	119.756057697645	1.19979858398438	1.1993408203125	3.36212158203125E-06	4.03232979806489E-06	356721.4375	0.00012131774565205
2	538	119.856765697391	1.18972778320313	1.1895751953125	3.34503173828125E-06	3.97916664951481E-06	355624.5	0.000121655481052585
2	539	119.957473697136	1.17965698242188	1.17919921875	3.3270263671875E-06	3.92322681364021E-06	354430.40625	0.000121991441119462
2	540	120.058181696882	1.16958618164063	1.16973876953125	3.30780029296875E-06	3.86926194551052E-06	353630.40625	0.00012232553854119
2	541	120.158889696628	1.15951538085938	1.15966796875	3.28765869140625E-06	3.81259224013775E-06	352733.71875	0.000122657642350532
2	542	120.259597696374	1.14944458007813	1.14959716796875	3.26416015625E-06	3.75246918338235E-06	352187.75	0.000122987548820674
2	543	120.360305696119	1.13937377929688	1.13983154296875	3.23638916015625E-06	3.68893847735308E-06	352192.375	0.000123314879601821
2	544	120.461013695865	1.12930297851563	1.12884521484375	3.201904296875E-06	3.61445427188301E-06	352554.3125	0.000123639081721194
2	545	120.561721695611	1.11923217773438	1.119384765625	3.1585693359375E-06	3.53565428667935E-06	354396.15625	0.000123959354823455
2	546	120.662429695357	1.10916137695313	1.1090087890625	3.10211181640625E-06	3.44026921084151E-06	357501.21875	0.000124274592963047
2	547	120.763137695102	1.09909057617188	1.09893798828125	3.02703857421875E-06	3.32652757606411E-06	363040.65625	0.000124583224533126
2	548	120.863845694848	1.08901977539063	1.08917236328125	2.928466796875E-06	3.1896049677016E-06	371925.8125	0.000124883110402152
2	549	120.964553694594	1.07894897460938	1.07879638671875	2.7996826171875E-06	3.02028729493031E-06	385328.125	0.000125171543913893
2	550	121.06526169434	1.06887817382813	1.06964111328125	2.63519287109375E-06	2.81871075458184E-06	405906.1875	0.000125445207231678
2	551	121.165969694085	1.05880737304688	1.0589599609375	2.435302734375E-06	2.57888791566074E-06	434837.125	0.000125700535136275
2	552	121.266677693831	1.04873657226563	1.048583984375	2.2015380859375E-06	2.30849764193408E-06	476296.09375	0.000125934020616114
2	553	121.367385693577	1.03866577148438	1.03851318359375	1.95068359375E-06	2.0258105450921E-06	532384.25	0.000126143102534115
2	554	121.468093693323	1.02859497070313	1.02813720703125	1.70074462890625E-06	1.74859883372847E-06	604521.8125	0.000126326965983026
2	555	121.568801693068	1.01852416992188	1.0186767578125	1.4776611328125E-06	1.50525897879561E-06	689384.5625	0.000126487007946707
2	556	121.669509692814	1.00845336914063	1.0089111328125	1.30340576171875E-06	1.31502054045995E-06	774057.625	0.00012662704102695
2	557	121.77021769256	0.998382568359375	0.99822998046875	1.19354248046875E-06	1.19142976018338E-06	836359.0625	0.000126752769574523
2	558	121.870925692305	0.988311767578125	0.98846435546875	1.148681640625E-06	1.13543080715317E-06	860520.75	0.000126870712847449
2	559	121.971633692051	0.978240966796875	0.97808837890625	1.15814208984375E-06	1.13276530555595E-06	844532.3125	0.000126986880786717
2	560	122.072341691797	0.968170166015625	0.968017578125	1.19903564453125E-06	1.16068758870824E-06	807330.125	0.000127105566207319
2	561	122.173049691543	0.958099365234375	0.958251953125	1.2493896484375E-06	1.19723006264394E-06	766976.125	0.000127228850033134
2	562	122.273757691288	0.948028564453125	0.9478759765625	1.29150390625E-06	1.22418543924141E-06	733932	0.000127356805023737
2	563	122.374465691034	0.937957763671875	0.9381103515625	1.31683349609375E-06	1.23533516216412E-06	712398.625	0.000127488136058673
2	564	122.47517369078	0.927886962890625	0.92803955078125	1.31683349609375E-06	1.22207359254389E-06	704750.875	0.000127620762214065
2	565	122.575881690526	0.917816162109375	0.91827392578125	1.28692626953125E-06	1.18175080388028E-06	713540.4375	0.000127751860418357
2	566	122.676589690271	0.907745361328125	0.908203125	1.2200927734375E-06	1.10809196485206E-06	744372.25	0.000127878098282963
2	567	122.777297690017	0.897674560546875	0.89813232421875	1.11602783203125E-06	1.00234058209026E-06	804758.0625	0.000127995735965669
2	568	122.878005689763	0.887603759765625	0.8880615234375	9.7686767578125E-07	8.67518622271746E-07	909090.875	0.000128101120935753
2	569	122.978713689509	0.877532958984375	0.877685546875	8.1207275390625E-07	7.12744508746255E-07	1080796.75	0.000128191197291017
2	570	123.079421689254	0.867462158203125	0.86761474609375	6.3934326171875E-07	5.54703603938833E-07	1357040.625	0.000128264291561209
2	571	123.180129689	0.857391357421875	0.8575439453125	4.76989746093751E-07	4.09039643045617E-07	1797824.75	0.000128320505609736
2	572	123.280837688746	0.847320556640625	0.8477783203125	3.47290039062501E-07	2.94424978619645E-07	2441124.75	0.000128362007671967
2	573	123.381545688492	0.837249755859375	0.83740234375	2.5909423828125E-07	2.16966114408024E-07	3232037.75	0.000128392537590116
2	574	123.482253688237	0.827178955078125	0.82733154296875	2.1820068359375E-07	1.80524310167129E-07	3791608.5	0.000128416577354074
2	575	123.582961687983	0.817108154296875	0.8172607421875	2.154541015625E-07	1.76082167513414E-07	3793201.25	0.000128438405226916
2	576	123.683669687729	0.807037353515625	0.80780029296875	2.3834228515625E-07	1.92532965570535E-07	3389244.5	0.00012846126628574
2	577	123.784377687474	0.796966552734375	0.797119140625	2.67944335937501E-07	2.13583547292728E-07	2974943	0.000128486746689305
2	578	123.88508568722	0.786895751953125	0.78704833984375	2.850341796875E-07	2.24335664711361E-07	2761242.25	0.000128514599055052
2	579	123.985793686966	0.776824951171875	0.7769775390625	2.716064453125E-07	2.11032102015452E-07	2860674.25	0.000128542626043782
2	580	124.086501686712	0.766754150390625	0.7666015625	2.1331787109375E-07	1.63529804808604E-07	3593705.5	0.000128567044157535
2	581	124.187209686457	0.756683349609375	0.7568359375	9.52148437499995E-08	7.20620150218565E-08	7948718	0.000128582585602999
2	582	124.287917686203	0.746612548828125	0.746551513671875	-9.21630859374994E-08	-6.88044892172002E-08	-8100331.5	0.000128582731122151
2	583	124.388625685949	0.736541748046875	0.736419677734375	-3.60107421875E-07	-2.65190180925856E-07	-2045000.125	0.000128559957374819
2	584	124.489333685695	0.726470947265625	0.726318359375	-7.0648193359375E-07	-5.13130771651049E-07	-1028077.8125	0.000128506260807626
2	585	124.59004168544	0.716400146484375	0.716339111328125	-1.11968994140625E-06	-8.02077693151659E-07	-639765.625	0.000128414292703383
2	586	124.690749685186	0.706329345703125	0.70623779296875	-1.572265625E-06	-1.11039332750806E-06	-449184.8125	0.00012827874161303
2	587	124.791457684932	0.696258544921875	0.69622802734375	-2.02728271484375E-06	-1.41145096677064E-06	-343429.1875	0.000128097497508861
2	588	124.892165684678	0.686187744140625	0.68609619140625	-2.4365234375E-06	-1.67168934694928E-06	-281588.1875	0.000127872728626244
2	589	124.992873684423	0.676116943359375	0.676025390625	-2.76031494140625E-06	-1.86604290774994E-06	-244908.796875	0.000127611041534692
2	590	125.093581684169	0.666046142578125	0.666046142578125	-2.96875E-06	-1.97732447304588E-06	-224352.390625	0.000127322564367205
2	591	125.194289683915	0.655975341796875	0.6558837890625	-3.05419921875E-06	-2.003199824685E-06	-214748.203125	0.000127019287901931
2	592	125.294997683661	0.645904541015625	0.645843505859375	-3.0291748046875E-06	-1.95637267097482E-06	-213207.75	0.000126712955534458
2	593	125.395705683406	0.635833740234375	0.635833740234375	-2.92144775390625E-06	-1.85755504844565E-06	-217643.375	0.000126413317047991
2	594	125.496413683152	0.625762939453125	0.625732421875	-2.763671875E-06	-1.72931902397977E-06	-226413.4375	0.000126127051771618
2	595	125.597121682898	0.615692138671875	0.6156005859375	-2.58087158203125E-06	-1.58878606271173E-06	-238524.3125	0.0001258579432033
2	596	125.697829682643	0.605621337890625	0.6055908203125	-2.39288330078125E-06	-1.4491081401502E-06	-253079.96875	0.000125607490190305
2	597	125.798537682389	0.595550537109375	0.59552001953125	-2.210693359375E-06	-1.31651211177086E-06	-269381.5625	0.000125375678180717
2	598	125.899245682135	0.585479736328125	0.585418701171875	-2.03948974609375E-06	-1.19395542697021E-06	-287041.75	0.000125161663163453
2	599	125.999953681881	0.575408935546875	0.575408935546875	-1.8829345703125E-06	-1.08345739135984E-06	-305591.59375	0.000124964150018059
2	600	126.100661681626	0.565338134765625	0.56536865234375	-1.74072265625E-06	-9.8415000593377E-07	-324789.625	0.00012478168355301
2	601	126.201369681372	0.555267333984375	0.555328369140625	-1.6119384765625E-06	-8.95155096714007E-07	-344509.6875	0.000124612866784446
2	602	126.302077681118	0.545196533203125	0.545166015625	-1.49688720703125E-06	-8.16052022400982E-07	-364199.8125	0.000124456331832334
2	603	126.402785680864	0.535125732421875	0.53509521484375	-1.39251708984375E-06	-7.45129227652797E-07	-384264.71875	0.000124310841783881
2	604	126.503493680609	0.525054931640625	0.525054931640625	-1.29852294921875E-06	-6.81795825130393E-07	-404347.84375	0.000124175334349275
2	605	126.604201680355	0.514984130859375	0.51495361328125	-1.21307373046875E-06	-6.24676658844692E-07	-424503.15625	0.000124048863654025
2	606	126.704909680101	0.504913330078125	0.5048828125	-1.13525390625E-06	-5.73170211737306E-07	-444731.1875	0.000123930614790879
2	607	126.805617679847	0.494842529296875	0.4947509765625	-1.064453125E-06	-5.26639155395969E-07	-464793.625	0.000123819845612161
2	608	126.906325679592	0.484771728515625	0.484771728515625	-9.99755859375E-07	-4.84653355670162E-07	-484890.125	0.0001237159158336
2	609	127.007033679338	0.474700927734375	0.474639892578125	-9.3963623046875E-07	-4.45988831643263E-07	-505131.5625	0.000123618257930502
2	610	127.107741679084	0.464630126953125	0.464599609375	-8.84399414062501E-07	-4.10891630053811E-07	-525327.8125	0.000123526406241581
2	611	127.20844967883	0.454559326171875	0.45452880859375	-8.3343505859375E-07	-3.7882023207203E-07	-545368	0.000123439909657463
2	612	127.309157678575	0.444488525390625	0.444488525390625	-7.8582763671875E-07	-3.49291354950765E-07	-565631.0625	0.000123358375276439
2	613	127.409865678321	0.434417724609375	0.43438720703125	-7.415771484375E-07	-3.2213162626249E-07	-585761.3125	0.000123281453852542
2	614	127.510573678067	0.424346923828125	0.42431640625	-6.99768066406251E-07	-2.96923076348321E-07	-606367.1875	0.000123208883451298
2	615	127.611281677812	0.414276123046875	0.41424560546875	-6.6131591796875E-07	-2.73947193818458E-07	-626396	0.000123140343930572
2	616	127.711989677558	0.404205322265625	0.40423583984375	-6.243896484375E-07	-2.52400667477559E-07	-647409.5625	0.000123075602459721
2	617	127.812697677304	0.394134521484375	0.394134521484375	-5.889892578125E-07	-2.32140990874541E-07	-669171	0.000123014498967677
2	618	127.91340567705	0.384063720703125	0.384063720703125	-5.56030273437499E-07	-2.13551061278849E-07	-690724.5	0.000122956844279543
2	619	128.014113676795	0.373992919921875	0.3740234375	-5.2398681640625E-07	-1.95983332673677E-07	-713803.1875	0.000122902463772334
2	620	128.114821676541	0.363922119140625	0.36395263671875	-4.93774414062501E-07	-1.79710497150154E-07	-737082.875	0.0001228512119269
2	621	128.215529676287	0.353851318359375	0.3538818359375	-4.6417236328125E-07	-1.64262161206352E-07	-762393.1875	0.000122802986879833
2	622	128.316237676033	0.343780517578125	0.343780517578125	-4.35485839843749E-07	-1.49711539165764E-07	-789418.375	0.000122757686767727
2	623	128.416945675778	0.333709716796875	0.333709716796875	-4.08325195312501E-07	-1.36262073624493E-07	-817264.625	0.00012271519517526
2	624	128.517653675524	0.323638916015625	0.3236083984375	-3.82080078124999E-07	-1.23644312566284E-07	-846964.875	0.000122675395687111
2	625	128.61836167527	0.313568115234375	0.313507080078125	-3.5552978515625E-07	-1.11461105234412E-07	-881802.5625	0.000122638244647533
2	626	128.719069675016	0.303497314453125	0.303436279296875	-3.2958984375E-07	-1.00009508230414E-07	-920648.1875	0.000122603756608441
2	627	128.819777674761	0.293426513671875	0.293426513671875	-3.033447265625E-07	-8.90093829752914E-08	-967303.875	0.000122571873362176
2	628	128.920485674507	0.283355712890625	0.283355712890625	-2.76794433593749E-07	-7.84312845780732E-08	-1023704.5625	0.000122542667668313
2	629	129.021193674253	0.273284912109375	0.273284912109375	-2.5054931640625E-07	-6.84713441501117E-08	-1090743	0.000122516110423021
2	630	129.121901673999	0.263214111328125	0.263275146484375	-2.25219726562501E-07	-5.92947557720436E-08	-1168970.25	0.000122492157970555
2	631	129.222609673744	0.253143310546875	0.253173828125	-2.0172119140625E-07	-5.10705255862831E-08	-1255068.125	0.000122470664791763
2	632	129.32331767349	0.243072509765625	0.243072509765625	-1.82495117187501E-07	-4.43595453702983E-08	-1331939.875	0.000122451310744509
2	633	129.424025673236	0.233001708984375	0.233062744140625	-1.64794921875E-07	-3.84075526937977E-08	-1414259.375	0.000122433819342405
2	634	129.524733672981	0.222930908203125	0.22296142578125	-1.495361328125E-07	-3.33407896846438E-08	-1491020.375	0.000122418001410551
2	635	129.625441672727	0.212860107421875	0.21295166015625	-1.36413574218749E-07	-2.9049497030087E-08	-1561073.75	0.000122403595014475
2	636	129.726149672473	0.202789306640625	0.202850341796875	-1.25732421874999E-07	-2.55048622221921E-08	-1613349.625	0.000122390396427363
2	637	129.826857672219	0.192718505859375	0.1927490234375	-1.171875E-07	-2.25877752058068E-08	-1644791.75	0.000122378158266656
2	638	129.927565671964	0.182647705078125	0.182647705078125	-1.1138916015625E-07	-2.03449737057326E-08	-1639726.125	0.000122366662253626
2	639	130.02827367171	0.172576904296875	0.17254638671875	-1.0955810546875E-07	-1.89038544817777E-08	-1574930.375	0.000122355530038476
2	640	130.128981671456	0.162506103515625	0.162567138671875	-1.11083984375E-07	-1.80586052778153E-08	-1463461.5	0.000122344426927157
2	641	130.229689671202	0.152435302734375	0.152557373046875	-1.19628906249999E-07	-1.82502724044298E-08	-1275255.125	0.000122332799946889
2	642	130.330397670947	0.142364501953125	0.14239501953125	-1.35192871093751E-07	-1.92507911833673E-08	-1053273.25	0.000122319965157658
2	643	130.431105670693	0.132293701171875	0.132293701171875	-1.6204833984375E-07	-2.14379749507998E-08	-816384.1875	0.000122305005788803
2	644	130.531813670439	0.122222900390625	0.122283935546875	-2.03552246093749E-07	-2.48911700140297E-08	-600749.625	0.000122286597616039
2	645	130.632521670185	0.112152099609375	0.11224365234375	-2.66418457031251E-07	-2.99037807849345E-08	-421305.84375	0.000122262936201878
2	646	130.73322966993	0.102081298828125	0.10205078125	-3.54919433593751E-07	-3.62198058212471E-08	-287532.25	0.000122231649584137
2	647	130.833937669676	0.092010498046875	0.092010498046875	-4.78210449218749E-07	-4.40003802282263E-08	-192405.875	0.000122189696412534
2	648	130.934645669422	0.081939697265625	0.08203125	-6.4239501953125E-07	-5.26964640812366E-08	-127695.96875	0.000122133264085278
2	649	131.035353669168	0.071868896484375	0.071990966796875	-8.514404296875E-07	-6.1296020703594E-08	-84551.9765625	0.000122058045235462
2	650	131.136061668913	0.061798095703125	0.06182861328125	-1.10076904296875E-06	-6.80590233059775E-08	-56168.55859375	0.000121959739772137
2	651	131.236769668659	0.051727294921875	0.05181884765625	-1.380615234375E-06	-7.15418906338527E-08	-37533.15625	0.000121834797027986
2	652	131.337477668405	0.041656494140625	0.0417510986328125	-1.66534423828125E-06	-6.95299462449839E-08	-25070.552734375	0.00012168141984148
2	653	131.43818566815	0.031585693359375	0.0316619873046875	-1.93084716796875E-06	-6.11344503909095E-08	-16397.978515625	0.000121500335808378
2	654	131.538893667896	0.021514892578125	0.0216278076171875	-2.1453857421875E-06	-4.63999896282985E-08	-10081.08203125	0.000121295081044082
2	655	131.639601667642	0.011444091796875	0.0115203857421875	-2.2930908203125E-06	-2.64172896891068E-08	-5023.95556640625	0.000121071585454047
2	656	131.740309667388	0.001373291015625	0.0014678955078125	-2.3663330078125E-06	-3.47352924201516E-09	-620.325012207031	0.00012083696492482
2	657	131.841017667133	-0.008697509765625	-0.00856628417968749	-2.37548828125E-06	2.03491090644548E-08	3606.115234375	0.000120598197099753
2	658	131.941725666879	-0.018768310546875	-0.018658447265625	-2.33489990234375E-06	4.3565606233642E-08	7991.11279296875	0.000120361008157488
2	659	132.042433666625	-0.028839111328125	-0.0287017822265625	-2.26470947265625E-06	6.50011955372065E-08	12673.4951171875	0.000120129399874713
2	660	132.143141666371	-0.038909912109375	-0.03878173828125	-2.1795654296875E-06	8.45273362415355E-08	17793.3359375	0.000119905613246374
2	661	132.243849666116	-0.048980712890625	-0.048828125	-2.08953857421875E-06	1.02028252513264E-07	23367.8984375	0.000119690645078663
2	662	132.344557665862	-0.059051513671875	-0.05902099609375	-2.00225830078125E-06	1.18175279339994E-07	29477.21484375	0.000119484611786902
2	663	132.445265665608	-0.069122314453125	-0.069061279296875	-1.92138671875E-06	1.32693415366703E-07	35943.45703125	0.000119287040433846
2	664	132.545973665354	-0.079193115234375	-0.079132080078125	-1.84844970703125E-06	1.46271659673403E-07	42809.97265625	0.000119097210699692
2	665	132.646681665099	-0.089263916015625	-0.089202880859375	-1.78375244140625E-06	1.59115856490644E-07	50008.5546875	0.000118914314953145
2	666	132.747389664845	-0.099334716796875	-0.0992431640625	-1.7279052734375E-06	1.71482781752275E-07	57435.53515625	0.000118737487355247
2	667	132.848097664591	-0.109405517578125	-0.109283447265625	-1.67938232421875E-06	1.83528683805889E-07	65073.59765625	0.000118565920274705
2	668	132.948805664337	-0.119476318359375	-0.119384765625	-1.63848876953125E-06	1.95610596165352E-07	72862.734375	0.000118398849735968
2	669	133.049513664082	-0.129547119140625	-0.129425048828125	-1.60400390625E-06	2.07598276347198E-07	80688.7421875	0.000118235577247106
2	670	133.150221663828	-0.139617919921875	-0.1395263671875	-1.5753173828125E-06	2.19798309331054E-07	88570.3203125	0.000118075484351721
2	671	133.250929663574	-0.149688720703125	-0.149505615234375	-1.552734375E-06	2.32142511435995E-07	96285.375	0.000117917974421289
2	672	133.351637663319	-0.159759521484375	-0.15966796875	-1.53472900390625E-06	2.45047061753212E-07	104036.5859375	0.000117762509034947
2	673	133.452345663065	-0.169830322265625	-0.169677734375	-1.522216796875E-06	2.58286291909826E-07	111467.5234375	0.000117608578875661
2	674	133.553053662811	-0.179901123046875	-0.17974853515625	-1.5142822265625E-06	2.72189993211214E-07	118702.140625	0.000117455681902356
2	675	133.653761662557	-0.189971923828125	-0.189849853515625	-1.51031494140625E-06	2.86733040866238E-07	125702.171875	0.000117303381557576
2	676	133.754469662302	-0.200042724609375	-0.19989013671875	-1.5106201171875E-06	3.01958067439045E-07	132323.234375	0.000117151263111737
2	677	133.855177662048	-0.189971923828125	-0.1898193359375	-1.32568359375E-06	2.51640386750296E-07	143186	0.000117008443339728
