Potential - Start -0.2 V, Upper Vertex 1.5 V, Lower Vertex -0.2 V, Stop -0.19 V; Scan - # end cross 5, Rate 0.1 Vps, Step 0.01 V 
Scan	Index	Time (s)	Potential applied (V)	WE(1).Potential (V)	WE(1).Current (A)	WE(1).Power (W)	WE(1).Resistance (Ω)	WE(1).Charge (C)
1	1	66.7165838315568	-0.189971923828125	-0.189849853515625	-2.3345947265625E-07	4.43222454293846E-08	813202.6875	0
1	2	66.8172918313026	-0.179901123046875	-0.179718017578125	-1.995849609375E-07	3.5869014425316E-08	900458.75	-2.18055191680833E-08
1	3	66.9179998310483	-0.169830322265625	-0.169677734375	-1.73034667968749E-07	2.93601303269497E-08	980599.6875	-4.05684055237998E-08
1	4	67.018707830794	-0.159759521484375	-0.159698486328125	-1.495361328125E-07	2.38806947550074E-08	1067959.125	-5.68111389043224E-08
1	5	67.1194158305398	-0.149688720703125	-0.149627685546875	-1.2786865234375E-07	1.91326900988997E-08	1170167.125	-7.07795777543652E-08
1	6	67.2201238302855	-0.139617919921875	-0.139495849609375	-1.07421874999999E-07	1.49849039843275E-08	1298579.625	-8.26273947041045E-08
1	7	67.3208318300312	-0.129547119140625	-0.12945556640625	-8.66699218750003E-08	1.12199041168992E-08	1493662	-9.2400696871664E-08
1	8	67.421539829777	-0.119476318359375	-0.119384765625	-6.53076171875003E-08	7.79673481332566E-09	1828037.375	-1.00053370033493E-07
1	9	67.5222478295227	-0.109405517578125	-0.109344482421875	-4.18090820312494E-08	4.57159243794081E-09	2615328.5	-1.05447128362357E-07
1	10	67.6229558292684	-0.099334716796875	-0.0992431640625	-1.49536132812503E-08	1.48404388777834E-09	6636734.5	-1.08305350465798E-07
1	11	67.7236638290142	-0.089263916015625	-0.08917236328125	1.8310546875E-08	-1.63279467724209E-09	-4870000	-1.08136319454388E-07
1	12	67.8243718287599	-0.079193115234375	-0.079132080078125	5.98144531249997E-08	-4.73324224259386E-09	-1322959.125	-1.04202413808707E-07
1	13	67.9250798285057	-0.069122314453125	-0.06903076171875	1.141357421875E-07	-7.8788771062932E-09	-604812.875	-9.5443326131317E-08
1	14	68.0257878282514	-0.059051513671875	-0.05902099609375	1.85546875000001E-07	-1.09511608670232E-08	-318092.125	-8.03531037263383E-08
1	15	68.1264958279971	-0.048980712890625	-0.0488433837890625	2.80151367187501E-07	-1.36835405228908E-08	-174346.40625	-5.69033389297147E-08
1	16	68.2272038277429	-0.038909912109375	-0.038775634765625	4.0313720703125E-07	-1.56319011068717E-08	-96184.7109375	-2.24970264639524E-08
1	17	68.3279118274886	-0.028839111328125	-0.0287200927734375	5.59387207031251E-07	-1.60656519199165E-08	-51342.05859375	2.59699284299586E-08
1	18	68.4286198272343	-0.018768310546875	-0.018658447265625	7.4737548828125E-07	-1.39448657066055E-08	-24965.294921875	9.17706586278655E-08
1	19	68.5293278269801	-0.008697509765625	-0.008563232421875	9.613037109375E-07	-8.23186763199146E-09	-8907.9365234375	1.77809482693192E-07
1	20	68.6300358267258	0.001373291015625	0.0014984130859375	1.1865234375E-06	1.77790204780592E-09	1262.86010742188	2.85961164081527E-07
1	21	68.7307438264716	0.011444091796875	0.01156005859375	1.40228271484375E-06	1.62104694112486E-08	8243.7431640625	4.16317902818264E-07
1	22	68.8314518262173	0.021514892578125	0.0216552734375	1.5863037109375E-06	3.43518387069253E-08	13651.404296875	5.66805169910367E-07
1	23	68.932159825963	0.031585693359375	0.0316741943359375	1.72119140625E-06	5.4517350633887E-08	18402.484375	7.33350816517486E-07
1	24	69.0328678257088	0.041656494140625	0.0417205810546875	1.7999267578125E-06	7.50939861404731E-08	23179.04296875	9.10653170649312E-07
1	25	69.1335758254545	0.051727294921875	0.0517578125	1.826171875E-06	9.45186542367082E-08	28342.248046875	1.09324173536152E-06
1	26	69.2342838252002	0.061798095703125	0.061798095703125	1.81182861328125E-06	1.11967558780179E-07	34108.13671875	1.27642965708219E-06
1	27	69.334991824946	0.071868896484375	0.071868896484375	1.76910400390625E-06	1.27143550798792E-07	40624.4609375	1.45674391660577E-06
1	28	69.4356998246917	0.081939697265625	0.082000732421875	1.71142578125E-06	1.403381588716E-07	47913.6953125	1.63200252245588E-06
1	29	69.5364078244374	0.092010498046875	0.092071533203125	1.6473388671875E-06	1.5167302080954E-07	55891.0703125	1.80112976977398E-06
1	30	69.6371158241832	0.102081298828125	0.102081298828125	1.58294677734375E-06	1.61589255753825E-07	64488.14453125	1.96378755390469E-06
1	31	69.7378238239289	0.112152099609375	0.1121826171875	1.522216796875E-06	1.70766256246679E-07	73696.875	2.12014492717572E-06
1	32	69.8385318236747	0.122222900390625	0.122283935546875	1.46636962890625E-06	1.79313445869411E-07	83392.3046875	2.27063219426782E-06
1	33	69.9392398234204	0.132293701171875	0.13232421875	1.41510009765625E-06	1.872520130064E-07	93508.734375	2.41572570303106E-06
1	34	70.0399478231661	0.142364501953125	0.142425537109375	1.36932373046875E-06	1.95026672145104E-07	104011.5859375	2.55593249676167E-06
1	35	70.1406558229119	0.152435302734375	0.1524658203125	1.32843017578125E-06	2.02540192617562E-07	114771.4296875	2.6917753075395E-06
1	36	70.2413638226576	0.162506103515625	0.162567138671875	1.29150390625E-06	2.09956084518126E-07	125874.296875	2.82369956039474E-06
1	37	70.3420718224033	0.172576904296875	0.17254638671875	1.2591552734375E-06	2.1726269494593E-07	137033.453125	2.95213544632134E-06
1	38	70.4427798221491	0.182647705078125	0.182647705078125	1.23016357421875E-06	2.24686544925135E-07	148474.328125	3.07748246086703E-06
1	39	70.5434878218948	0.192718505859375	0.192779541015625	1.20452880859375E-06	2.32208506645293E-07	160045.609375	3.20007893606089E-06
1	40	70.6441958216406	0.202789306640625	0.20281982421875	1.18133544921875E-06	2.39598250573181E-07	171686.90625	3.32021681970218E-06
1	41	70.7449038213863	0.212860107421875	0.212921142578125	1.15966796875E-06	2.46917807089631E-07	183605.265625	3.43809574587794E-06
1	42	70.845611821132	0.222930908203125	0.2230224609375	1.14105224609375E-06	2.54480255534872E-07	195453.34375	3.5539460441214E-06
1	43	70.9463198208778	0.233001708984375	0.233062744140625	1.12396240234375E-06	2.61953772451307E-07	207358.125	3.66799872608681E-06
1	44	71.0470278206235	0.243072509765625	0.243072509765625	1.1083984375E-06	2.69421207121923E-07	219300.65625	3.78040704163141E-06
1	45	71.1477358203692	0.253143310546875	0.253143310546875	1.0943603515625E-06	2.77029982953536E-07	231316.234375	3.89132492273347E-06
1	46	71.248443820115	0.263214111328125	0.263214111328125	1.08123779296875E-06	2.84597035715706E-07	243437.765625	4.00087492380408E-06
1	47	71.3491518198607	0.273284912109375	0.27325439453125	1.06964111328125E-06	2.922841133568E-07	255463.640625	4.1091802813753E-06
1	48	71.4498598196064	0.283355712890625	0.283355712890625	1.0589599609375E-06	3.00062339420037E-07	267579.25	4.21636377723189E-06
1	49	71.5505678193522	0.293426513671875	0.29339599609375	1.0498046875E-06	3.0800848094259E-07	279476.75	4.32254864790593E-06
1	50	71.6512758190979	0.303497314453125	0.30352783203125	1.041259765625E-06	3.16051341542334E-07	291500.59375	4.42784175902489E-06
1	51	71.7519838188437	0.313568115234375	0.3135986328125	1.0333251953125E-06	3.24049352684597E-07	303484.96875	4.53230541097582E-06
1	52	71.8526918185894	0.323638916015625	0.323638916015625	1.026611328125E-06	3.32251374857151E-07	315249.6875	4.63603146272362E-06
1	53	71.9533998183351	0.333709716796875	0.333740234375	1.0205078125E-06	3.40584477953598E-07	327033.53125	4.73911222798051E-06
1	54	72.0541078180809	0.343780517578125	0.343780517578125	1.015625E-06	3.49152088574556E-07	338491.59375	4.84163956571138E-06
1	55	72.1548158178266	0.353851318359375	0.353912353515625	1.0113525390625E-06	3.57930161953846E-07	349939.65625	4.94370624437579E-06
1	56	72.2555238175723	0.363922119140625	0.363922119140625	1.0076904296875E-06	3.66720854572122E-07	361144.75	5.04537274537142E-06
1	57	72.3562318173181	0.373992919921875	0.3740234375	1.00494384765625E-06	3.75872531321875E-07	372183.4375	5.14671728524263E-06
1	58	72.4569398170638	0.384063720703125	0.384002685546875	1.00311279296875E-06	3.85197978403085E-07	382811.09375	5.24783081345959E-06
1	59	72.5576478168095	0.394134521484375	0.394073486328125	1.0015869140625E-06	3.94698815853189E-07	393449.15625	5.34877563040936E-06
1	60	72.6583558165553	0.404205322265625	0.4041748046875	1.00128173828125E-06	4.04692826805331E-07	403657.4375	5.44962767889956E-06
1	61	72.759063816301	0.414276123046875	0.41424560546875	1.00006103515625E-06	4.14270886039958E-07	414220.3125	5.55040332983481E-06
1	62	72.8597718160468	0.424346923828125	0.42437744140625	1.00006103515625E-06	4.24403339138735E-07	424351.53125	5.65111758987769E-06
1	63	72.9604798157925	0.434417724609375	0.43438720703125	1.0009765625E-06	4.34811425975568E-07	433963.40625	5.751877779403E-06
1	64	73.0611878155382	0.444488525390625	0.44451904296875	1.0015869140625E-06	4.45224429768132E-07	443814.78125	5.85271482123062E-06
1	65	73.161895815284	0.454559326171875	0.454559326171875	1.00311279296875E-06	4.55974259239156E-07	453148.78125	5.9536596381804E-06
1	66	73.2626038150297	0.464630126953125	0.464630126953125	1.00433349609375E-06	4.66643598429073E-07	462625.34375	6.05474269832484E-06
1	67	73.3633118147754	0.474700927734375	0.47467041015625	1.0076904296875E-06	4.78320828278811E-07	471047.84375	6.15605586062884E-06
1	68	73.4640198145212	0.484771728515625	0.48480224609375	1.01165771484375E-06	4.90453885504394E-07	479215.71875	6.25773827778175E-06
1	69	73.5647278142669	0.494842529296875	0.49481201171875	1.0162353515625E-06	5.02845409755537E-07	486906.9375	6.35985088592861E-06
1	70	73.6654358140127	0.504913330078125	0.50494384765625	1.021728515625E-06	5.1591553074104E-07	494205.5	6.4624705373717E-06
1	71	73.7661438137584	0.514984130859375	0.514984130859375	1.02874755859375E-06	5.2978867870479E-07	500593.3125	6.56572001389577E-06
1	72	73.8668518135041	0.525054931640625	0.525054931640625	1.03729248046875E-06	5.44635497590207E-07	506178.28125	6.66975347485277E-06
1	73	73.9675598132499	0.535125732421875	0.535064697265625	1.048583984375E-06	5.61060232939781E-07	510273.59375	6.77478556099231E-06
1	74	74.0682678129956	0.545196533203125	0.545166015625	1.0626220703125E-06	5.79305378778372E-07	513038.5	6.88109321345109E-06
1	75	74.1689758127413	0.555267333984375	0.555267333984375	1.08154296875E-06	6.00545433826483E-07	513402.96875	6.98906069374061E-06
1	76	74.2696838124871	0.565338134765625	0.565277099609375	1.10626220703125E-06	6.25344682703144E-07	510979.3125	7.09922551322961E-06
1	77	74.3703918122328	0.575408935546875	0.5753173828125	1.13983154296875E-06	6.55764893053856E-07	504738.96875	7.21232527212123E-06
1	78	74.4710998119785	0.585479736328125	0.58544921875	1.1865234375E-06	6.94649202159781E-07	493415.65625	7.32946637072018E-06
1	79	74.5718078117243	0.595550537109375	0.595611572265625	1.25274658203125E-06	7.46150305985793E-07	475444.59375	7.45229363019462E-06
1	80	74.67251581147	0.605621337890625	0.6055908203125	1.34368896484375E-06	8.13725705484103E-07	450692.71875	7.58303440306918E-06
1	81	74.7732238112158	0.615692138671875	0.61572265625	1.46575927734375E-06	9.02501199107064E-07	420070.78125	7.7245013017091E-06
1	82	74.8739318109615	0.625762939453125	0.625732421875	1.6259765625E-06	1.01742625702173E-06	384834.84375	7.88018223829567E-06
1	83	74.9746398107072	0.635833740234375	0.635772705078125	1.82373046875E-06	1.15947796075488E-06	348611.125	8.05388935987139E-06
1	84	75.075347810453	0.645904541015625	0.6458740234375	2.05474853515625E-06	1.32710863454122E-06	314332.40625	8.24918606667779E-06
1	85	75.1760558101987	0.655975341796875	0.65594482421875	2.30560302734375E-06	1.51234837630909E-06	284500.34375	8.4687471826328E-06
1	86	75.2767638099444	0.666046142578125	0.66595458984375	2.557373046875E-06	1.7030941990015E-06	260405.734375	8.71361771714874E-06
1	87	75.3774718096902	0.676116943359375	0.67608642578125	2.78472900390625E-06	1.88271735623857E-06	242783.578125	8.9826135081239E-06
1	88	75.4781798094359	0.686187744140625	0.6861572265625	2.96722412109375E-06	2.03598210646305E-06	231245.515625	9.2722475528717E-06
1	89	75.5788878091817	0.696258544921875	0.696197509765625	3.0926513671875E-06	2.15309614759462E-06	225113.484375	9.57738666329533E-06
1	90	75.6795958089274	0.706329345703125	0.706298828125	3.16009521484375E-06	2.23197139348486E-06	223505.5625	9.89223735814448E-06
1	91	75.7803038086731	0.716400146484375	0.716339111328125	3.17962646484375E-06	2.27769078264828E-06	225290.34375	1.02114672699827E-05
1	92	75.8810118084189	0.726470947265625	0.726318359375	3.1689453125E-06	2.30166324399761E-06	229198.765625	1.05311437437194E-05
1	93	75.9817198081646	0.736541748046875	0.73651123046875	3.145751953125E-06	2.3168815914687E-06	234128.84375	1.08491140053957E-05
1	94	76.0824278079103	0.746612548828125	0.74652099609375	3.12774658203125E-06	2.3349284674623E-06	238676.9375	1.11650097096572E-05
1	95	76.1831358076561	0.756683349609375	0.7568359375	3.128662109375E-06	2.36788378060737E-06	241904.03125	1.14800450319308E-05
1	96	76.2838438074018	0.766754150390625	0.76629638671875	3.16314697265625E-06	2.42390797211556E-06	242257.609375	1.17968629638199E-05
1	97	76.3845518071475	0.776824951171875	0.7769775390625	3.2421875E-06	2.51910682891321E-06	239646.09375	1.21193970699096E-05
1	98	76.4852598068933	0.786895751953125	0.78704833984375	3.3758544921875E-06	2.65696075985034E-06	233140.484375	1.24526413856074E-05
1	99	76.585967806639	0.796966552734375	0.797119140625	3.57025146484375E-06	2.84591578747495E-06	223266.953125	1.28024057630682E-05
1	100	76.6866758063848	0.807037353515625	0.80718994140625	3.82110595703125E-06	3.08435824081243E-06	211245.109375	1.31745900944225E-05
1	101	76.7873838061305	0.817108154296875	0.81756591796875	4.1162109375E-06	3.36527364197536E-06	198621.015625	1.35742657221272E-05
1	102	76.8880918058762	0.827178955078125	0.82733154296875	4.43511962890625E-06	3.66931431017292E-06	186540.984375	1.40048596222186E-05
1	103	76.988799805622	0.837249755859375	0.83740234375	4.744873046875E-06	3.97336771129631E-06	176485.71875	1.44671084854053E-05
1	104	77.0895078053677	0.847320556640625	0.84747314453125	5.01708984375E-06	4.25184862251626E-06	168917.28125	1.49586630868725E-05
1	105	77.1902158051134	0.857391357421875	0.8575439453125	5.218505859375E-06	4.47509773948696E-06	164327.5	1.54740664584097E-05
1	106	77.2909238048592	0.867462158203125	0.8673095703125	5.340576171875E-06	4.63193282485008E-06	162400	1.60057570610661E-05
1	107	77.3916318046049	0.877532958984375	0.87738037109375	5.377197265625E-06	4.71784733235836E-06	163166.859375	1.65454403031617E-05
1	108	77.4923398043506	0.887603759765625	0.88714599609375	5.3497314453125E-06	4.74599301014678E-06	165830	1.70855837495765E-05
1	109	77.5930478040964	0.897674560546875	0.8978271484375	5.2734375E-06	4.73463524031104E-06	170254.640625	1.76205030584242E-05
1	110	77.6937558038421	0.907745361328125	0.90850830078125	5.17578125E-06	4.70223994852859E-06	175530.671875	1.81466639332939E-05
1	111	77.7944638035879	0.917816162109375	0.91827392578125	5.078125E-06	4.66310984847951E-06	180829.328125	1.86629877134692E-05
1	112	77.8951718033336	0.927886962890625	0.9283447265625	4.99267578125E-06	4.63492415292421E-06	185941.328125	1.91700928553473E-05
1	113	77.9958798030793	0.937957763671875	0.9381103515625	4.93255615234375E-06	4.62728166894522E-06	190187.484375	1.96698692889186E-05
1	114	78.0965878028251	0.948028564453125	0.9478759765625	4.9078369140625E-06	4.65202037958079E-06	193135.1875	2.01653710973915E-05
1	115	78.1972958025708	0.958099365234375	0.95794677734375	4.92401123046875E-06	4.71694056614069E-06	194546.015625	2.06604454433545E-05
1	116	78.2980038023165	0.968170166015625	0.9686279296875	4.9835205078125E-06	4.82717678096378E-06	194366.203125	2.11593287531286E-05
1	117	78.3987118020623	0.978240966796875	0.97900390625	5.084228515625E-06	4.97747942063143E-06	192557.03125	2.16662792809075E-05
1	118	78.499419801808	0.988311767578125	0.98846435546875	5.206298828125E-06	5.1462407100189E-06	189859.328125	2.21844493353274E-05
1	119	78.6001278015538	0.998382568359375	0.99853515625	5.3375244140625E-06	5.32970580024994E-06	187078.328125	2.27153723244555E-05
1	120	78.7008358012995	1.00845336914063	1.00860595703125	5.4534912109375E-06	5.50042386748828E-06	184946.84375	2.32587444770616E-05
1	121	78.8015438010452	1.01852416992188	1.01837158203125	5.535888671875E-06	5.63759158467292E-06	183958.109375	2.3812102881493E-05
1	122	78.902251800791	1.02859497070313	1.02813720703125	5.5694580078125E-06	5.72616681893123E-06	184602.75	2.43713020608993E-05
1	123	79.0029598005367	1.03866577148438	1.038818359375	5.5572509765625E-06	5.77297441850533E-06	186930.265625	2.49315762630431E-05
1	124	79.1036678002824	1.04873657226563	1.04888916015625	5.50537109375E-06	5.77452419747715E-06	190521.0625	2.5488623577985E-05
1	125	79.2043758000282	1.05880737304688	1.05865478515625	5.426025390625E-06	5.74428759136936E-06	195106.859375	2.60390625044238E-05
1	126	79.3050837997739	1.06887817382813	1.0687255859375	5.33447265625E-06	5.70108704778249E-06	200343.25	2.65808976109838E-05
1	127	79.4057917995196	1.07894897460938	1.07879638671875	5.2337646484375E-06	5.64616630072123E-06	206122.453125	2.71130502369488E-05
1	128	79.5064997992654	1.08901977539063	1.0888671875	5.133056640625E-06	5.58921692572767E-06	212128.421875	2.76350601779995E-05
1	129	79.6072077990111	1.09909057617188	1.09893798828125	5.0384521484375E-06	5.53694644622738E-06	218110.25	2.81472366623348E-05
1	130	79.7079157987569	1.10916137695313	1.109619140625	4.94903564453125E-06	5.49154447071487E-06	224209.171875	2.86501472146483E-05
1	131	79.8086237985026	1.11923217773438	1.11968994140625	4.86846923828125E-06	5.45117609362933E-06	229988.09375	2.91444976028288E-05
1	132	79.9093317982483	1.12930297851563	1.12945556640625	4.7955322265625E-06	5.41634062756202E-06	235522.46875	2.96311191050336E-05
1	133	80.0100397979941	1.13937377929688	1.1395263671875	4.7296142578125E-06	5.38951962880674E-06	240934.328125	3.01107484119711E-05
1	134	80.1107477977398	1.14944458007813	1.14959716796875	4.67010498046875E-06	5.36873903911328E-06	246160.890625	3.05840621876996E-05
1	135	80.2114557974855	1.15951538085938	1.15966796875	4.6173095703125E-06	5.35454591954476E-06	251156.640625	3.10517207253724E-05
1	136	80.3121637972313	1.16958618164063	1.16943359375	4.56939697265625E-06	5.34360606252449E-06	255927.34375	3.15143079205882E-05
1	137	80.412871796977	1.17965698242188	1.17919921875	4.5257568359375E-06	5.33676848135656E-06	260552.953125	3.19722857966553E-05
1	138	80.5135797967228	1.18972778320313	1.18988037109375	4.48699951171875E-06	5.33899265064974E-06	265183.96875	3.24261127389036E-05
1	139	80.6142877964685	1.19979858398438	1.20025634765625	4.45220947265625E-06	5.34379250893835E-06	269586.6875	3.28762362187263E-05
1	140	80.7149957962142	1.20986938476563	1.21002197265625	4.4207763671875E-06	5.34923674422316E-06	273712.5625	3.33230273099616E-05
1	141	80.81570379596	1.21994018554688	1.2200927734375	4.39208984375E-06	5.35875688001397E-06	277793.25	3.37667916028295E-05
1	142	80.9164117957057	1.23001098632813	1.23016357421875	4.3670654296875E-06	5.37220466867439E-06	281691.125	3.42078492394648E-05
1	143	81.0171197954514	1.24008178710938	1.23992919921875	4.34417724609375E-06	5.38647236680845E-06	285423.25	3.46464948961511E-05
1	144	81.1178277951972	1.25015258789063	1.2506103515625	4.3243408203125E-06	5.40806559001794E-06	289202.53125	3.50829905073624E-05
1	145	81.2185357949429	1.26022338867188	1.2603759765625	4.30694580078125E-06	5.42837096872972E-06	292638	3.55176089215092E-05
1	146	81.3192437946886	1.27029418945313	1.270751953125	4.2919921875E-06	5.45405691809719E-06	296075.09375	3.59506011591293E-05
1	147	81.4199517944344	1.28036499023438	1.28082275390625	4.2791748046875E-06	5.4808647291793E-06	299315.34375	3.63821927749086E-05
1	148	81.5206597941801	1.29043579101563	1.28997802734375	4.268798828125E-06	5.50665663467953E-06	302187.59375	3.68126165994909E-05
1	149	81.6213677939259	1.30050659179688	1.30035400390625	4.2608642578125E-06	5.54063171875896E-06	305185.53125	3.72421200154349E-05
1	150	81.7220757936716	1.31057739257813	1.3104248046875	4.25537109375E-06	5.57634393771878E-06	307946.0625	3.76709467673209E-05
1	151	81.8227837934173	1.32064819335938	1.3201904296875	4.25201416015625E-06	5.61346860195044E-06	310485.90625	3.80993296857923E-05
1	152	81.9234917931631	1.33071899414063	1.33056640625	4.25079345703125E-06	5.65596246815403E-06	313016.03125	3.85274797736201E-05
1	153	82.0241997929088	1.34078979492188	1.3409423828125	4.25079345703125E-06	5.70006886846386E-06	315456.96875	3.89555680158082E-05
1	154	82.1249077926545	1.35086059570313	1.35040283203125	4.25384521484375E-06	5.74440446143853E-06	317454.65625	3.93838090531062E-05
1	155	82.2256157924003	1.36093139648438	1.361083984375	4.2578125E-06	5.79523975829943E-06	319667.46875	3.98124066123273E-05
1	156	82.326323792146	1.37100219726563	1.37115478515625	4.2657470703125E-06	5.84899953537388E-06	321433.6875	4.02416008000728E-05
1	157	82.4270317918917	1.38107299804688	1.3818359375	4.2767333984375E-06	5.90974377701059E-06	323105.46875	4.06717481382657E-05
1	158	82.5277397916375	1.39114379882813	1.3916015625	4.29351806640625E-06	5.97486632614164E-06	324116.84375	4.11032960982993E-05
1	159	82.6284477913832	1.40121459960938	1.4013671875	4.31671142578125E-06	6.04929800829268E-06	324637.6875	4.15368558606133E-05
1	160	82.729155791129	1.41128540039063	1.41143798828125	4.34783935546875E-06	6.13670590610127E-06	324629.75	4.19731513829902E-05
1	161	82.8298637908747	1.42135620117188	1.4215087890625	4.38873291015625E-06	6.23862206339254E-06	323899.625	4.24130703322589E-05
1	162	82.9305717906204	1.43142700195313	1.431884765625	4.439697265625E-06	6.35713468000176E-06	322518.5625	4.28576167905703E-05
1	163	83.0312797903662	1.44149780273438	1.4410400390625	4.50347900390625E-06	6.48969353278517E-06	319983.75	4.33079439972062E-05
1	164	83.1319877901119	1.45156860351563	1.45172119140625	4.5819091796875E-06	6.65165498503484E-06	316837.625	4.37654271081556E-05
1	165	83.2326957898576	1.46163940429688	1.46148681640625	4.67681884765625E-06	6.8351087065821E-06	312495.9375	4.4231641368242E-05
1	166	83.3334037896034	1.47171020507813	1.4715576171875	4.78912353515625E-06	7.04747117197257E-06	307270.75	4.47082893515471E-05
1	167	83.4341117893491	1.48178100585938	1.48162841796875	4.91790771484375E-06	7.2865113907028E-06	301272.125	4.51970772701316E-05
1	168	83.5348197890949	1.49185180664063	1.49169921875	5.0628662109375E-06	7.55227301851846E-06	294635.34375	4.5699649490416E-05
1	169	83.6355277888406	1.50192260742188	1.50177001953125	5.218505859375E-06	7.83699488238199E-06	287777.78125	4.62173593405169E-05
1	170	83.7362357885863	1.49185180664063	1.49169921875	4.81292724609375E-06	7.17943976269453E-06	309935.96875	4.67224817839451E-05
1	171	83.8369437883321	1.48178100585938	1.48162841796875	4.51690673828125E-06	6.69237761030672E-06	328018.375	4.71922758151777E-05
1	172	83.9376517880778	1.47171020507813	1.47186279296875	4.285888671875E-06	6.30824024483445E-06	343420.6875	4.76355307910126E-05
1	173	84.0383597878235	1.46163940429688	1.46209716796875	4.1015625E-06	5.9968829191348E-06	356473.21875	4.80578746646643E-05
1	174	84.1390677875693	1.45156860351563	1.45111083984375	3.95660400390625E-06	5.74147088627797E-06	366756.65625	4.84636329929344E-05
1	175	84.239775787315	1.44149780273438	1.44134521484375	3.84521484375E-06	5.54228199689533E-06	374841.25	4.88564874103758E-05
1	176	84.3404837870607	1.43142700195313	1.43157958984375	3.75946044921875E-06	5.38196673005586E-06	380793.90625	4.92394137836527E-05
1	177	84.4411917868065	1.42135620117188	1.42120361328125	3.690185546875E-06	5.2445047913352E-06	385130.6875	4.96145330544095E-05
1	178	84.5418997865522	1.41128540039063	1.41143798828125	3.63372802734375E-06	5.12878159497632E-06	388427	4.99833186040632E-05
1	179	84.642607786298	1.40121459960938	1.4013671875	3.58642578125E-06	5.02589909956441E-06	390742	5.03468836541288E-05
1	180	84.7433157860437	1.39114379882813	1.39129638671875	3.54736328125E-06	4.93543348056846E-06	392205.8125	5.0706097681541E-05
1	181	84.8440237857894	1.38107299804688	1.3812255859375	3.514404296875E-06	4.85418513562763E-06	393018.4375	5.10616882820614E-05
1	182	84.9447317855352	1.37100219726563	1.370849609375	3.48663330078125E-06	4.77964977108059E-06	393172.875	5.14142157044262E-05
1	183	85.0454397852809	1.36093139648438	1.36077880859375	3.46160888671875E-06	4.71048406325281E-06	393105.875	5.17640874022618E-05
1	184	85.1461477850266	1.35086059570313	1.3507080078125	3.44085693359375E-06	4.64759295937256E-06	392549.90625	5.21116562595125E-05
1	185	85.2468557847724	1.34078979492188	1.34033203125	3.42132568359375E-06	4.58571230410598E-06	391758.09375	5.24571951245889E-05
1	186	85.3475637845181	1.33071899414063	1.33026123046875	3.4027099609375E-06	4.52649283033679E-06	390941.71875	5.28008131368551E-05
1	187	85.4482717842639	1.32064819335938	1.32049560546875	3.38531494140625E-06	4.47029333372484E-06	390065.8125	5.31426157976966E-05
1	188	85.5489797840096	1.31057739257813	1.31072998046875	3.36822509765625E-06	4.41483325630543E-06	389145.625	5.34826831426471E-05
1	189	85.6496877837553	1.30050659179688	1.3006591796875	3.350830078125E-06	4.35828769695945E-06	388160.3125	5.38210151717067E-05
1	190	85.7503957835011	1.29043579101563	1.290283203125	3.333740234375E-06	4.30146883445559E-06	387037.71875	5.41576082468964E-05
1	191	85.8511037832468	1.28036499023438	1.28021240234375	3.31634521484375E-06	4.24562631451408E-06	386031.125	5.4492469644174E-05
1	192	85.9518117829925	1.27029418945313	1.2701416015625	3.2989501953125E-06	4.19013395003276E-06	385013.875	5.48255738976877E-05
1	193	86.0525197827383	1.26022338867188	1.26068115234375	3.2806396484375E-06	4.13584029956837E-06	384279.09375	5.51568846276496E-05
1	194	86.153227782484	1.25015258789063	1.25	3.262939453125E-06	4.07867401008843E-06	383090.1875	5.54863800061867E-05
1	195	86.2539357822297	1.24008178710938	1.240234375	3.24493408203125E-06	4.02447858505184E-06	382206.34375	5.58140745852143E-05
1	196	86.3546437819755	1.23001098632813	1.2298583984375	3.22784423828125E-06	3.96979112338158E-06	381015.40625	5.61400047445204E-05
1	197	86.4553517817212	1.21994018554688	1.219482421875	3.20953369140625E-06	3.91396997656557E-06	379956.28125	5.64641522942111E-05
1	198	86.556059781467	1.20986938476563	1.209716796875	3.192138671875E-06	3.8615835364908E-06	378967.5	5.67865026823711E-05
1	199	86.6567677812127	1.19979858398438	1.19964599609375	3.17474365234375E-06	3.80856840820343E-06	377871.78125	5.71071032027248E-05
1	200	86.7574757809584	1.18972778320313	1.1895751953125	3.15765380859375E-06	3.75626655113592E-06	376727.5625	5.74259647692088E-05
1	201	86.8581837807042	1.17965698242188	1.18011474609375	3.13995361328125E-06	3.7055056054669E-06	375838.28125	5.77430728299078E-05
1	202	86.9588917804499	1.16958618164063	1.16973876953125	3.12286376953125E-06	3.65293476534134E-06	374572.46875	5.80584310228005E-05
1	203	87.0595997801956	1.15951538085938	1.15997314453125	3.1048583984375E-06	3.60155218004365E-06	373599.375	5.8372021157993E-05
1	204	87.1603077799414	1.14944458007813	1.14959716796875	3.08624267578125E-06	3.54793564838474E-06	372490.875	5.86837668379303E-05
1	205	87.2610157796871	1.13937377929688	1.13922119140625	3.06671142578125E-06	3.49366246155114E-06	371479.75	5.89935953030363E-05
1	206	87.3617237794329	1.12930297851563	1.129150390625	3.0450439453125E-06	3.43831266036432E-06	370815.78125	5.93013464822434E-05
1	207	87.4624317791786	1.11923217773438	1.11907958984375	3.0206298828125E-06	3.38032509716868E-06	370478.90625	5.96067766309716E-05
1	208	87.5631397789243	1.10916137695313	1.1090087890625	2.99224853515625E-06	3.31842988998687E-06	370627.25	5.99095474171918E-05
1	209	87.6638477786701	1.09909057617188	1.09893798828125	2.95867919921875E-06	3.25140467793972E-06	371428.59375	6.02092004555743E-05
1	210	87.7645557784158	1.08901977539063	1.0894775390625	2.916259765625E-06	3.17719945996942E-06	373587.28125	6.05050299782306E-05
1	211	87.8652637781615	1.07894897460938	1.07879638671875	2.86163330078125E-06	3.08711946672702E-06	376986.25	6.07959700573701E-05
1	212	87.9659717779073	1.06887817382813	1.06903076171875	2.79144287109375E-06	2.9841380637663E-06	382967.125	6.1080623709131E-05
1	213	88.066679777653	1.05880737304688	1.05865478515625	2.7001953125E-06	2.85857458948158E-06	392066.03125	6.13571464782581E-05
1	214	88.1673877773987	1.04873657226563	1.04888916015625	2.58270263671875E-06	2.70896862275549E-06	406120.78125	6.16231627645902E-05
1	215	88.2680957771445	1.03866577148438	1.03851318359375	2.43499755859375E-06	2.52877703132981E-06	426494.5625	6.18758276687004E-05
1	216	88.3688037768902	1.02859497070313	1.02874755859375	2.2540283203125E-06	2.31882609114109E-06	456404.03125	6.21119397692382E-05
1	217	88.469511776636	1.01852416992188	1.0186767578125	2.04620361328125E-06	2.08441997529007E-06	497837.46875	6.23284722678363E-05
1	218	88.5702197763817	1.00845336914063	1.00860595703125	1.8218994140625E-06	1.83757856575539E-06	553601.375	6.25232423772104E-05
1	219	88.6709277761274	0.998382568359375	0.99853515625	1.600341796875E-06	1.59799753873813E-06	623951.1875	6.26955661573447E-05
1	220	88.7716357758732	0.988311767578125	0.98846435546875	1.40167236328125E-06	1.38550308292906E-06	705203.625	6.2846731452737E-05
1	221	88.8723437756189	0.978240966796875	0.9783935546875	1.24298095703125E-06	1.2161245876996E-06	787134.8125	6.29799033049494E-05
1	222	88.9730517753646	0.968170166015625	0.9686279296875	1.13525390625E-06	1.09963866634644E-06	853225.8125	6.30996582913212E-05
1	223	89.0737597751104	0.958099365234375	0.958251953125	1.07818603515625E-06	1.03317381672241E-06	888763.125	6.32111114100553E-05
1	224	89.1744677748561	0.948028564453125	0.94818115234375	1.06048583984375E-06	1.0055326811198E-06	894100.75	6.33188028587028E-05
1	225	89.2751757746018	0.937957763671875	0.93841552734375	1.06201171875E-06	9.96608264358656E-07	883620.6875	6.34256794000976E-05
1	226	89.3758837743476	0.927886962890625	0.92803955078125	1.0662841796875E-06	9.89553882391192E-07	870349.125	6.35328469797969E-05
1	227	89.4765917740933	0.917816162109375	0.91796875	1.0601806640625E-06	9.73212763710762E-07	865860.625	6.36399199720472E-05
1	228	89.5772997738391	0.907745361328125	0.90789794921875	1.03057861328125E-06	9.35660182221909E-07	880959.4375	6.37452030787244E-05
1	229	89.6780077735848	0.897674560546875	0.89752197265625	9.6710205078125E-07	8.67995254338894E-07	928053.0625	6.38457931927405E-05
1	230	89.7787157733305	0.887603759765625	0.887451171875	8.6181640625E-07	7.64819958476437E-07	1029745.0625	6.39378849882632E-05
1	231	89.8794237730763	0.877532958984375	0.8770751953125	7.061767578125E-07	6.1937009832036E-07	1242005.125	6.40168364043348E-05
1	232	89.980131772822	0.867462158203125	0.8673095703125	4.98352050781251E-07	4.32225505164752E-07	1740355.125	6.40774887870066E-05
1	233	90.0808397725677	0.857391357421875	0.85784912109375	2.4078369140625E-07	2.06556080684095E-07	3562737.75	6.41147125861607E-05
1	234	90.1815477723135	0.847320556640625	0.8477783203125	-5.15747070312503E-08	-4.37239187078831E-08	-16437870	6.41242368146777E-05
1	235	90.2822557720592	0.837249755859375	0.83740234375	-3.54919433593751E-07	-2.97210362987244E-07	-2359415.5	6.4103769545909E-05
1	236	90.382963771805	0.827178955078125	0.8270263671875	-6.4239501953125E-07	-5.31277578375011E-07	-1287411	6.40535508864559E-05
1	237	90.4836717715507	0.817108154296875	0.8172607421875	-8.8623046875E-07	-7.24281335351407E-07	-922176.3125	6.39765785308555E-05
1	238	90.5843797712964	0.807037353515625	0.8074951171875	-1.0650634765625E-06	-8.60033537719573E-07	-758166.25	6.38783239992335E-05
1	239	90.6850877710422	0.796966552734375	0.79681396484375	-1.17340087890625E-06	-9.34982153921737E-07	-679063.75	6.37656048638746E-05
1	240	90.7857957707879	0.786895751953125	0.78704833984375	-1.2164306640625E-06	-9.5738971594983E-07	-647014.5625	6.36452678008936E-05
1	241	90.8865037705336	0.776824951171875	0.77667236328125	-1.20941162109375E-06	-9.39316578296712E-07	-642190.25	6.35231190244667E-05
1	242	90.9872117702794	0.766754150390625	0.7672119140625	-1.170654296875E-06	-8.98139887794969E-07	-655370.1875	6.34032694506459E-05
1	243	91.0879197700251	0.756683349609375	0.7568359375	-1.11907958984375E-06	-8.46959608225006E-07	-676302.1875	6.32879746262915E-05
1	244	91.1886277697708	0.746612548828125	0.74652099609375	-1.07086181640625E-06	-7.99420831754105E-07	-697121.6875	6.3177700212691E-05
1	245	91.2893357695166	0.736541748046875	0.73651123046875	-1.03759765625E-06	-7.64202297887095E-07	-709823.5625	6.30715367151424E-05
1	246	91.3900437692623	0.726470947265625	0.7264404296875	-1.0302734375E-06	-7.4843228503596E-07	-705094.8125	6.29674104857258E-05
1	247	91.4907517690081	0.716400146484375	0.716339111328125	-1.05438232421875E-06	-7.5529527521212E-07	-679392.1875	6.2862440245226E-05
1	248	91.5914597687538	0.706329345703125	0.706268310546875	-1.11663818359375E-06	-7.88646161709039E-07	-632495.25	6.27531189820729E-05
1	249	91.6921677684995	0.696258544921875	0.6961669921875	-1.21856689453125E-06	-8.48326010327582E-07	-571299.8125	6.26355322310701E-05
1	250	91.7928757682453	0.686187744140625	0.68609619140625	-1.35467529296875E-06	-9.29437590002635E-07	-506465.40625	6.25059547019191E-05
1	251	91.893583767991	0.676116943359375	0.676055908203125	-1.514892578125E-06	-1.02415208402817E-06	-446273.15625	6.2361461459659E-05
1	252	91.9942917677367	0.666046142578125	0.666046142578125	-1.67999267578125E-06	-1.11895258214645E-06	-396457.78125	6.22005900368094E-05
1	253	92.0949997674825	0.655975341796875	0.656005859375	-1.8292236328125E-06	-1.19998139780364E-06	-358625.3125	6.20238861301914E-05
1	254	92.1957077672282	0.645904541015625	0.6458740234375	-1.93878173828125E-06	-1.2522086763056E-06	-333133.96875	6.18341509834863E-05
1	255	92.296415766974	0.635833740234375	0.635772705078125	-2.00042724609375E-06	-1.27181704101531E-06	-317818.46875	6.16357938270085E-05
1	256	92.3971237667197	0.625762939453125	0.625762939453125	-2.00958251953125E-06	-1.25752217172703E-06	-311389.53125	6.14338787272573E-05
1	257	92.4978317664654	0.615692138671875	0.61566162109375	-1.9744873046875E-06	-1.21561606647447E-06	-311808.34375	6.12332587479614E-05
1	258	92.5985397662112	0.605621337890625	0.605621337890625	-1.90887451171875E-06	-1.1560551911316E-06	-317266.1875	6.10377173870802E-05
1	259	92.6992477659569	0.595550537109375	0.59552001953125	-1.82373046875E-06	-1.08606798221444E-06	-326539.5	6.08497684879694E-05
1	260	92.7999557657026	0.585479736328125	0.58544921875	-1.73126220703125E-06	-1.01356613413373E-06	-338163.25	6.06707581027877E-05
1	261	92.9006637654484	0.575408935546875	0.575439453125	-1.63726806640625E-06	-9.42148631111195E-07	-351463.1875	6.05011409788858E-05
1	262	93.0013717651941	0.565338134765625	0.56536865234375	-1.54693603515625E-06	-8.74589147770166E-07	-365476.4375	6.03408043389209E-05
1	263	93.1020797649398	0.555267333984375	0.555267333984375	-1.4630126953125E-06	-8.12363111890591E-07	-379536.9375	6.01892388658598E-05
1	264	93.2027877646856	0.545196533203125	0.545196533203125	-1.3861083984375E-06	-7.55701478283299E-07	-393328.9375	6.00457751716021E-05
1	265	93.3034957644313	0.535125732421875	0.53515625	-1.3153076171875E-06	-7.03895068454585E-07	-406867.75	5.99097475060262E-05
1	266	93.4042037641771	0.525054931640625	0.525054931640625	-1.25213623046875E-06	-6.57440239137941E-07	-419327.34375	5.97804682911374E-05
1	267	93.5049117639228	0.514984130859375	0.5150146484375	-1.1944580078125E-06	-6.15163344264147E-07	-431170.1875	5.9657271776814E-05
1	268	93.6056197636685	0.504913330078125	0.50494384765625	-1.14349365234375E-06	-5.77400044221577E-07	-441579.96875	5.95395467826165E-05
1	269	93.7063277634143	0.494842529296875	0.494842529296875	-1.09649658203125E-06	-5.42593170393957E-07	-451294.1875	5.94267548876815E-05
1	270	93.80703576316	0.484771728515625	0.484771728515625	-1.05499267578125E-06	-5.11430584992922E-07	-459502.5	5.93184195167851E-05
1	271	93.9077437629057	0.474700927734375	0.474639892578125	-1.01715087890625E-06	-4.82780421862117E-07	-466636.65625	5.92140786466189E-05
1	272	94.0084517626515	0.464630126953125	0.464599609375	-9.82666015625E-07	-4.56546217719733E-07	-472795.0625	5.91133793932386E-05
1	273	94.1091597623972	0.454559326171875	0.454559326171875	-9.51232910156249E-07	-4.3239177216492E-07	-477863.34375	5.90159979765303E-05
1	274	94.2098677621429	0.444488525390625	0.444549560546875	-9.22241210937499E-07	-4.09981936400072E-07	-482031.78125	5.89216615480836E-05
1	275	94.3105757618887	0.434417724609375	0.4344482421875	-8.953857421875E-07	-3.88998756761794E-07	-485207.9375	5.88301372772548E-05
1	276	94.4112837616344	0.424346923828125	0.424346923828125	-8.7158203125E-07	-3.69853154325028E-07	-486869.75	5.87411632295698E-05
1	277	94.5119917613802	0.414276123046875	0.414276123046875	-8.489990234375E-07	-3.51720018443302E-07	-487958.34375	5.86545247642789E-05
1	278	94.6126997611259	0.404205322265625	0.40423583984375	-8.28857421875E-07	-3.35053869093827E-07	-487702.5	5.85700399824418E-05
1	279	94.7134077608716	0.394134521484375	0.3941650390625	-8.09631347656251E-07	-3.19128361070398E-07	-486845.09375	5.84875342610758E-05
1	280	94.8141157606174	0.384063720703125	0.384124755859375	-7.92236328125E-07	-3.04317580912539E-07	-484861.3125	5.84068729949649E-05
1	281	94.9148237603631	0.373992919921875	0.374114990234375	-7.7545166015625E-07	-2.90108090439389E-07	-482447.84375	5.83279324928299E-05
1	282	95.0155317601088	0.363922119140625	0.3638916015625	-7.5958251953125E-07	-2.76405700105897E-07	-479067.90625	5.82506399950944E-05
1	283	95.1162397598546	0.353851318359375	0.35382080078125	-7.4462890625E-07	-2.63465182115397E-07	-475163.9375	5.81748972763307E-05
1	284	95.2169477596003	0.343780517578125	0.34375	-7.305908203125E-07	-2.51140590989962E-07	-470509.625	5.81006133870687E-05
1	285	95.3176557593461	0.333709716796875	0.33367919921875	-7.1746826171875E-07	-2.39404243984609E-07	-465078.6875	5.80276973778382E-05
1	286	95.4183637590918	0.323638916015625	0.32366943359375	-7.049560546875E-07	-2.28172723382158E-07	-459134.1875	5.79560728510842E-05
1	287	95.5190717588375	0.313568115234375	0.313568115234375	-6.927490234375E-07	-2.1722399878854E-07	-452643.1875	5.78856925130822E-05
1	288	95.6197797585833	0.303497314453125	0.303436279296875	-6.81457519531251E-07	-2.06778921096884E-07	-445275.4375	5.78164945181925E-05
1	289	95.720487758329	0.293426513671875	0.29345703125	-6.6986083984375E-07	-1.96575371091967E-07	-438086.59375	5.77484497625846E-05
1	290	95.8211957580747	0.283355712890625	0.283355712890625	-6.5948486328125E-07	-1.8686880309815E-07	-429662.21875	5.7681514590513E-05
1	291	95.9219037578205	0.273284912109375	0.27325439453125	-6.5032958984375E-07	-1.77705416604113E-07	-420178.3125	5.76155580347404E-05
1	292	96.0226117575662	0.263214111328125	0.26324462890625	-6.41479492187499E-07	-1.68866023386727E-07	-410371.09375	5.75505109736696E-05
1	293	96.1233197573119	0.253143310546875	0.253204345703125	-6.329345703125E-07	-1.60261777182313E-07	-400048.25	5.74863406654913E-05
1	294	96.2240277570577	0.243072509765625	0.243072509765625	-6.26220703124999E-07	-1.52217040749747E-07	-388157.90625	5.74229343328625E-05
1	295	96.3247357568034	0.233001708984375	0.2330322265625	-6.201171875E-07	-1.44507296795382E-07	-375787.40625	5.73601791984402E-05
1	296	96.4254437565492	0.222930908203125	0.22296142578125	-6.14318847656251E-07	-1.36969404707088E-07	-362940.90625	5.72980206925422E-05
1	297	96.5261517562949	0.212860107421875	0.212890625	-6.1065673828125E-07	-1.30003101617149E-07	-348625.6875	5.72363351238891E-05
1	298	96.6268597560406	0.202789306640625	0.202880859375	-6.0760498046875E-07	-1.23271419738558E-07	-333902.5625	5.7174991525244E-05
1	299	96.7275677557864	0.192718505859375	0.192718505859375	-6.060791015625E-07	-1.16802652883052E-07	-317975.84375	5.71138771192636E-05
1	300	96.8282757555321	0.182647705078125	0.1827392578125	-6.0546875E-07	-1.10642908168757E-07	-301814.5	5.70528718526475E-05
1	301	96.9289837552778	0.172576904296875	0.17266845703125	-6.0699462890625E-07	-1.04808819401114E-07	-284464.5625	5.69918192923069E-05
1	302	97.0296917550236	0.162506103515625	0.16253662109375	-6.103515625E-07	-9.92044775216527E-08	-266300	5.69305229873862E-05
1	303	97.1303997547693	0.152435302734375	0.1524658203125	-6.1614990234375E-07	-9.3941793011254E-08	-247449.25	5.68687610211782E-05
1	304	97.2311077545151	0.142364501953125	0.14239501953125	-6.25000000000001E-07	-8.89968845285694E-08	-227832.03125	5.68062641832512E-05
1	305	97.3318157542608	0.132293701171875	0.132354736328125	-6.36901855468749E-07	-8.42969782866021E-08	-207810.25	5.67427232454065E-05
1	306	97.4325237540065	0.122222900390625	0.122283935546875	-6.5338134765625E-07	-7.98980437366481E-08	-187155.53125	5.66777525818907E-05
1	307	97.5332317537523	0.112152099609375	0.112213134765625	-6.756591796875E-07	-7.5817837341674E-08	-166079.5	5.66108319617342E-05
1	308	97.633939753498	0.102081298828125	0.1021728515625	-7.04345703125001E-07	-7.19650046221432E-08	-145060.671875	5.654134292854E-05
1	309	97.7346477532437	0.092010498046875	0.09210205078125	-7.4310302734375E-07	-6.84413095086711E-08	-123942.515625	5.64684560231399E-05
1	310	97.8353557529895	0.081939697265625	0.08203125	-7.9498291015625E-07	-6.52134417578054E-08	-103186.1796875	5.63910070923157E-05
1	311	97.9360637527352	0.071868896484375	0.07196044921875	-8.65478515625E-07	-6.22802218686047E-08	-83145.2734375	5.63073954253923E-05
1	312	98.0367717524809	0.061798095703125	0.061859130859375	-9.58862304687499E-07	-5.93143880678326E-08	-64513.05078125	5.62155328225344E-05
1	313	98.1374797522267	0.051727294921875	0.0517578125	-1.08184814453125E-06	-5.59940929178993E-08	-47842.03125	5.61127744731493E-05
1	314	98.2381877519724	0.041656494140625	0.041796875	-1.2371826171875E-06	-5.17103657671214E-08	-33783.91796875	5.59960026293993E-05
1	315	98.3388957517182	0.031585693359375	0.0317108154296875	-1.424560546875E-06	-4.51739765594539E-08	-22260.068359375	5.58619758521672E-05
1	316	98.4396037514639	0.021514892578125	0.02161865234375	-1.63330078125E-06	-3.53097604488539E-08	-13236.1748046875	5.57079983991571E-05
1	317	98.5403117512096	0.011444091796875	0.0115692138671875	-1.85028076171875E-06	-2.14062936265691E-08	-6252.6806640625	5.55325859750155E-05
1	318	98.6410197509554	0.001373291015625	0.001495361328125	-2.05230712890625E-06	-3.06894065715824E-09	-728.624572753906	5.53360769117717E-05
1	319	98.7417277507011	-0.008697509765625	-0.00860595703125	-2.21893310546875E-06	1.90960420809461E-08	3878.42114257813	5.51210032426752E-05
1	320	98.8424357504468	-0.018768310546875	-0.018646240234375	-2.33489990234375E-06	4.3537102811797E-08	7985.88427734375	5.48916978004854E-05
1	321	98.9431437501926	-0.028839111328125	-0.028692626953125	-2.39715576171875E-06	6.87806931409796E-08	11969.447265625	5.46534211025573E-05
1	322	99.0438517499383	-0.038909912109375	-0.038787841796875	-2.40966796875E-06	9.34658217488504E-08	16096.7578125	5.44113754585851E-05
1	323	99.144559749684	-0.048980712890625	-0.0488372802734375	-2.38494873046875E-06	1.16474410560841E-07	20477.2890625	5.41699482710101E-05
1	324	99.2452677494298	-0.059051513671875	-0.058929443359375	-2.33673095703125E-06	1.37702244273896E-07	25218.755859375	5.39321954420302E-05
1	325	99.3459757491755	-0.069122314453125	-0.069061279296875	-2.27569580078125E-06	1.57162460823201E-07	30347.32421875	5.36999395990279E-05
1	326	99.4466837489213	-0.079193115234375	-0.07916259765625	-2.21160888671875E-06	1.75076706909749E-07	35794.12109375	5.34739847353194E-05
1	327	99.547391748667	-0.089263916015625	-0.08917236328125	-2.1484375E-06	1.91581250419404E-07	41505.68359375	5.3254439990269E-05
1	328	99.6480997484127	-0.099334716796875	-0.099212646484375	-2.091064453125E-06	2.07460018941674E-07	47446.00390625	5.30409633938689E-05
1	329	99.7488077481585	-0.109405517578125	-0.1092529296875	-2.03826904296875E-06	2.22686864503885E-07	53600.83984375	5.28330347151496E-05
1	330	99.8495157479042	-0.119476318359375	-0.119384765625	-1.9927978515625E-06	2.37909688394211E-07	59908.12109375	5.26300536876079E-05
1	331	99.9502237476499	-0.129547119140625	-0.129486083984375	-1.9525146484375E-06	2.52823468827046E-07	66317.6015625	5.2431394578889E-05
1	332	100.050931747396	-0.139617919921875	-0.139495849609375	-1.9183349609375E-06	2.67599745029656E-07	72717.15625	5.22364789503627E-05
1	333	100.151639747141	-0.149688720703125	-0.1495361328125	-1.88995361328125E-06	2.8261635520721E-07	79121.59375	5.2044717449462E-05
1	334	100.252347746887	-0.159759521484375	-0.15966796875	-1.86676025390625E-06	2.9806179213665E-07	85532.125	5.18555534654297E-05
1	335	100.353055746633	-0.169830322265625	-0.16973876953125	-1.84814453125E-06	3.13701775667141E-07	91842.8046875	5.16684922331478E-05
1	336	100.453763746379	-0.179901123046875	-0.179718017578125	-1.8353271484375E-06	3.29841356006E-07	97921.515625	5.14830135216471E-05
1	337	100.554471746124	-0.189971923828125	-0.189788818359375	-1.82647705078125E-06	3.46644924320572E-07	103909.7734375	5.12986262037884E-05
1	338	100.65517974587	-0.200042724609375	-0.1998291015625	-1.822509765625E-06	3.64190469781533E-07	109645.015625	5.11148864461575E-05
1	339	100.755887745616	-0.189971923828125	-0.189788818359375	-1.61651611328125E-06	3.06796692939315E-07	117406.078125	5.09417186549399E-05
2	340	100.856595745362	-0.179901123046875	-0.179718017578125	-1.4678955078125E-06	2.63807265810101E-07	122432.4375	5.07864060637075E-05
2	341	100.957303745107	-0.169830322265625	-0.169708251953125	-1.3470458984375E-06	2.28604804419774E-07	125985.5	5.06446631334256E-05
2	342	101.058011744853	-0.159759521484375	-0.15960693359375	-1.243896484375E-06	1.9853449373386E-07	128312.0703125	5.05141979374457E-05
2	343	101.158719744599	-0.149688720703125	-0.149627685546875	-1.1529541015625E-06	1.72513850316136E-07	129777.6640625	5.03935079905204E-05
2	344	101.259427744345	-0.139617919921875	-0.139404296875	-1.0711669921875E-06	1.49325273923751E-07	130142.4609375	5.02815128129441E-05
2	345	101.36013574409	-0.129547119140625	-0.1295166015625	-9.95483398437499E-07	1.28931617382477E-07	130104.2421875	5.01774484291673E-05
2	346	101.460843743836	-0.119476318359375	-0.119384765625	-9.25598144531251E-07	1.10502313077632E-07	128981.2109375	5.00807145726867E-05
2	347	101.561551743582	-0.109405517578125	-0.1092529296875	-8.5784912109375E-07	9.37225266284258E-08	127356.8125	4.99909110658336E-05
2	348	101.662259743327	-0.099334716796875	-0.0992431640625	-7.91015625E-07	7.85028930749831E-08	125462.9609375	4.99078851134982E-05
2	349	101.762967743073	-0.089263916015625	-0.089141845703125	-7.21130371093751E-07	6.42828865693446E-08	123614.0546875	4.98317422170658E-05
2	350	101.863675742819	-0.079193115234375	-0.079071044921875	-6.4605712890625E-07	5.10844095913399E-08	122390.1796875	4.97628971061204E-05
2	351	101.964383742565	-0.069122314453125	-0.069061279296875	-5.59082031249999E-07	3.86109206829133E-08	123526.203125	4.97022156196181E-05
2	352	102.06509174231	-0.059051513671875	-0.058990478515625	-4.58374023437499E-07	2.70397020329938E-08	128695.078125	4.96509819640778E-05
2	353	102.165799742056	-0.048980712890625	-0.048834228515625	-3.36303710937499E-07	1.64231312993479E-08	145208.703125	4.96109678351786E-05
2	354	102.266507741802	-0.038909912109375	-0.0387176513671875	-1.8585205078125E-07	7.19575421470608E-09	208325.125	4.95846725243609E-05
2	355	102.367215741548	-0.028839111328125	-0.02867431640625	-4.27246093750028E-09	1.22509891120615E-10	6711428	4.95751010021195E-05
2	356	102.467923741293	-0.018768310546875	-0.0186370849609375	2.08129882812499E-07	-3.87893406283979E-09	-89545.4609375	4.95853673783131E-05
2	357	102.568631741039	-0.008697509765625	-0.00861511230468751	4.43420410156251E-07	-3.82011622335199E-09	-19428.767578125	4.96181746711954E-05
2	358	102.669339740785	0.001373291015625	0.0014984130859375	6.8695068359375E-07	1.02933583878695E-09	2181.25268554688	4.96750908496324E-05
2	359	102.770047740531	0.011444091796875	0.0115447998046875	9.197998046875E-07	1.06189039783544E-08	12551.4267578125	4.97559994983021E-05
2	360	102.870755740276	0.021514892578125	0.02161865234375	1.11846923828125E-06	2.41797977196256E-08	19328.787109375	4.98586341564078E-05
2	361	102.971463740022	0.031585693359375	0.0316802978515625	1.26617431640625E-06	4.0112777099921E-08	25020.486328125	4.99787092849147E-05
2	362	103.072171739768	0.041656494140625	0.041778564453125	1.357421875E-06	5.67111371196916E-08	30777.876953125	5.01108188473154E-05
2	363	103.172879739514	0.051727294921875	0.05181884765625	1.39617919921875E-06	7.23483992715046E-08	37114.75390625	5.02494731335901E-05
2	364	103.273587739259	0.061798095703125	0.061920166015625	1.3934326171875E-06	8.62815809909989E-08	44437.14453125	5.03899427712895E-05
2	365	103.374295739005	0.071868896484375	0.0718994140625	1.3623046875E-06	9.79489058750005E-08	52777.78125	5.05287025589496E-05
2	366	103.475003738751	0.081939697265625	0.08203125	1.3165283203125E-06	1.07996456222281E-07	62308.765625	5.06635951751377E-05
2	367	103.575711738496	0.092010498046875	0.092071533203125	1.26373291015625E-06	1.16353824353155E-07	72856.796875	5.07935219502542E-05
2	368	103.676419738242	0.102081298828125	0.102081298828125	1.21063232421875E-06	1.2358290746306E-07	84320.6484375	5.09181154484395E-05
2	369	103.777127737988	0.112152099609375	0.11224365234375	1.1602783203125E-06	1.30233871686869E-07	96738.5625	5.1037499360973E-05
2	370	103.877835737734	0.122222900390625	0.12225341796875	1.1138916015625E-06	1.36177050080732E-07	109753.4296875	5.11520120198838E-05
2	371	103.978543737479	0.132293701171875	0.132415771484375	1.07330322265625E-06	1.42122274837675E-07	123372.1953125	5.12621481902897E-05
2	372	104.079251737225	0.142364501953125	0.142425537109375	1.03729248046875E-06	1.47736940903087E-07	137305.09375	5.13684244651813E-05
2	373	104.179959736971	0.152435302734375	0.15252685546875	1.00555419921875E-06	1.53374017486385E-07	151684.375	5.14712883159518E-05
2	374	104.280667736717	0.162506103515625	0.162567138671875	9.7808837890625E-07	1.5900502603472E-07	166209.0625	5.15711726620793E-05
2	375	104.381375736462	0.172576904296875	0.172607421875	9.5367431640625E-07	1.64611265063286E-07	180992	5.16684449394234E-05
2	376	104.482083736208	0.182647705078125	0.182586669921875	9.3231201171875E-07	1.70227735907247E-07	195842.890625	5.17634143761825E-05
2	377	104.582791735954	0.192718505859375	0.1927490234375	9.14306640625E-07	1.76231708337582E-07	210814.421875	5.18563974765129E-05
2	378	104.6834997357	0.202789306640625	0.20281982421875	8.990478515625E-07	1.82344720656147E-07	225594.03125	5.19477071065921E-05
2	379	104.784207735445	0.212860107421875	0.212860107421875	8.85620117187499E-07	1.8851318372981E-07	240351.5	5.20375724590849E-05
2	380	104.884915735191	0.222930908203125	0.22296142578125	8.73718261718751E-07	1.94805465980608E-07	255186.875	5.21261608810164E-05
2	381	104.985623734937	0.233001708984375	0.2330322265625	8.6334228515625E-07	2.01186580284229E-07	269918.6875	5.22136288054753E-05
2	382	105.086331734683	0.243072509765625	0.24310302734375	8.5479736328125E-07	2.07803822149799E-07	284398.4375	5.23001435794868E-05
2	383	105.187039734428	0.253143310546875	0.253204345703125	8.4716796875E-07	2.145065991499E-07	298883.28125	5.23858470842242E-05
2	384	105.287747734174	0.263214111328125	0.26324462890625	8.4075927734375E-07	2.21325350935331E-07	313103.46875	5.24708411830943E-05
2	385	105.38845573392	0.273284912109375	0.273345947265625	8.3465576171875E-07	2.28149758640939E-07	327495.4375	5.2555202273652E-05
2	386	105.489163733665	0.283355712890625	0.28338623046875	8.2977294921875E-07	2.35146231375438E-07	341522.625	5.26390140294097E-05
2	387	105.589871733411	0.293426513671875	0.293426513671875	8.2550048828125E-07	2.42223734403524E-07	355452.875	5.2722363761859E-05
2	388	105.690579733157	0.303497314453125	0.303466796875	8.221435546875E-07	2.49493268711376E-07	369116.5625	5.28053278685547E-05
2	389	105.791287732903	0.313568115234375	0.313629150390625	8.1939697265625E-07	2.5698676608954E-07	382756.0625	5.28879863850307E-05
2	390	105.891995732648	0.323638916015625	0.323638916015625	8.1756591796875E-07	2.64596138777051E-07	395856.6875	5.29704157088418E-05
2	391	105.992703732394	0.333709716796875	0.333709716796875	8.1634521484375E-07	2.72422340685807E-07	408785.03125	5.30526885995641E-05
2	392	106.09341173214	0.343780517578125	0.343780517578125	8.15429687499999E-07	2.80328833923704E-07	421594.34375	5.31348559889011E-05
2	393	106.194119731886	0.353851318359375	0.353851318359375	8.15734863281251E-07	2.88648834612104E-07	433782.28125	5.32169906364288E-05
2	394	106.294827731631	0.363922119140625	0.36395263671875	8.160400390625E-07	2.96999928650621E-07	445998.5	5.32991580257658E-05
2	395	106.395535731377	0.373992919921875	0.3740234375	8.17260742187501E-07	3.05674660694422E-07	457654.96875	5.33814018126577E-05
2	396	106.496243731123	0.384063720703125	0.384063720703125	8.18481445312499E-07	3.14349023256E-07	469239.40625	5.34637656528503E-05
2	397	106.596951730869	0.394134521484375	0.394195556640625	8.20312500000001E-07	3.23363536836041E-07	480543.15625	5.35462859261315E-05
2	398	106.697659730614	0.404205322265625	0.404266357421875	8.21838378906251E-07	3.32241597789107E-07	491904.96875	5.36289771844167E-05
2	399	106.79836773036	0.414276123046875	0.41424560546875	8.23974609375E-07	3.4132784776375E-07	502740.75	5.37118503416423E-05
2	400	106.899075730106	0.424346923828125	0.424346923828125	8.2672119140625E-07	3.50816605987347E-07	513289.03125	5.37949672434479E-05
2	401	106.999783729852	0.434417724609375	0.434417724609375	8.28857421875E-07	3.60070345095664E-07	524116.34375	5.38783315278124E-05
2	402	107.100491729597	0.444488525390625	0.44451904296875	8.30993652343751E-07	3.6939249525858E-07	534924.6875	5.39619140909053E-05
2	403	107.201199729343	0.454559326171875	0.45452880859375	8.343505859375E-07	3.79236354319801E-07	544769.625	5.40457695024088E-05
2	404	107.301907729089	0.464630126953125	0.464599609375	8.3770751953125E-07	3.89198561379089E-07	554608.375	5.41299632459413E-05
2	405	107.402615728834	0.474700927734375	0.474639892578125	8.41369628906249E-07	3.99347584334464E-07	564127.6875	5.42145135113969E-05
2	406	107.50332372858	0.484771728515625	0.4847412109375	8.4564208984375E-07	4.09917561228212E-07	573222.6875	5.42994603165425E-05
2	407	107.604031728326	0.494842529296875	0.494873046875	8.514404296875E-07	4.21354911850358E-07	581218.625	5.43849164387211E-05
2	408	107.704739728072	0.504913330078125	0.5048828125	8.575439453125E-07	4.32959183171988E-07	588754.5	5.44709691894241E-05
2	409	107.805447727817	0.514984130859375	0.515045166015625	8.648681640625E-07	4.45446147523398E-07	595518.75	5.45576986041851E-05
2	410	107.906155727563	0.525054931640625	0.524932861328125	8.740234375E-07	4.58803640412953E-07	600593.5625	5.4645261116093E-05
2	411	108.006863727309	0.535125732421875	0.53509521484375	8.85620117187499E-07	4.73891049068698E-07	604204	5.47338640899397E-05
2	412	108.107571727055	0.545196533203125	0.545166015625	8.9996337890625E-07	4.90629417981836E-07	605764.6875	5.4823776736157E-05
2	413	108.2082797268	0.555267333984375	0.55523681640625	9.19189453124999E-07	5.10367783590482E-07	604050.5	5.49153774045408E-05
2	414	108.308987726546	0.565338134765625	0.5653076171875	9.43908691406251E-07	5.33598779384192E-07	598900.75	5.50091936020181E-05
2	415	108.409695726292	0.575408935546875	0.575408935546875	9.7930908203125E-07	5.63503192552162E-07	587566.1875	5.5106032959884E-05
2	416	108.510403726038	0.585479736328125	0.585540771484375	1.0272216796875E-06	6.0148016700623E-07	570023.8125	5.52070705452934E-05
2	417	108.611111725783	0.595550537109375	0.59552001953125	1.09588623046875E-06	6.52622190955299E-07	543414.125	5.53139798284974E-05
2	418	108.711819725529	0.605621337890625	0.605560302734375	1.18896484375E-06	7.19989884601091E-07	509317.28125	5.54290309082717E-05
2	419	108.812527725275	0.615692138671875	0.615631103515625	1.314697265625E-06	8.09368486898165E-07	468268.34375	5.55550977878738E-05
2	420	108.913235725021	0.625762939453125	0.625701904296875	1.47735595703125E-06	9.24384380596166E-07	423528.21875	5.56956911168527E-05
2	421	109.013943724766	0.635833740234375	0.635772705078125	1.6778564453125E-06	1.06673530808621E-06	378919.625	5.5854568927316E-05
2	422	109.114651724512	0.645904541015625	0.64593505859375	1.910400390625E-06	1.23399456697371E-06	338115	5.60352491447702E-05
2	423	109.215359724258	0.655975341796875	0.65594482421875	2.16156005859375E-06	1.41786404128652E-06	303459	5.62402892683167E-05
2	424	109.316067724003	0.666046142578125	0.665985107421875	2.4127197265625E-06	1.60683532612893E-06	276030.875	5.64706242585089E-05
2	425	109.416775723749	0.676116943359375	0.676055908203125	2.6385498046875E-06	1.78380707893666E-06	256222.546875	5.67249735468067E-05
2	426	109.517483723495	0.686187744140625	0.686126708984375	2.8192138671875E-06	1.93433788808761E-06	243375.203125	5.6999793741852E-05
2	427	109.618191723241	0.696258544921875	0.696136474609375	2.94281005859375E-06	2.04859725272399E-06	236555.015625	5.72899371036328E-05
2	428	109.718899722986	0.706329345703125	0.706329345703125	3.0108642578125E-06	2.12666168408759E-06	234593.546875	5.758972838521E-05
2	429	109.819607722732	0.716400146484375	0.71636962890625	3.03314208984375E-06	2.17285082726448E-06	236180.703125	5.78940671402961E-05
2	430	109.920315722478	0.726470947265625	0.72637939453125	3.026123046875E-06	2.19811340684828E-06	240036.296875	5.81991771468893E-05
2	431	110.021023722224	0.736541748046875	0.736480712890625	3.00811767578125E-06	2.21542063627567E-06	244831.09375	5.85030247748364E-05
2	432	110.121731721969	0.746612548828125	0.746490478515625	2.99591064453125E-06	2.23641882257652E-06	249169.8125	5.88053517276421E-05
2	433	110.222439721715	0.756683349609375	0.75714111328125	3.0023193359375E-06	2.27317946155381E-06	252185.40625	5.91073840041645E-05
2	434	110.323147721461	0.766754150390625	0.7666015625	3.0426025390625E-06	2.3324637368205E-06	251955.875	5.9411770052975E-05
2	435	110.423855721207	0.776824951171875	0.77667236328125	3.12652587890625E-06	2.42828627960989E-06	248413.859375	5.97224134253338E-05
2	436	110.524563720952	0.786895751953125	0.7867431640625	3.26324462890625E-06	2.56733528658515E-06	241092.3125	6.00441635469906E-05
2	437	110.625271720698	0.796966552734375	0.7965087890625	3.45703125E-06	2.75355569101521E-06	230402.546875	6.0382553783711E-05
2	438	110.725979720444	0.807037353515625	0.80780029296875	3.7060546875E-06	2.99375187751139E-06	217967.734375	6.0743244830519E-05
2	439	110.82668772019	0.817108154296875	0.81695556640625	3.995361328125E-06	3.26403255712648E-06	204476.03125	6.11310388194397E-05
2	440	110.927395719935	0.827178955078125	0.82733154296875	4.30572509765625E-06	3.56226200892706E-06	192146.875	6.15490353084169E-05
2	441	111.028103719681	0.837249755859375	0.83740234375	4.6044921875E-06	3.8558123378607E-06	181866.390625	6.19976999587379E-05
2	442	111.128811719427	0.847320556640625	0.84747314453125	4.86175537109375E-06	4.1202069951396E-06	174314.234375	6.24743624939583E-05
2	443	111.229519719172	0.857391357421875	0.85784912109375	5.0537109375E-06	4.33532159149763E-06	169746.375	6.29736459814012E-05
2	444	111.330227718918	0.867462158203125	0.86761474609375	5.16357421875E-06	4.47999309471925E-06	168026	6.34881289443001E-05
2	445	111.430935718664	0.877532958984375	0.87738037109375	5.194091796875E-06	4.55719373348984E-06	168918.921875	6.40096768620424E-05
2	446	111.53164371841	0.887603759765625	0.8880615234375	5.16357421875E-06	4.58557178717456E-06	171985.8125	6.45312247797847E-05
2	447	111.632351718155	0.897674560546875	0.89752197265625	5.09033203125E-06	4.56868474429939E-06	176318.953125	6.50475558359176E-05
2	448	111.733059717901	0.907745361328125	0.9075927734375	4.998779296875E-06	4.53685606771614E-06	181562.875	6.55555777484551E-05
2	449	111.833767717647	0.917816162109375	0.91796875	4.9041748046875E-06	4.50187917522271E-06	187181.09375	6.60542355035432E-05
2	450	111.934475717393	0.927886962890625	0.9283447265625	4.82757568359375E-06	4.48165428679204E-06	192300.40625	6.65442639729008E-05
2	451	112.035183717138	0.937957763671875	0.93780517578125	4.77813720703125E-06	4.48096170657664E-06	196270.03125	6.70279550831765E-05
2	452	112.135891716884	0.948028564453125	0.9478759765625	4.76318359375E-06	4.51490723207826E-06	199000.515625	6.75083938403986E-05
2	453	112.23659971663	0.958099365234375	0.95855712890625	4.79034423828125E-06	4.59181865153369E-06	200101.9375	6.7989451054018E-05
2	454	112.337307716376	0.968170166015625	0.968017578125	4.86083984375E-06	4.7053786147444E-06	199146.15625	6.84754268149845E-05
2	455	112.438015716121	0.978240966796875	0.97808837890625	4.9713134765625E-06	4.86238377561676E-06	196746.46875	6.89705193508416E-05
2	456	112.538723715867	0.988311767578125	0.9881591796875	5.1025390625E-06	5.04212084706523E-06	193660.28125	6.94777772878297E-05
2	457	112.639431715613	0.998382568359375	0.99822998046875	5.2398681640625E-06	5.23059361512423E-06	190506.703125	6.99985612300225E-05
2	458	112.740139715359	1.00845336914063	1.00860595703125	5.35888671875E-06	5.40500468559912E-06	188211.859375	7.05322454450652E-05
2	459	112.840847715104	1.01852416992188	1.01837158203125	5.4412841796875E-06	5.54124881091411E-06	187156.484375	7.10760796209797E-05
2	460	112.94155571485	1.02859497070313	1.02874755859375	5.4779052734375E-06	5.63538151254761E-06	187799.4375	7.16259019100107E-05
2	461	113.042263714596	1.03866577148438	1.03851318359375	5.462646484375E-06	5.6730300457275E-06	190111.75	7.21768083167262E-05
2	462	113.142971714341	1.04873657226563	1.0491943359375	5.413818359375E-06	5.68014729651622E-06	193799.328125	7.27244769223034E-05
2	463	113.243679714087	1.05880737304688	1.0589599609375	5.33447265625E-06	5.64899255550699E-06	198512.59375	7.32656990294345E-05
2	464	113.344387713833	1.06887817382813	1.0687255859375	5.2398681640625E-06	5.5999812502705E-06	203960.390625	7.3798160883598E-05
2	465	113.445095713579	1.07894897460938	1.07879638671875	5.1422119140625E-06	5.54739926883485E-06	209792.296875	7.43209384381771E-05
2	466	113.545803713324	1.08901977539063	1.08917236328125	5.04150390625E-06	5.49106653124909E-06	216041.171875	7.48337261029519E-05
2	467	113.64651171307	1.09909057617188	1.09954833984375	4.94537353515625E-06	5.43767691851826E-06	222338.796875	7.53366111894138E-05
2	468	113.747219712816	1.10916137695313	1.1090087890625	4.85748291015625E-06	5.38699123353581E-06	228309.359375	7.58302194299176E-05
2	469	113.847927712562	1.11923217773438	1.1199951171875	4.776611328125E-06	5.34978107680217E-06	234474.84375	7.63153366278857E-05
2	470	113.948635712307	1.12930297851563	1.129150390625	4.70367431640625E-06	5.31115574631258E-06	240057.09375	7.67927049309947E-05
2	471	114.049343712053	1.13937377929688	1.13922119140625	4.63653564453125E-06	5.28203918293002E-06	245705.28125	7.72630228311755E-05
2	472	114.150051711799	1.14944458007813	1.1492919921875	4.576416015625E-06	5.25963832842535E-06	251133.640625	7.77269306126982E-05
2	473	114.250759711545	1.15951538085938	1.15997314453125	4.5220947265625E-06	5.24550841873861E-06	256512.359375	7.81850758357905E-05
2	474	114.35146771129	1.16958618164063	1.16943359375	4.4732666015625E-06	5.23118796991184E-06	261427.21875	7.86380333011039E-05
2	475	114.452175711036	1.17965698242188	1.17950439453125	4.42901611328125E-06	5.22404388902942E-06	266312.96875	7.90862977737561E-05
2	476	114.552883710782	1.18972778320313	1.18927001953125	4.3890380859375E-06	5.2197515287844E-06	270963.6875	7.95303203631192E-05
2	477	114.653591710528	1.19979858398438	1.19964599609375	4.35272216796875E-06	5.2217255870346E-06	275608.21875	7.99705012468621E-05
2	478	114.754299710273	1.20986938476563	1.209716796875	4.3194580078125E-06	5.22532036484336E-06	280062.1875	8.04071823949926E-05
2	479	114.855007710019	1.21994018554688	1.2200927734375	4.2901611328125E-06	5.23439439348294E-06	284393.21875	8.08407130534761E-05
2	480	114.955715709765	1.23001098632813	1.22955322265625	4.26300048828125E-06	5.24158576808986E-06	288424.375	8.12713988125324E-05
2	481	115.05642370951	1.24008178710938	1.240234375	4.23828125E-06	5.25646191817941E-06	292626.71875	8.16994725028053E-05
2	482	115.157131709256	1.25015258789063	1.25030517578125	4.21630859375E-06	5.27167230757186E-06	296540.25	8.21251960587688E-05
2	483	115.257839709002	1.26022338867188	1.2603759765625	4.19647216796875E-06	5.2891327868565E-06	300341.78125	8.25488095870242E-05
2	484	115.358547708748	1.27029418945313	1.26983642578125	4.17938232421875E-06	5.30713214175194E-06	303833.5	8.29705677460879E-05
2	485	115.459255708493	1.28036499023438	1.280517578125	4.16290283203125E-06	5.33067031938117E-06	307602.09375	8.33906378829852E-05
2	486	115.559963708239	1.29043579101563	1.29058837890625	4.149169921875E-06	5.35487060915329E-06	311047.375	8.38091800687835E-05
2	487	115.660671707985	1.30050659179688	1.3006591796875	4.13848876953125E-06	5.38276344741462E-06	314283.59375	8.42264998937026E-05
2	488	115.761379707731	1.31057739257813	1.31103515625	4.12933349609375E-06	5.41370127393748E-06	317493.1875	8.46428156364709E-05
2	489	115.862087707476	1.32064819335938	1.32080078125	4.1229248046875E-06	5.44556178283528E-06	320355.3125	8.50583528517745E-05
2	490	115.962795707222	1.33071899414063	1.33056640625	4.11895751953125E-06	5.48054640603368E-06	323034.75	8.54733589221723E-05
2	491	116.063503706968	1.34078979492188	1.3409423828125	4.1180419921875E-06	5.52205710846465E-06	325626.21875	8.58881248859689E-05
2	492	116.164211706714	1.35086059570313	1.3507080078125	4.11895751953125E-06	5.56350869374E-06	327924.75	8.63028908497654E-05
2	493	116.264919706459	1.36093139648438	1.3604736328125	4.12353515625E-06	5.60996022613836E-06	329928.96875	8.67179332999513E-05
2	494	116.365627706205	1.37100219726563	1.370849609375	4.130859375E-06	5.66278686164878E-06	331855.78125	8.71335796546191E-05
2	495	116.466335705951	1.38107299804688	1.38092041015625	4.14031982421875E-06	5.71745158595149E-06	333529.90625	8.75500627444126E-05
2	496	116.567043705697	1.39114379882813	1.3916015625	4.15374755859375E-06	5.78036133447313E-06	335023.15625	8.79677027114667E-05
2	497	116.667751705442	1.40121459960938	1.40106201171875	4.17144775390625E-06	5.84445660933852E-06	335869.5	8.83869142853655E-05
2	498	116.768459705188	1.41128540039063	1.41143798828125	4.19525146484375E-06	5.92133710597409E-06	336437.0625	8.88082067831419E-05
2	499	116.869167704934	1.42135620117188	1.42181396484375	4.224853515625E-06	6.00695557295694E-06	336535.6875	8.92321913852356E-05
2	500	116.969875704679	1.43142700195313	1.4312744140625	4.2633056640625E-06	6.10196002526209E-06	335719.40625	8.96596029633656E-05
2	501	117.070583704425	1.44149780273438	1.44134521484375	4.31060791015625E-06	6.21307390247239E-06	334371.6875	9.00913364603184E-05
2	502	117.171291704171	1.45156860351563	1.45172119140625	4.36859130859375E-06	6.34197658655467E-06	332308.75	9.05283668544143E-05
2	503	117.271999703917	1.46163940429688	1.46148681640625	4.43939208984375E-06	6.48811283099349E-06	329208.78125	9.09718874027021E-05
2	504	117.372707703662	1.47171020507813	1.4715576171875	4.5269775390625E-06	6.66170853946824E-06	325064.03125	9.1423382400535E-05
2	505	117.473415703408	1.48178100585938	1.48193359375	4.63226318359375E-06	6.86470593791455E-06	319915.6875	9.18845835258253E-05
2	506	117.574123703154	1.49185180664063	1.4923095703125	4.7576904296875E-06	7.09994719727547E-06	313662.59375	9.23574043554254E-05
2	507	117.6748317029	1.50192260742188	1.50177001953125	4.90081787109375E-06	7.35990124667296E-06	306432.53125	9.28437511902303E-05
2	508	117.775539702645	1.49185180664063	1.49169921875	4.58099365234375E-06	6.8334643401613E-06	325627.90625	9.3321199528873E-05
2	509	117.876247702391	1.48178100585938	1.48193359375	4.3511962890625E-06	6.44818419459625E-06	340580.71875	9.37709701247513E-05
2	510	117.976955702137	1.47171020507813	1.47186279296875	4.17449951171875E-06	6.14429018241935E-06	352584.28125	9.4200273451861E-05
2	511	118.077663701883	1.46163940429688	1.46148681640625	4.034423828125E-06	5.89625733482535E-06	362254.15625	9.46136206039228E-05
2	512	118.178371701628	1.45156860351563	1.45172119140625	3.9208984375E-06	5.69205167266773E-06	370252.1875	9.50142057263292E-05
2	513	118.279079701374	1.44149780273438	1.44134521484375	3.8287353515625E-06	5.51852917851647E-06	376454.65625	9.54044298850931E-05
2	514	118.37978770112	1.43142700195313	1.4312744140625	3.7518310546875E-06	5.36989955435274E-06	381486.90625	9.57861411734484E-05
2	515	118.480495700866	1.42135620117188	1.4215087890625	3.687744140625E-06	5.24216056874138E-06	385468.40625	9.61607584031299E-05
2	516	118.581203700611	1.41128540039063	1.4111328125	3.634033203125E-06	5.12810356667615E-06	388310.375	9.65294384513982E-05
2	517	118.681911700357	1.40121459960938	1.40045166015625	3.58856201171875E-06	5.02560760651249E-06	390254.28125	9.68931199167855E-05
2	518	118.782619700103	1.39114379882813	1.39129638671875	3.54949951171875E-06	4.93840570925386E-06	391969.75	9.72525522229262E-05
2	519	118.883327699848	1.38107299804688	1.3812255859375	3.515625E-06	4.85587133880472E-06	392881.9375	9.76083101704717E-05
2	520	118.984035699594	1.37100219726563	1.370849609375	3.486328125E-06	4.77923140351777E-06	393207.28125	9.79608885245398E-05
2	521	119.08474369934	1.36093139648438	1.3604736328125	3.45977783203125E-06	4.70693612442119E-06	393225.75	9.83106510830112E-05
2	522	119.185451699086	1.35086059570313	1.351318359375	3.43658447265625E-06	4.6439195102721E-06	393215.53125	9.86579107120633E-05
2	523	119.286159698831	1.34078979492188	1.3409423828125	3.414306640625E-06	4.5783881432726E-06	392742.25	9.9002878414467E-05
2	524	119.386867698577	1.33071899414063	1.33087158203125	3.3935546875E-06	4.51638561571599E-06	392176.28125	9.93456851574592E-05
2	525	119.487575698323	1.32064819335938	1.32049560546875	3.3740234375E-06	4.45538307758397E-06	391371.1875	9.96864546323195E-05
2	526	119.588283698069	1.31057739257813	1.31134033203125	3.3551025390625E-06	4.39968107457389E-06	390849.5625	0.000100025295978412
2	527	119.688991697814	1.30050659179688	1.3006591796875	3.33587646484375E-06	4.33883815276204E-06	389900.3125	0.000100362216471694
2	528	119.78969969756	1.29043579101563	1.290283203125	3.31756591796875E-06	4.28059956902871E-06	388924.65625	0.000100697237940039
2	529	119.890407697306	1.28036499023438	1.27960205078125	3.29986572265625E-06	4.22251514464733E-06	387773.96875	0.000101030454970896
2	530	119.991115697052	1.27029418945313	1.270751953125	3.28155517578125E-06	4.17004275732324E-06	387240.78125	0.000101361853012349
2	531	120.091823696797	1.26022338867188	1.26068115234375	3.26324462890625E-06	4.11391101806657E-06	386327.53125	0.000101691410236526
2	532	120.192531696543	1.25015258789063	1.25030517578125	3.245849609375E-06	4.05830223826342E-06	385201.21875	0.000102019170299172
2	533	120.293239696289	1.24008178710938	1.23992919921875	3.2281494140625E-06	4.00267663280829E-06	384099.09375	0.000102345162304118
2	534	120.393947696035	1.23001098632813	1.23016357421875	3.21075439453125E-06	3.94975313611212E-06	383138.5	0.000102669386251364
2	535	120.49465569578	1.21994018554688	1.21978759765625	3.19427490234375E-06	3.89633669328759E-06	381866.84375	0.000102991907624528
2	536	120.595363695526	1.20986938476563	1.21002197265625	3.177490234375E-06	3.8448329178209E-06	380810.625	0.000103312748251483
2	537	120.696071695272	1.19979858398438	1.19964599609375	3.16070556640625E-06	3.79172774955805E-06	379550.0625	0.000103631900856271
2	538	120.796779695017	1.18972778320313	1.1895751953125	3.14453125E-06	3.74065621144837E-06	378299.71875	0.000103949394542724
2	539	120.897487694763	1.17965698242188	1.1798095703125	3.12774658203125E-06	3.69014537682233E-06	377207.53125	0.00010426522931084
2	540	120.998195694509	1.16958618164063	1.16943359375	3.111572265625E-06	3.63877688869252E-06	375833.6875	0.000104579405160621
2	541	121.098903694255	1.15951538085938	1.15966796875	3.09478759765625E-06	3.58892589247262E-06	374716.53125	0.000104891922092065
2	542	121.199611694	1.14944458007813	1.1492919921875	3.07708740234375E-06	3.53647169504256E-06	373499.96875	0.00010520270006964
2	543	121.300319693746	1.13937377929688	1.1395263671875	3.05816650390625E-06	3.48486128132208E-06	372617.53125	0.000105511637229938
2	544	121.401027693492	1.12930297851563	1.12945556640625	3.03802490234375E-06	3.4313138712605E-06	371773	0.000105818602605723
2	545	121.501735693238	1.11923217773438	1.119384765625	3.0145263671875E-06	3.37441474584921E-06	371330.21875	0.000106123370642308
2	546	121.602443692983	1.10916137695313	1.10931396484375	2.98675537109375E-06	3.31324940816558E-06	371411.0625	0.000106425562989898
2	547	121.703151692729	1.09909057617188	1.0992431640625	2.9541015625E-06	3.24727602674102E-06	372107.4375	0.000106724706711248
2	548	121.803859692475	1.08901977539063	1.08917236328125	2.9132080078125E-06	3.17298554364243E-06	373873.875	0.000107020146970171
2	549	121.904567692221	1.07894897460938	1.07879638671875	2.86041259765625E-06	3.08580251839885E-06	377147.15625	0.000107310872408561
2	550	122.005275691966	1.06887817382813	1.0687255859375	2.7923583984375E-06	2.98426493827719E-06	382732.25	0.000107595515146386
2	551	122.105983691712	1.05880737304688	1.05865478515625	2.70263671875E-06	2.86115937342402E-06	391711.84375	0.000107872212538496
2	552	122.206691691458	1.04873657226563	1.04888916015625	2.58636474609375E-06	2.71280987362843E-06	405545.75	0.000108138534415048
2	553	122.307399691203	1.03866577148438	1.03851318359375	2.43988037109375E-06	2.53384791903954E-06	425641.03125	0.000108391621324699
2	554	122.408107690949	1.02859497070313	1.0284423828125	2.26043701171875E-06	2.32472916650295E-06	454975.03125	0.000108628300949931
2	555	122.508815690695	1.01852416992188	1.0186767578125	2.05230712890625E-06	2.09063750844507E-06	496356.875	0.000108845466456842
2	556	122.609523690441	1.00845336914063	1.0089111328125	1.826171875E-06	1.8424450445309E-06	552473.3125	0.000109040760435164
2	557	122.710231690186	0.998382568359375	0.99884033203125	1.60186767578125E-06	1.60001002313948E-06	623547.375	0.00010921338252956
2	558	122.810939689932	0.988311767578125	0.98876953125	1.3983154296875E-06	1.38261157189845E-06	707114.8125	0.000109364453237504
2	559	122.911647689678	0.978240966796875	0.9783935546875	1.23443603515625E-06	1.20776428502722E-06	792583.4375	0.000109497021185234
2	560	123.012355689424	0.968170166015625	0.968017578125	1.121826171875E-06	1.08594736047962E-06	862894.5	0.000109615670226049
2	561	123.113063689169	0.958099365234375	0.95855712890625	1.06231689453125E-06	1.01829141385679E-06	902326.9375	0.000109725646325387
2	562	123.213771688915	0.948028564453125	0.9478759765625	1.043701171875E-06	9.89299223874696E-07	908187.1875	0.000109831693407614
2	563	123.314479688661	0.937957763671875	0.93841552734375	1.04736328125E-06	9.82861934062385E-07	895979	0.000109936983790249
2	564	123.415187688407	0.927886962890625	0.92803955078125	1.05438232421875E-06	9.78508523985511E-07	880173.6875	0.000110042819869705
2	565	123.515895688152	0.917816162109375	0.91796875	1.0516357421875E-06	9.65368712968484E-07	872896.125	0.000110148866951931
2	566	123.616603687898	0.907745361328125	0.90789794921875	1.02630615234375E-06	9.31781187318848E-07	884626.875	0.000110253495222423
2	567	123.717311687644	0.897674560546875	0.89752197265625	9.66491699218749E-07	8.6744756799817E-07	928639.0625	0.000110353845229838
2	568	123.81801968739	0.887603759765625	0.8880615234375	8.6517333984375E-07	7.6832714057673E-07	1026455.0625	0.000110446075268555
2	569	123.918727687135	0.877532958984375	0.8782958984375	7.12890625E-07	6.26128894509748E-07	1232020.625	0.00011052553600166
2	570	124.019435686881	0.867462158203125	0.86700439453125	5.06591796875E-07	4.3921730252805E-07	1711445.75	0.000110586945083924
2	571	124.120143686627	0.857391357421875	0.85693359375	2.4993896484375E-07	2.14181085311793E-07	3428571.75	0.000110625034722034
2	572	124.220851686372	0.847320556640625	0.84747314453125	-4.36401367187506E-08	-3.69838417668689E-08	-19419582	0.000110635424789507
2	573	124.321559686118	0.837249755859375	0.83770751953125	-3.5125732421875E-07	-2.94250895649384E-07	-2384882.75	0.000110615539597347
2	574	124.422267685864	0.827178955078125	0.82763671875	-6.439208984375E-07	-5.32932574515144E-07	-1285308.125	0.000110565430077258
2	575	124.52297568561	0.817108154296875	0.81695556640625	-8.94775390624999E-07	-7.30991757791344E-07	-913028.6875	0.000110487948404625
2	576	124.623683685355	0.807037353515625	0.80718994140625	-1.080322265625E-06	-8.72025225362449E-07	-747175.125	0.000110388493339997
2	577	124.724391685101	0.796966552734375	0.797119140625	-1.195068359375E-06	-9.52611799220904E-07	-667007.1875	0.000110273918835446
2	578	124.825099684847	0.786895751953125	0.78704833984375	-1.24114990234375E-06	-9.7684494448913E-07	-634128.375	0.000110151246190071
2	579	124.925807684593	0.776824951171875	0.77667236328125	-1.23565673828125E-06	-9.59700400926522E-07	-628550.3125	0.000110026529000606
2	580	125.026515684338	0.766754150390625	0.7672119140625	-1.1962890625E-06	-9.17807255973457E-07	-641326.5	0.00010990407463396
2	581	125.127223684084	0.756683349609375	0.75714111328125	-1.14288330078125E-06	-8.65323954712949E-07	-662483.3125	0.000109786284156144
2	582	125.22793168383	0.746612548828125	0.74658203125	-1.09130859375E-06	-8.14751388134027E-07	-684116.3125	0.000109673783299513
2	583	125.328639683576	0.736541748046875	0.736480712890625	-1.05499267578125E-06	-7.76981721628545E-07	-698090.875	0.000109565706225112
2	584	125.429347683321	0.726470947265625	0.726409912109375	-1.0430908203125E-06	-7.57711518417636E-07	-696401.375	0.000109460059320554
2	585	125.530055683067	0.716400146484375	0.716400146484375	-1.064453125E-06	-7.62574302370922E-07	-673021.8125	0.000109353939478751
2	586	125.630763682813	0.706329345703125	0.706298828125	-1.1236572265625E-06	-7.93637752849463E-07	-628571.4375	0.0001092437596526
2	587	125.731471682559	0.696258544921875	0.69622802734375	-1.22314453125E-06	-8.51587515171559E-07	-569211.5625	0.000109125590824988
2	588	125.832179682304	0.686187744140625	0.6861572265625	-1.358642578125E-06	-9.32242357976065E-07	-505031.46875	0.000108995584014338
2	589	125.93288768205	0.676116943359375	0.676116943359375	-1.5191650390625E-06	-1.02713318028691E-06	-445058.25	0.000108850676042493
2	590	126.033595681796	0.666046142578125	0.666015625	-1.68609619140625E-06	-1.12296640963905E-06	-395004.53125	0.000108689280750696
2	591	126.134303681541	0.655975341796875	0.655914306640625	-1.8377685546875E-06	-1.20541869819135E-06	-356908	0.000108511834696401
2	592	126.235011681287	0.645904541015625	0.645843505859375	-1.95159912109375E-06	-1.26042755255185E-06	-330930.4375	0.000108321029983927
2	593	126.335719681033	0.635833740234375	0.63580322265625	-2.01507568359375E-06	-1.281191543967E-06	-315523.28125	0.000108121290395502
2	594	126.436427680779	0.625762939453125	0.625762939453125	-2.02606201171875E-06	-1.26783447740308E-06	-308856.75	0.000107917803688906
2	595	126.537135680524	0.615692138671875	0.615692138671875	-1.99188232421875E-06	-1.22638630273286E-06	-309100.65625	0.000107715481135529
2	596	126.63784368027	0.605621337890625	0.60565185546875	-1.925048828125E-06	-1.16590933885163E-06	-314616.375	0.000107518251752481
2	597	126.738551680016	0.595550537109375	0.595550537109375	-1.83868408203125E-06	-1.09502923351101E-06	-323900.40625	0.000107328727608547
2	598	126.839259679762	0.585479736328125	0.585479736328125	-1.74468994140625E-06	-1.02148055702855E-06	-335578.09375	0.000107148291135672
2	599	126.939967679507	0.575408935546875	0.575408935546875	-1.64886474609375E-06	-9.48771457842668E-07	-348972.8125	0.000106977415271103
2	600	127.040675679253	0.565338134765625	0.56536865234375	-1.556396484375E-06	-8.79937772424455E-07	-363254.90625	0.000106816019979306
2	601	127.141383678999	0.555267333984375	0.5552978515625	-1.4703369140625E-06	-8.16474937437306E-07	-377667.09375	0.000106663610495161
2	602	127.242091678745	0.545196533203125	0.545196533203125	-1.39068603515625E-06	-7.58197131744964E-07	-392034.25	0.0001065195465344
2	603	127.34279967849	0.535125732421875	0.535125732421875	-1.3189697265625E-06	-7.05814613866096E-07	-405714.96875	0.000106383100501262
2	604	127.443507678236	0.525054931640625	0.5250244140625	-1.253662109375E-06	-6.58203191505891E-07	-418792.625	0.000106253559351899
2	605	127.544215677982	0.514984130859375	0.5150146484375	-1.1944580078125E-06	-6.15163344264147E-07	-431170.1875	0.000106130290077999
2	606	127.644923677728	0.504913330078125	0.50494384765625	-1.1419677734375E-06	-5.76629588522337E-07	-442169.9375	0.000106012637843378
2	607	127.745631677473	0.494842529296875	0.494873046875	-1.0943603515625E-06	-5.41569420420274E-07	-452203.03125	0.000105900027847383
2	608	127.846339677219	0.484771728515625	0.48480224609375	-1.051025390625E-06	-5.09539461290842E-07	-461265.96875	0.000105792001704685
2	609	127.947047676965	0.474700927734375	0.474700927734375	-1.011962890625E-06	-4.80379696909949E-07	-469089.3125	0.000105688122857828
2	610	128.04775567671	0.464630126953125	0.464630126953125	-9.7686767578125E-07	-4.53882165629693E-07	-475632.625	0.000105587976577226
2	611	128.148463676456	0.454559326171875	0.45458984375	-9.442138671875E-07	-4.29230027521044E-07	-481447.96875	0.000105491242720746
2	612	128.249171676202	0.444488525390625	0.4444580078125	-9.14611816406249E-07	-4.06506529770922E-07	-485952.625	0.000105397644801997
2	613	128.349879675948	0.434417724609375	0.43438720703125	-8.87451171875001E-07	-3.85497429533643E-07	-489477.3125	0.00010530690633459
2	614	128.450587675693	0.424346923828125	0.424346923828125	-8.6334228515625E-07	-3.66356630365772E-07	-491516.4375	0.000105218743556179
2	615	128.551295675439	0.414276123046875	0.414276123046875	-8.40148925781251E-07	-3.4805364634849E-07	-493098.4375	0.000105132967291865
2	616	128.652003675185	0.404205322265625	0.404144287109375	-8.197021484375E-07	-3.3127793130916E-07	-493038	0.000105049388366751
2	617	128.752711674931	0.394134521484375	0.3941650390625	-8.00476074218751E-07	-3.15519685045729E-07	-492413.28125	0.000104967803054024
2	618	128.853419674676	0.384063720703125	0.38409423828125	-7.830810546875E-07	-3.00776918038537E-07	-490491.0625	0.00010488806583453
2	619	128.954127674422	0.373992919921875	0.37396240234375	-7.6629638671875E-07	-2.86566034901625E-07	-488012.78125	0.000104810045741033
2	620	129.054835674168	0.363922119140625	0.36395263671875	-7.50732421875E-07	-2.73231023584231E-07	-484796.75	0.000104733655462041
2	621	129.155543673914	0.353851318359375	0.3538818359375	-7.3577880859375E-07	-2.60378755001511E-07	-480962.28125	0.000104658807686064
2	622	129.256251673659	0.343780517578125	0.34381103515625	-7.220458984375E-07	-2.48247346235075E-07	-476162.34375	0.000104585400549695
2	623	129.356959673405	0.333709716796875	0.333740234375	-7.09228515625E-07	-2.36698085132048E-07	-470568	0.000104513332189526
2	624	129.457667673151	0.323638916015625	0.3236083984375	-6.96411132812499E-07	-2.25364487960178E-07	-464680.125	0.000104442551673856
2	625	129.558375672897	0.313568115234375	0.313629150390625	-6.854248046875E-07	-2.14969190892589E-07	-457569.03125	0.000104372971691191
2	626	129.659083672642	0.303497314453125	0.30352783203125	-6.744384765625E-07	-2.0471084383189E-07	-450045.25	0.000104304497654084
2	627	129.759791672388	0.293426513671875	0.293426513671875	-6.6497802734375E-07	-1.95122183299645E-07	-441257.46875	0.000104237049527001
2	628	129.860499672134	0.283355712890625	0.2833251953125	-6.55517578125001E-07	-1.85724644552465E-07	-432216.03125	0.000104170554550365
2	629	129.961207671879	0.273284912109375	0.273345947265625	-6.47888183593751E-07	-1.77097604137089E-07	-421903	0.000104104925412685
2	630	130.061915671625	0.263214111328125	0.263214111328125	-6.40258789062501E-07	-1.68525133403818E-07	-411105.84375	0.000104040060250554
2	631	130.162623671371	0.253143310546875	0.25311279296875	-6.34155273437501E-07	-1.60512797720003E-07	-399133.8125	0.000103975893580355
2	632	130.263331671117	0.243072509765625	0.2430419921875	-6.2835693359375E-07	-1.52717120727175E-07	-386789.71875	0.000103912316262722
2	633	130.364039670862	0.233001708984375	0.2330322265625	-6.25000000000001E-07	-1.45645131510719E-07	-372851.5625	0.000103849204606377
2	634	130.464747670608	0.222930908203125	0.22296142578125	-6.21643066406249E-07	-1.38602416654976E-07	-358664.71875	0.000103786434920039
2	635	130.565455670354	0.212860107421875	0.21295166015625	-6.201171875E-07	-1.32054978507767E-07	-343405.5	0.000103723905340303
2	636	130.6661636701	0.202789306640625	0.202789306640625	-6.1920166015625E-07	-1.25567481745748E-07	-327501.21875	0.000103661499451846
2	637	130.766871669845	0.192718505859375	0.192718505859375	-6.21337890625E-07	-1.19743305049269E-07	-310167.03125	0.000103599035355728
2	638	130.867579669591	0.182647705078125	0.182647705078125	-6.25000000000001E-07	-1.14154815378242E-07	-292236.34375	0.000103536272945348
2	639	130.968287669337	0.172576904296875	0.172576904296875	-6.3018798828125E-07	-1.08755891403689E-07	-273849.875	0.000103473073977511
2	640	131.068995669083	0.162506103515625	0.16253662109375	-6.37207031250001E-07	-1.03569469445119E-07	-255076.640625	0.000103409256553277
2	641	131.169703668828	0.152435302734375	0.1524658203125	-6.4727783203125E-07	-9.86877424224986E-08	-235549.265625	0.000103344573290087
2	642	131.270411668574	0.142364501953125	0.142364501953125	-6.60400390625E-07	-9.40175652885955E-08	-215573.015625	0.000103278725873679
2	643	131.37111966832	0.132293701171875	0.13232421875	-6.76879882812501E-07	-8.95675995593592E-08	-195491.4375	0.000103211394161917
2	644	131.471827668066	0.122222900390625	0.122314453125	-6.9732666015625E-07	-8.5293123675001E-08	-175404.8125	0.000103142192529049
2	645	131.572535667811	0.112152099609375	0.1121826171875	-7.22656250000001E-07	-8.10694658071043E-08	-155236.484375	0.000103070691693574
2	646	131.673243667557	0.102081298828125	0.102142333984375	-7.537841796875E-07	-7.69932739785872E-08	-135506.078125	0.000102996345958672
2	647	131.773951667303	0.092010498046875	0.092132568359375	-7.9345703125E-07	-7.31032301359846E-08	-116115.390625	0.00010291843500454
2	648	131.874659667048	0.081939697265625	0.08203125	-8.453369140625E-07	-6.93440398435996E-08	-97039.7109375	0.000102835918369237
2	649	131.975367666794	0.071868896484375	0.071868896484375	-9.14611816406249E-07	-6.57321379549103E-08	-78578.578125	0.000102747297205497
2	650	132.07607566654	0.061798095703125	0.061859130859375	-1.00677490234375E-06	-6.22782181380899E-08	-61442.8671875	0.000102650548797101
2	651	132.176783666286	0.051727294921875	0.051849365234375	-1.129150390625E-06	-5.85457300417147E-08	-45918.91796875	0.000102542995591648
2	652	132.277491666031	0.041656494140625	0.04173583984375	-1.28387451171875E-06	-5.35835766868331E-08	-32507.7265625	0.000102421487099491
2	653	132.378199665777	0.031585693359375	0.031640625	-1.47186279296875E-06	-4.65706619934281E-08	-21496.994140625	0.000102282727311831
2	654	132.478907665523	0.021514892578125	0.02158203125	-1.683349609375E-06	-3.63301033701191E-08	-12820.8857421875	0.000102123849501368
2	655	132.579615665269	0.011444091796875	0.011492919921875	-1.9036865234375E-06	-2.18789164563304E-08	-6037.19189453125	0.000101943231129553
2	656	132.680323665014	0.001373291015625	0.00144348144531251	-2.1112060546875E-06	-3.04748648538578E-09	-683.7236328125	0.000101741061371285
2	657	132.78103166476	-0.008697509765625	-0.00859985351562501	-2.2833251953125E-06	1.96362606175171E-08	3766.37255859375	0.000101519777672365
2	658	132.881739664506	-0.018768310546875	-0.0186492919921875	-2.40509033203125E-06	4.48532304631044E-08	7754.091796875	0.000101283701951616
2	659	132.982447664252	-0.028839111328125	-0.0287506103515625	-2.47161865234375E-06	7.10605476683668E-08	11632.2998046875	0.000101038138382137
2	660	133.083155663997	-0.038909912109375	-0.0387664794921875	-2.48779296875E-06	9.64429744954032E-08	15582.6796875	0.000100788412964903
2	661	133.183863663743	-0.048980712890625	-0.0488861083984375	-2.46612548828125E-06	1.20559278116161E-07	19823.04296875	0.000100538964034058
2	662	133.284571663489	-0.059051513671875	-0.0589599609375	-2.4188232421875E-06	1.42613728826291E-07	24375.47265625	0.000100292985734995
2	663	133.385279663235	-0.069122314453125	-0.069061279296875	-2.3583984375E-06	1.62874016496062E-07	29283.126953125	0.000100052435300313
2	664	133.48598766298	-0.079193115234375	-0.079132080078125	-2.29400634765625E-06	1.815294865537E-07	34495.14453125	9.98181640170515E-05
2	665	133.586695662726	-0.089263916015625	-0.08917236328125	-2.230224609375E-06	1.98874388956938E-07	39983.58203125	9.95903537841514E-05
2	666	133.687403662472	-0.099334716796875	-0.099212646484375	-2.17132568359375E-06	2.154229576945E-07	45692.203125	9.93687208392657E-05
2	667	133.788111662217	-0.109405517578125	-0.1092529296875	-2.11822509765625E-06	2.31422291108174E-07	51577.5859375	9.91527194855735E-05
2	668	133.888819661963	-0.119476318359375	-0.119354248046875	-2.07183837890625E-06	2.47282684995298E-07	57607.8984375	9.8941738542635E-05
2	669	133.989527661709	-0.129547119140625	-0.129486083984375	-2.03125E-06	2.63018620216826E-07	63746.99609375	9.87351304502226E-05
2	670	134.090235661455	-0.139617919921875	-0.139495849609375	-1.9976806640625E-06	2.78668153441686E-07	69828.90625	9.85322549240664E-05
2	671	134.1909436612	-0.149688720703125	-0.1495361328125	-1.9683837890625E-06	2.94344488338538E-07	75969	9.83325517154299E-05
2	672	134.291651660946	-0.159759521484375	-0.15960693359375	-1.94580078125E-06	3.10563279981579E-07	82026.3515625	9.81354532996193E-05
2	673	134.392359660692	-0.169830322265625	-0.16973876953125	-1.9281005859375E-06	3.27273426137253E-07	88034.1875	9.7940384875983E-05
2	674	134.493067660438	-0.179901123046875	-0.179718017578125	-1.91558837890625E-06	3.44265743024152E-07	93818.703125	9.77468444034457E-05
2	675	134.593775660183	-0.189971923828125	-0.189788818359375	-1.9073486328125E-06	3.61993443220854E-07	99504	9.75543443928473E-05
2	676	134.694483659929	-0.200042724609375	-0.199951171875	-1.904296875E-06	3.80766380203568E-07	105000	9.73624119069427E-05
2	677	134.795191659675	-0.189971923828125	-0.189788818359375	-1.68365478515625E-06	3.19538855819701E-07	112724.3046875	9.71817426034249E-05
