Potential - Start -0.2 V, Upper Vertex 1.5 V, Lower Vertex -0.2 V, Stop -0.19 V; Scan - # end cross 5, Rate 0.1 Vps, Step 0.01 V 
Scan	Index	Time (s)	Potential applied (V)	WE(1).Potential (V)	WE(1).Current (A)	WE(1).Power (W)	WE(1).Resistance (Ω)	WE(1).Charge (C)
1	1	66.1985838328646	-0.189971923828125	-0.189849853515625	-1.83715820312499E-07	3.48784183756834E-08	1033388.75	0
1	2	66.2992918326104	-0.179901123046875	-0.17974853515625	-1.5289306640625E-07	2.74823044321693E-08	1175648.75	-1.69496026103388E-08
1	3	66.3999998323561	-0.169830322265625	-0.169677734375	-1.2847900390625E-07	2.18000266727358E-08	1320665.125	-3.11178141032542E-08
1	4	66.5007078321019	-0.159759521484375	-0.159576416015625	-1.0650634765625E-07	1.69958997986441E-08	1498280.875	-4.29502655663327E-08
1	5	66.6014158318476	-0.149688720703125	-0.14959716796875	-8.60595703124994E-08	1.28742669858184E-08	1738298	-5.26467296424471E-08
1	6	66.7021238315933	-0.139617919921875	-0.1395263671875	-6.83593750000003E-08	9.53793577451734E-09	2041071.375	-6.04223373557033E-08
1	7	66.8028318313391	-0.129547119140625	-0.12945556640625	-5.035400390625E-08	6.51860609934829E-09	2570909	-6.64000339156701E-08
1	8	66.9035398310848	-0.119476318359375	-0.11944580078125	-3.23486328124997E-08	3.8639078603353E-09	3692453	-7.05644396248317E-08
1	9	67.0042478308305	-0.109405517578125	-0.109283447265625	-1.40380859374997E-08	1.53413037828898E-09	7784783	-7.29001996546685E-08
1	10	67.1049558305763	-0.099334716796875	-0.099365234375	6.40869140624972E-09	-6.36801111841834E-10	-15504762	-7.3284368795612E-08
1	11	67.205663830322	-0.089263916015625	-0.089141845703125	3.17382812500003E-08	-2.8292088671833E-09	-2808653.75	-7.13635159854675E-08
1	12	67.3063718300677	-0.079193115234375	-0.0791015625	6.256103515625E-08	-4.94867569145185E-09	-1264390.25	-6.66151649397762E-08
1	13	67.4070798298135	-0.069122314453125	-0.06903076171875	1.02844238281249E-07	-7.09941572196726E-09	-671216.625	-5.82863499687392E-08
1	14	67.5077878295592	-0.059051513671875	-0.05902099609375	1.5594482421875E-07	-9.20401888038214E-09	-378473.59375	-4.52552875174206E-08
1	15	67.608495829305	-0.048980712890625	-0.048846435546875	2.2613525390625E-07	-1.10459001945173E-08	-216005.40625	-2.60160284426547E-08
1	16	67.7092038290507	-0.038909912109375	-0.038763427734375	3.1890869140625E-07	-1.23619932068664E-08	-121550.234375	1.42911393830047E-09
1	17	67.8099118287964	-0.028839111328125	-0.02872314453125	4.40063476562499E-07	-1.26400072630872E-08	-65270.45703125	3.96463981644501E-08
1	18	67.9106198285422	-0.018768310546875	-0.01866455078125	5.9417724609375E-07	-1.10900506555822E-08	-31412.4296875	9.1724551509742E-08
1	19	68.0113278282879	-0.008697509765625	-0.008624267578125	7.80029296875E-07	-6.72718147853857E-09	-11056.3388671875	1.6092134558221E-07
1	20	68.1120358280336	0.001373291015625	0.001507568359375	9.92431640625E-07	1.49615853040075E-09	1519.06518554688	2.50171837024027E-07
1	21	68.2127438277794	0.011444091796875	0.0115447998046875	1.21612548828125E-06	1.40399247783307E-08	9493.0986328125	3.61381523816817E-07
1	22	68.3134518275251	0.021514892578125	0.0216278076171875	1.431884765625E-06	3.0968529074471E-08	15104.43359375	4.94719415655709E-07
1	23	68.4141598272709	0.031585693359375	0.0317108154296875	1.6180419921875E-06	5.13094313703277E-08	19598.263671875	6.48295440441871E-07
1	24	68.5148678270166	0.041656494140625	0.04173583984375	1.75506591796875E-06	7.32491471922003E-08	23780.2109375	8.18144940240018E-07
1	25	68.6155758267623	0.051727294921875	0.05169677734375	1.83685302734375E-06	9.49593825794182E-08	28144.2109375	9.99012399915955E-07
1	26	68.7162838265081	0.061798095703125	0.061859130859375	1.86614990234375E-06	1.15438410830393E-07	33147.99609375	1.18547336569463E-06
1	27	68.8169918262538	0.071868896484375	0.071929931640625	1.85211181640625E-06	1.33222272324929E-07	38836.71484375	1.37270274080947E-06
1	28	68.9176998259995	0.081939697265625	0.081939697265625	1.81060791015625E-06	1.48360655316537E-07	45255.3515625	1.55713530602952E-06
1	29	69.0184078257453	0.092010498046875	0.092041015625	1.7523193359375E-06	1.61285242938902E-07	52525.25390625	1.73654291302228E-06
1	30	69.119115825491	0.102081298828125	0.10211181640625	1.68609619140625E-06	1.7217034553596E-07	60561.0859375	1.9096810319752E-06
1	31	69.2198238252367	0.112152099609375	0.112152099609375	1.61956787109375E-06	1.81637929586032E-07	69248.1640625	2.07613425118325E-06
1	32	69.3205318249825	0.122222900390625	0.122314453125	1.55609130859375E-06	1.90332457350451E-07	78603.6484375	2.23604138227529E-06
1	33	69.4212398247282	0.132293701171875	0.13238525390625	1.49658203125E-06	1.98125377437464E-07	88458.40625	2.38975576394296E-06
1	34	69.521947824474	0.142364501953125	0.142364501953125	1.444091796875E-06	2.05587397772433E-07	98584.1171875	2.53783036896493E-06
1	35	69.6226558242197	0.152435302734375	0.152435302734375	1.3958740234375E-06	2.12780463471063E-07	109204.203125	2.68083408627717E-06
1	36	69.7233638239654	0.162506103515625	0.162567138671875	1.35406494140625E-06	2.20126466388137E-07	120058.6015625	2.81930442724843E-06
1	37	69.8240718237112	0.172576904296875	0.172576904296875	1.3165283203125E-06	2.27202377800495E-07	131084.84375	2.95377958536847E-06
1	38	69.9247798234569	0.182647705078125	0.182708740234375	1.28326416015625E-06	2.34463584547484E-07	142378.125	3.08468952425756E-06
1	39	70.0254878232026	0.192718505859375	0.192840576171875	1.25335693359375E-06	2.41698074887609E-07	153859.265625	3.21241850542719E-06
1	40	70.1261958229484	0.202789306640625	0.20281982421875	1.22650146484375E-06	2.48758823317985E-07	165364.515625	3.33728939949651E-06
1	41	70.2269038226941	0.212860107421875	0.21282958984375	1.20269775390625E-06	2.55969666795863E-07	176960.171875	3.45960916092736E-06
1	42	70.3276118224398	0.222930908203125	0.22296142578125	1.18194580078125E-06	2.63528306732042E-07	188639.296875	3.57968565367628E-06
1	43	70.4283198221856	0.233001708984375	0.23297119140625	1.16302490234375E-06	2.70951289849108E-07	200314.875	3.69776421393908E-06
1	44	70.5290278219313	0.243072509765625	0.24310302734375	1.146240234375E-06	2.7865445417774E-07	212087.34375	3.81404493055015E-06
1	45	70.6297358216771	0.253143310546875	0.25311279296875	1.13067626953125E-06	2.86188623022099E-07	223859.65625	3.92869696952403E-06
1	46	70.7304438214228	0.263214111328125	0.263214111328125	1.1163330078125E-06	2.93834602871357E-07	235784.578125	4.04184265789809E-06
1	47	70.8311518211685	0.273284912109375	0.273345947265625	1.10260009765625E-06	3.01391253287875E-07	247910.328125	4.15357499150559E-06
1	48	70.9318598209143	0.283355712890625	0.2833251953125	1.09130859375E-06	3.09195229419856E-07	259619.6875	4.26404676545644E-06
1	49	71.03256782066	0.293426513671875	0.29339599609375	1.0797119140625E-06	3.16783143716748E-07	271735.46875	4.3733666643675E-06
1	50	71.1332758204057	0.303497314453125	0.303466796875	1.070556640625E-06	3.24878413948682E-07	283466.34375	4.48164109911886E-06
1	51	71.2339838201515	0.313568115234375	0.3135986328125	1.0614013671875E-06	3.32854000362204E-07	295457.15625	4.58899376098998E-06
1	52	71.3346918198972	0.323638916015625	0.323638916015625	1.05316162109375E-06	3.40844053425826E-07	307302.25	4.69547057946329E-06
1	53	71.435399819643	0.333709716796875	0.333770751953125	1.04522705078125E-06	3.48866194599395E-07	319328.46875	4.80113249068381E-06
1	54	71.5361078193887	0.343780517578125	0.343780517578125	1.03790283203125E-06	3.56810772927929E-07	331226.09375	4.90602678837604E-06
1	55	71.6368158191344	0.353851318359375	0.3538818359375	1.0308837890625E-06	3.64811029385237E-07	343280.0625	5.01019849252771E-06
1	56	71.7375238188802	0.363922119140625	0.36395263671875	1.025390625E-06	3.73193614677803E-07	354940.5	5.11373991685105E-06
1	57	71.8382318186259	0.373992919921875	0.373992919921875	1.0205078125E-06	3.81662658810455E-07	366477.3125	5.21675929121557E-06
1	58	71.9389398183716	0.384063720703125	0.38409423828125	1.016845703125E-06	3.90564565577733E-07	377731.09375	5.3193480198388E-06
1	59	72.0396478181174	0.394134521484375	0.3941650390625	1.01318359375E-06	3.99361539393794E-07	389036.15625	5.42156794836046E-06
1	60	72.1403558178631	0.404205322265625	0.404296875	1.0101318359375E-06	4.08393105999494E-07	400241.71875	5.52344999960042E-06
1	61	72.2410638176088	0.414276123046875	0.414276123046875	1.00738525390625E-06	4.17335627389548E-07	411239.03125	5.6250401030411E-06
1	62	72.3417718173546	0.424346923828125	0.424407958984375	1.00555419921875E-06	4.26765183192401E-07	422063.75	5.72639964957489E-06
1	63	72.4424798171003	0.434417724609375	0.43438720703125	1.00372314453125E-06	4.36004484072328E-07	432775.9375	5.82757502343156E-06
1	64	72.5431878168461	0.444488525390625	0.444488525390625	1.0028076171875E-06	4.4573647528523E-07	443244.0625	5.92861169934622E-06
1	65	72.6438958165918	0.454559326171875	0.454620361328125	1.002197265625E-06	4.5561927208837E-07	453623.65625	6.02957152295858E-06
1	66	72.7446038163375	0.464630126953125	0.464630126953125	1.0028076171875E-06	4.65934618887331E-07	463329.28125	6.13053180131828E-06
1	67	72.8453118160833	0.474700927734375	0.47467041015625	1.00372314453125E-06	4.76437662655371E-07	472909.71875	6.23156847723294E-06
1	68	72.946019815829	0.484771728515625	0.4847412109375	1.004638671875E-06	4.86989733872178E-07	482503.0625	6.33269746685983E-06
1	69	73.0467278155747	0.494842529296875	0.494842529296875	1.00677490234375E-06	4.98194992815115E-07	491512.625	6.43398016109131E-06
1	70	73.1474358153205	0.504913330078125	0.50494384765625	1.00860595703125E-06	5.09289407091273E-07	500635.40625	6.53546294415719E-06
1	71	73.2481438150662	0.514984130859375	0.514984130859375	1.0113525390625E-06	5.2083049695284E-07	509203.375	6.63717582938261E-06
1	72	73.348851814812	0.525054931640625	0.525115966796875	1.01531982421875E-06	5.33160630311613E-07	517192.6875	6.7392270466371E-06
1	73	73.4495598145577	0.535125732421875	0.535064697265625	1.02081298828125E-06	5.46200965345633E-07	524155.46875	6.84175438436796E-06
1	74	73.5502678143034	0.545196533203125	0.545135498046875	1.0272216796875E-06	5.5997497838689E-07	530689.25	6.94488107910729E-06
1	75	73.6509758140492	0.555267333984375	0.55523681640625	1.03515625E-06	5.74756825244549E-07	536379.75	7.04872991263983E-06
1	76	73.7516838137949	0.565338134765625	0.5653076171875	1.0455322265625E-06	5.91047296438774E-07	540688.875	7.15350097379996E-06
1	77	73.8523918135406	0.575408935546875	0.575439453125	1.05926513671875E-06	6.09542894380866E-07	543244.0625	7.25948575563962E-06
1	78	73.9530998132864	0.585479736328125	0.58544921875	1.07818603515625E-06	6.31223144864634E-07	542994.6875	7.36711535864742E-06
1	79	74.0538078130321	0.595550537109375	0.59552001953125	1.1041259765625E-06	6.57529142245039E-07	539358.75	7.47700323699974E-06
1	80	74.1545158127778	0.605621337890625	0.605560302734375	1.14044189453125E-06	6.90606327680143E-07	530987.4375	7.59002614358906E-06
1	81	74.2552238125236	0.615692138671875	0.615631103515625	1.18988037109375E-06	7.3252732590845E-07	517389.09375	7.7073673310224E-06
1	82	74.3559318122693	0.625762939453125	0.62567138671875	1.25762939453125E-06	7.86862699442281E-07	497500.625	7.83060932008084E-06
1	83	74.4566398120151	0.635833740234375	0.635772705078125	1.346435546875E-06	8.56026929341169E-07	472189.5	7.96173389971955E-06
1	84	74.5573478117608	0.645904541015625	0.645843505859375	1.456298828125E-06	9.4054115606923E-07	443482.8125	8.10286292107776E-06
1	85	74.6580558115065	0.655975341796875	0.65594482421875	1.58416748046875E-06	1.03912645954551E-06	414062.8125	8.2559627117007E-06
1	86	74.7587638112523	0.666046142578125	0.665985107421875	1.7230224609375E-06	1.14750719149015E-06	386521.4375	8.42249301058473E-06
1	87	74.859471810998	0.676116943359375	0.676025390625	1.8609619140625E-06	1.25805752304586E-06	363266.65625	8.60296131577343E-06
1	88	74.9601798107437	0.686187744140625	0.686065673828125	1.98486328125E-06	1.36174651288457E-06	345648.84375	8.79661365615902E-06
1	89	75.0608878104895	0.696258544921875	0.6961669921875	2.083740234375E-06	1.45063108902832E-06	334094.90625	9.00148370419629E-06
1	90	75.1615958102352	0.706329345703125	0.70623779296875	2.15179443359375E-06	1.51967856254487E-06	328208.75	9.21476021176204E-06
1	91	75.2623038099809	0.716400146484375	0.716278076171875	2.18841552734375E-06	1.5675140048188E-06	327304.4375	9.43330724112457E-06
1	92	75.3630118097267	0.726470947265625	0.726318359375	2.20062255859375E-06	1.59835246904549E-06	330051.3125	9.65431263466598E-06
1	93	75.4637198094724	0.736541748046875	0.736480712890625	2.19757080078125E-06	1.61846844548563E-06	335134.03125	9.8757791420212E-06
1	94	75.5644278092182	0.746612548828125	0.746551513671875	2.18902587890625E-06	1.63422043897299E-06	341042.8125	1.00966617537779E-05
1	95	75.6651358089639	0.756683349609375	0.7574462890625	2.183837890625E-06	1.65413985087071E-06	346841.84375	1.03168531495612E-05
1	96	75.7658438087096	0.766754150390625	0.7672119140625	2.191162109375E-06	1.68108567777381E-06	350139.28125	1.05371518657194E-05
1	97	75.8665518084554	0.776824951171875	0.77728271484375	2.216796875E-06	1.72307795764937E-06	350633.25	1.07591104097082E-05
1	98	75.9672598082011	0.786895751953125	0.78704833984375	2.26715087890625E-06	1.78435732323123E-06	347153.0625	1.09848951979075E-05
1	99	76.0679678079468	0.796966552734375	0.797119140625	2.34710693359375E-06	1.87092382475385E-06	339617.75	1.12172410808853E-05
1	100	76.1686758076926	0.807037353515625	0.80718994140625	2.459716796875E-06	1.98545876628486E-06	328163.78125	1.14592839963734E-05
1	101	76.2693838074383	0.817108154296875	0.8172607421875	2.60345458984375E-06	2.12770123653172E-06	313913.96875	1.17142353701638E-05
1	102	76.3700918071841	0.827178955078125	0.82733154296875	2.7740478515625E-06	2.29505712923128E-06	298239.84375	1.19850137707544E-05
1	103	76.4707998069298	0.837249755859375	0.83770751953125	2.9559326171875E-06	2.47620687332528E-06	283398.71875	1.22735409604502E-05
1	104	76.5715078066755	0.847320556640625	0.8477783203125	3.13140869140625E-06	2.65474045590963E-06	270733.84375	1.25800634123152E-05
1	105	76.6722158064213	0.857391357421875	0.8575439453125	3.28216552734375E-06	2.81460097539821E-06	261273.84375	1.2903012247989E-05
1	106	76.772923806167	0.867462158203125	0.86761474609375	3.3917236328125E-06	2.94270944323216E-06	255803.5	1.32390696307993E-05
1	107	76.8736318059127	0.877532958984375	0.87799072265625	3.45245361328125E-06	3.03122214972973E-06	254309.21875	1.35837008201634E-05
1	108	76.9743398056585	0.887603759765625	0.88836669921875	3.46588134765625E-06	3.07897357743059E-06	256317.703125	1.39320673042675E-05
1	109	77.0750478054042	0.897674560546875	0.8978271484375	3.44207763671875E-06	3.09039069179562E-06	260838.734375	1.42799099194235E-05
1	110	77.1757558051499	0.907745361328125	0.90789794921875	3.3929443359375E-06	3.08044718622114E-06	267584.09375	1.46240809044684E-05
1	111	77.2764638048957	0.917816162109375	0.91796875	3.33038330078125E-06	3.05718776871799E-06	275634.5625	1.49626275742776E-05
1	112	77.3771718046414	0.927886962890625	0.92803955078125	3.26080322265625E-06	3.02615421787777E-06	284604.59375	1.52945194713539E-05
1	113	77.4778798043872	0.937957763671875	0.93780517578125	3.19244384765625E-06	2.99389034807973E-06	293757.78125	1.56194673763821E-05
1	114	77.5785878041329	0.948028564453125	0.948486328125	3.12530517578125E-06	2.96430903290457E-06	303486	1.59375904331682E-05
1	115	77.6792958038786	0.958099365234375	0.958251953125	3.06396484375E-06	2.93605035039946E-06	312749	1.62492451636354E-05
1	116	77.7800038036244	0.968170166015625	0.96832275390625	3.00750732421875E-06	2.91223773274396E-06	321968.53125	1.65549681696575E-05
1	117	77.8807118033701	0.978240966796875	0.97869873046875	2.95684814453125E-06	2.89386343865772E-06	330993.9375	1.68552978720982E-05
1	118	77.9814198031158	0.988311767578125	0.9881591796875	2.91168212890625E-06	2.87720536107372E-06	339377.4375	1.71508017956512E-05
1	119	78.0821278028616	0.998382568359375	0.99884033203125	2.87139892578125E-06	2.86806903204706E-06	347858.4375	1.74420019902755E-05
1	120	78.1828358026073	1.00845336914063	1.00830078125	2.835693359375E-06	2.85923169940361E-06	355574.6875	1.77293768501841E-05
1	121	78.2835438023531	1.01852416992188	1.0186767578125	2.80242919921875E-06	2.85476949102303E-06	363497.78125	1.80132792593213E-05
1	122	78.3842518020988	1.02859497070313	1.029052734375	2.77252197265625E-06	2.85307123704115E-06	371161.28125	1.82940002559917E-05
1	123	78.4849598018445	1.03866577148438	1.03851318359375	2.7459716796875E-06	2.85172768599296E-06	378195.15625	1.85718781722244E-05
1	124	78.5856678015903	1.04873657226563	1.048583984375	2.7215576171875E-06	2.85378177977691E-06	385288.1875	1.88471913133981E-05
1	125	78.686375801336	1.05880737304688	1.058349609375	2.7008056640625E-06	2.85839655589371E-06	391864.40625	1.91202288988279E-05
1	126	78.7870838010817	1.06887817382813	1.0687255859375	2.68157958984375E-06	2.86587260234228E-06	398543.34375	1.9391252862988E-05
1	127	78.8877918008275	1.07894897460938	1.07940673828125	2.664794921875E-06	2.87639750240487E-06	405061.84375	1.96604651137022E-05
1	128	78.9884998005732	1.08901977539063	1.0894775390625	2.6495361328125E-06	2.8866099910374E-06	411195.59375	1.99280621018261E-05
1	129	79.0892078003189	1.09909057617188	1.09893798828125	2.6361083984375E-06	2.89691956822935E-06	416878.90625	2.01942148123635E-05
1	130	79.1899158000647	1.10916137695313	1.1090087890625	2.623291015625E-06	2.90925277113274E-06	422754.78125	2.04590469365939E-05
1	131	79.2906237998104	1.11923217773438	1.11907958984375	2.61199951171875E-06	2.92303525384341E-06	428437.90625	2.07226657948922E-05
1	132	79.3913317995562	1.12930297851563	1.12945556640625	2.6031494140625E-06	2.94014148494171E-06	433880.4375	2.09852678381139E-05
1	133	79.4920397993019	1.13937377929688	1.138916015625	2.59552001953125E-06	2.95607901534822E-06	438800.75	2.1247042241157E-05
1	134	79.5927477990476	1.14944458007813	1.14959716796875	2.59002685546875E-06	2.97748738375958E-06	443855.34375	2.15081563510466E-05
1	135	79.6934557987934	1.15951538085938	1.15966796875	2.58514404296875E-06	2.99790849567216E-06	448589.34375	2.1768746591988E-05
1	136	79.7941637985391	1.16958618164063	1.16973876953125	2.5811767578125E-06	3.01930231216829E-06	453180.4375	2.20288911805255E-05
1	137	79.8948717982848	1.17965698242188	1.17950439453125	2.57781982421875E-06	3.04054970001744E-06	457558.90625	2.22886665142141E-05
1	138	79.9955797980306	1.18972778320313	1.190185546875	2.57537841796875E-06	3.06517813442042E-06	462140.0625	2.25481508095982E-05
1	139	80.0962877977763	1.19979858398438	1.199951171875	2.57354736328125E-06	3.08813127958274E-06	466263.5	2.28074204642326E-05
1	140	80.196995797522	1.20986938476563	1.209716796875	2.5732421875E-06	3.11289431920159E-06	470113.84375	2.30665809795028E-05
1	141	80.2977037972678	1.21994018554688	1.219482421875	2.5738525390625E-06	3.1387678518513E-06	473796.53125	2.33257578656776E-05
1	142	80.3984117970135	1.23001098632813	1.23016357421875	2.57537841796875E-06	3.1681368000136E-06	477663.21875	2.35850420722272E-05
1	143	80.4991197967593	1.24008178710938	1.24053955078125	2.5787353515625E-06	3.19902324008581E-06	481065.09375	2.38445736613357E-05
1	144	80.599827796505	1.25015258789063	1.25	2.5823974609375E-06	3.22799678542651E-06	484046.34375	2.41044563153991E-05
1	145	80.7005357962507	1.26022338867188	1.2603759765625	2.5860595703125E-06	3.25940732182062E-06	487373.15625	2.43647100433009E-05
1	146	80.8012437959965	1.27029418945313	1.27044677734375	2.59124755859375E-06	3.29204203808331E-06	490283.84375	2.46254076046171E-05
1	147	80.9019517957422	1.28036499023438	1.28021240234375	2.59735107421875E-06	3.3251610602747E-06	492891.53125	2.48866745096166E-05
1	148	81.0026597954879	1.29043579101563	1.290283203125	2.60528564453125E-06	3.36155608238187E-06	495255.96875	2.51486471825046E-05
1	149	81.1033677952337	1.30050659179688	1.3006591796875	2.61566162109375E-06	3.40208407578757E-06	497258.21875	2.54115439020097E-05
1	150	81.2040757949794	1.31057739257813	1.3104248046875	2.62786865234375E-06	3.44362410942267E-06	498664.53125	2.56755756709026E-05
1	151	81.3047837947252	1.32064819335938	1.32049560546875	2.64190673828125E-06	3.48862613464007E-06	499826.75	2.59409298450919E-05
1	152	81.4054917944709	1.33071899414063	1.33087158203125	2.657470703125E-06	3.53675204678439E-06	500803.90625	2.62077755905921E-05
1	153	81.5061997942166	1.34078979492188	1.34063720703125	2.6751708984375E-06	3.58643364961608E-06	501140.78125	2.64762948063435E-05
1	154	81.6069077939624	1.35086059570313	1.35101318359375	2.69378662109375E-06	3.63934123015497E-06	501529.40625	2.67466439254349E-05
1	155	81.7076157937081	1.36093139648438	1.3604736328125	2.71514892578125E-06	3.69388840226748E-06	501067.78125	2.70190048468066E-05
1	156	81.8083237934538	1.37100219726563	1.37054443359375	2.73834228515625E-06	3.75301965505059E-06	500501.53125	2.72936104011023E-05
1	157	81.9090317931996	1.38107299804688	1.3812255859375	2.7630615234375E-06	3.81641120839049E-06	499889.5625	2.75706279353471E-05
1	158	82.0097397929453	1.39114379882813	1.39129638671875	2.7899169921875E-06	3.88160106012947E-06	498687.40625	2.78502429864602E-05
1	159	82.110447792691	1.40121459960938	1.4013671875	2.82012939453125E-06	3.95203687730827E-06	496915.9375	2.81327302218415E-05
1	160	82.2111557924368	1.41128540039063	1.4117431640625	2.85186767578125E-06	4.02610430683126E-06	495024.09375	2.84183388430392E-05
1	161	82.3118637921825	1.42135620117188	1.42181396484375	2.88909912109375E-06	4.10776146964054E-06	492130.5625	2.8707418096019E-05
1	162	82.4125717919283	1.43142700195313	1.43218994140625	2.93212890625E-06	4.19936532125575E-06	488447.125	2.90005409624428E-05
1	163	82.513279791674	1.44149780273438	1.44134521484375	2.98370361328125E-06	4.30054706157534E-06	483072.53125	2.9298425943125E-05
1	164	82.6139877914197	1.45156860351563	1.45111083984375	3.04656982421875E-06	4.42091004515532E-06	476309.75	2.96020753012272E-05
1	165	82.7146957911655	1.46163940429688	1.4617919921875	3.12164306640625E-06	4.56319276054273E-06	468276.46875	2.9912669560872E-05
1	166	82.8154037909112	1.47171020507813	1.47125244140625	3.211669921875E-06	4.72517695015995E-06	458095.8125	3.02315766020911E-05
1	167	82.9161117906569	1.48178100585938	1.4813232421875	3.31787109375E-06	4.91483933728887E-06	446468	3.05603643937502E-05
1	168	83.0168197904027	1.49185180664063	1.4910888671875	3.44451904296875E-06	5.13608392793685E-06	432887.40625	3.0900879210094E-05
1	169	83.1175277901484	1.50192260742188	1.50177001953125	3.59344482421875E-06	5.39652774023125E-06	417919.34375	3.1255269277608E-05
1	170	83.2182357898942	1.49185180664063	1.49200439453125	3.2501220703125E-06	4.84919655718841E-06	459061.03125	3.15998695441522E-05
1	171	83.3189437896399	1.48178100585938	1.48223876953125	2.9937744140625E-06	4.43748831457924E-06	495107.03125	3.19142745865975E-05
1	172	83.4196517893856	1.47171020507813	1.4715576171875	2.7899169921875E-06	4.10552320317947E-06	527455.75	3.22055057040416E-05
1	173	83.5203597891314	1.46163940429688	1.4617919921875	2.6239013671875E-06	3.83559790861909E-06	557106.3125	3.24781140079722E-05
1	174	83.6210677888771	1.45156860351563	1.45111083984375	2.4853515625E-06	3.60652029485209E-06	583865.4375	3.27353845932521E-05
1	175	83.7217757886228	1.44149780273438	1.441650390625	2.36907958984375E-06	3.4153845263063E-06	608527.625	3.29798240272794E-05
1	176	83.8224837883686	1.43142700195313	1.4312744140625	2.27081298828125E-06	3.25015639646153E-06	630291.625	3.32134623022284E-05
1	177	83.9231917881143	1.42135620117188	1.42120361328125	2.1868896484375E-06	3.10801533487393E-06	649874.4375	3.3437925594626E-05
1	178	84.02389978786	1.41128540039063	1.4111328125	2.11517333984375E-06	2.98479017146747E-06	667147.625	3.36545526806731E-05
1	179	84.1246077876058	1.40121459960938	1.4007568359375	2.0538330078125E-06	2.87692068923207E-06	682020.8125	3.38644786097575E-05
1	180	84.2253157873515	1.39114379882813	1.3909912109375	2.00042724609375E-06	2.78257675745408E-06	695347.0625	3.40686274284963E-05
1	181	84.3260237870973	1.38107299804688	1.38031005859375	1.95404052734375E-06	2.69718179879419E-06	706387.625	3.42677485605236E-05
1	182	84.426731786843	1.37100219726563	1.370849609375	1.91253662109375E-06	2.62180014942714E-06	716770.375	3.44624459103215E-05
1	183	84.5274397865887	1.36093139648438	1.361083984375	1.875E-06	2.55203235610679E-06	725911.5	3.46531633113045E-05
1	184	84.6281477863345	1.35086059570313	1.351318359375	1.84173583984375E-06	2.4887713152566E-06	733720	3.48403154930566E-05
1	185	84.7288557860802	1.34078979492188	1.3409423828125	1.8109130859375E-06	2.42833016272925E-06	740478.625	3.50242407876067E-05
1	186	84.8295637858259	1.33071899414063	1.33056640625	1.78314208984375E-06	2.37258882407332E-06	746192.0625	3.52052193193231E-05
1	187	84.9302717855717	1.32064819335938	1.32080078125	1.75811767578125E-06	2.32212300943502E-06	751258.5	3.53835348505527E-05
1	188	85.0309797853174	1.31057739257813	1.3104248046875	1.73553466796875E-06	2.27428768084792E-06	755055.4375	3.55594529537484E-05
1	189	85.1316877850631	1.30050659179688	1.30035400390625	1.7144775390625E-06	2.22942776417767E-06	758454.9375	3.57331737177446E-05
1	190	85.2323957848089	1.29043579101563	1.29058837890625	1.69403076171875E-06	2.18629634218814E-06	761844.75	3.59048062819056E-05
1	191	85.3331037845546	1.28036499023438	1.28021240234375	1.6741943359375E-06	2.1433243091451E-06	764673.75	3.6074412491871E-05
1	192	85.4338117843004	1.27029418945313	1.27044677734375	1.6558837890625E-06	2.10371217690408E-06	767231.875	3.62420942110475E-05
1	193	85.5345197840461	1.26022338867188	1.26068115234375	1.63818359375E-06	2.06522713597224E-06	769560.375	3.64079642167781E-05
1	194	85.6352277837918	1.25015258789063	1.24969482421875	1.62200927734375E-06	2.02701653506665E-06	770461	3.65721280104481E-05
1	195	85.7359357835376	1.24008178710938	1.23992919921875	1.6064453125E-06	1.99187843463733E-06	771846.5	3.6734691093443E-05
1	196	85.8366437832833	1.23001098632813	1.2298583984375	1.59210205078125E-06	1.95806001102028E-06	772474.625	3.68957516911905E-05
1	197	85.937351783029	1.21994018554688	1.220703125	1.578369140625E-06	1.92671996046556E-06	773395.25	3.70553971151821E-05
1	198	86.0380597827748	1.20986938476563	1.209716796875	1.56463623046875E-06	1.89276659057214E-06	773161.75	3.7213660107227E-05
1	199	86.1387677825205	1.19979858398438	1.199951171875	1.551513671875E-06	1.86174054306321E-06	773406.8125	3.73705734091345E-05
1	200	86.2394757822663	1.18972778320313	1.18988037109375	1.5386962890625E-06	1.83086444849323E-06	773304.3125	3.75261770386714E-05
1	201	86.340183782012	1.17965698242188	1.17950439453125	1.5264892578125E-06	1.80050074050087E-06	772690.9375	3.76805219275411E-05
1	202	86.4408917817577	1.16958618164063	1.16943359375	1.51519775390625E-06	1.77192305272911E-06	771802.625	3.78336808353197E-05
1	203	86.5415997815035	1.15951538085938	1.15966796875	1.50543212890625E-06	1.74580145539949E-06	770322.3125	3.79857810912654E-05
1	204	86.6423077812492	1.14944458007813	1.14898681640625	1.4947509765625E-06	1.71744909494009E-06	768681.125	3.81368517992087E-05
1	205	86.7430157809949	1.13937377929688	1.1395263671875	1.4849853515625E-06	1.69217992151971E-06	767365.4375	3.82868965971284E-05
1	206	86.8437237807407	1.12930297851563	1.12884521484375	1.474609375E-06	1.66460574746452E-06	765521.5625	3.84359227609821E-05
1	207	86.9444317804864	1.11923217773438	1.11907958984375	1.46453857421875E-06	1.63893514582014E-06	764117.5625	3.85839193768334E-05
1	208	87.0451397802321	1.10916137695313	1.1090087890625	1.4544677734375E-06	1.61301761636423E-06	762484.25	3.87309046345763E-05
1	209	87.1458477799779	1.09909057617188	1.0986328125	1.4447021484375E-06	1.58719717546774E-06	760456.3125	3.88768894481473E-05
1	210	87.2465557797236	1.08901977539063	1.0888671875	1.43463134765625E-06	1.56212286128721E-06	758987.5	3.90218738175463E-05
1	211	87.3472637794694	1.07894897460938	1.07879638671875	1.42547607421875E-06	1.53779842548829E-06	756797.25	3.91658941225614E-05
1	212	87.4479717792151	1.06887817382813	1.06903076171875	1.41571044921875E-06	1.51343795096182E-06	755119.6875	3.93089576391503E-05
1	213	87.5486797789608	1.05880737304688	1.058349609375	1.4056396484375E-06	1.48765820995322E-06	752930.9375	3.94510243495461E-05
1	214	87.6493877787066	1.04873657226563	1.04827880859375	1.3946533203125E-06	1.46198544825893E-06	751641.1875	3.95920287701301E-05
1	215	87.7500957784523	1.03866577148438	1.038818359375	1.3836669921875E-06	1.43737861435511E-06	750772	3.97319308831356E-05
1	216	87.850803778198	1.02859497070313	1.02813720703125	1.37298583984375E-06	1.41161785904842E-06	748833.0625	3.98707379645202E-05
1	217	87.9515117779438	1.01852416992188	1.01837158203125	1.36199951171875E-06	1.38702159802051E-06	747703.375	4.00084572902415E-05
1	218	88.0522197776895	1.00845336914063	1.00860595703125	1.351318359375E-06	1.36294772801193E-06	746386.625	4.01450815843418E-05
1	219	88.1529277774353	0.998382568359375	0.99853515625	1.3397216796875E-06	1.33775915855949E-06	745330.3125	4.02805853809696E-05
1	220	88.253635777181	0.988311767578125	0.9881591796875	1.32781982421875E-06	1.31209731080162E-06	744196.75	4.0414906834485E-05
1	221	88.3543437769267	0.978240966796875	0.9783935546875	1.31378173828125E-06	1.28539556953911E-06	744715.5	4.05479222536087E-05
1	222	88.4550517766725	0.968170166015625	0.96832275390625	1.2969970703125E-06	1.25591179767071E-06	746588.25	4.06793878937606E-05
1	223	88.5557597764182	0.958099365234375	0.95855712890625	1.27685546875E-06	1.22393885249039E-06	750717.0625	4.08089908887632E-05
1	224	88.6564677761639	0.948028564453125	0.947265625	1.25274658203125E-06	1.18668367576902E-06	756151.0625	4.09363674407359E-05
1	225	88.7571757759097	0.937957763671875	0.93841552734375	1.22161865234375E-06	1.1463858982097E-06	768173.875	4.10609609389212E-05
1	226	88.8578837756554	0.927886962890625	0.927734375	1.18011474609375E-06	1.09483301002911E-06	786139.125	4.11818982684053E-05
1	227	88.9585917754011	0.917816162109375	0.91827392578125	1.1248779296875E-06	1.03294610198645E-06	816332.0625	4.1297960706288E-05
1	228	89.0592997751469	0.907745361328125	0.90789794921875	1.0504150390625E-06	9.53669598402485E-07	864323.125	4.14074966101907E-05
1	229	89.1600077748926	0.897674560546875	0.89752197265625	9.51538085937501E-07	8.54026325214363E-07	943232.8125	4.15083050029352E-05
1	230	89.2607157746384	0.887603759765625	0.88714599609375	8.2275390625E-07	7.29902808416227E-07	1078264.125	4.15976464864798E-05
1	231	89.3614237743841	0.877532958984375	0.87738037109375	6.610107421875E-07	5.79957827540056E-07	1327331.5	4.1672359657241E-05
1	232	89.4621317741298	0.867462158203125	0.86761474609375	4.69360351562501E-07	4.07223950560365E-07	1848504.625	4.17292794736568E-05
1	233	89.5628397738756	0.857391357421875	0.85723876953125	2.54211425781251E-07	2.17919875922234E-07	3372149	4.17657138314098E-05
1	234	89.6635477736213	0.847320556640625	0.8477783203125	3.204345703125E-08	2.71657469852471E-08	26457144	4.17801275034435E-05
1	235	89.764255773367	0.837249755859375	0.83709716796875	-1.8035888671875E-07	-1.50977911062E-07	-4641286	4.17726587329526E-05
1	236	89.8649637731128	0.827178955078125	0.82763671875	-3.631591796875E-07	-3.00563868904646E-07	-2278991.75	4.17452902183868E-05
1	237	89.9656717728585	0.817108154296875	0.81787109375	-5.023193359375E-07	-4.10832456054777E-07	-1628189.625	4.17017108702566E-05
1	238	90.0663797726043	0.807037353515625	0.80718994140625	-5.8929443359375E-07	-4.75672521815795E-07	-1369756.625	4.16467446484603E-05
1	239	90.16708777235	0.796966552734375	0.79742431640625	-6.28051757812501E-07	-5.00823716720333E-07	-1269679.375	4.15854447055608E-05
1	240	90.2677957720957	0.786895751953125	0.78643798828125	-6.28051757812501E-07	-4.93923721478495E-07	-1252186.625	4.15221948060207E-05
1	241	90.3685037718415	0.776824951171875	0.77728271484375	-6.0272216796875E-07	-4.6848549573042E-07	-1289620.375	4.14602218370419E-05
1	242	90.4692117715872	0.766754150390625	0.76690673828125	-5.645751953125E-07	-4.32976520414741E-07	-1358378.375	4.14014430134557E-05
1	243	90.5699197713329	0.756683349609375	0.7568359375	-5.2520751953125E-07	-3.97495909965073E-07	-1441022.75	4.13465677411295E-05
1	244	90.6706277710787	0.746612548828125	0.746490478515625	-4.9407958984375E-07	-3.68825709529119E-07	-1510870.875	4.12952431361191E-05
1	245	90.7713357708244	0.736541748046875	0.7364501953125	-4.77294921875E-07	-3.51503928186503E-07	-1542966.75	4.12463305110577E-05
1	246	90.8720437705701	0.726470947265625	0.726470947265625	-4.79736328125E-07	-3.48514504366904E-07	-1514312.875	4.11981382058002E-05
1	247	90.9727517703159	0.716400146484375	0.716278076171875	-5.07202148437499E-07	-3.63297743888324E-07	-1412214.25	4.11484434152953E-05
1	248	91.0734597700616	0.706329345703125	0.706298828125	-5.5999755859375E-07	-3.9552560338052E-07	-1261253.375	4.10947068303358E-05
1	249	91.1741677698074	0.696258544921875	0.696197509765625	-6.3751220703125E-07	-4.43834409225019E-07	-1092053.625	4.10344073316082E-05
1	250	91.2748757695531	0.686187744140625	0.686065673828125	-7.33032226562499E-07	-5.02908221733378E-07	-935928.4375	4.09653948736377E-05
1	251	91.3755837692988	0.676116943359375	0.676116943359375	-8.36791992187499E-07	-5.65769255445048E-07	-807986.875	4.08863452321384E-05
1	252	91.4762917690446	0.666046142578125	0.665924072265625	-9.32922363281249E-07	-6.21255423993716E-07	-713804.4375	4.07972329412587E-05
1	253	91.5769997687903	0.655975341796875	0.6558837890625	-1.00860595703125E-06	-6.61528304135572E-07	-650287.4375	4.06994695367757E-05
1	254	91.677707768536	0.645904541015625	0.64581298828125	-1.05377197265625E-06	-6.8053958557357E-07	-612858.375	4.05956234317273E-05
1	255	91.7784157682818	0.635833740234375	0.635711669921875	-1.0650634765625E-06	-6.77073273891438E-07	-596876.8125	4.04889287892729E-05
1	256	91.8791237680275	0.625762939453125	0.625732421875	-1.04766845703125E-06	-6.55560086215701E-07	-597261.875	4.03825470129959E-05
1	257	91.9798317677732	0.615692138671875	0.615692138671875	-1.00799560546875E-06	-6.20614969193412E-07	-610808.375	4.02790356019977E-05
1	258	92.080539767519	0.605621337890625	0.6055908203125	-9.54589843750001E-07	-5.78090862290992E-07	-634399	4.01802099077031E-05
1	259	92.1812477672647	0.595550537109375	0.595489501953125	-8.9569091796875E-07	-5.33374532096786E-07	-664838.1875	4.00870412704535E-05
1	260	92.2819557670105	0.585479736328125	0.585479736328125	-8.349609375E-07	-4.88852720081923E-07	-701206.125	3.99998971261084E-05
1	261	92.3826637667562	0.575408935546875	0.575408935546875	-7.75146484375E-07	-4.46026206191164E-07	-742322.8125	3.99188211304136E-05
1	262	92.4833717665019	0.565338134765625	0.565338134765625	-7.19299316406249E-07	-4.06647330919441E-07	-785956.75	3.98435695387889E-05
1	263	92.5840797662477	0.555267333984375	0.55523681640625	-6.671142578125E-07	-3.70406382899091E-07	-832296.4375	3.97737567254808E-05
1	264	92.6847877659934	0.545196533203125	0.54522705078125	-6.18591308593749E-07	-3.37272695105639E-07	-881401.125	3.97090188926086E-05
1	265	92.7854957657391	0.535125732421875	0.535125732421875	-5.7403564453125E-07	-3.07181238667908E-07	-932216.875	3.96489631384611E-05
1	266	92.8862037654849	0.525054931640625	0.5250244140625	-5.3436279296875E-07	-2.80553479115042E-07	-982524.3125	3.95931529055815E-05
1	267	92.9869117652306	0.514984130859375	0.515045166015625	-4.99267578125E-07	-2.57145359228161E-07	-1031601.5	3.95411043427885E-05
1	268	93.0876197649764	0.504913330078125	0.504852294921875	-4.66003417968749E-07	-2.35262888281795E-07	-1083366.125	3.94925009459257E-05
1	269	93.1883277647221	0.494842529296875	0.494873046875	-4.35791015625001E-07	-2.1566123109551E-07	-1135574.25	3.94470916944556E-05
1	270	93.2890357644678	0.484771728515625	0.484771728515625	-4.0740966796875E-07	-1.97500682475038E-07	-1189887.625	3.9404632843798E-05
1	271	93.3897437642136	0.474700927734375	0.474700927734375	-3.8116455078125E-07	-1.8093916764883E-07	-1245396.375	3.93649243051186E-05
1	272	93.4904517639593	0.464630126953125	0.464630126953125	-3.5736083984375E-07	-1.66040607041396E-07	-1300170.875	3.93277368857525E-05
1	273	93.591159763705	0.454559326171875	0.45458984375	-3.3447265625E-07	-1.52047860524362E-07	-1359124.125	3.92928996006958E-05
1	274	93.6918677634508	0.444488525390625	0.4444580078125	-3.143310546875E-07	-1.39706955337715E-07	-1413980.5	3.92602305510081E-05
1	275	93.7925757631965	0.434417724609375	0.434417724609375	-2.95104980468749E-07	-1.28198834659088E-07	-1472078.625	3.92295405617915E-05
1	276	93.8932837629422	0.424346923828125	0.42437744140625	-2.7801513671875E-07	-1.17983354641638E-07	-1526454.5	3.92006841138937E-05
1	277	93.993991762688	0.414276123046875	0.414276123046875	-2.6214599609375E-07	-1.08600822557037E-07	-1580326	3.9173482946353E-05
1	278	94.0946997624337	0.404205322265625	0.404205322265625	-2.471923828125E-07	-9.99164768700211E-08	-1635185.125	3.9147835195763E-05
1	279	94.1954077621795	0.394134521484375	0.394195556640625	-2.32543945312499E-07	-9.16677862505821E-08	-1695144.375	3.91236790164839E-05
1	280	94.2961157619252	0.384063720703125	0.384033203125	-2.18811035156249E-07	-8.40306952909486E-08	-1755090.75	3.9100952562876E-05
1	281	94.3968237616709	0.373992919921875	0.374053955078125	-2.06298828125E-07	-7.71668879906429E-08	-1813165.75	3.90795466955751E-05
1	282	94.4975317614167	0.363922119140625	0.36395263671875	-1.9500732421875E-07	-7.09734280235352E-08	-1866353.75	3.90593377233017E-05
1	283	94.5982397611624	0.353851318359375	0.353912353515625	-1.8463134765625E-07	-6.53433147590476E-08	-1916859.5	3.90402237826493E-05
1	284	94.6989477609081	0.343780517578125	0.34381103515625	-1.7425537109375E-07	-5.99109171162127E-08	-1973029.875	3.90221503039356E-05
1	285	94.7996557606539	0.333709716796875	0.333770751953125	-1.63879394531249E-07	-5.46981482330011E-08	-2036685.375	3.90051245631184E-05
1	286	94.9003637603996	0.323638916015625	0.323699951171875	-1.5411376953125E-07	-4.98866192799596E-08	-2100396	3.89891138183884E-05
1	287	95.0010717601454	0.313568115234375	0.31365966796875	-1.44348144531251E-07	-4.5276188131993E-08	-2172938.75	3.89740853279363E-05
1	288	95.1017797598911	0.303497314453125	0.303436279296875	-1.35192871093751E-07	-4.10224210156684E-08	-2244469.75	3.89600063499529E-05
1	289	95.2024877596368	0.293426513671875	0.29345703125	-1.2664794921875E-07	-3.71657300490824E-08	-2317108.5	3.8946822314756E-05
1	290	95.3031957593826	0.283355712890625	0.28326416015625	-1.1871337890625E-07	-3.36272449885655E-08	-2386118.25	3.89344677387271E-05
1	291	95.4039037591283	0.273284912109375	0.27325439453125	-1.116943359375E-07	-3.05209688633568E-08	-2446448.25	3.89228662243113E-05
1	292	95.504611758874	0.263214111328125	0.26324462890625	-1.04370117187499E-07	-2.74748721551532E-08	-2522222.25	3.89119850296993E-05
1	293	95.6053197586198	0.253143310546875	0.253143310546875	-9.73510742187503E-08	-2.46437714679359E-08	-2600313.5	3.89018277928699E-05
1	294	95.7060277583655	0.243072509765625	0.24310302734375	-9.03320312499997E-08	-2.19599893824807E-08	-2691216.25	3.88923799619079E-05
1	295	95.8067357581112	0.233001708984375	0.23297119140625	-8.36181640625003E-08	-1.94806233366762E-08	-2786131.5	3.88836197089404E-05
1	296	95.907443757857	0.222930908203125	0.222900390625	-7.781982421875E-08	-1.73460676933246E-08	-2864314	3.88754888263065E-05
1	297	96.0081517576027	0.212860107421875	0.212860107421875	-7.35473632812497E-08	-1.56552992791603E-08	-2894191	3.88678672607057E-05
1	298	96.1088597573485	0.202789306640625	0.202850341796875	-7.01904296875E-08	-1.42381528789315E-08	-2890000	3.88606313208584E-05
1	299	96.2095677570942	0.192718505859375	0.1927490234375	-6.77490234374994E-08	-1.30585577906572E-08	-2845045.25	3.88536864193156E-05
1	300	96.3102757568399	0.182647705078125	0.18267822265625	-6.68334960937503E-08	-1.22090240139983E-08	-2733333.5	3.8846908864798E-05
1	301	96.4109837565857	0.172576904296875	0.172637939453125	-6.65283203125006E-08	-1.14853113686308E-08	-2594954.25	3.88401931559201E-05
1	302	96.5116917563314	0.162506103515625	0.162567138671875	-6.83593750000003E-08	-1.1112987863271E-08	-2378125	3.88334010494873E-05
1	303	96.6123997560771	0.152435302734375	0.152496337890625	-7.23266601562494E-08	-1.10295506061675E-08	-2108439	3.88263179047499E-05
1	304	96.7131077558229	0.142364501953125	0.14239501953125	-7.96508789062497E-08	-1.13418874292393E-08	-1787739.625	3.88186635973398E-05
1	305	96.8138157555686	0.132293701171875	0.13238525390625	-9.1552734375E-08	-1.21202319292024E-08	-1446000	3.8810041587567E-05
1	306	96.9145237553143	0.122222900390625	0.12225341796875	-1.08642578125E-07	-1.32819257814276E-08	-1125281	3.87999643862713E-05
1	307	97.0152317550601	0.112152099609375	0.112152099609375	-1.3427734375E-07	-1.50594861025866E-08	-835227.25	3.87877298635431E-05
1	308	97.1159397548058	0.102081298828125	0.1021728515625	-1.69982910156249E-07	-1.73676379944254E-08	-601077.1875	3.87724103347864E-05
1	309	97.2166477545516	0.092010498046875	0.092071533203125	-2.197265625E-07	-2.02305603380637E-08	-419027.78125	3.87527870771009E-05
1	310	97.3173557542973	0.081939697265625	0.08203125	-2.8961181640625E-07	-2.37572201911007E-08	-283245.53125	3.8727139326511E-05
1	311	97.418063754043	0.071868896484375	0.0718994140625	-3.83911132812501E-07	-2.76029847867676E-08	-187281.40625	3.86932260880712E-05
1	312	97.5187717537888	0.061798095703125	0.061859130859375	-5.08728027343749E-07	-3.14694723613229E-08	-121595.6796875	3.86482752219308E-05
1	313	97.6194797535345	0.051727294921875	0.051788330078125	-6.67724609375001E-07	-3.45803421453184E-08	-77559.421875	3.85890380130149E-05
1	314	97.7201877532802	0.041656494140625	0.0417205810546875	-8.587646484375E-07	-3.58281582180098E-08	-48582.08984375	3.85121711587999E-05
1	315	97.820895753026	0.031585693359375	0.031683349609375	-1.07513427734375E-06	-3.4063852183408E-08	-29469.201171875	3.84147933800705E-05
1	316	97.9216037527717	0.021514892578125	0.0216278076171875	-1.298828125E-06	-2.80908061256468E-08	-16651.78515625	3.82952530344483E-05
1	317	98.0223117525175	0.011444091796875	0.01153564453125	-1.5093994140625E-06	-1.74118941487222E-08	-7642.5400390625	3.81538484361954E-05
1	318	98.1230197522632	0.001373291015625	0.0014495849609375	-1.68670654296875E-06	-2.44502440516214E-09	-859.417419433594	3.79929115297273E-05
1	319	98.2237277520089	-0.008697509765625	-0.00859985351562501	-1.812744140625E-06	1.55893324915723E-08	4744.107421875	3.7816702388227E-05
1	320	98.3244357517547	-0.018768310546875	-0.0186370849609375	-1.8804931640625E-06	3.50469093746142E-08	9910.744140625	3.76307325495873E-05
1	321	98.4251437515004	-0.028839111328125	-0.0287139892578125	-1.89727783203125E-06	5.4478416444681E-08	15134.3095703125	3.74405062757432E-05
1	322	98.5258517512461	-0.038909912109375	-0.038787841796875	-1.87225341796875E-06	7.26206650369932E-08	20717.197265625	3.72506947314832E-05
1	323	98.6265597509919	-0.048980712890625	-0.04881591796875	-1.820068359375E-06	8.88483029370946E-08	26820.92578125	3.7064772186568E-05
1	324	98.7272677507376	-0.059051513671875	-0.059051513671875	-1.754150390625E-06	1.03585236388426E-07	33663.8828125	3.68847940990236E-05
1	325	98.8279757504833	-0.069122314453125	-0.069091796875	-1.68212890625E-06	1.16221308132936E-07	41074.01953125	3.67117645510007E-05
1	326	98.9286837502291	-0.079193115234375	-0.079132080078125	-1.61285400390625E-06	1.27628482005093E-07	49063.390625	3.65458508895244E-05
1	327	99.0293917499748	-0.089263916015625	-0.08917236328125	-1.5478515625E-06	1.38025583851231E-07	57610.41015625	3.63866965926718E-05
1	328	99.1300997497206	-0.099334716796875	-0.099212646484375	-1.48956298828125E-06	1.47783481452279E-07	66605.203125	3.6233748687664E-05
1	329	99.2308077494663	-0.109405517578125	-0.109283447265625	-1.4385986328125E-06	1.57215012563938E-07	75965.2109375	3.60863050445914E-05
1	330	99.331515749212	-0.119476318359375	-0.119384765625	-1.3934326171875E-06	1.66354624298037E-07	85676.7421875	3.59436999133322E-05
1	331	99.4322237489578	-0.129547119140625	-0.129425048828125	-1.35467529296875E-06	1.75328921159235E-07	95539.53125	3.58053221134469E-05
1	332	99.5329317487035	-0.139617919921875	-0.1395263671875	-1.31988525390625E-06	1.84158793103961E-07	105710.984375	3.56706477759872E-05
1	333	99.6336397484492	-0.149688720703125	-0.149566650390625	-1.29058837890625E-06	1.9302896703266E-07	115890.2890625	3.55392003257293E-05
1	334	99.734347748195	-0.159759521484375	-0.159637451171875	-1.265869140625E-06	2.02080116196157E-07	126108.9765625	3.54104704456404E-05
1	335	99.8350557479407	-0.169830322265625	-0.16973876953125	-1.24420166015625E-06	2.11189245646892E-07	136423.84375	3.52840797859244E-05
1	336	99.9357637476865	-0.179901123046875	-0.17974853515625	-1.2261962890625E-06	2.20406974449361E-07	146590.359375	3.51596863765735E-05
1	337	100.036471747432	-0.189971923828125	-0.189788818359375	-1.21185302734375E-06	2.2999616078323E-07	156610.421875	3.50369191437494E-05
1	338	100.137179747178	-0.200042724609375	-0.199920654296875	-1.19964599609375E-06	2.39834008652906E-07	166649.703125	3.49154906871263E-05
1	339	100.237887746924	-0.189971923828125	-0.1898193359375	-1.05133056640625E-06	1.99562862235325E-07	180551.53125	3.48021458194125E-05
2	340	100.338595746669	-0.179901123046875	-0.1796875	-9.48181152343749E-07	1.7037629618244E-07	189507.5625	3.47014611179475E-05
2	341	100.439303746415	-0.169830322265625	-0.169677734375	-8.648681640625E-07	1.46748860174739E-07	196189.140625	3.46101696777623E-05
2	342	100.540011746161	-0.159759521484375	-0.159576416015625	-7.94677734375E-07	1.26811826817175E-07	200806.453125	3.45266016665846E-05
2	343	100.640719745907	-0.149688720703125	-0.149566650390625	-7.33032226562499E-07	1.09637170453425E-07	204038.3125	3.44496766047087E-05
2	344	100.741427745652	-0.139617919921875	-0.13958740234375	-6.78100585937499E-07	9.46542968449648E-08	205850.59375	3.43786196026485E-05
2	345	100.842135745398	-0.129547119140625	-0.12939453125	-6.2744140625E-07	8.1187486955514E-08	206225.6875	3.43128813256044E-05
2	346	100.942843745144	-0.119476318359375	-0.119354248046875	-5.79833984375E-07	6.92056474349556E-08	205842.109375	3.42520906997379E-05
2	347	101.04355174489	-0.109405517578125	-0.109283447265625	-5.322265625E-07	5.81635504204314E-08	205332.578125	3.41960949299391E-05
2	348	101.144259744635	-0.099334716796875	-0.099273681640625	-4.852294921875E-07	4.81705164645518E-08	204591.203125	3.41448612743989E-05
2	349	101.244967744381	-0.089263916015625	-0.08917236328125	-4.35791015625001E-07	3.88605130297037E-08	204621.859375	3.40984843205661E-05
2	350	101.345675744127	-0.079193115234375	-0.07916259765625	-3.8177490234375E-07	3.022229222438E-08	207354.125	3.4057316952385E-05
2	351	101.446383743873	-0.069122314453125	-0.069091796875	-3.19519042968749E-07	2.20761453562091E-08	216236.859375	3.40220030921046E-05
2	352	101.547091743618	-0.059051513671875	-0.058990478515625	-2.4566650390625E-07	1.44919836131407E-08	240124.25	3.39935431838967E-05
2	353	101.647799743364	-0.048980712890625	-0.048834228515625	-1.54724121093749E-07	7.55583240419355E-09	315621.28125	3.39733815053478E-05
2	354	101.74850774311	-0.038909912109375	-0.0387359619140625	-3.90625000000006E-08	1.51312351537314E-09	991640.6875	3.39636244461872E-05
2	355	101.849215742855	-0.028839111328125	-0.028729248046875	1.06201171875001E-07	-3.05107983322728E-09	-270517.25	3.3967004128499E-05
2	356	101.949923742601	-0.018768310546875	-0.0186767578125	2.8228759765625E-07	-5.27221732937733E-09	-66162.1640625	3.39865655405447E-05
2	357	102.050631742347	-0.008697509765625	-0.0085906982421875	4.90417480468749E-07	-4.21302814856972E-09	-17517.11328125	3.40254773618653E-05
2	358	102.151339742093	0.001373291015625	0.00144348144531251	7.2052001953125E-07	1.04005726253575E-09	2003.38842773438	3.40864498866722E-05
2	359	102.252047741838	0.011444091796875	0.0115325927734375	9.58251953125E-07	1.10511289008741E-08	12035.0322265625	3.41709856002126E-05
2	360	102.352755741584	0.021514892578125	0.0216461181640625	1.18255615234375E-06	2.55977496976811E-08	18304.515625	3.42787825502455E-05
2	361	102.45346374133	0.031585693359375	0.031646728515625	1.37298583984375E-06	4.34505089685899E-08	23049.56640625	3.440746513661E-05
2	362	102.554171741076	0.041656494140625	0.0417083740234375	1.51336669921875E-06	6.31200620659911E-08	27559.9921875	3.45528023899533E-05
2	363	102.654879740821	0.051727294921875	0.05181884765625	1.5966796875E-06	8.27381043677633E-08	32454.12890625	3.47094064636622E-05
2	364	102.755587740567	0.061798095703125	0.0618896484375	1.62811279296875E-06	1.00763323018782E-07	38013.12109375	3.48717876477167E-05
2	365	102.856295740313	0.071868896484375	0.0718994140625	1.617431640625E-06	1.16292383722794E-07	44452.83203125	3.50352129316889E-05
2	366	102.957003740059	0.081939697265625	0.082000732421875	1.5789794921875E-06	1.29477470522943E-07	51932.7421875	3.5196168028051E-05
2	367	103.057711739804	0.092010498046875	0.092071533203125	1.524658203125E-06	1.4037760820429E-07	60388.3125	3.53524483216461E-05
2	368	103.15841973955	0.102081298828125	0.102081298828125	1.4642333984375E-06	1.49470849919453E-07	69716.546875	3.55029515048955E-05
2	369	103.259127739296	0.112152099609375	0.1121826171875	1.4031982421875E-06	1.57414447699011E-07	79947.8046875	3.56473356077913E-05
2	370	103.359835739042	0.122222900390625	0.122344970703125	1.34613037109375E-06	1.64692281146017E-07	90886.421875	3.57857752533164E-05
2	371	103.460543738787	0.132293701171875	0.132293701171875	1.29364013671875E-06	1.71140442262185E-07	102264.6875	3.59186997229699E-05
2	372	103.561251738533	0.142364501953125	0.142364501953125	1.24664306640625E-06	1.77477716079011E-07	114198.2890625	3.60466110578272E-05
2	373	103.661959738279	0.152435302734375	0.152374267578125	1.20391845703125E-06	1.83446175583413E-07	126565.28125	3.6170007660985E-05
2	374	103.762667738024	0.162506103515625	0.162567138671875	1.16668701171875E-06	1.89664959293623E-07	139340.84375	3.62893770216033E-05
2	375	103.86337573777	0.172576904296875	0.172607421875	1.1328125E-06	1.9553183960852E-07	152370.6875	3.64051666110754E-05
2	376	103.964083737516	0.182647705078125	0.182647705078125	1.1029052734375E-06	2.01443114633548E-07	165605.984375	3.65177438652609E-05
2	377	104.064791737262	0.192718505859375	0.1927490234375	1.0760498046875E-06	2.07407538255211E-07	179126.5	3.66274616681039E-05
2	378	104.165499737007	0.202789306640625	0.20281982421875	1.053466796875E-06	2.13663952308707E-07	192526.078125	3.6734691093443E-05
2	379	104.266207736753	0.212860107421875	0.212890625	1.0333251953125E-06	2.19985238913978E-07	206024.8125	3.6839770473307E-05
2	380	104.366915736499	0.222930908203125	0.222930908203125	1.01593017578125E-06	2.26482228526947E-07	219435.28125	3.69429581041913E-05
2	381	104.467623736245	0.233001708984375	0.23309326171875	9.9945068359375E-07	2.32965220448023E-07	233221.375	3.7044443160994E-05
2	382	104.56833173599	0.243072509765625	0.24310302734375	9.8541259765625E-07	2.39556783299122E-07	246701.765625	3.71443857147824E-05
2	383	104.669039735736	0.253143310546875	0.253204345703125	9.722900390625E-07	2.46188051278295E-07	260420.609375	3.72429640265182E-05
2	384	104.769747735482	0.263214111328125	0.26324462890625	9.6038818359375E-07	2.52817045520715E-07	274102.3125	3.73402835975867E-05
2	385	104.870455735228	0.273284912109375	0.273284912109375	9.503173828125E-07	2.59707405803056E-07	287572.25	3.7436493585119E-05
2	386	104.971163734973	0.283355712890625	0.283355712890625	9.4207763671875E-07	2.66943089854976E-07	300777.46875	3.7531786801992E-05
2	387	105.071871734719	0.293426513671875	0.293426513671875	9.34753417968751E-07	2.74281433121359E-07	313907.9375	3.76262905774638E-05
2	388	105.172579734465	0.303497314453125	0.303497314453125	9.28344726562499E-07	2.8175011834719E-07	326923.09375	3.77201067749411E-05
2	389	105.27328773421	0.313568115234375	0.31353759765625	9.22241210937499E-07	2.89157298993814E-07	339973.53125	3.78132899641059E-05
2	390	105.373995733956	0.323638916015625	0.323638916015625	9.16442871093751E-07	2.96596567750385E-07	353146.875	3.79058765247464E-05
2	391	105.474703733702	0.333709716796875	0.333740234375	9.11560058593749E-07	3.04224272440479E-07	366119.84375	3.79979210265446E-05
2	392	105.575411733448	0.343780517578125	0.343841552734375	9.06982421874999E-07	3.11858229906647E-07	379105	3.8089492591098E-05
2	393	105.676119733193	0.353851318359375	0.353851318359375	9.033203125E-07	3.19641088708522E-07	391722.96875	3.81806494260672E-05
2	394	105.776827732939	0.363922119140625	0.363983154296875	9.002685546875E-07	3.27682585066214E-07	404305.09375	3.82714679290075E-05
2	395	105.877535732685	0.373992919921875	0.3740234375	8.98132324218751E-07	3.35922550220857E-07	416445.8125	3.83620244974736E-05
2	396	105.978243732431	0.384063720703125	0.384063720703125	8.9569091796875E-07	3.4400238746457E-07	428790.46875	3.84523482352961E-05
2	397	106.078951732176	0.394134521484375	0.3941650390625	8.9385986328125E-07	3.52328299868532E-07	440969.625	3.85424609703477E-05
2	398	106.179659731922	0.404205322265625	0.404205322265625	8.92028808593751E-07	3.60562779633256E-07	453130.375	3.86323881684802E-05
2	399	106.280367731668	0.414276123046875	0.414215087890625	8.89892578125E-07	3.68606919209924E-07	465466.40625	3.87221152777784E-05
2	400	106.381075731414	0.424346923828125	0.42437744140625	8.88977050781251E-07	3.77261784478833E-07	477377.28125	3.88116859539878E-05
2	401	106.481783731159	0.434417724609375	0.4344482421875	8.88977050781251E-07	3.86214509262572E-07	488705.8125	3.89012129744515E-05
2	402	106.582491730905	0.444488525390625	0.44451904296875	8.892822265625E-07	3.95302862443714E-07	499862.75	3.89907581848092E-05
2	403	106.683199730651	0.454559326171875	0.454620361328125	8.892822265625E-07	4.04285799504578E-07	511221.6875	3.90803143091034E-05
2	404	106.783907730397	0.464630126953125	0.46466064453125	8.89892578125E-07	4.13498042917126E-07	522153.65625	3.91699031752069E-05
2	405	106.884615730142	0.474700927734375	0.47467041015625	8.9080810546875E-07	4.228402588069E-07	532853.6875	3.92595684388652E-05
2	406	106.985323729888	0.484771728515625	0.4847412109375	8.9141845703125E-07	4.32107242431812E-07	543786.375	3.93493101000786E-05
2	407	107.086031729634	0.494842529296875	0.494842529296875	8.941650390625E-07	4.42470877715095E-07	553413	3.94392227462959E-05
2	408	107.186739729379	0.504913330078125	0.504913330078125	8.97216796875E-07	4.53016696155828E-07	562755.125	3.95294264308177E-05
2	409	107.287447729125	0.514984130859375	0.51495361328125	9.0087890625E-07	4.6391085106734E-07	571612.5	3.96199684473686E-05
2	410	107.388155728871	0.525054931640625	0.5250244140625	9.0667724609375E-07	4.76027679496838E-07	579064.3125	3.97109834011644E-05
2	411	107.488863728617	0.535125732421875	0.5350341796875	9.130859375E-07	4.88532180042967E-07	585962.5625	3.98026168113574E-05
2	412	107.589571728362	0.545196533203125	0.54510498046875	9.21630859375E-07	5.02385546496953E-07	591457	3.98950032831635E-05
2	413	107.690279728108	0.555267333984375	0.555206298828125	9.307861328125E-07	5.16778300152509E-07	596491.8125	3.99882774217986E-05
2	414	107.790987727854	0.565338134765625	0.565338134765625	9.442138671875E-07	5.33800118773797E-07	598739.5	4.0082693885779E-05
2	415	107.8916957276	0.575408935546875	0.57537841796875	9.60693359375001E-07	5.5276223065448E-07	598919.9375	4.01786128350068E-05
2	416	107.992403727345	0.585479736328125	0.58551025390625	9.832763671875E-07	5.75718388517998E-07	595468.6875	4.02764999307692E-05
2	417	108.093111727091	0.595550537109375	0.595458984375	1.01409912109375E-06	6.03854402925208E-07	587180.25	4.03770754928701E-05
2	418	108.193819726837	0.605621337890625	0.605560302734375	1.055908203125E-06	6.3941610051188E-07	573497.125	4.0481307223672E-05
2	419	108.294527726583	0.615692138671875	0.615631103515625	1.11328125E-06	6.85370537212293E-07	552987.9375	4.05905338993762E-05
2	420	108.395235726328	0.625762939453125	0.625701904296875	1.1883544921875E-06	7.43555631288473E-07	526528	4.07064326282125E-05
2	421	108.495943726074	0.635833740234375	0.63580322265625	1.28509521484375E-06	8.17067700609186E-07	494751.84375	4.08309788326733E-05
2	422	108.59665172582	0.645904541015625	0.645843505859375	1.40228271484375E-06	9.05655156202556E-07	460565.84375	4.09663007303607E-05
2	423	108.697359725566	0.655975341796875	0.65594482421875	1.53594970703125E-06	1.00749821285717E-06	427061.40625	4.11142536904663E-05
2	424	108.798067725311	0.666046142578125	0.665985107421875	1.678466796875E-06	1.11783390366327E-06	396781.8125	4.12761110055726E-05
2	425	108.898775725057	0.676116943359375	0.676025390625	1.81610107421875E-06	1.22773042221525E-06	372239.96875	4.14520764024928E-05
2	426	108.999483724803	0.686187744140625	0.68609619140625	1.93817138671875E-06	1.32977197608852E-06	353991.5	4.16411203332245E-05
2	427	109.100191724548	0.696258544921875	0.69622802734375	2.032470703125E-06	1.4150629112919E-06	342552.59375	4.18410563725047E-05
2	428	109.200899724294	0.706329345703125	0.706298828125	2.0953369140625E-06	1.4799339851379E-06	337081.28125	4.20489086536691E-05
2	429	109.30160772404	0.716400146484375	0.71630859375	2.12799072265625E-06	1.52429799982201E-06	336612.65625	4.22615703428164E-05
2	430	109.402315723786	0.726470947265625	0.72637939453125	2.139892578125E-06	1.55437385274126E-06	339446.65625	4.24764730269089E-05
2	431	109.503023723531	0.736541748046875	0.736480712890625	2.138671875E-06	1.57509055043192E-06	344363.59375	4.26919177698437E-05
2	432	109.603731723277	0.746612548828125	0.74652099609375	2.13470458984375E-06	1.59360183715762E-06	349706.9375	4.29071005783044E-05
2	433	109.704439723023	0.756683349609375	0.7568359375	2.13623046875E-06	1.61677598953247E-06	354285.71875	4.31221560575068E-05
2	434	109.805147722769	0.766754150390625	0.7672119140625	2.14935302734375E-06	1.64900916388433E-06	356950.1875	4.33379536843859E-05
2	435	109.905855722514	0.776824951171875	0.77667236328125	2.18017578125E-06	1.69328222909826E-06	356243.03125	4.35559632023796E-05
2	436	110.00656372226	0.786895751953125	0.7867431640625	2.23388671875E-06	1.75749494246702E-06	352185.8125	4.37782291555777E-05
2	437	110.107271722006	0.796966552734375	0.79742431640625	2.3162841796875E-06	1.84706118488975E-06	344268.78125	4.40073490608484E-05
2	438	110.207979721752	0.807037353515625	0.80718994140625	2.42950439453125E-06	1.96107134797785E-06	332244.6875	4.42463169747498E-05
2	439	110.308687721497	0.817108154296875	0.81695556640625	2.5726318359375E-06	2.10172584047541E-06	317556.375	4.44981960754376E-05
2	440	110.409395721243	0.827178955078125	0.82733154296875	2.73773193359375E-06	2.26501197175821E-06	302195.96875	4.47655947937164E-05
2	441	110.510103720989	0.837249755859375	0.83740234375	2.91168212890625E-06	2.43824933932046E-06	287600.875	4.50500629085582E-05
2	442	110.610811720735	0.847320556640625	0.84747314453125	3.076171875E-06	2.60697311205149E-06	275496.03125	4.53515749541111E-05
2	443	110.71151972048	0.857391357421875	0.8575439453125	3.21319580078125E-06	2.75545653494191E-06	266881.96875	4.56682719232049E-05
2	444	110.812227720226	0.867462158203125	0.86700439453125	3.30810546875E-06	2.8681417916232E-06	262084.890625	4.59966431662906E-05
2	445	110.912935719972	0.877532958984375	0.8770751953125	3.35479736328125E-06	2.94240930998058E-06	261439.109375	4.6332148485817E-05
2	446	111.013643719717	0.887603759765625	0.88775634765625	3.35723876953125E-06	2.98041004498373E-06	264430.5	4.66701276309323E-05
2	447	111.114351719463	0.897674560546875	0.897216796875	3.32611083984375E-06	2.98424242828332E-06	269749.53125	4.70066588604823E-05
2	448	111.215059719209	0.907745361328125	0.908203125	3.27239990234375E-06	2.97200381282892E-06	277534.28125	4.73389191029128E-05
2	449	111.315767718955	0.917816162109375	0.91766357421875	3.206787109375E-06	2.94275173473579E-06	286162.90625	4.76651730423328E-05
2	450	111.4164757187	0.927886962890625	0.927734375	3.1365966796875E-06	2.90992852569616E-06	295777.375	4.79845875815954E-05
2	451	111.517183718446	0.937957763671875	0.93780517578125	3.06732177734375E-06	2.87655029751477E-06	305740.71875	4.82969808217604E-05
2	452	111.617891718192	0.948028564453125	0.9478759765625	3.00140380859375E-06	2.84495854430133E-06	315810.90625	4.86025637655985E-05
2	453	111.718599717938	0.958099365234375	0.95855712890625	2.9400634765625E-06	2.81821871794818E-06	326032.8125	4.89017402287573E-05
2	454	111.819307717683	0.968170166015625	0.9686279296875	2.8851318359375E-06	2.79461937680026E-06	335730.90625	4.91950631840155E-05
2	455	111.920015717429	0.978240966796875	0.9783935546875	2.83538818359375E-06	2.77412550531153E-06	345065.125	4.94831147079822E-05
2	456	112.020723717175	0.988311767578125	0.98846435546875	2.791748046875E-06	2.75954334938433E-06	354066.5	4.97664623253513E-05
2	457	112.121431716921	0.998382568359375	0.9991455078125	2.7520751953125E-06	2.74972330771561E-06	363051.6875	5.00456189911347E-05
2	458	112.222139716666	1.00845336914063	1.00830078125	2.71697998046875E-06	2.7395328743296E-06	371110.875	5.03210067108739E-05
2	459	112.322847716412	1.01852416992188	1.01837158203125	2.68463134765625E-06	2.73395221483952E-06	379333.875	5.05930001963861E-05
2	460	112.423555716158	1.02859497070313	1.0284423828125	2.65533447265625E-06	2.73085834123776E-06	387311.8125	5.08618868479971E-05
2	461	112.524263715904	1.03866577148438	1.0382080078125	2.62847900390625E-06	2.72890792984981E-06	394984.3125	5.11279504280537E-05
2	462	112.624971715649	1.04873657226563	1.04827880859375	2.6043701171875E-06	2.73010596174572E-06	402507.625	5.13914419570938E-05
2	463	112.725679715395	1.05880737304688	1.0589599609375	2.5823974609375E-06	2.73465548161766E-06	410068.5625	5.16526197316125E-05
2	464	112.826387715141	1.06887817382813	1.0693359375	2.562255859375E-06	2.73991213362024E-06	417341.59375	5.19116729265079E-05
2	465	112.927095714886	1.07894897460938	1.0791015625	2.5439453125E-06	2.7451753794594E-06	424184.25	5.21687907166779E-05
2	466	113.027803714632	1.08901977539063	1.08856201171875	2.5262451171875E-06	2.7499743282533E-06	430901.21875	5.24240931554232E-05
2	467	113.128511714378	1.09909057617188	1.0992431640625	2.51007080078125E-06	2.75917818726157E-06	437933.125	5.26776930200867E-05
2	468	113.229219714124	1.10916137695313	1.109619140625	2.4951171875E-06	2.76862965620239E-06	444716.25	5.29297249158844E-05
2	469	113.329927713869	1.11923217773438	1.11907958984375	2.48077392578125E-06	2.77618346444797E-06	451101	5.31802797922865E-05
2	470	113.430635713615	1.12930297851563	1.12945556640625	2.4676513671875E-06	2.7871024030901E-06	457704.6875	5.34294522367418E-05
2	471	113.531343713361	1.13937377929688	1.1395263671875	2.45697021484375E-06	2.79978235084855E-06	463793.34375	5.36774277861696E-05
2	472	113.632051713107	1.14944458007813	1.1492919921875	2.4468994140625E-06	2.81220172837493E-06	469693.21875	5.39243555977009E-05
2	473	113.732759712852	1.15951538085938	1.15936279296875	2.43804931640625E-06	2.82658356809407E-06	475528.875	5.41703338967636E-05
2	474	113.833467712598	1.16958618164063	1.16943359375	2.43011474609375E-06	2.84185762211564E-06	481225.6875	5.44154645467643E-05
2	475	113.934175712344	1.17965698242188	1.1798095703125	2.423095703125E-06	2.85879127659427E-06	486901.78125	5.46598421351518E-05
2	476	114.03488371209	1.18972778320313	1.18927001953125	2.41668701171875E-06	2.8740935249516E-06	492107.59375	5.49035466974601E-05
2	477	114.135591711835	1.19979858398438	1.199951171875	2.412109375E-06	2.89441345557861E-06	497469.65625	5.51466946490109E-05
2	478	114.236299711581	1.20986938476563	1.21002197265625	2.40875244140625E-06	2.91464334623015E-06	502343.875	5.53894460608717E-05
2	479	114.337007711327	1.21994018554688	1.21978759765625	2.4072265625E-06	2.93630500891595E-06	506719.09375	5.56319500901736E-05
2	480	114.437715711073	1.23001098632813	1.22955322265625	2.40631103515625E-06	2.95868744615291E-06	510970.1875	5.58743304281961E-05
2	481	114.538423710818	1.24008178710938	1.240234375	2.4072265625E-06	2.9855250431865E-06	515213	5.61167107662186E-05
2	482	114.639131710564	1.25015258789063	1.25	2.40936279296875E-06	3.0117032565613E-06	518809.40625	5.6359243899351E-05
2	483	114.73983971031	1.26022338867188	1.26007080078125	2.4127197265625E-06	3.04019749819417E-06	522261.59375	5.66020571568515E-05
2	484	114.840547710055	1.27029418945313	1.2701416015625	2.4169921875E-06	3.06992228615854E-06	525505.0625	5.68452524021268E-05
2	485	114.941255709801	1.28036499023438	1.2799072265625	2.4224853515625E-06	3.10055634145101E-06	528344.6875	5.7088938774541E-05
2	486	115.041963709547	1.29043579101563	1.29058837890625	2.43072509765625E-06	3.13706550514325E-06	530947.875	5.73333163629286E-05
2	487	115.142671709293	1.30050659179688	1.30096435546875	2.44110107421875E-06	3.17578542308183E-06	532941.625	5.75786325498484E-05
2	488	115.243379709038	1.31057739257813	1.31072998046875	2.45361328125E-06	3.21602442454605E-06	534204	5.78251019760501E-05
2	489	115.344087708784	1.32064819335938	1.32080078125	2.46734619140625E-06	3.25887276630965E-06	535312.3125	5.80728919885587E-05
2	490	115.44479570853	1.33071899414063	1.3311767578125	2.48321533203125E-06	3.30559828398691E-06	536069.8125	5.83221699343994E-05
2	491	115.545503708276	1.34078979492188	1.3409423828125	2.50030517578125E-06	3.35276513396821E-06	536311.5	5.8573110436555E-05
2	492	115.646211708021	1.35086059570313	1.3507080078125	2.5189208984375E-06	3.40232645612559E-06	536224.875	5.88258517382201E-05
2	493	115.746919707767	1.36093139648438	1.36138916015625	2.540283203125E-06	3.45831381309836E-06	535920.25	5.90806012041867E-05
2	494	115.847627707513	1.37100219726563	1.3714599609375	2.56317138671875E-06	3.51528683495417E-06	535063.6875	5.9337580751162E-05
2	495	115.948335707259	1.38107299804688	1.38092041015625	2.5885009765625E-06	3.57451358468097E-06	533482.6875	5.95969868300017E-05
2	496	116.049043707004	1.39114379882813	1.39129638671875	2.615966796875E-06	3.63958497473504E-06	531847.9375	5.98590522713494E-05
2	497	116.14975170675	1.40121459960938	1.4013671875	2.6458740234375E-06	3.70784096048737E-06	529642.4375	6.01240099058487E-05
2	498	116.250459706496	1.41128540039063	1.4111328125	2.679443359375E-06	3.78105028175924E-06	526651.5	6.03921580477618E-05
2	499	116.351167706242	1.42135620117188	1.42120361328125	2.71820068359375E-06	3.86311648981064E-06	522847.1875	6.06639514444396E-05
2	500	116.451875705987	1.43142700195313	1.43218994140625	2.764892578125E-06	3.95985125578591E-06	517991.1875	6.09400485700462E-05
2	501	116.552583705733	1.44149780273438	1.4410400390625	2.82135009765625E-06	4.06567869504215E-06	510762.5625	6.12213407293893E-05
2	502	116.653291705479	1.45156860351563	1.45172119140625	2.88909912109375E-06	4.19416619479307E-06	502482.3125	6.15088792983443E-05
2	503	116.753999705224	1.46163940429688	1.46148681640625	2.9705810546875E-06	4.34146477346076E-06	491986.875	6.18039412074722E-05
2	504	116.85470770497	1.47171020507813	1.4715576171875	3.06610107421875E-06	4.51194455308723E-06	479944.28125	6.210790888872E-05
2	505	116.955415704716	1.48178100585938	1.48223876953125	3.17718505859375E-06	4.70934674012824E-06	466525.8125	6.24222884653136E-05
2	506	117.056123704462	1.49185180664063	1.4910888671875	3.30718994140625E-06	4.93131392431678E-06	450862.78125	6.27487970632501E-05
2	507	117.156831704207	1.50192260742188	1.5020751953125	3.4564208984375E-06	5.19180366609362E-06	434575.34375	6.30893773632124E-05
2	508	117.257539703953	1.49185180664063	1.49200439453125	3.12347412109375E-06	4.66023675471661E-06	477674.65625	6.34206953691319E-05
2	509	117.358247703699	1.48178100585938	1.48193359375	2.87628173828125E-06	4.26245878770715E-06	515225.46875	6.3722807681188E-05
2	510	117.458955703445	1.47171020507813	1.47186279296875	2.6806640625E-06	3.94556946048397E-06	549066.5	6.40026264591143E-05
2	511	117.55966370319	1.46163940429688	1.4617919921875	2.52197265625E-06	3.68659948435379E-06	579622.4375	6.42645973130129E-05
2	512	117.660371702936	1.45156860351563	1.45233154296875	2.3895263671875E-06	3.47038439940661E-06	607790.5625	6.45119143882766E-05
2	513	117.761079702682	1.44149780273438	1.4410400390625	2.2784423828125E-06	3.28332657772989E-06	632467.25	6.47469641990028E-05
2	514	117.861787702428	1.43142700195313	1.4312744140625	2.18414306640625E-06	3.12610814034997E-06	655302.5	6.49716748739593E-05
2	515	117.962495702173	1.42135620117188	1.4215087890625	2.10296630859375E-06	2.98938493870082E-06	675954.1875	6.51875452604145E-05
2	516	118.063203701919	1.41128540039063	1.4111328125	2.03338623046875E-06	2.86937802229659E-06	693981.6875	6.53958268230781E-05
2	517	118.163911701665	1.40121459960938	1.40167236328125	1.9732666015625E-06	2.76587320513499E-06	710331	6.55975745758042E-05
2	518	118.264619701411	1.39114379882813	1.39068603515625	1.92169189453125E-06	2.67246991825232E-06	723678	6.57937052892521E-05
2	519	118.365327701156	1.38107299804688	1.3812255859375	1.8756103515625E-06	2.59064108831808E-06	736413.9375	6.59849101793952E-05
2	520	118.466035700902	1.37100219726563	1.37054443359375	1.83502197265625E-06	2.51497908720921E-06	746881.75	6.61717567709275E-05
2	521	118.566743700648	1.36093139648438	1.361083984375	1.798095703125E-06	2.44735929300077E-06	756958.5625	6.63547034491785E-05
2	522	118.667451700393	1.35086059570313	1.3507080078125	1.76483154296875E-06	2.38377197092632E-06	765346.75	6.65341067360714E-05
2	523	118.768159700139	1.34078979492188	1.34033203125	1.7352294921875E-06	2.32578372560965E-06	772423.5	6.67103522573598E-05
2	524	118.868867699885	1.33071899414063	1.33056640625	1.70867919921875E-06	2.27351119974628E-06	778710.5	6.68837674311362E-05
2	525	118.969575699631	1.32064819335938	1.3201904296875	1.6845703125E-06	2.2239535155677E-06	783695.6875	6.70546287437901E-05
2	526	119.070283699376	1.31057739257813	1.3104248046875	1.66351318359375E-06	2.17990873352392E-06	787745.375	6.72232199576683E-05
2	527	119.170991699122	1.30050659179688	1.30035400390625	1.64398193359375E-06	2.13775842894393E-06	790978.3125	6.7389766627457E-05
2	528	119.271699698868	1.29043579101563	1.29058837890625	1.62506103515625E-06	2.09728477784665E-06	794178.375	6.75543706165627E-05
2	529	119.372407698614	1.28036499023438	1.280517578125	1.6070556640625E-06	2.05786295737198E-06	796809.75	6.77171265124343E-05
2	530	119.473115698359	1.27029418945313	1.27044677734375	1.590576171875E-06	2.02074238586647E-06	798733.6875	6.78781361784786E-05
2	531	119.573823698105	1.26022338867188	1.2603759765625	1.5740966796875E-06	1.98395355255343E-06	800698	6.80374942021444E-05
2	532	119.674531697851	1.25015258789063	1.25030517578125	1.55914306640625E-06	1.94940457731718E-06	801918.1875	6.81952587910928E-05
2	533	119.775239697597	1.24008178710938	1.23992919921875	1.544189453125E-06	1.9146855265717E-06	802964.4375	6.83515245327726E-05
2	534	119.875947697342	1.23001098632813	1.23016357421875	1.53045654296875E-06	1.88271189927036E-06	803788.625	6.85063496348448E-05
2	535	119.976655697088	1.21994018554688	1.22039794921875	1.51641845703125E-06	1.85063390745199E-06	804789.75	6.86597704770975E-05
2	536	120.077363696834	1.20986938476563	1.21002197265625	1.502685546875E-06	1.8182824987889E-06	805239.625	6.88117943354882E-05
2	537	120.17807169658	1.19979858398438	1.19964599609375	1.4886474609375E-06	1.78584991772368E-06	805863.0625	6.89624212100171E-05
2	538	120.278779696325	1.18972778320313	1.18988037109375	1.47491455078125E-06	1.75497177679063E-06	806745.3125	6.91116438247263E-05
2	539	120.379487696071	1.17965698242188	1.1798095703125	1.461181640625E-06	1.72391594333021E-06	807435.3125	6.92594912834466E-05
2	540	120.480195695817	1.16958618164063	1.16973876953125	1.44775390625E-06	1.6934939139901E-06	807967.9375	6.94059708621353E-05
2	541	120.580903695562	1.15951538085938	1.1590576171875	1.4349365234375E-06	1.66317408911709E-06	807741.375	6.95511262165383E-05
2	542	120.681611695308	1.14944458007813	1.14959716796875	1.42303466796875E-06	1.63591653290496E-06	807849.0625	6.96950301062316E-05
2	543	120.782319695054	1.13937377929688	1.1395263671875	1.41082763671875E-06	1.60767524448602E-06	807700.625	6.98377261869609E-05
2	544	120.8830276948	1.12930297851563	1.1297607421875	1.3983154296875E-06	1.57976182890707E-06	807944.1875	6.99791780789383E-05
2	545	120.983735694545	1.11923217773438	1.119384765625	1.38641357421875E-06	1.55193015416444E-06	807396.0625	7.01194003340788E-05
2	546	121.084443694291	1.10916137695313	1.10931396484375	1.3739013671875E-06	1.5240879065459E-06	807418.9375	7.02583929523826E-05
2	547	121.185151694037	1.09909057617188	1.09893798828125	1.3629150390625E-06	1.49775905811111E-06	806314.4375	7.03962068655528E-05
2	548	121.285859693783	1.08901977539063	1.0888671875	1.3519287109375E-06	1.47207072132005E-06	805417.625	7.05329075572081E-05
2	549	121.386567693528	1.07894897460938	1.0791015625	1.341552734375E-06	1.44767159326875E-06	804367.625	7.06685386830941E-05
2	550	121.487275693274	1.06887817382813	1.06903076171875	1.331787109375E-06	1.42372130085278E-06	802703.9375	7.08031511749141E-05
2	551	121.58798369302	1.05880737304688	1.0589599609375	1.32110595703125E-06	1.39899827900081E-06	801570.8125	7.09367304807529E-05
2	552	121.688691692766	1.04873657226563	1.04827880859375	1.31011962890625E-06	1.37337065098109E-06	800139.75	7.10692256689072E-05
2	553	121.789399692511	1.03866577148438	1.038818359375	1.298828125E-06	1.34924653139024E-06	799812	7.12006003595889E-05
2	554	121.890107692257	1.02859497070313	1.02874755859375	1.28692626953125E-06	1.32392221985356E-06	799383.4375	7.13308036210947E-05
2	555	121.990815692003	1.01852416992188	1.01898193359375	1.27593994140625E-06	1.3001597380935E-06	798612.8125	7.14598500053398E-05
2	556	122.091523691749	1.00845336914063	1.0089111328125	1.26434326171875E-06	1.27560997498222E-06	797972.5	7.15877613401972E-05
2	557	122.192231691494	0.998382568359375	0.99853515625	1.2518310546875E-06	1.24999723993824E-06	797659.6875	7.17144648660906E-05
2	558	122.29293969124	0.988311767578125	0.98876953125	1.239013671875E-06	1.2250989129825E-06	798029.625	7.18398878234439E-05
2	559	122.393647690986	0.978240966796875	0.9783935546875	1.2237548828125E-06	1.19731396353018E-06	799501.25	7.196389924502E-05
2	560	122.494355690731	0.968170166015625	0.968017578125	1.20574951171875E-06	1.16718672416027E-06	802834.6875	7.20862299203873E-05
2	561	122.595063690477	0.958099365234375	0.958251953125	1.18438720703125E-06	1.13494138531678E-06	809069.8125	7.22065888112411E-05
2	562	122.695771690223	0.948028564453125	0.9478759765625	1.15966796875E-06	1.09922132196516E-06	817368.4375	7.23246193956584E-05
2	563	122.796479689969	0.937957763671875	0.9381103515625	1.1285400390625E-06	1.05869503386202E-06	831260.125	7.24398414604366E-05
2	564	122.897187689714	0.927886962890625	0.92803955078125	1.08734130859375E-06	1.00909574030084E-06	853494.25	7.25514182704501E-05
2	565	122.99789568946	0.917816162109375	0.91796875	1.03424072265625E-06	9.49400600802619E-07	887577.5	7.26582511560991E-05
2	566	123.098603689206	0.907745361328125	0.90789794921875	9.63745117187501E-07	8.7498216316817E-07	942052	7.27588558220305E-05
2	567	123.199311688952	0.897674560546875	0.89752197265625	8.6944580078125E-07	7.80346681494848E-07	1032292.0625	7.28511658962816E-05
2	568	123.300019688697	0.887603759765625	0.887451171875	7.476806640625E-07	6.63530045130756E-07	1186938.75	7.29325911379419E-05
2	569	123.400727688443	0.877532958984375	0.87738037109375	5.94482421875001E-07	5.21587196544715E-07	1475872.75	7.30001775082201E-05
2	570	123.501435688189	0.867462158203125	0.867919921875	4.11071777343749E-07	3.56777377419348E-07	2111358.75	7.30508108972572E-05
2	571	123.602143687935	0.857391357421875	0.8575439453125	2.044677734375E-07	1.75340090891041E-07	4194030	7.30818064766936E-05
2	572	123.70285168768	0.847320556640625	0.84716796875	-1.25122070312497E-08	-1.05999404809154E-08	-67707320	7.30914689484052E-05
2	573	123.803559687426	0.837249755859375	0.83740234375	-2.227783203125E-07	-1.86555084269457E-07	-3758904.25	7.30796236894093E-05
2	574	123.904267687172	0.827178955078125	0.82763671875	-4.0618896484375E-07	-3.3617689609855E-07	-2037565.875	7.30479514459148E-05
2	575	124.004975686918	0.817108154296875	0.8172607421875	-5.499267578125E-07	-4.49433571247937E-07	-1486126.5	7.29998064343818E-05
2	576	124.105683686663	0.807037353515625	0.80718994140625	-6.44531249999999E-07	-5.20259106906451E-07	-1252367.5	7.29396633687429E-05
2	577	124.206391686409	0.796966552734375	0.797119140625	-6.9091796875E-07	-5.50743891380989E-07	-1153710.25	7.2872411692515E-05
2	578	124.307099686155	0.786895751953125	0.78704833984375	-6.9915771484375E-07	-5.50270897292648E-07	-1125709.375	7.28024169802666E-05
2	579	124.4078076859	0.776824951171875	0.77667236328125	-6.8084716796875E-07	-5.28795169429941E-07	-1140744.125	7.27329315850511E-05
2	580	124.508515685646	0.766754150390625	0.7666015625	-6.4971923828125E-07	-4.98075735322345E-07	-1179896.75	7.26659345673397E-05
2	581	124.609223685392	0.756683349609375	0.7568359375	-6.15844726562501E-07	-4.66093410977919E-07	-1228939.5	7.26022044545971E-05
2	582	124.709931685138	0.746612548828125	0.746551513671875	-5.88073730468749E-07	-4.39027303400508E-07	-1269486.25	7.25415811757557E-05
2	583	124.810639684883	0.736541748046875	0.736480712890625	-5.7342529296875E-07	-4.22316645654064E-07	-1284353.375	7.24830970284529E-05
2	584	124.911347684629	0.726470947265625	0.726318359375	-5.76171875000001E-07	-4.18484205511049E-07	-1260593.25	7.24252095096745E-05
2	585	125.012055684375	0.716400146484375	0.716278076171875	-6.0150146484375E-07	-4.30842277410193E-07	-1190816.875	7.23659104551189E-05
2	586	125.112763684121	0.706329345703125	0.706329345703125	-6.50939941406251E-07	-4.59777965033936E-07	-1085091.5	7.23028424545191E-05
2	587	125.213471683866	0.696258544921875	0.6961669921875	-7.2509765625E-07	-5.04789056776644E-07	-960101	7.22335535101593E-05
2	588	125.314179683612	0.686187744140625	0.6861572265625	-8.1787109375E-07	-5.61188130632218E-07	-838955.25	7.2155860834755E-05
2	589	125.414887683358	0.676116943359375	0.676116943359375	-9.20715332031249E-07	-6.22511208803189E-07	-734338.75	7.20683165127411E-05
2	590	125.515595683104	0.666046142578125	0.665985107421875	-1.019287109375E-06	-6.78830019751331E-07	-653383.25	7.19706295058131E-05
2	591	125.616303682849	0.655975341796875	0.655975341796875	-1.1004638671875E-06	-7.21877142950689E-07	-596089.875	7.18638912076131E-05
2	592	125.717011682595	0.645904541015625	0.645904541015625	-1.15203857421875E-06	-7.44106898764585E-07	-560662.25	7.17504663043655E-05
2	593	125.817719682341	0.635833740234375	0.635833740234375	-1.17156982421875E-06	-7.44923625006777E-07	-542719.4375	7.16334616299719E-05
2	594	125.918427682087	0.625762939453125	0.625732421875	-1.15936279296875E-06	-7.25450888694468E-07	-539721	7.15160931576975E-05
2	595	126.019135681832	0.615692138671875	0.61566162109375	-1.124267578125E-06	-6.92168384830438E-07	-547611.3125	7.14011039235629E-05
2	596	126.119843681578	0.605621337890625	0.605621337890625	-1.07208251953125E-06	-6.4927598941722E-07	-564901.8125	7.12905093678273E-05
2	597	126.220551681324	0.595550537109375	0.595550537109375	-1.0125732421875E-06	-6.03038529334299E-07	-588155.5625	7.11855391273275E-05
2	598	126.321259681069	0.585479736328125	0.58544921875	-9.50927734375E-07	-5.56719896849245E-07	-615661.125	7.10866661393084E-05
2	599	126.421967680815	0.575408935546875	0.575439453125	-8.892822265625E-07	-5.11728046603821E-07	-647083.0625	7.09940068190917E-05
2	600	126.522675680561	0.565338134765625	0.565338134765625	-8.31298828125E-07	-4.69964902549691E-07	-680066.125	7.0907364715822E-05
2	601	126.623383680307	0.555267333984375	0.555206298828125	-7.76062011718751E-07	-4.30874507628687E-07	-715414.875	7.08264269633219E-05
2	602	126.724091680052	0.545196533203125	0.545166015625	-7.25402832031249E-07	-3.95464951452595E-07	-751535.5625	7.07508224877529E-05
2	603	126.824799679798	0.535125732421875	0.53515625	-6.793212890625E-07	-3.63543023240709E-07	-787780.8125	7.06800929037854E-05
2	604	126.925507679544	0.525054931640625	0.524993896484375	-6.3812255859375E-07	-3.35010412300107E-07	-822716.4375	7.06137507222593E-05
2	605	127.02621567929	0.514984130859375	0.51495361328125	-6.00585937500001E-07	-3.0927387228985E-07	-857418.75	7.05513812135905E-05
2	606	127.126923679035	0.504913330078125	0.5048828125	-5.66711425781249E-07	-2.86122855186477E-07	-890899.3125	7.04925987520255E-05
2	607	127.227631678781	0.494842529296875	0.49481201171875	-5.35888671875E-07	-2.65164146640018E-07	-923348.5625	7.04370831954293E-05
2	608	127.328339678527	0.484771728515625	0.48480224609375	-5.07202148437499E-07	-2.45892721295604E-07	-955836.375	7.03845580574125E-05
2	609	127.429047678273	0.474700927734375	0.4747314453125	-4.8065185546875E-07	-2.28180553563107E-07	-987682.5	7.03348123352043E-05
2	610	127.529755678018	0.464630126953125	0.464569091796875	-4.55627441406251E-07	-2.11670425187549E-07	-1019624.9375	7.0287671405822E-05
2	611	127.630463677764	0.454559326171875	0.454620361328125	-4.32739257812501E-07	-1.96732074186912E-07	-1050564.125	7.024293881841E-05
2	612	127.73117167751	0.444488525390625	0.44451904296875	-4.1229248046875E-07	-1.83271865239476E-07	-1078164.375	7.02003890182823E-05
2	613	127.831879677256	0.434417724609375	0.4344482421875	-3.93066406250001E-07	-1.70766995211125E-07	-1105279.5	7.01598328305408E-05
2	614	127.932587677001	0.424346923828125	0.42431640625	-3.753662109375E-07	-1.59274037514479E-07	-1130406.5	7.01211392879486E-05
2	615	128.033295676747	0.414276123046875	0.41424560546875	-3.5858154296875E-07	-1.48540820532617E-07	-1155234.125	7.00841846992262E-05
2	616	128.134003676493	0.404205322265625	0.40423583984375	-3.42407226562499E-07	-1.38413270178717E-07	-1180570.375	7.00488817528822E-05
2	617	128.234711676238	0.394134521484375	0.3941650390625	-3.2684326171875E-07	-1.28830194512375E-07	-1205975.75	7.00151867931709E-05
2	618	128.335419675984	0.384063720703125	0.38409423828125	-3.11889648437499E-07	-1.19795018349578E-07	-1231506.875	6.99830197845586E-05
2	619	128.43612767573	0.373992919921875	0.373992919921875	-2.98156738281249E-07	-1.11508505540314E-07	-1254350.125	6.99523006915115E-05
2	620	128.536835675476	0.363922119140625	0.363922119140625	-2.850341796875E-07	-1.03730236844513E-07	-1276766.625	6.99229349265806E-05
2	621	128.637543675221	0.353851318359375	0.35382080078125	-2.72521972656251E-07	-9.64239390555122E-08	-1298320.375	6.98948642821051E-05
2	622	128.738251674967	0.343780517578125	0.34381103515625	-2.60314941406251E-07	-8.94991529776235E-08	-1320750.25	6.9868030550424E-05
2	623	128.838959674713	0.333709716796875	0.333770751953125	-2.490234375E-07	-8.31167383807951E-08	-1340318.625	6.9842382799834E-05
2	624	128.939667674459	0.323638916015625	0.323699951171875	-2.38037109375E-07	-7.70525971915959E-08	-1359871.875	6.98178628226742E-05
2	625	129.040375674204	0.313568115234375	0.313629150390625	-2.2735595703125E-07	-7.13054575385286E-08	-1379463.125	6.97944269631989E-05
2	626	129.14108367395	0.303497314453125	0.303497314453125	-2.1820068359375E-07	-6.62233219372865E-08	-1390909.125	6.97719879099168E-05
2	627	129.241791673696	0.293426513671875	0.29339599609375	-2.08740234375E-07	-6.12435471225581E-08	-1405555.625	6.97504947311245E-05
2	628	129.342499673442	0.283355712890625	0.283355712890625	-2.0111083984375E-07	-5.698590399561E-08	-1408953	6.97298528393731E-05
2	629	129.443207673187	0.273284912109375	0.2733154296875	-1.934814453125E-07	-5.28814645406328E-08	-1412618.375	6.97099821991287E-05
2	630	129.543915672933	0.263214111328125	0.263214111328125	-1.87072753906251E-07	-4.92401852625335E-08	-1407014.75	6.96908246027306E-05
2	631	129.644623672679	0.253143310546875	0.25311279296875	-1.80969238281251E-07	-4.58056277352625E-08	-1398650.875	6.96722927386872E-05
2	632	129.745331672425	0.243072509765625	0.243133544921875	-1.7425537109375E-07	-4.23673256477741E-08	-1395271.5	6.9654401158914E-05
2	633	129.84603967217	0.233001708984375	0.233001708984375	-1.68762207031251E-07	-3.93218790861738E-08	-1380651	6.96371280355379E-05
2	634	129.946747671916	0.222930908203125	0.22296142578125	-1.6326904296875E-07	-3.6402695968718E-08	-1365607.5	6.96204151608981E-05
2	635	130.047455671662	0.212860107421875	0.212860107421875	-1.5899658203125E-07	-3.38440315772459E-08	-1338771.625	6.96041824994609E-05
2	636	130.148163671407	0.202789306640625	0.20281982421875	-1.556396484375E-07	-3.1566806057981E-08	-1303137.375	6.95883427397348E-05
2	637	130.248871671153	0.192718505859375	0.192779541015625	-1.5228271484375E-07	-2.93569915044145E-08	-1265931.875	6.9572837674059E-05
2	638	130.349579670899	0.182647705078125	0.182647705078125	-1.4984130859375E-07	-2.73681699525241E-08	-1218941	6.95576236466877E-05
2	639	130.450287670645	0.172576904296875	0.172637939453125	-1.483154296875E-07	-2.56048693358935E-08	-1163991.875	6.9542606070172E-05
2	640	130.55099567039	0.162506103515625	0.16253662109375	-1.47399902343751E-07	-2.39578827887499E-08	-1102691.5	6.95277194608934E-05
2	641	130.651703670136	0.152435302734375	0.152435302734375	-1.495361328125E-07	-2.27945857744771E-08	-1019387.75	6.95127673679963E-05
2	642	130.752411669882	0.142364501953125	0.142364501953125	-1.5533447265625E-07	-2.21141132072944E-08	-916503	6.94974150974303E-05
2	643	130.853119669628	0.132293701171875	0.13232421875	-1.64184570312501E-07	-2.17255955448081E-08	-805947.9375	6.94813279551454E-05
2	644	130.953827669373	0.122222900390625	0.12225341796875	-1.79138183593749E-07	-2.19002558310422E-08	-682453.125	6.94640402798541E-05
2	645	131.054535669119	0.112152099609375	0.112152099609375	-2.0172119140625E-07	-2.2623455109283E-08	-555975.8125	6.94448608555831E-05
2	646	131.155243668865	0.102081298828125	0.1021728515625	-2.337646484375E-07	-2.38844002353744E-08	-437075.75	6.9422931119334E-05
2	647	131.255951668611	0.092010498046875	0.092071533203125	-2.8045654296875E-07	-2.58220627102901E-08	-328291.625	6.93970359861851E-05
2	648	131.356659668356	0.081939697265625	0.08197021484375	-3.45458984374999E-07	-2.83173466897324E-08	-237279.15625	6.9365523813758E-05
2	649	131.457367668102	0.071868896484375	0.071929931640625	-4.351806640625E-07	-3.13025161347014E-08	-165287.515625	6.93262118147686E-05
2	650	131.558075667848	0.061798095703125	0.06182861328125	-5.54504394531249E-07	-3.4284237671045E-08	-111502.484375	6.92763787810691E-05
2	651	131.658783667594	0.051727294921875	0.051727294921875	-7.08923339843751E-07	-3.66706842669373E-08	-72965.9921875	6.92127578076907E-05
2	652	131.759491667339	0.041656494140625	0.04176025390625	-8.9569091796875E-07	-3.74042805617592E-08	-46623.51171875	6.91319582983851E-05
2	653	131.860199667085	0.031585693359375	0.0316650390625	-1.11114501953125E-06	-3.51844491319753E-08	-28497.6640625	6.90309097990394E-05
2	654	131.960907666831	0.021514892578125	0.0216278076171875	-1.33636474609375E-06	-2.89026385047464E-08	-16184.0615234375	6.89076696289703E-05
2	655	132.061615666576	0.011444091796875	0.011541748046875	-1.552734375E-06	-1.79212698014908E-08	-7433.17626953125	6.87621868564747E-05
2	656	132.162323666322	0.001373291015625	0.0014801025390625	-1.7376708984375E-06	-2.57193089048258E-09	-851.773864746094	6.85965060256422E-05
2	657	132.263031666068	-0.008697509765625	-0.00861206054687499	-1.87347412109375E-06	1.61344733129454E-08	4596.84033203125	6.84146725689061E-05
2	658	132.363739665814	-0.018768310546875	-0.0186492919921875	-1.953125E-06	3.64243959438681E-08	9548.4375	6.82219833834097E-05
2	659	132.464447665559	-0.028839111328125	-0.0287017822265625	-1.97845458984375E-06	5.67851721200441E-08	14507.1728515625	6.80240118526854E-05
2	660	132.565155665305	-0.038909912109375	-0.0387939453125	-1.959228515625E-06	7.6006202220924E-08	19800.623046875	6.78257347317412E-05
2	661	132.665863665051	-0.048980712890625	-0.048846435546875	-1.91131591796875E-06	9.33609669573343E-08	25556.443359375	6.76308409310877E-05
2	662	132.766571664797	-0.059051513671875	-0.059051513671875	-1.84661865234375E-06	1.09045622309623E-07	31978.185546875	6.74416151014157E-05
2	663	132.867279664542	-0.069122314453125	-0.06903076171875	-1.7742919921875E-06	1.22480727782204E-07	38906.08984375	6.72592868795618E-05
2	664	132.967987664288	-0.079193115234375	-0.079071044921875	-1.70379638671875E-06	1.34720949063194E-07	46408.7421875	6.70841473038308E-05
2	665	133.068695664034	-0.089263916015625	-0.089141845703125	-1.6375732421875E-06	1.45976301269002E-07	54435.3359375	6.69158980599605E-05
2	666	133.16940366378	-0.099334716796875	-0.09930419921875	-1.5771484375E-06	1.56617460334019E-07	62964.3984375	6.67540225549601E-05
2	667	133.270111663525	-0.109405517578125	-0.10931396484375	-1.52435302734375E-06	1.66633071785327E-07	71711.7109375	6.65978514007293E-05
2	668	133.370819663271	-0.119476318359375	-0.11932373046875	-1.47857666015625E-06	1.76429281850687E-07	80701.75	6.64466424495913E-05
2	669	133.471527663017	-0.129547119140625	-0.129486083984375	-1.43768310546875E-06	1.86159951454101E-07	90065.8046875	6.62997917970642E-05
2	670	133.572235662763	-0.139617919921875	-0.13946533203125	-1.40289306640625E-06	1.95654948242918E-07	99412.65625	6.61567610222846E-05
2	671	133.672943662508	-0.149688720703125	-0.149566650390625	-1.373291015625E-06	2.05398521302413E-07	108911.1171875	6.60169680486433E-05
2	672	133.773651662254	-0.159759521484375	-0.15966796875	-1.3482666015625E-06	2.15274980064351E-07	118424.6328125	6.58799253869802E-05
2	673	133.874359662	-0.169830322265625	-0.169708251953125	-1.32781982421875E-06	2.25341963755454E-07	127809.703125	6.57451746519655E-05
2	674	133.975067661745	-0.179901123046875	-0.1796875	-1.31256103515625E-06	2.35850805552218E-07	136898.390625	6.56122210784815E-05
2	675	134.075775661491	-0.189971923828125	-0.1898193359375	-1.30035400390625E-06	2.46832314587664E-07	145975.140625	6.54806499369442E-05
2	676	134.176483661237	-0.200042724609375	-0.199981689453125	-1.29180908203125E-06	2.58338161529537E-07	154807.46875	6.53501265333034E-05
2	677	134.277191660983	-0.189971923828125	-0.1898193359375	-1.13677978515625E-06	2.15782762325034E-07	166979.875	6.52278395136818E-05
