Potential - Start -0.2 V, Upper Vertex 1.5 V, Lower Vertex -0.2 V, Stop -0.19 V; Scan - # end cross 5, Rate 0.1 Vps, Step 0.01 V 
Scan	Index	Time (s)	Potential applied (V)	WE(1).Potential (V)	WE(1).Current (A)	WE(1).Power (W)	WE(1).Resistance (Ω)	WE(1).Charge (C)
1	1	38.3140679032663	-0.189971923828125	-0.1898193359375	-1.9989013671875E-07	3.79430140640125E-08	949618.3125	0
1	2	38.414775903012	-0.179901123046875	-0.17974853515625	-1.6754150390625E-07	3.01153377790797E-08	1072859.75	-1.85016535425575E-08
1	3	38.5154839027578	-0.169830322265625	-0.169677734375	-1.40991210937499E-07	2.39230679710545E-08	1203463.25	-3.40375088114797E-08
1	4	38.6161919025035	-0.159759521484375	-0.159576416015625	-1.190185546875E-07	1.89925533078394E-08	1340769.25	-4.71300403148689E-08
1	5	38.7168999022492	-0.149688720703125	-0.149627685546875	-9.918212890625E-08	1.48403920263718E-08	1508615.5	-5.81173154046155E-08
1	6	38.817607901995	-0.139617919921875	-0.13958740234375	-8.087158203125E-08	1.12886535674761E-08	1726037.75	-6.71837412369314E-08
1	7	38.9183159017407	-0.129547119140625	-0.129425048828125	-6.31713867187495E-08	8.1759594650066E-09	2048792.375	-7.44368833238696E-08
1	8	39.0190239014864	-0.119476318359375	-0.119384765625	-4.51660156250006E-08	5.39213429462393E-09	2643243.25	-7.98921035993772E-08
1	9	39.1197319012322	-0.109405517578125	-0.10931396484375	-2.68554687500006E-08	2.93567770093262E-09	4070454.5	-8.35186710901326E-08
1	10	39.2204399009779	-0.099334716796875	-0.099212646484375	-7.62939453125E-09	7.56932350132189E-10	13004001	-8.52551238494925E-08
1	11	39.3211479007236	-0.089263916015625	-0.0892333984375	1.46484375000006E-08	-1.30712984880432E-09	-6091667	-8.49016856818707E-08
1	12	39.4218559004694	-0.079193115234375	-0.07916259765625	4.18090820312494E-08	-3.30971539064251E-09	-1893430.75	-8.20588255123766E-08
1	13	39.5225639002151	-0.069122314453125	-0.069061279296875	7.41577148437506E-08	-5.12142639408353E-09	-931275.75	-7.62194289904983E-08
1	14	39.6232718999609	-0.059051513671875	-0.058929443359375	1.15966796875E-07	-6.8338583680827E-09	-508157.90625	-6.66459030185251E-08
1	15	39.7239798997066	-0.048980712890625	-0.048858642578125	1.7059326171875E-07	-8.33495494845238E-09	-286404.3125	-5.22164569360939E-08
1	16	39.8246878994523	-0.038909912109375	-0.03876953125	2.45056152343751E-07	-9.5007122169477E-09	-158206.71875	-3.12868486673779E-08
1	17	39.9253958991981	-0.028839111328125	-0.0287384033203125	3.436279296875E-07	-9.87531834084621E-09	-83632.328125	-1.64424895920945E-09
1	18	40.0261038989438	-0.018768310546875	-0.0186370849609375	4.742431640625E-07	-8.83851036803662E-09	-39298.5859375	3.95388326523971E-08
1	19	40.1268118986895	-0.008697509765625	-0.008587646484375	6.40258789062501E-07	-5.49831558060987E-09	-13412.7744140625	9.56584642608505E-08
1	20	40.2275198984353	0.001373291015625	0.00147094726562499	8.4381103515625E-07	1.24120147493301E-09	1743.21887207031	1.70387309594844E-07
1	21	40.328227898181	0.011444091796875	0.011541748046875	1.07757568359375E-06	1.24371073439988E-08	10710.8466796875	2.67136812226454E-07
1	22	40.4289358979267	0.021514892578125	0.02159423828125	1.329345703125E-06	2.87062054127318E-08	16244.2607421875	3.88334939316337E-07
1	23	40.5296438976725	0.031585693359375	0.03167724609375	1.57379150390625E-06	4.98533800907808E-08	20127.982421875	5.34519472239481E-07
1	24	40.6303518974182	0.041656494140625	0.041729736328125	1.78863525390625E-06	7.46392814221508E-08	23330.490234375	7.03831119608367E-07
1	25	40.731059897164	0.051727294921875	0.051727294921875	1.95037841796875E-06	1.0088780300066E-07	26521.671875	8.92105447292124E-07
1	26	40.8317678969097	0.061798095703125	0.061767578125	2.0501708984375E-06	1.26634091657252E-07	30128.013671875	1.09354903088388E-06
1	27	40.9324758966554	0.071868896484375	0.0718994140625	2.08953857421875E-06	1.50236601825782E-07	34409.23046875	1.3019999869357E-06
1	28	41.0331838964012	0.081939697265625	0.082000732421875	2.08038330078125E-06	1.70592940662573E-07	39416.16796875	1.51197230024991E-06
1	29	41.1338918961469	0.092010498046875	0.092010498046875	2.0361328125E-06	1.873455914847E-07	45188.84765625	1.71925535141781E-06
1	30	41.2345998958926	0.102081298828125	0.102142333984375	1.9720458984375E-06	2.01429358526184E-07	51795.11328125	1.92108313967765E-06
1	31	41.3353078956384	0.112152099609375	0.1121826171875	1.89910888671875E-06	2.13047002262101E-07	59071.1875	2.11601127375616E-06
1	32	41.4360158953841	0.122222900390625	0.122222900390625	1.8243408203125E-06	2.22976211716741E-07	66995.65625	2.30350178753724E-06
1	33	41.5367238951299	0.132293701171875	0.132354736328125	1.7529296875E-06	2.3200853149774E-07	75504.875	2.48363176069688E-06
1	34	41.6374318948756	0.142364501953125	0.142425537109375	1.68548583984375E-06	2.40056209577233E-07	84501.1796875	2.65676976596296E-06
1	35	41.7381398946213	0.152435302734375	0.152435302734375	1.624755859375E-06	2.47670129738253E-07	93820.4375	2.82345354207791E-06
1	36	41.8388478943671	0.162506103515625	0.16253662109375	1.56982421875E-06	2.55153935313501E-07	103538.1015625	2.98431336887006E-06
1	37	41.9395558941128	0.172576904296875	0.172607421875	1.5203857421875E-06	2.62429864505975E-07	113528.703125	3.13991790790169E-06
1	38	42.0402638938585	0.182647705078125	0.182647705078125	1.47674560546875E-06	2.69724182544451E-07	123682.5859375	3.29083536598773E-06
1	39	42.1409718936043	0.192718505859375	0.192779541015625	1.43707275390625E-06	2.77038225249271E-07	134147.390625	3.43755777976185E-06
1	40	42.24167989335	0.202789306640625	0.20281982421875	1.4019775390625E-06	2.8434882892725E-07	144666.953125	3.58051534021797E-06
1	41	42.3423878930957	0.212860107421875	0.212860107421875	1.3702392578125E-06	2.91669266516692E-07	155345.21875	3.72010754290386E-06
1	42	42.4430958928415	0.222930908203125	0.222930908203125	1.341552734375E-06	2.99073548148954E-07	166173.796875	3.85665725843864E-06
1	43	42.5438038925872	0.233001708984375	0.233001708984375	1.31591796875E-06	3.06611127598444E-07	177064	3.9904712139105E-06
1	44	42.644511892333	0.243072509765625	0.243072509765625	1.292724609375E-06	3.14225815145619E-07	188031.15625	4.12182680520345E-06
1	45	42.7452198920787	0.253143310546875	0.25311279296875	1.27105712890625E-06	3.21720790452673E-07	199135.671875	4.25092366640456E-06
1	46	42.8459278918244	0.263214111328125	0.263214111328125	1.25213623046875E-06	3.2957990470095E-07	210212.046875	4.37797643826343E-06
1	47	42.9466358915702	0.273284912109375	0.27325439453125	1.234130859375E-06	3.37231682578931E-07	221414.4375	4.50317020295188E-06
1	48	43.0473438913159	0.283355712890625	0.283355712890625	1.21826171875E-06	3.45201414120311E-07	232590.1875	4.6266577555798E-06
1	49	43.1480518910616	0.293426513671875	0.293365478515625	1.2042236328125E-06	3.53277641806926E-07	243613.78125	4.74863963972894E-06
1	50	43.2487598908074	0.303497314453125	0.303497314453125	1.19049072265625E-06	3.61310725338626E-07	254934.640625	4.8692231757741E-06
1	51	43.3494678905531	0.313568115234375	0.31353759765625	1.17889404296875E-06	3.69627571217279E-07	265959.125	4.98853114550002E-06
1	52	43.4501758902989	0.323638916015625	0.323638916015625	1.1676025390625E-06	3.77881605118091E-07	277182.4375	5.1066867854388E-06
1	53	43.5508838900446	0.333709716796875	0.33367919921875	1.1578369140625E-06	3.86346073355526E-07	288191.875	5.22378195455531E-06
1	54	43.6515918897903	0.343780517578125	0.34381103515625	1.14837646484375E-06	3.94824496652291E-07	299388.78125	5.33990896656178E-06
1	55	43.7522998895361	0.353851318359375	0.353851318359375	1.14013671875E-06	4.03438860985261E-07	310358.6875	5.45514467376051E-06
1	56	43.8530078892818	0.363922119140625	0.363922119140625	1.1334228515625E-06	4.12477646705156E-07	321082.375	5.56962731934618E-06
1	57	43.9537158890275	0.373992919921875	0.373992919921875	1.12701416015625E-06	4.21495286673235E-07	331844.03125	5.68344967177836E-06
1	58	44.0544238887733	0.384063720703125	0.384033203125	1.12152099609375E-06	4.30701305731418E-07	342421.78125	5.79667221245472E-06
1	59	44.155131888519	0.394134521484375	0.3941650390625	1.116943359375E-06	4.40259981360214E-07	352896.1875	5.90938770983485E-06
1	60	44.2558398882647	0.404205322265625	0.4041748046875	1.11236572265625E-06	4.49590174866898E-07	363347.0625	6.02164254814852E-06
1	61	44.3565478880105	0.414276123046875	0.414215087890625	1.10931396484375E-06	4.59494600590915E-07	373397.53125	6.1335131249507E-06
1	62	44.4572558877562	0.424346923828125	0.42437744140625	1.10595703125E-06	4.6934320607761E-07	383719.65625	6.24506083113374E-06
1	63	44.557963887502	0.434417724609375	0.43438720703125	1.1041259765625E-06	4.7961822247089E-07	393421.78125	6.35634705759003E-06
1	64	44.6586718872477	0.444488525390625	0.4444580078125	1.1016845703125E-06	4.89652506985294E-07	403434.90625	6.4674186432967E-06
1	65	44.7593798869934	0.454559326171875	0.454559326171875	1.1004638671875E-06	5.00226065014431E-07	413061.59375	6.5783056015789E-06
1	66	44.8600878867392	0.464630126953125	0.464630126953125	1.0992431640625E-06	5.10741472226073E-07	422681.84375	6.68906977807637E-06
1	67	44.9607958864849	0.474700927734375	0.474639892578125	1.09893798828125E-06	5.21599815783702E-07	431907.78125	6.79975664752419E-06
1	68	45.0615038862306	0.484771728515625	0.484710693359375	1.0986328125E-06	5.32519038642931E-07	441194.46875	6.91041350364685E-06
1	69	45.1622118859764	0.494842529296875	0.494781494140625	1.099853515625E-06	5.44187173545652E-07	449861.25	7.0211158345046E-06
1	70	45.2629198857221	0.504913330078125	0.504852294921875	1.10076904296875E-06	5.55725762296788E-07	458635.96875	7.13192594048451E-06
1	71	45.3636278854678	0.514984130859375	0.51495361328125	1.10321044921875E-06	5.68102166198514E-07	466777.34375	7.24290521247895E-06
1	72	45.4643358852136	0.525054931640625	0.525054931640625	1.1053466796875E-06	5.80367725433462E-07	475013.8125	7.35411504138028E-06
1	73	45.5650438849593	0.535125732421875	0.535125732421875	1.10870361328125E-06	5.93295851558651E-07	482658.96875	7.46560135667096E-06
1	74	45.6657518847051	0.545196533203125	0.545135498046875	1.11236572265625E-06	6.06390017310332E-07	490068.59375	7.57744101065327E-06
1	75	45.7664598844508	0.555267333984375	0.555145263671875	1.11724853515625E-06	6.20235255155421E-07	496886.09375	7.68971131037688E-06
1	76	45.8671678841965	0.565338134765625	0.565277099609375	1.123046875E-06	6.34832701962296E-07	503342.375	7.80251866672188E-06
1	77	45.9678758839423	0.575408935546875	0.57537841796875	1.13006591796875E-06	6.5021555428757E-07	509154.75	7.91597176430514E-06
1	78	46.068583883688	0.585479736328125	0.585479736328125	1.13861083984375E-06	6.66633582113718E-07	514205.3125	8.03020884632133E-06
1	79	46.1692918834337	0.595550537109375	0.59552001953125	1.14990234375E-06	6.8478988168863E-07	517887.46875	8.14544455352006E-06
1	80	46.2699998831795	0.605621337890625	0.605560302734375	1.163330078125E-06	7.04466458500974E-07	520540.4375	8.26192535896553E-06
1	81	46.3707078829252	0.615692138671875	0.61566162109375	1.18133544921875E-06	7.27302847280953E-07	521157.34375	8.37998868519207E-06
1	82	46.471415882671	0.625762939453125	0.625762939453125	1.204833984375E-06	7.53940469166992E-07	519376.875	8.5001420302433E-06
1	83	46.5721238824167	0.635833740234375	0.63580322265625	1.2371826171875E-06	7.86604687164072E-07	513912.21875	8.6231066234177E-06
1	84	46.6728318821624	0.645904541015625	0.64581298828125	1.27899169921875E-06	8.25989445729647E-07	504939.15625	8.74980651133228E-06
1	85	46.7735398819082	0.655975341796875	0.6558837890625	1.3330078125E-06	8.74298166309018E-07	492033	8.88133126863977E-06
1	86	46.8742478816539	0.666046142578125	0.66595458984375	1.3983154296875E-06	9.31214515276224E-07	476254.9375	9.01886414794717E-06
1	87	46.9749558813996	0.676116943359375	0.676055908203125	1.47216796875E-06	9.9526778285508E-07	459224.71875	9.16340468393173E-06
1	88	47.0756638811454	0.686187744140625	0.68603515625	1.5478515625E-06	1.06188053905498E-06	443217.6875	9.31547401705757E-06
1	89	47.1763718808911	0.696258544921875	0.696136474609375	1.61712646484375E-06	1.12574059585313E-06	430477.46875	9.47484386415454E-06
1	90	47.2770798806368	0.706329345703125	0.706268310546875	1.6729736328125E-06	1.1815682228189E-06	422163.46875	9.64051378105069E-06
1	91	47.3777878803826	0.716400146484375	0.716339111328125	1.710205078125E-06	1.22508674849087E-06	418861.53125	9.81087032414507E-06
1	92	47.4784958801283	0.726470947265625	0.72637939453125	1.7291259765625E-06	1.25600149658567E-06	420084.71875	9.98405448626727E-06
1	93	47.5792038798741	0.736541748046875	0.7364501953125	1.73248291015625E-06	1.27588725717942E-06	425083.6875	1.01583600553568E-05
1	94	47.6799118796198	0.746612548828125	0.746490478515625	1.72454833984375E-06	1.28735882753972E-06	432861.46875	1.03324355222867E-05
1	95	47.7806198793655	0.756683349609375	0.75714111328125	1.70989990234375E-06	1.29463546727493E-06	442798.53125	1.05053732113447E-05
1	96	47.8813278791113	0.766754150390625	0.76690673828125	1.69158935546875E-06	1.29729119180411E-06	453364.625	1.06766519820667E-05
1	97	47.982035878857	0.776824951171875	0.77667236328125	1.67327880859375E-06	1.29958937122865E-06	464161.96875	1.08460862975335E-05
1	98	48.0827438786027	0.786895751953125	0.78704833984375	1.65618896484375E-06	1.30350076688046E-06	475216.53125	1.10137389128795E-05
1	99	48.1834518783485	0.796966552734375	0.79681396484375	1.64154052734375E-06	1.30800242459372E-06	485406.21875	1.11797926365398E-05
1	100	48.2841598780942	0.807037353515625	0.8074951171875	1.62933349609375E-06	1.31567878725036E-06	495598.4375	1.13444939415785E-05
1	101	48.38486787784	0.817108154296875	0.8172607421875	1.619873046875E-06	1.32385866891127E-06	504521.46875	1.15081047624699E-05
1	102	48.4855758775857	0.827178955078125	0.82763671875	1.61376953125E-06	1.33561491111323E-06	512859.3125	1.16709315989283E-05
1	103	48.5862838773314	0.837249755859375	0.83770751953125	1.60980224609375E-06	1.34854337829893E-06	520379.15625	1.18332509373431E-05
1	104	48.6869918770772	0.847320556640625	0.84747314453125	1.60797119140625E-06	1.36271239625785E-06	527045	1.19952792374534E-05
1	105	48.7876998768229	0.857391357421875	0.8575439453125	1.60736083984375E-06	1.37838253522204E-06	533510.5625	1.21571838462842E-05
1	106	48.8884078765686	0.867462158203125	0.8673095703125	1.60736083984375E-06	1.39407939059311E-06	539586.125	1.23190575322951E-05
1	107	48.9891158763144	0.877532958984375	0.8770751953125	1.60797119140625E-06	1.410311597283E-06	545454.5625	1.24809630506206E-05
1	108	49.0898238760601	0.887603759765625	0.88714599609375	1.60736083984375E-06	1.42596366004E-06	551927.125	1.26428676594514E-05
1	109	49.1905318758058	0.897674560546875	0.89752197265625	1.6070556640625E-06	1.44236776122852E-06	558488.4375	1.28047258840525E-05
1	110	49.2912398755516	0.907745361328125	0.90850830078125	1.60675048828125E-06	1.45974604492949E-06	565432.125	1.29665540953283E-05
1	111	49.3919478752973	0.917816162109375	0.91766357421875	1.6064453125E-06	1.47417631524149E-06	571238.625	1.31283513837843E-05
1	112	49.4926558750431	0.927886962890625	0.92803955078125	1.6070556640625E-06	1.49141123984009E-06	577478.1875	1.32901641336503E-05
1	113	49.5933638747888	0.937957763671875	0.93780517578125	1.60919189453125E-06	1.50910841512086E-06	582780.25	1.34521151267109E-05
1	114	49.6940718745345	0.948028564453125	0.94818115234375	1.6131591796875E-06	1.52956715737673E-06	587779.0625	1.36143735289807E-05
1	115	49.7947798742803	0.958099365234375	0.95794677734375	1.619873046875E-06	1.55175212057657E-06	591371.5	1.37771694426192E-05
1	116	49.895487874026	0.968170166015625	0.96832275390625	1.62994384765625E-06	1.57831163960509E-06	594083.5625	1.39408102768357E-05
1	117	49.9961958737717	0.978240966796875	0.97808837890625	1.64337158203125E-06	1.60736260568228E-06	595171.8125	1.41056352731539E-05
1	118	50.0969038735175	0.988311767578125	0.98846435546875	1.6607666015625E-06	1.64160849180917E-06	595185.625	1.42720118674333E-05
1	119	50.1976118732632	0.998382568359375	0.9979248046875	1.6815185546875E-06	1.67802897976799E-06	593466.4375	1.44403093145229E-05
1	120	50.2983198730089	1.00845336914063	1.00860595703125	1.7041015625E-06	1.71876683907612E-06	591869.6875	1.4610788639402E-05
1	121	50.3990278727547	1.01852416992188	1.01776123046875	1.72698974609375E-06	1.75766319898685E-06	589326.75	1.47835580719402E-05
1	122	50.4997358725004	1.02859497070313	1.0284423828125	1.7462158203125E-06	1.79588221271842E-06	588954.9375	1.49584475366282E-05
1	123	50.6004438722462	1.03866577148438	1.03851318359375	1.76177978515625E-06	1.8296314010513E-06	589468.25	1.51350895976066E-05
1	124	50.7011518719919	1.04873657226563	1.04827880859375	1.7706298828125E-06	1.85611372671701E-06	592037.25	1.5312960385927E-05
1	125	50.8018598717376	1.05880737304688	1.0589599609375	1.7742919921875E-06	1.87890407232771E-06	596835.25	1.54914614540758E-05
1	126	50.9025678714834	1.06887817382813	1.06903076171875	1.77337646484375E-06	1.89579395737383E-06	602822.25	1.56701007654192E-05
1	127	51.0032758712291	1.07894897460938	1.0797119140625	1.76971435546875E-06	1.91078174793802E-06	610105.1875	1.58485090651084E-05
1	128	51.1039838709748	1.08901977539063	1.08917236328125	1.76483154296875E-06	1.92220568351331E-06	617153.75	1.60264880832983E-05
1	129	51.2046918707206	1.09909057617188	1.09954833984375	1.759033203125E-06	1.93414189197938E-06	625086.75	1.62039286806248E-05
1	130	51.3053998704663	1.10916137695313	1.1090087890625	1.7535400390625E-06	1.94469134839892E-06	632440	1.6380799934268E-05
1	131	51.4061078702121	1.11923217773438	1.119384765625	1.74774169921875E-06	1.95639540834236E-06	640474.9375	1.65571036632173E-05
1	132	51.5068158699578	1.12930297851563	1.129150390625	1.74407958984375E-06	1.9693281956279E-06	647419.0625	1.67329308169428E-05
1	133	51.6075238697035	1.13937377929688	1.13922119140625	1.74102783203125E-06	1.98341581381101E-06	654338.3125	1.69084196386393E-05
1	134	51.7082318694493	1.14944458007813	1.14898681640625	1.7388916015625E-06	1.99796340893954E-06	660758.1875	1.70836483448511E-05
1	135	51.808939869195	1.15951538085938	1.15966796875	1.73797607421875E-06	2.01547504730115E-06	667252	1.72587224369636E-05
1	136	51.9096478689407	1.16958618164063	1.16943359375	1.73797607421875E-06	2.03244758267829E-06	672870.9375	1.7433751054341E-05
1	137	52.0103558686865	1.17965698242188	1.17950439453125	1.7401123046875E-06	2.05247010853782E-06	677832.375	1.76088869920932E-05
1	138	52.1110638684322	1.18972778320313	1.18927001953125	1.74163818359375E-06	2.07127800422313E-06	682845.625	1.77842066477751E-05
1	139	52.2117718681779	1.19979858398438	1.19964599609375	1.74530029296875E-06	2.09374229598325E-06	687357.9375	1.79597882379312E-05
1	140	52.3124798679237	1.20986938476563	1.209716796875	1.749267578125E-06	2.11611836675729E-06	691556.1875	1.81357536348514E-05
1	141	52.4131878676694	1.21994018554688	1.21978759765625	1.75445556640625E-06	2.14006308851822E-06	695251.375	1.83121792360907E-05
1	142	52.5138958674152	1.23001098632813	1.2298583984375	1.75994873046875E-06	2.16448756873433E-06	698803.5625	1.84891432581935E-05
1	143	52.6146038671609	1.24008178710938	1.2396240234375	1.76727294921875E-06	2.19075400309521E-06	701433.25	1.86667530215345E-05
1	144	52.7153118669066	1.25015258789063	1.25	1.77459716796875E-06	2.21824643631408E-06	704385.25	1.88451012945734E-05
1	145	52.8160198666524	1.26022338867188	1.26068115234375	1.7822265625E-06	2.24681934923865E-06	707363.0625	1.90242008102359E-05
1	146	52.9167278663981	1.27029418945313	1.2701416015625	1.790771484375E-06	2.2745332444174E-06	709270.625	1.92041152331512E-05
1	147	53.0174358661438	1.28036499023438	1.28021240234375	1.79962158203125E-06	2.30389764510619E-06	711378.6875	1.93849064089591E-05
1	148	53.1181438658896	1.29043579101563	1.29058837890625	1.8096923828125E-06	2.33556784223765E-06	713153.5	1.95666507352144E-05
1	149	53.2188518656353	1.30050659179688	1.30035400390625	1.81976318359375E-06	2.3663362753723E-06	714573.1875	1.97494082385674E-05
1	150	53.3195598653811	1.31057739257813	1.31072998046875	1.83074951171875E-06	2.39961832448898E-06	715952.6875	1.99332262127427E-05
1	151	53.4202678651268	1.32064819335938	1.32049560546875	1.8426513671875E-06	2.4332130124094E-06	716628.0625	2.01181956072105E-05
1	152	53.5209758648725	1.33071899414063	1.3311767578125	1.85577392578125E-06	2.47036314249272E-06	717316.25	2.03044255613349E-05
1	153	53.6216838646183	1.34078979492188	1.34033203125	1.8695068359375E-06	2.50575999416469E-06	716944.1875	2.04920088435756E-05
1	154	53.722391864364	1.35086059570313	1.35040283203125	1.88446044921875E-06	2.54478072747588E-06	716599.1875	2.06810364034027E-05
1	155	53.8230998641097	1.36093139648438	1.3604736328125	1.90093994140625E-06	2.58617865256383E-06	715684.75	2.08716464840109E-05
1	156	53.9238078638555	1.37100219726563	1.37115478515625	1.920166015625E-06	2.63284459833812E-06	714081.4375	2.10640537261497E-05
1	157	54.0245158636012	1.38107299804688	1.3812255859375	1.94244384765625E-06	2.68295298155863E-06	711076.25	2.12585528061027E-05
1	158	54.1252238633469	1.39114379882813	1.3909912109375	1.9683837890625E-06	2.73800446848327E-06	706666.6875	2.14554784179199E-05
1	159	54.2259318630927	1.40121459960938	1.40106201171875	1.99859619140625E-06	2.80015729003935E-06	701023.0625	2.16552307392703E-05
1	160	54.3266398628384	1.41128540039063	1.4111328125	2.034912109375E-06	2.87153125100303E-06	693461.3125	2.18583354580915E-05
1	161	54.4273478625842	1.42135620117188	1.4215087890625	2.0770263671875E-06	2.95251106763317E-06	684396.1875	2.20653873839183E-05
1	162	54.5280558623299	1.43142700195313	1.4312744140625	2.1295166015625E-06	3.04792251881736E-06	672112.375	2.2277203242993E-05
1	163	54.6287638620756	1.44149780273438	1.441650390625	2.19268798828125E-06	3.16108958031691E-06	657480.875	2.24948435061378E-05
1	164	54.7294718618214	1.45156860351563	1.45172119140625	2.2735595703125E-06	3.30057446262799E-06	638523.5625	2.2719737899024E-05
1	165	54.8301798615671	1.46163940429688	1.4617919921875	2.37060546875E-06	3.46533215633826E-06	616632.375	2.29535889957333E-05
1	166	54.9308878613128	1.47171020507813	1.47186279296875	2.48626708984375E-06	3.65944401892193E-06	591997.0625	2.319815212104E-05
1	167	55.0315958610586	1.48178100585938	1.48162841796875	2.61932373046875E-06	3.88086436942103E-06	565653.0625	2.34552389883902E-05
1	168	55.1323038608043	1.49185180664063	1.49139404296875	2.76947021484375E-06	4.13037150792661E-06	538512.375	2.37265867326641E-05
1	169	55.2330118605501	1.50192260742188	1.50177001953125	2.9339599609375E-06	4.40613302998827E-06	511857.71875	2.4013777874643E-05
1	170	55.3337198602958	1.49185180664063	1.49169921875	2.55706787109375E-06	3.8143759866216E-06	583363.1875	2.42902715399396E-05
1	171	55.4344278600415	1.48178100585938	1.48162841796875	2.28240966796875E-06	3.38168297275843E-06	649150.9375	2.45339597313432E-05
1	172	55.5351358597873	1.47171020507813	1.47186279296875	2.06634521484375E-06	3.04137643070135E-06	712302.5	2.47529369516997E-05
1	173	55.635843859533	1.46163940429688	1.46209716796875	1.8914794921875E-06	2.76552668765362E-06	772991.3125	2.4952229068731E-05
1	174	55.7365518592787	1.45156860351563	1.45172119140625	1.74713134765625E-06	2.53634743785369E-06	830917.0625	2.51354467764031E-05
1	175	55.8372598590245	1.44149780273438	1.441650390625	1.6265869140625E-06	2.34496951634355E-06	886304	2.53053276537685E-05
1	176	55.9379678587702	1.43142700195313	1.4312744140625	1.5252685546875E-06	2.18307786781224E-06	938375.375	2.54640362982173E-05
1	177	56.0386758585159	1.42135620117188	1.42120361328125	1.4404296875E-06	2.04714388019056E-06	986652.5625	2.56133716902696E-05
1	178	56.1393838582617	1.41128540039063	1.41082763671875	1.36810302734375E-06	1.93015739569091E-06	1031229.125	2.5754792659427E-05
1	179	56.2400918580074	1.40121459960938	1.4007568359375	1.30645751953125E-06	1.83002930498333E-06	1072179.375	2.58894669968868E-05
1	180	56.3407998577532	1.39114379882813	1.39129638671875	1.253662109375E-06	1.74421552401327E-06	1109785.875	2.60183787759161E-05
1	181	56.4415078574989	1.38107299804688	1.3812255859375	1.20849609375E-06	1.66920574429241E-06	1142929.25	2.61423592746723E-05
1	182	56.5422158572446	1.37100219726563	1.37115478515625	1.16851806640625E-06	1.60221907208324E-06	1173413.5	2.62620505964151E-05
1	183	56.6429238569904	1.36093139648438	1.3604736328125	1.134033203125E-06	1.54282213316037E-06	1199677.125	2.63779929809971E-05
1	184	56.7436318567361	1.35086059570313	1.3507080078125	1.10443115234375E-06	1.49176401009754E-06	1222989.75	2.64907084783772E-05
1	185	56.8443398564818	1.34078979492188	1.3409423828125	1.07818603515625E-06	1.44578530125727E-06	1243702.375	2.66006118181394E-05
1	186	56.9450478562276	1.33071899414063	1.33087158203125	1.05499267578125E-06	1.40405961701617E-06	1261498.5	2.67080267803976E-05
1	187	57.0457558559733	1.32064819335938	1.32080078125	1.03485107421875E-06	1.36683206619637E-06	1276319.75	2.68132589553716E-05
1	188	57.146463855719	1.31057739257813	1.31011962890625	1.0162353515625E-06	1.3313897397893E-06	1289189.25	2.69165393547155E-05
1	189	57.2471718554648	1.30050659179688	1.30096435546875	9.9945068359375E-07	1.30024966438214E-06	1301679.375	2.7018037144444E-05
1	190	57.3478798552105	1.29043579101563	1.29058837890625	9.8419189453125E-07	1.27018654438871E-06	1311317.875	2.71179214905715E-05
1	191	57.4485878549563	1.28036499023438	1.28082275390625	9.69848632812501E-07	1.2422042345861E-06	1320641.875	2.72163142653881E-05
1	192	57.549295854702	1.27029418945313	1.2701416015625	9.552001953125E-07	1.21323955681873E-06	1329712.375	2.7313248210703E-05
1	193	57.6500038544477	1.26022338867188	1.2603759765625	9.429931640625E-07	1.1885259709743E-06	1336569.625	2.74088306468911E-05
1	194	57.7507118541935	1.25015258789063	1.25030517578125	9.30175781250001E-07	1.16300361696631E-06	1344160.125	2.75031525234226E-05
1	195	57.8514198539392	1.24008178710938	1.24053955078125	9.1827392578125E-07	1.13915507427009E-06	1350947.25	2.75962283922127E-05
1	196	57.9521278536849	1.23001098632813	1.23016357421875	9.06982421874999E-07	1.11573672256782E-06	1356325.75	2.7688138288795E-05
1	197	58.0528358534307	1.21994018554688	1.22039794921875	8.9599609375E-07	1.09347183752107E-06	1362057.25	2.7778924049926E-05
1	198	58.1535438531764	1.20986938476563	1.21002197265625	8.85620117187499E-07	1.07161974938208E-06	1366299.125	2.78686366073089E-05
1	199	58.2542518529222	1.19979858398438	1.19964599609375	8.75244140625001E-07	1.04998309780058E-06	1370641.625	2.79573032457847E-05
1	200	58.3549598526679	1.18972778320313	1.18927001953125	8.648681640625E-07	1.02856176908972E-06	1375088.25	2.80449239653535E-05
1	201	58.4556678524136	1.17965698242188	1.1798095703125	8.55102539062499E-07	1.00885813481E-06	1379728.75	2.81315315078245E-05
1	202	58.5563758521594	1.16958618164063	1.16943359375	8.453369140625E-07	9.88565375337203E-07	1383393.5	2.82171549770283E-05
1	203	58.6570838519051	1.15951538085938	1.15936279296875	8.349609375E-07	9.68022618508257E-07	1388523.375	2.83017652691342E-05
1	204	58.7577918516508	1.14944458007813	1.14959716796875	8.2550048828125E-07	9.48993033489387E-07	1392606.25	2.83853769360576E-05
1	205	58.8584998513966	1.13937377929688	1.1395263671875	8.14208984375001E-07	9.27812607187661E-07	1399550.25	2.84679426840739E-05
1	206	58.9592078511423	1.12930297851563	1.12945556640625	8.03527832031251E-07	9.07548951545323E-07	1405621	2.85494024865329E-05
1	207	59.059915850888	1.11923217773438	1.119384765625	7.9193115234375E-07	8.8647567508815E-07	1413487.5	2.86297399725299E-05
1	208	59.1606238506338	1.10916137695313	1.1090087890625	7.7972412109375E-07	8.64720846038836E-07	1422309.25	2.870887874451E-05
1	209	59.2613318503795	1.09909057617188	1.0992431640625	7.659912109375E-07	8.42010592805309E-07	1435059.75	2.87867114820983E-05
1	210	59.3620398501253	1.08901977539063	1.0894775390625	7.50732421875E-07	8.17906084193964E-07	1451219.5	2.8863085390185E-05
1	211	59.462747849871	1.07894897460938	1.0791015625	7.3272705078125E-07	7.90686840446142E-07	1472719.75	2.89377821900416E-05
1	212	59.5634558496167	1.06887817382813	1.0693359375	7.11669921874999E-07	7.61014177896868E-07	1502573	2.90105144813424E-05
1	213	59.6641638493625	1.05880737304688	1.05865478515625	6.87255859375E-07	7.27566714431305E-07	1540408.5	2.90809548459947E-05
1	214	59.7648718491082	1.04873657226563	1.048583984375	6.5887451171875E-07	6.90885258336493E-07	1591477.5	2.91487394861178E-05
1	215	59.8655798488539	1.03866577148438	1.038818359375	6.2744140625E-07	6.51797677164723E-07	1655642	2.92135100607993E-05
1	216	59.9662878485997	1.02859497070313	1.0284423828125	5.9478759765625E-07	6.1170476328698E-07	1729091.875	2.92750537482789E-05
1	217	60.0669958483454	1.01852416992188	1.01806640625	5.63659667968749E-07	5.73842953599524E-07	1806172.25	2.93333869194612E-05
1	218	60.1677038480912	1.00845336914063	1.00860595703125	5.35888671875E-07	5.40500479928596E-07	1882118.5	2.93887533189263E-05
1	219	60.2684118478369	0.998382568359375	0.99853515625	5.13610839843751E-07	5.12858434831287E-07	1944147.5	2.94415985990781E-05
1	220	60.3691198475826	0.988311767578125	0.98846435546875	4.96826171875001E-07	4.91094908738887E-07	1989557.875	2.94924793706741E-05
1	221	60.4698278473284	0.978240966796875	0.9783935546875	4.852294921875E-07	4.74745377232466E-07	2016352.375	2.95419285976095E-05
1	222	60.5705358470741	0.968170166015625	0.9686279296875	4.78210449218749E-07	4.63207982193126E-07	2025526.5	2.95904428639915E-05
1	223	60.6712438468198	0.958099365234375	0.95855712890625	4.73937988281251E-07	4.54296610996607E-07	2022537.125	2.96383877866901E-05
1	224	60.7719518465656	0.948028564453125	0.94757080078125	4.70581054687499E-07	4.45908881374635E-07	2013618.625	2.96859470836353E-05
1	225	60.8726598463113	0.937957763671875	0.9381103515625	4.6844482421875E-07	4.39452946920937E-07	2002605.875	2.97332317131804E-05
1	226	60.973367846057	0.927886962890625	0.92803955078125	4.656982421875E-07	4.32186368470866E-07	1992791.625	2.97802689601667E-05
1	227	61.0740758458028	0.917816162109375	0.91766357421875	4.6234130859375E-07	4.24273764565442E-07	1984818.5	2.98269987979438E-05
1	228	61.1747838455485	0.907745361328125	0.90728759765625	4.5806884765625E-07	4.15600169390018E-07	1980679.625	2.98733448289568E-05
1	229	61.2754918452943	0.897674560546875	0.89752197265625	4.52270507812499E-07	4.05922691015803E-07	1984480.5	2.99191851809155E-05
1	230	61.37619984504	0.887603759765625	0.88775634765625	4.45556640625E-07	3.95545725950797E-07	1992465.875	2.99643943435512E-05
1	231	61.4769078447857	0.877532958984375	0.87738037109375	4.37316894531251E-07	3.83693247840711E-07	2006280.625	3.00088504445739E-05
1	232	61.5776158445315	0.867462158203125	0.86761474609375	4.27856445312499E-07	3.71214554206745E-07	2027817.5	3.00524152407888E-05
1	233	61.6783238442772	0.857391357421875	0.85784912109375	4.1839599609375E-07	3.58920630105786E-07	2050328.25	3.00950268865563E-05
1	234	61.7790318440229	0.847320556640625	0.8477783203125	4.1015625E-07	3.47721567095505E-07	2066964.25	3.01367490465054E-05
1	235	61.8797398437687	0.837249755859375	0.83770751953125	4.02221679687501E-07	3.36944111722914E-07	2082701.125	3.01776544802124E-05
1	236	61.9804478435144	0.827178955078125	0.8270263671875	3.948974609375E-07	3.26590594568188E-07	2094281.375	3.0217792300391E-05
1	237	62.0811558432601	0.817108154296875	0.81756591796875	3.88183593749999E-07	3.17365675073233E-07	2106132	3.02572243526811E-05
1	238	62.1818638430059	0.807037353515625	0.806884765625	3.814697265625E-07	3.07802082488706E-07	2115200.25	3.0295979740913E-05
1	239	62.2825718427516	0.796966552734375	0.797119140625	3.7353515625E-07	2.97752023925568E-07	2133987	3.03339966194471E-05
1	240	62.3832798424974	0.786895751953125	0.78704833984375	3.6346435546875E-07	2.86064022247956E-07	2165407.25	3.03711076412583E-05
1	241	62.4839878422431	0.776824951171875	0.77728271484375	3.5064697265625E-07	2.72551829993972E-07	2216710.25	3.04070654237876E-05
1	242	62.5846958419888	0.766754150390625	0.76629638671875	3.3294677734375E-07	2.55135915949722E-07	2301558.25	3.04414879792603E-05
1	243	62.6854038417346	0.756683349609375	0.75714111328125	3.08837890624999E-07	2.33833858942489E-07	2451581	3.04738041450037E-05
1	244	62.7861118414803	0.746612548828125	0.746490478515625	2.75268554687499E-07	2.05485349624723E-07	2711862.5	3.0503217203659E-05
1	245	62.886819841226	0.736541748046875	0.7364501953125	2.30712890625E-07	1.69908545899489E-07	3192063.5	3.05286957882345E-05
1	246	62.9875278409718	0.726470947265625	0.726409912109375	1.739501953125E-07	1.26359140040222E-07	4175965.25	3.0549072107533E-05
1	247	63.0882358407175	0.716400146484375	0.71630859375	1.04675292968751E-07	7.49798090282638E-08	6843149	3.05631001538131E-05
1	248	63.1889438404633	0.706329345703125	0.70623779296875	2.65502929687494E-08	1.87508195637065E-08	26600000	3.05697103613056E-05
1	249	63.289651840209	0.696258544921875	0.69610595703125	-5.67626953124997E-08	-3.95128481045504E-08	-12263441	3.05681860481855E-05
1	250	63.3903598399547	0.686187744140625	0.6861572265625	-1.35192871093751E-07	-9.27635568359619E-08	-5075395.5	3.0558519938495E-05
1	251	63.4910678397005	0.676116943359375	0.676055908203125	-1.995849609375E-07	-1.34930587591953E-07	-3387309	3.05416651826818E-05
1	252	63.5917758394462	0.666046142578125	0.666015625	-2.4566650390625E-07	-1.63617713155872E-07	-2711056	3.05192443192936E-05
1	253	63.6924838391919	0.655975341796875	0.655914306640625	-2.70690917968749E-07	-1.77550049329511E-07	-2423111.5	3.04932436847594E-05
1	254	63.7931918389377	0.645904541015625	0.645904541015625	-2.75573730468751E-07	-1.77994309069618E-07	-2343854	3.04657369269989E-05
1	255	63.8938998386834	0.635833740234375	0.635772705078125	-2.6580810546875E-07	-1.68993537386086E-07	-2391848.5	3.0438475732808E-05
1	256	63.9946078384291	0.625762939453125	0.625732421875	-2.44750976562499E-07	-1.53148619119747E-07	-2556608.5	3.04127679555677E-05
1	257	64.0953158381749	0.615692138671875	0.61566162109375	-2.17590332031251E-07	-1.33962018367129E-07	-2829453	3.03894867101917E-05
1	258	64.1960238379206	0.605621337890625	0.6055908203125	-1.8585205078125E-07	-1.12550289088631E-07	-3258456.5	3.03691722365329E-05
1	259	64.2967318376664	0.595550537109375	0.595550537109375	-1.51977539062501E-07	-9.05102979231742E-08	-3918675	3.03521610476309E-05
1	260	64.3974398374121	0.585479736328125	0.58544921875	-1.1871337890625E-07	-6.95006505679885E-08	-4931620	3.03385295410408E-05
1	261	64.4981478371578	0.575408935546875	0.57537841796875	-8.88061523437497E-08	-5.10971425171647E-08	-6479037.5	3.03280812659068E-05
1	262	64.5988558369036	0.565338134765625	0.565277099609375	-6.50024414062506E-08	-3.67443888649177E-08	-8696244	3.03203360090265E-05
1	263	64.6995638366493	0.555267333984375	0.55523681640625	-4.57763671875E-08	-2.54167247248915E-08	-12129333	3.03147571685258E-05
1	264	64.800271836395	0.545196533203125	0.545166015625	-2.99072265625006E-08	-1.63044031609161E-08	-18228572	3.03109463857254E-05
1	265	64.9009798361408	0.535125732421875	0.535125732421875	-1.64794921875003E-08	-8.81860007240221E-09	-32472224	3.03086108033312E-05
1	266	65.0016878358865	0.525054931640625	0.5250244140625	-4.57763671875E-09	-2.40337083567965E-09	-114693336	3.0307550332509E-05
1	267	65.1023958356323	0.514984130859375	0.51495361328125	5.18798828124945E-09	2.67157340694268E-09	99258824	3.03075812553288E-05
1	268	65.203103835378	0.504913330078125	0.504913330078125	1.40380859374997E-08	7.08801639603962E-09	35967392	3.03085489576915E-05
1	269	65.3038118351237	0.494842529296875	0.4947509765625	2.19726562499994E-08	1.08709921065042E-08	22516668	3.03103624901269E-05
1	270	65.4045198348695	0.484771728515625	0.4847412109375	2.86865234375003E-08	1.39055398307164E-08	16897872	3.03129127132706E-05
1	271	65.5052278346152	0.474700927734375	0.474639892578125	3.47900390625003E-08	1.65127396201115E-08	13642983	3.03161104966421E-05
1	272	65.6059358343609	0.464630126953125	0.464599609375	3.99780273437497E-08	1.8573775406594E-08	11621374	3.0319873985718E-05
1	273	65.7066438341067	0.454559326171875	0.454559326171875	4.45556640624997E-08	2.02531911241977E-08	10202055	3.03241322399117E-05
1	274	65.8073518338524	0.444488525390625	0.444488525390625	4.85229492187503E-08	2.15678941373199E-08	9160377	3.03288179566152E-05
1	275	65.9080598335981	0.434417724609375	0.434417724609375	5.21850585937497E-08	2.26701146743835E-08	8324561.5	3.03338892990723E-05
1	276	66.0087678333439	0.424346923828125	0.42431640625	5.52368164062497E-08	2.34378862984386E-08	7681768.5	3.03392989735585E-05
1	277	66.1094758330896	0.414276123046875	0.414306640625	5.76782226562503E-08	2.38964705800981E-08	7183069	3.03449833154446E-05
1	278	66.2101838328354	0.404205322265625	0.4041748046875	5.98144531249997E-08	2.41754953833606E-08	6757143	3.03509004879743E-05
1	279	66.3108918325811	0.394134521484375	0.39410400390625	6.22558593750003E-08	2.45352822503264E-08	6330392.5	3.03570468531689E-05
1	280	66.4115998323268	0.384063720703125	0.384063720703125	6.40869140625E-08	2.46134579384716E-08	5992857.5	3.03634096781025E-05
1	281	66.5123078320726	0.373992919921875	0.37396240234375	6.59179687499997E-08	2.46508413681568E-08	5673148.5	3.03699544019764E-05
1	282	66.6130158318183	0.363922119140625	0.3638916015625	6.77490234374994E-08	2.46532998460225E-08	5371171.5	3.0376686481759E-05
1	283	66.713723831564	0.353851318359375	0.353851318359375	6.92749023437495E-08	2.45130156173445E-08	5107929.5	3.03835859085666E-05
1	284	66.8144318313098	0.343780517578125	0.343780517578125	7.11059570312506E-08	2.4444842594562E-08	4834764	3.03906545013888E-05
1	285	66.9151398310555	0.333709716796875	0.333709716796875	7.171630859375E-08	2.39324293715981E-08	4653191.5	3.03978467854904E-05
1	286	67.0158478308012	0.323638916015625	0.32366943359375	7.32421875E-08	2.37062565133783E-08	4419167	3.04051445709774E-05
1	287	67.116555830547	0.313568115234375	0.3135986328125	7.38525390624995E-08	2.31600552069722E-08	4246281	3.04125514958287E-05
1	288	67.2172638302927	0.303497314453125	0.303436279296875	7.41577148437506E-08	2.2502140595293E-08	4091769.75	3.04200057144044E-05
1	289	67.3179718300385	0.293426513671875	0.29345703125	7.41577148437506E-08	2.17621014542146E-08	3957201.75	3.0427472665906E-05
1	290	67.4186798297842	0.283355712890625	0.283355712890625	7.38525390624995E-08	2.09265387240976E-08	3836776.75	3.04349268844817E-05
1	291	67.5193878295299	0.273284912109375	0.27325439453125	7.35473632812497E-08	2.00971399522132E-08	3715352.75	3.04423483612482E-05
1	292	67.6200958292757	0.263214111328125	0.26318359375	7.23266601562494E-08	1.90351894246987E-08	3638818.75	3.04496934404597E-05
1	293	67.7208038290214	0.253143310546875	0.25311279296875	7.14111328125003E-08	1.80750703293597E-08	3544444.5	3.04569311992964E-05
1	294	67.8215118287671	0.243072509765625	0.2430419921875	6.95800781250006E-08	1.69108798075968E-08	3492982.5	3.04640307149384E-05
1	295	67.9222198285129	0.233001708984375	0.233001708984375	6.77490234374994E-08	1.57856376858945E-08	3439189.25	3.04709465126507E-05
1	296	68.0229278282586	0.222930908203125	0.22296142578125	6.53076171875003E-08	1.45610794533013E-08	3414018.75	3.0477645850624E-05
1	297	68.1236358280044	0.212860107421875	0.212860107421875	6.28662109374997E-08	1.33817072978104E-08	3385922.5	3.04840996250277E-05
1	298	68.2243438277501	0.202789306640625	0.202850341796875	5.88989257812506E-08	1.19476668558605E-08	3444041.5	3.04902314383071E-05
1	299	68.3250518274958	0.192718505859375	0.1927490234375	5.37109374999997E-08	1.03527302286466E-08	3588636.5	3.04959012282779E-05
1	300	68.4257598272416	0.182647705078125	0.182647705078125	4.76074218749997E-08	8.69538663295089E-09	3836538.5	3.05010034935549E-05
1	301	68.5264678269873	0.172576904296875	0.172607421875	3.99780273437497E-08	6.90050416807253E-09	4317557.5	3.05054145428585E-05
1	302	68.627175826733	0.162506103515625	0.162567138671875	2.99072265625006E-08	4.86193219018105E-09	5435714	3.05089324683649E-05
1	303	68.7278838264788	0.152435302734375	0.1524658203125	1.58691406249994E-08	2.41950148804904E-09	9607692	3.05112371279392E-05
1	304	68.8285918262245	0.142364501953125	0.142425537109375	-2.44140625000056E-09	-3.47718576154676E-10	-58337500	3.05119137919974E-05
1	305	68.9292998259702	0.132293701171875	0.13232421875	-2.96020507812494E-08	-3.91706800328961E-09	-4470103	3.05103003483964E-05
1	306	69.030007825716	0.122222900390625	0.122344970703125	-6.46972656249994E-08	-7.91538479205656E-09	-1891037.875	3.05055527860532E-05
1	307	69.1307158254617	0.112152099609375	0.112213134765625	-1.1474609375E-07	-1.2876018473662E-08	-977925.5625	3.04965160466963E-05
1	308	69.2314238252075	0.102081298828125	0.10211181640625	-1.8280029296875E-07	-1.86660695788987E-08	-558597.6875	3.04815330309793E-05
1	309	69.3321318249532	0.092010498046875	0.092010498046875	-2.764892578125E-07	-2.54399150634299E-08	-332781.46875	3.04584063997027E-05
1	310	69.4328398246989	0.081939697265625	0.082000732421875	-4.010009765625E-07	-3.28823723805272E-08	-204490.109375	3.04242930724286E-05
1	311	69.5335478244447	0.071868896484375	0.0718994140625	-5.62133789062499E-07	-4.04170883427923E-08	-127904.453125	3.03757951769512E-05
1	312	69.6342558241904	0.061798095703125	0.06182861328125	-7.6141357421875E-07	-4.70771439609052E-08	-81202.40625	3.03091492241947E-05
1	313	69.7349638239361	0.051727294921875	0.0517578125	-9.94262695312501E-07	-5.14608622381729E-08	-52056.4765625	3.02207427012036E-05
1	314	69.8356718236819	0.041656494140625	0.04173583984375	-1.2469482421875E-06	-5.20424272565378E-08	-33470.38671875	3.01078889606288E-05
1	315	69.9363798234276	0.031585693359375	0.0316680908203125	-1.500244140625E-06	-4.75098644869831E-08	-21108.623046875	2.99695566354785E-05
1	316	70.0370878231734	0.021514892578125	0.0216094970703125	-1.724853515625E-06	-3.72732174014345E-08	-12528.30859375	2.98071608995087E-05
1	317	70.1377958229191	0.011444091796875	0.011517333984375	-1.9000244140625E-06	-2.18832152398818E-08	-6061.6767578125	2.96246344078099E-05
1	318	70.2385038226648	0.001373291015625	0.0014923095703125	-2.01263427734375E-06	-3.00347346993135E-09	-741.470825195313	2.94276160275331E-05
1	319	70.3392118224106	-0.008697509765625	-0.00858154296874999	-2.060546875E-06	1.76826731035362E-08	4164.69189453125	2.92225140583469E-05
1	320	70.4399198221563	-0.018768310546875	-0.0186187744140625	-2.0556640625E-06	3.82739422377654E-08	9057.3037109375	2.90152474917704E-05
1	321	70.540627821902	-0.028839111328125	-0.0287200927734375	-2.01202392578125E-06	5.77855132632976E-08	14274.2294921875	2.88104220089735E-05
1	322	70.6413358216478	-0.038909912109375	-0.03878173828125	-1.94580078125E-06	7.54615356868271E-08	19930.9921875	2.86111298919423E-05
1	323	70.7420438213935	-0.048980712890625	-0.0488433837890625	-1.8695068359375E-06	9.13130406843266E-08	26126.34765625	2.8419013688108E-05
1	324	70.8427518211392	-0.059051513671875	-0.05902099609375	-1.79107666015625E-06	1.05711130515829E-07	32952.80078125	2.82346900348784E-05
1	325	70.943459820885	-0.069122314453125	-0.069091796875	-1.71478271484375E-06	1.18477416322094E-07	40291.8671875	2.80581552942749E-05
1	326	71.0441678206307	-0.079193115234375	-0.079132080078125	-1.6455078125E-06	1.30212455928813E-07	48089.765625	2.78889510809677E-05
1	327	71.1448758203765	-0.089263916015625	-0.089141845703125	-1.5826416015625E-06	1.41079581794656E-07	56324.72265625	2.77264007308986E-05
1	328	71.2455838201222	-0.099334716796875	-0.0992431640625	-1.52587890625E-06	1.51433042105964E-07	65040.00390625	2.75698748737341E-05
1	329	71.3462918198679	-0.109405517578125	-0.109283447265625	-1.4764404296875E-06	1.61350499183754E-07	74018.1875	2.74186950264266E-05
1	330	71.4469998196137	-0.119476318359375	-0.11944580078125	-1.43341064453125E-06	1.71214878719184E-07	83329.7890625	2.72721736109816E-05
1	331	71.5477078193594	-0.129547119140625	-0.129425048828125	-1.3946533203125E-06	1.8050306493933E-07	92800.875	2.71297685685568E-05
1	332	71.6484158191051	-0.139617919921875	-0.13946533203125	-1.3623046875E-06	1.89994267429938E-07	102374.5546875	2.69909451162675E-05
1	333	71.7491238188509	-0.149688720703125	-0.149566650390625	-1.3330078125E-06	1.99373502596245E-07	112202.390625	2.68552248599008E-05
1	334	71.8498318185966	-0.159759521484375	-0.159698486328125	-1.30828857421875E-06	2.08931709266835E-07	122066.7109375	2.67222258116817E-05
1	335	71.9505398183423	-0.169830322265625	-0.169647216796875	-1.28631591796875E-06	2.18219909697837E-07	131886.125	2.6591576897772E-05
1	336	72.0512478180881	-0.179901123046875	-0.17987060546875	-1.268310546875E-06	2.28131767698869E-07	141819.0625	2.64629416051321E-05
1	337	72.1519558178338	-0.189971923828125	-0.189849853515625	-1.25244140625E-06	2.37775822142794E-07	151583.828125	2.63360107055632E-05
1	338	72.2526638175796	-0.200042724609375	-0.199951171875	-1.23931884765625E-06	2.47803257025225E-07	161339.5625	2.62105404544855E-05
1	339	72.3533718173253	-0.189971923828125	-0.18975830078125	-1.09405517578125E-06	2.07606049684728E-07	173444.90625	2.60930464719422E-05
2	340	72.454079817071	-0.179901123046875	-0.179779052734375	-9.94262695312501E-07	1.78747598056361E-07	180816.453125	2.59878906945232E-05
2	341	72.5547878168168	-0.169830322265625	-0.169708251953125	-9.1522216796875E-07	1.55320748262966E-07	185428.484375	2.58917407336412E-05
2	342	72.6554958165625	-0.159759521484375	-0.15966796875	-8.47778320312501E-07	1.35363038111791E-07	188336.9375	2.58029667747905E-05
2	343	72.7562038163082	-0.149688720703125	-0.149566650390625	-7.88269042968751E-07	1.17898757423518E-07	189740.625	2.5720584744704E-05
2	344	72.856911816054	-0.139617919921875	-0.139556884765625	-7.3577880859375E-07	1.02682996327985E-07	189672.34375	2.56438434007578E-05
2	345	72.9576198157997	-0.129547119140625	-0.129486083984375	-6.87255859375E-07	8.89900704237334E-08	188410.296875	2.55721879511839E-05
2	346	73.0583278155455	-0.119476318359375	-0.119415283203125	-6.41479492187499E-07	7.66024541576371E-08	186156.046875	2.55052800639533E-05
2	347	73.1590358152912	-0.109405517578125	-0.109375	-5.9814453125E-07	6.54220571050246E-08	182857.140625	2.54428614425706E-05
2	348	73.2597438150369	-0.099334716796875	-0.09918212890625	-5.55419921875E-07	5.50877281568773E-08	178571.4375	2.53847738349577E-05
2	349	73.3604518147827	-0.089263916015625	-0.08917236328125	-5.11779785156249E-07	4.56366109347073E-08	174239.71875	2.53310372499982E-05
2	350	73.4611598145284	-0.079193115234375	-0.079132080078125	-4.65087890625E-07	3.68033710174132E-08	170144.359375	2.52818463195581E-05
2	351	73.5618678142741	-0.069122314453125	-0.069061279296875	-4.1351318359375E-07	2.85577481662358E-08	167011.078125	2.52376066782745E-05
2	352	73.6625758140199	-0.059051513671875	-0.058990478515625	-3.53393554687501E-07	2.08468549089957E-08	166925.734375	2.51989895332372E-05
2	353	73.7632838137656	-0.048980712890625	-0.0488372802734375	-2.8076171875E-07	1.37116398235548E-08	173945.65625	2.51670571742579E-05
2	354	73.8639918135113	-0.038909912109375	-0.0388092041015625	-1.90124511718751E-07	7.37858041333084E-09	204125.1875	2.51433466473827E-05
2	355	73.9646998132571	-0.028839111328125	-0.0287017822265625	-7.41577148437506E-08	2.128458520545E-09	387037.0625	2.51300389209064E-05
2	356	74.0654078130028	-0.018768310546875	-0.018658447265625	7.29370117187503E-08	-1.36089151059338E-09	-255815.90625	2.51299770752667E-05
2	357	74.1661158127486	-0.008697509765625	-0.008624267578125	2.5604248046875E-07	-2.20817897300662E-09	-33682.95703125	2.51465426117647E-05
2	358	74.2668238124943	0.001373291015625	0.0014801025390625	4.7576904296875E-07	7.04186986499877E-10	3110.96850585938	2.51833916991018E-05
2	359	74.36753181224	0.011444091796875	0.0115509033203125	7.275390625E-07	8.4037328207387E-09	15876.6787109375	2.52439840551233E-05
2	360	74.4682398119858	0.021514892578125	0.0216094970703125	9.9517822265625E-07	2.15052988750131E-08	21714.197265625	2.5330729840789E-05
2	361	74.5689478117315	0.031585693359375	0.031695556640625	1.25732421875E-06	3.98515922483966E-08	25208.736328125	2.54441511060577E-05
2	362	74.6696558114772	0.041656494140625	0.04173583984375	1.48773193359375E-06	6.20917361970896E-08	28053.333984375	2.55823761108331E-05
2	363	74.770363811223	0.051727294921875	0.051727294921875	1.66534423828125E-06	8.61437499111162E-08	31061.0234375	2.57411466009216E-05
2	364	74.8710718109687	0.061798095703125	0.0618896484375	1.77825927734375E-06	1.10055843549617E-07	34803.5	2.59145454037935E-05
2	365	74.9717798107145	0.071868896484375	0.071929931640625	1.82830810546875E-06	1.31510077494568E-07	39342.34765625	2.60961496678647E-05
2	366	75.0724878104602	0.081939697265625	0.0819091796875	1.82769775390625E-06	1.49705215335416E-07	44815.49609375	2.62802441284293E-05
2	367	75.1731958102059	0.092010498046875	0.09197998046875	1.78985595703125E-06	1.64630904464502E-07	51389.6015625	2.64624031842686E-05
2	368	75.2739038099517	0.102081298828125	0.102142333984375	1.73126220703125E-06	1.76835158072208E-07	58998.76953125	2.66397055384004E-05
2	369	75.3746118096974	0.112152099609375	0.112152099609375	1.66290283203125E-06	1.86498041898631E-07	67443.5703125	2.68106159637682E-05
2	370	75.4753198094431	0.122222900390625	0.12225341796875	1.59271240234375E-06	1.94714530721285E-07	76758	2.6974548745784E-05
2	371	75.5760278091889	0.132293701171875	0.132354736328125	1.52496337890625E-06	2.01836115820697E-07	86792.078125	2.7131536626257E-05
2	372	75.6767358089346	0.142364501953125	0.142364501953125	1.461181640625E-06	2.08020381364804E-07	97431.0859375	2.72818997473223E-05
2	373	75.7774438086803	0.152435302734375	0.1524658203125	1.4031982421875E-06	2.13939770787874E-07	108655.9375	2.74261328740977E-05
2	374	75.8781518084261	0.162506103515625	0.1624755859375	1.3519287109375E-06	2.19655390765183E-07	120180.59375	2.75648653769167E-05
2	375	75.9788598081718	0.172576904296875	0.172576904296875	1.3067626953125E-06	2.255170556964E-07	132064.453125	2.76987411780283E-05
2	376	76.0795678079176	0.182647705078125	0.182647705078125	1.2664794921875E-06	2.31319560839438E-07	144216.875	2.78283132502111E-05
2	377	76.1802758076633	0.192718505859375	0.192779541015625	1.23077392578125E-06	2.3726803988211E-07	156632.78125	2.79540599876782E-05
2	378	76.280983807409	0.202789306640625	0.2027587890625	1.1993408203125E-06	2.43176884850982E-07	169058.53125	2.80764270428335E-05
2	379	76.3816918071548	0.212860107421875	0.212860107421875	1.1712646484375E-06	2.49315519340598E-07	181735.28125	2.81957964034518E-05
2	380	76.4823998069005	0.222930908203125	0.222900390625	1.1468505859375E-06	2.55633437973302E-07	194358.703125	2.83125227724668E-05
2	381	76.5831078066462	0.233001708984375	0.23297119140625	1.12457275390625E-06	2.61993051253739E-07	207164.1875	2.84268971881829E-05
2	382	76.683815806392	0.243072509765625	0.2430419921875	1.10504150390625E-06	2.68571483275082E-07	219939.234375	2.85391670331592E-05
2	383	76.7845238061377	0.253143310546875	0.253204345703125	1.08734130859375E-06	2.75319536058305E-07	232865.5625	2.86495633190498E-05
2	384	76.8852318058834	0.263214111328125	0.263214111328125	1.0711669921875E-06	2.8194625656397E-07	245726.515625	2.87582515738904E-05
2	385	76.9859398056292	0.273284912109375	0.27325439453125	1.05682373046875E-06	2.88781734525401E-07	258561.9375	2.88654046016745E-05
2	386	77.0866478053749	0.283355712890625	0.28338623046875	1.04400634765625E-06	2.95857034871005E-07	271441.09375	2.89711897494271E-05
2	387	77.1873558051207	0.293426513671875	0.29339599609375	1.03240966796875E-06	3.02904851423591E-07	284185.65625	2.90757470793324E-05
2	388	77.2880638048664	0.303497314453125	0.30340576171875	1.02142333984375E-06	3.09905715312198E-07	297042.15625	2.9179165721871E-05
2	389	77.3887718046121	0.313568115234375	0.31365966796875	1.01226806640625E-06	3.17507669933548E-07	309858.3125	2.92815693683224E-05
2	390	77.4894798043579	0.323638916015625	0.323699951171875	1.00372314453125E-06	3.24905130355546E-07	322499.25	2.93830835289555E-05
2	391	77.5901878041036	0.333709716796875	0.333740234375	9.95788574218751E-07	3.32334707309201E-07	335151.6875	2.94837664114311E-05
2	392	77.6908958038493	0.343780517578125	0.34375	9.8876953125E-07	3.39889538736315E-07	347654.3125	2.95836962322937E-05
2	393	77.7916038035951	0.353851318359375	0.35382080078125	9.8236083984375E-07	3.47579685922028E-07	360173.96875	2.96829512080876E-05
2	394	77.8923118033408	0.363922119140625	0.363922119140625	9.7686767578125E-07	3.55503743776353E-07	372539.84375	2.97816059173783E-05
2	395	77.9930198030866	0.373992919921875	0.373992919921875	9.72595214843749E-07	3.63743737352706E-07	384530.90625	2.98797694995301E-05
2	396	78.0937278028323	0.384063720703125	0.384033203125	9.68322753906251E-07	3.71868082993387E-07	396596.28125	2.99775019811932E-05
2	397	78.194435802578	0.394134521484375	0.394195556640625	9.64965820312499E-07	3.80385245080106E-07	408507.28125	3.00748506560922E-05
2	398	78.2951438023238	0.404205322265625	0.404205322265625	9.613037109375E-07	3.88564075137765E-07	420476.1875	3.01718464470468E-05
2	399	78.3958518020695	0.414276123046875	0.414276123046875	9.59167480468751E-07	3.97360167880834E-07	431912.21875	3.02685493807076E-05
2	400	78.4965598018152	0.424346923828125	0.424346923828125	9.57336425781249E-07	4.06242747885699E-07	443257.90625	3.03650540445233E-05
2	401	78.597267801561	0.434417724609375	0.434417724609375	9.5550537109375E-07	4.15088464933433E-07	454647.09375	3.04613731714198E-05
2	402	78.6979758013067	0.444488525390625	0.4444580078125	9.54589843750001E-07	4.24275100385785E-07	465601.03125	3.05575522361323E-05
2	403	78.7986838010524	0.454559326171875	0.454559326171875	9.5367431640625E-07	4.33501554653049E-07	476640	3.0653642170364E-05
2	404	78.8993918007982	0.464630126953125	0.464630126953125	9.53063964843751E-07	4.42822226887074E-07	487512.03125	3.07496557070408E-05
2	405	79.0000998005439	0.474700927734375	0.474639892578125	9.53063964843751E-07	4.52362172609355E-07	498014.75	3.08456365019083E-05
2	406	79.1008078002897	0.484771728515625	0.484771728515625	9.53063964843751E-07	4.62018448388335E-07	508645.5625	3.09416172967758E-05
2	407	79.2015158000354	0.494842529296875	0.494781494140625	9.539794921875E-07	4.72011379315518E-07	518650.0625	3.10376453853678E-05
2	408	79.3022237997811	0.504913330078125	0.504913330078125	9.5550537109375E-07	4.82447376271011E-07	528425.4375	3.11337935272604E-05
2	409	79.4029317995269	0.514984130859375	0.514984130859375	9.5672607421875E-07	4.92698688958626E-07	538277.5625	3.12300835503265E-05
2	410	79.5036397992726	0.525054931640625	0.524993896484375	9.5855712890625E-07	5.03236606164137E-07	547691.875	3.13265227305237E-05
2	411	79.6043477990183	0.535125732421875	0.535064697265625	9.6160888671875E-07	5.14522980665788E-07	556426.5625	3.14232129312586E-05
2	412	79.7050557987641	0.545196533203125	0.545135498046875	9.65270996093751E-07	5.26203450590401E-07	564748.6875	3.15202378260437E-05
2	413	79.8057637985098	0.555267333984375	0.555267333984375	9.6954345703125E-07	5.38355777734978E-07	572710.125	3.16176628984977E-05
2	414	79.9064717982556	0.565338134765625	0.5653076171875	9.74426269531251E-07	5.50850586478191E-07	580144.0625	3.17155499942601E-05
2	415	80.0071797980013	0.575408935546875	0.575408935546875	9.814453125E-07	5.64732374641608E-07	586287.3125	3.18140373565257E-05
2	416	80.107887797747	0.585479736328125	0.58544921875	9.89379882812499E-07	5.79231652864109E-07	591733.5	3.19132741424255E-05
2	417	80.2085957974928	0.595550537109375	0.595489501953125	1.0003662109375E-06	5.95707547290658E-07	595271.5	3.20134677167516E-05
2	418	80.3093037972385	0.605621337890625	0.605560302734375	1.01470947265625E-06	6.14467808190966E-07	596781.9375	3.21149345836602E-05
2	419	80.4100117969842	0.615692138671875	0.615692138671875	1.03271484375E-06	6.35834396689461E-07	596187.9375	3.22180312650744E-05
2	420	80.51071979673	0.625762939453125	0.625701904296875	1.0577392578125E-06	6.61829460568697E-07	591546.4375	3.23232925438788E-05
2	421	80.6114277964757	0.635833740234375	0.635772705078125	1.0906982421875E-06	6.93436163601291E-07	582904.3125	3.24314751196653E-05
2	422	80.7121357962214	0.645904541015625	0.64581298828125	1.13372802734375E-06	7.32176260953565E-07	569636.625	3.25434848491568E-05
2	423	80.8128437959672	0.655975341796875	0.6558837890625	1.18927001953125E-06	7.80022844537598E-07	551501.1875	3.26604567817412E-05
2	424	80.9135517957129	0.666046142578125	0.665924072265625	1.2567138671875E-06	8.36875983623031E-07	529893.125	3.27836205542553E-05
2	425	81.0142597954587	0.676116943359375	0.676116943359375	1.33209228515625E-06	9.00650093171862E-07	507560.15625	3.29139802488498E-05
2	426	81.1149677952044	0.686187744140625	0.6861572265625	1.409912109375E-06	9.67421328823548E-07	486666.65625	3.30520488205366E-05
2	427	81.2156757949501	0.696258544921875	0.696136474609375	1.4813232421875E-06	1.03120316907734E-06	469942.3125	3.31976334564388E-05
2	428	81.3163837946959	0.706329345703125	0.70623779296875	1.5386962890625E-06	1.08668541543011E-06	458984.5625	3.3349704608554E-05
2	429	81.4170917944416	0.716400146484375	0.716339111328125	1.5777587890625E-06	1.13021030756499E-06	454023.21875	3.35066324623767E-05
2	430	81.5177997941873	0.726470947265625	0.726470947265625	1.5985107421875E-06	1.16127159799362E-06	454467.375	3.36665689246729E-05
2	431	81.6185077939331	0.736541748046875	0.73638916015625	1.60308837890625E-06	1.18049683806021E-06	459356.5625	3.38277823175304E-05
2	432	81.7192157936788	0.746612548828125	0.74658203125	1.59637451171875E-06	1.19182448088395E-06	467673.5	3.39888865710236E-05
2	433	81.8199237934246	0.756683349609375	0.75653076171875	1.58233642578125E-06	1.19708613510738E-06	478109.9375	3.41489467245992E-05
2	434	81.9206317931703	0.766754150390625	0.76751708984375	1.5655517578125E-06	1.20158779282065E-06	490253.40625	3.4307457099203E-05
2	435	82.021339792916	0.776824951171875	0.7769775390625	1.54693603515625E-06	1.2019345376757E-06	502268.6875	3.44641848641913E-05
2	436	82.1220477926618	0.786895751953125	0.7867431640625	1.52984619140625E-06	1.20359595712216E-06	514262.9375	3.46191118296701E-05
2	437	82.2227557924075	0.796966552734375	0.797119140625	1.514892578125E-06	1.20754987165128E-06	526188.5625	3.47724271705374E-05
2	438	82.3234637921532	0.807037353515625	0.80718994140625	1.50238037109375E-06	1.21270625186298E-06	537274.0625	3.4924360079458E-05
2	439	82.424171791899	0.817108154296875	0.8172607421875	1.49200439453125E-06	1.21935659080918E-06	547760.3125	3.50751361111179E-05
2	440	82.5248797916447	0.827178955078125	0.82733154296875	1.4849853515625E-06	1.22857522910635E-06	557131.125	3.52250426658429E-05
2	441	82.6255877913904	0.837249755859375	0.83740234375	1.4794921875E-06	1.23893028103339E-06	566006.625	3.53743125742767E-05
2	442	82.7262957911362	0.847320556640625	0.84747314453125	1.475830078125E-06	1.25072631362855E-06	574234.9375	3.55231277353596E-05
2	443	82.8270037908819	0.857391357421875	0.8575439453125	1.474609375E-06	1.26454233395634E-06	581539.75	3.56716918759048E-05
2	444	82.9277117906277	0.867462158203125	0.86761474609375	1.473388671875E-06	1.27833368424035E-06	588856.6875	3.58201359631494E-05
2	445	83.0284197903734	0.877532958984375	0.8782958984375	1.4727783203125E-06	1.29353509237262E-06	596353.0625	3.59684891009238E-05
2	446	83.1291277901191	0.887603759765625	0.88775634765625	1.47216796875E-06	1.30692637867469E-06	603026.5625	3.61167767550796E-05
2	447	83.2298357898649	0.897674560546875	0.8978271484375	1.47064208984375E-06	1.32038235278742E-06	610500.125	3.62649589078501E-05
2	448	83.3305437896106	0.907745361328125	0.90789794921875	1.47003173828125E-06	1.33463879592455E-06	617604.3125	3.64130355592351E-05
2	449	83.4312517893563	0.917816162109375	0.91766357421875	1.4703369140625E-06	1.34927461203915E-06	624117.875	3.65610940207262E-05
2	450	83.5319597891021	0.927886962890625	0.92803955078125	1.4715576171875E-06	1.36566359287826E-06	630651.1875	3.67092288797721E-05
2	451	83.6326677888478	0.937957763671875	0.9381103515625	1.47430419921875E-06	1.38306006647326E-06	636307.1875	3.68575674656313E-05
2	452	83.7333757885935	0.948028564453125	0.94818115234375	1.4788818359375E-06	1.40224790357024E-06	641147.375	3.70062698493712E-05
2	453	83.8340837883393	0.958099365234375	0.95794677734375	1.4862060546875E-06	1.42370618050336E-06	644558.5625	3.7155576137593E-05
2	454	83.934791788085	0.968170166015625	0.96832275390625	1.49658203125E-06	1.44917430588976E-06	647022.875	3.73057700926438E-05
2	455	84.0354997878308	0.978240966796875	0.97808837890625	1.51123046875E-06	1.4781169284106E-06	647213.3125	3.74572264263406E-05
2	456	84.1362077875765	0.988311767578125	0.98876953125	1.52923583984375E-06	1.5120617717912E-06	646577.5625	3.76103234884795E-05
2	457	84.2369157873222	0.998382568359375	0.99822998046875	1.55029296875E-06	1.54754889081232E-06	643897.625	3.77653923351318E-05
2	458	84.337623787068	1.00845336914063	1.00830078125	1.57318115234375E-06	1.58623970492044E-06	640931.1875	3.792266943492E-05
2	459	84.4383317868137	1.01852416992188	1.01806640625	1.59637451171875E-06	1.62521519087022E-06	637736.625	3.80822712031659E-05
2	460	84.5390397865594	1.02859497070313	1.02813720703125	1.6162109375E-06	1.6616864968455E-06	636140.5	3.8244037568802E-05
2	461	84.6397477863052	1.03866577148438	1.03851318359375	1.630859375E-06	1.69366887803335E-06	636788.9375	3.84075392503291E-05
2	462	84.7404557860509	1.04873657226563	1.04888916015625	1.63970947265625E-06	1.71987346675451E-06	639679.875	3.85722269129474E-05
2	463	84.8411637857967	1.05880737304688	1.0589599609375	1.64276123046875E-06	1.73961825566948E-06	644622	3.873751120409E-05
2	464	84.9418717855424	1.06887817382813	1.06903076171875	1.64154052734375E-06	1.75485729414504E-06	651236.3125	3.89028900826816E-05
2	465	85.0425797852881	1.07894897460938	1.07940673828125	1.636962890625E-06	1.7669486851446E-06	659396	3.90679742849898E-05
2	466	85.1432877850339	1.08901977539063	1.08917236328125	1.63116455078125E-06	1.77661934230855E-06	667726.875	3.92325382563286E-05
2	467	85.2439957847796	1.09909057617188	1.09893798828125	1.624755859375E-06	1.78550590135274E-06	676371.1875	3.93964874092489E-05
2	468	85.3447037845253	1.10916137695313	1.10931396484375	1.61865234375E-06	1.79559356183745E-06	685331.875	3.95598071918357E-05
2	469	85.4454117842711	1.11923217773438	1.119384765625	1.61224365234375E-06	1.80472090960393E-06	694302.5	3.97224939661101E-05
2	470	85.5461197840168	1.12930297851563	1.12945556640625	1.60675048828125E-06	1.81475320459867E-06	702944	3.988458411186E-05
2	471	85.6468277837625	1.13937377929688	1.13922119140625	1.60247802734375E-06	1.8255768736708E-06	710912.25	4.00461794924922E-05
2	472	85.7475357835083	1.14944458007813	1.14990234375	1.59912109375E-06	1.83883310000965E-06	719083.9375	4.02073928853497E-05
2	473	85.848243783254	1.15951538085938	1.1590576171875	1.5966796875E-06	1.85064379820687E-06	725917.4375	4.03683152399026E-05
2	474	85.9489517829998	1.16958618164063	1.16943359375	1.59576416015625E-06	1.86614022368303E-06	732836.125	4.05290666094515E-05
2	475	86.0496597827455	1.17965698242188	1.17950439453125	1.5960693359375E-06	1.88257070021791E-06	739005.75	4.06897888751701E-05
2	476	86.1503677824912	1.18972778320313	1.190185546875	1.59698486328125E-06	1.90070829830802E-06	745270.4375	4.08505729865283E-05
2	477	86.251075782237	1.19979858398438	1.1993408203125	1.59942626953125E-06	1.91825711226556E-06	749856.9375	4.10115244449116E-05
2	478	86.3517837819827	1.20986938476563	1.21002197265625	1.6021728515625E-06	1.93866435438395E-06	755238.125	4.11727378377691E-05
2	479	86.4524917817284	1.21994018554688	1.220703125	1.6070556640625E-06	1.96173778022057E-06	759589.8125	4.13343368563801E-05
2	480	86.5531997814742	1.23001098632813	1.2298583984375	1.6119384765625E-06	1.98245606952696E-06	762968.625	4.14964233641513E-05
2	481	86.6539077812199	1.24008178710938	1.240234375	1.6192626953125E-06	2.00826525542652E-06	765925.375	4.16591283283196E-05
2	482	86.7546157809657	1.25015258789063	1.25	1.62628173828125E-06	2.0328520804469E-06	768624.5625	4.18225536122918E-05
2	483	86.8553237807114	1.26022338867188	1.26068115234375	1.6351318359375E-06	2.06137974601006E-06	770996.6875	4.19867792516015E-05
2	484	86.9560317804571	1.27029418945313	1.27044677734375	1.6448974609375E-06	2.08975461646332E-06	772356.25	4.21519434894435E-05
2	485	87.0567397802029	1.28036499023438	1.280517578125	1.65496826171875E-06	2.11921587833785E-06	773741.5	4.23181045334786E-05
2	486	87.1574477799486	1.29043579101563	1.2908935546875	1.6668701171875E-06	2.1517519144254E-06	774441.625	4.24853715230711E-05
2	487	87.2581557796943	1.30050659179688	1.30035400390625	1.6796875E-06	2.18418836084311E-06	774164.25	4.26538827014156E-05
2	488	87.3588637794401	1.31057739257813	1.31011962890625	1.69281005859375E-06	2.21778350351087E-06	773931.875	4.28237035521306E-05
2	489	87.4595717791858	1.32064819335938	1.32080078125	1.707763671875E-06	2.25561552724685E-06	773409.5625	4.29949359386228E-05
2	490	87.5602797789315	1.33071899414063	1.3311767578125	1.72332763671875E-06	2.29405372920155E-06	772445.5625	4.31677035521716E-05
2	491	87.6609877786773	1.34078979492188	1.3409423828125	1.73980712890625E-06	2.33298101193213E-06	770742	4.33420864283107E-05
2	492	87.761695778423	1.35086059570313	1.35101318359375	1.75750732421875E-06	2.37441554418183E-06	768709.8125	4.35181900684256E-05
2	493	87.8624037781688	1.36093139648438	1.3604736328125	1.77703857421875E-06	2.41761404140561E-06	765584.75	4.3696170905605E-05
2	494	87.9631117779145	1.37100219726563	1.37115478515625	1.79779052734375E-06	2.46504896495026E-06	762688.875	4.38761780969799E-05
2	495	88.0638197776602	1.38107299804688	1.3812255859375	1.82159423828125E-06	2.51603250944754E-06	758251	4.40584262832999E-05
2	496	88.164527777406	1.39114379882813	1.39129638671875	1.85028076171875E-06	2.57428882832755E-06	751938	4.42433192802127E-05
2	497	88.2652357771517	1.40121459960938	1.4013671875	1.88262939453125E-06	2.6382549549453E-06	744367	4.44312863692176E-05
2	498	88.3659437768974	1.41128540039063	1.4105224609375	1.9219970703125E-06	2.71101976068167E-06	733883.8125	4.46228659711778E-05
2	499	88.4666517766432	1.42135620117188	1.42120361328125	1.9677734375E-06	2.79660662272363E-06	722239.4375	4.48187311121728E-05
2	500	88.5673597763889	1.43142700195313	1.4312744140625	2.0220947265625E-06	2.89417221210897E-06	707817.75	4.50196384917945E-05
2	501	88.6680677761346	1.44149780273438	1.441650390625	2.08709716796875E-06	3.00886426884972E-06	690744.3125	4.52265521744266E-05
2	502	88.7687757758804	1.45156860351563	1.45172119140625	2.1685791015625E-06	3.14817225444131E-06	669434.25	4.54408400401007E-05
2	503	88.8694837756261	1.46163940429688	1.4617919921875	2.26654052734375E-06	3.31321052726707E-06	644944.1875	4.56641682831105E-05
2	504	88.9701917753719	1.47171020507813	1.47216796875	2.38250732421875E-06	3.50745085597737E-06	617907	4.58982649433892E-05
2	505	89.0708997751176	1.48178100585938	1.48223876953125	2.5152587890625E-06	3.72821409655444E-06	589298.75	4.61448871647008E-05
2	506	89.1716077748633	1.49185180664063	1.49200439453125	2.66448974609375E-06	3.97543044527993E-06	559958.75	4.64057084172964E-05
2	507	89.2723157746091	1.50192260742188	1.50177001953125	2.82806396484375E-06	4.24710151492036E-06	531024.0625	4.66822821181267E-05
2	508	89.3730237743548	1.49185180664063	1.49139404296875	2.46551513671875E-06	3.67705456483236E-06	604901.625	4.69488331873436E-05
2	509	89.4737317741005	1.48178100585938	1.48193359375	2.2015380859375E-06	3.26253325511061E-06	673135.5625	4.71838393423241E-05
2	510	89.5744397738463	1.47171020507813	1.47186279296875	1.9952392578125E-06	2.93671837425791E-06	737687.375	4.73951622552704E-05
2	511	89.675147773592	1.46163940429688	1.4617919921875	1.82861328125E-06	2.67305222223513E-06	799399.25	4.75877095595933E-05
2	512	89.7758557733378	1.45156860351563	1.45172119140625	1.6912841796875E-06	2.45527303377457E-06	858354.375	4.77649518870749E-05
2	513	89.8765637730835	1.44149780273438	1.4410400390625	1.5771484375E-06	2.27273403652362E-06	913699.6875	4.79295304103289E-05
2	514	89.9772717728292	1.43142700195313	1.43096923828125	1.48162841796875E-06	2.12016470868548E-06	965808.5	4.80835515190847E-05
2	515	90.077979772575	1.42135620117188	1.4215087890625	1.4007568359375E-06	1.99118812815868E-06	1014814.875	4.82286923215725E-05
2	516	90.1786877723207	1.41128540039063	1.41143798828125	1.33270263671875E-06	1.88102706033533E-06	1059079.5	4.836633161176E-05
2	517	90.2793957720664	1.40121459960938	1.40106201171875	1.27471923828125E-06	1.78596064870362E-06	1099114.25	4.84976262669079E-05
2	518	90.3801037718122	1.39114379882813	1.39129638671875	1.224365234375E-06	1.70345481365075E-06	1136341	4.86234639538452E-05
2	519	90.4808117715579	1.38107299804688	1.38092041015625	1.18194580078125E-06	1.63217305271246E-06	1168345	4.87446304759942E-05
2	520	90.5815197713036	1.37100219726563	1.370849609375	1.14532470703125E-06	1.57006786594138E-06	1196909.25	4.8861820687307E-05
2	521	90.6822277710494	1.36093139648438	1.3604736328125	1.1138916015625E-06	1.51542008097749E-06	1221369.875	4.89755802846048E-05
2	522	90.7829357707951	1.35086059570313	1.351318359375	1.08612060546875E-06	1.46769468756247E-06	1244169.75	4.90863603772596E-05
2	523	90.8836437705409	1.34078979492188	1.3409423828125	1.06231689453125E-06	1.42450574003306E-06	1262281	4.9194542953046E-05
2	524	90.9843517702866	1.33071899414063	1.33056640625	1.04248046875E-06	1.38708946906263E-06	1276346.625	4.93005245516542E-05
2	525	91.0850597700323	1.32064819335938	1.32080078125	1.024169921875E-06	1.35272443912982E-06	1289630.5	4.94045889354311E-05
2	526	91.1857677697781	1.31057739257813	1.31072998046875	1.00738525390625E-06	1.32040997868899E-06	1301120.875	4.95068888994865E-05
2	527	91.2864757695238	1.30050659179688	1.3006591796875	9.918212890625E-07	1.29002137327916E-06	1311384.625	4.96075554110575E-05
2	528	91.3871837692695	1.29043579101563	1.290283203125	9.7808837890625E-07	1.26201098282763E-06	1319188.875	4.97067485412117E-05
2	529	91.4878917690153	1.28036499023438	1.28021240234375	9.6466064453125E-07	1.23497056847555E-06	1327111.625	4.98045737913344E-05
2	530	91.588599768761	1.27029418945313	1.27044677734375	9.51538085937501E-07	1.20887852972373E-06	1335150.75	4.99010602652561E-05
2	531	91.6893077685068	1.26022338867188	1.26007080078125	9.39331054687501E-07	1.18362356715807E-06	1341455.5	4.99962734465953E-05
2	532	91.7900157682525	1.25015258789063	1.25030517578125	9.2742919921875E-07	1.15956947865925E-06	1348140.875	5.00902715430129E-05
2	533	91.8907237679982	1.24008178710938	1.23992919921875	9.1583251953125E-07	1.13556745873211E-06	1353882	5.01830872963183E-05
2	534	91.991431767744	1.23001098632813	1.2298583984375	9.0484619140625E-07	1.11283270598506E-06	1359190.625	5.02747680002358E-05
2	535	92.0921397674897	1.21994018554688	1.21978759765625	8.9447021484375E-07	1.09106360923761E-06	1363698.375	5.03653718624264E-05
2	536	92.1928477672354	1.20986938476563	1.209716796875	8.837890625E-07	1.06913444142265E-06	1368784.625	5.04549134348053E-05
2	537	92.2935557669812	1.19979858398438	1.199951171875	8.7310791015625E-07	1.04768685105228E-06	1374344.75	5.05433781654574E-05
2	538	92.3942637667269	1.18972778320313	1.1895751953125	8.62731933593749E-07	1.02628450804332E-06	1378846.875	5.06307842442766E-05
2	539	92.4949717664726	1.17965698242188	1.1798095703125	8.526611328125E-07	1.00597776508948E-06	1383679.375	5.07171644130722E-05
2	540	92.5956797662184	1.16958618164063	1.16943359375	8.41674804687501E-07	9.84282792160229E-07	1389412.75	5.08024786540773E-05
2	541	92.6963877659641	1.15951538085938	1.15966796875	8.30993652343751E-07	9.63676711762673E-07	1395519.625	5.08867051394191E-05
2	542	92.7970957657099	1.14944458007813	1.14959716796875	8.2000732421875E-07	9.42678070714464E-07	1401935.25	5.09698402311187E-05
2	543	92.8978037654556	1.13937377929688	1.13922119140625	8.08105468750001E-07	9.20610830235091E-07	1409743.25	5.10518220835365E-05
2	544	92.9985117652013	1.12930297851563	1.12884521484375	7.95898437500001E-07	8.98446103292372E-07	1418328.25	5.11325888510328E-05
2	545	93.0992197649471	1.11923217773438	1.11907958984375	7.830810546875E-07	8.76329977472778E-07	1429072.5	5.12120968778618E-05
2	546	93.1999277646928	1.10916137695313	1.10870361328125	7.6904296875E-07	8.52640710036212E-07	1441666.625	5.12902515765745E-05
2	547	93.3006357644385	1.09909057617188	1.09893798828125	7.537841796875E-07	8.28362033189478E-07	1457894.75	5.13669328938704E-05
2	548	93.4013437641843	1.08901977539063	1.0888671875	7.366943359375E-07	8.02162219315505E-07	1478044.875	5.14419843966607E-05
2	549	93.50205176393	1.07894897460938	1.07879638671875	7.1685791015625E-07	7.73343685978034E-07	1504895.75	5.15151768922806E-05
2	550	93.6027597636757	1.06887817382813	1.06903076171875	6.9427490234375E-07	7.42201223147276E-07	1539780.25	5.15862338943407E-05
2	551	93.7034677634215	1.05880737304688	1.05865478515625	6.6864013671875E-07	7.07859044268844E-07	1583295.375	5.16548607265577E-05
2	552	93.8041757631672	1.04873657226563	1.0491943359375	6.3934326171875E-07	6.70795316182193E-07	1641050.25	5.17207226948813E-05
2	553	93.904883762913	1.03866577148438	1.03851318359375	6.0699462890625E-07	6.30371914667194E-07	1710910.125	5.17834814672824E-05
2	554	94.0055917626587	1.02859497070313	1.02874755859375	5.7342529296875E-07	5.89909859627369E-07	1794039.5	5.18429224030115E-05
2	555	94.1062997624044	1.01852416992188	1.0186767578125	5.40771484374999E-07	5.50871334326075E-07	1883747.25	5.18990236741956E-05
2	556	94.2070077621502	1.00845336914063	1.00830078125	5.108642578125E-07	5.15104829901247E-07	1973715.625	5.19519780937117E-05
2	557	94.3077157618959	0.998382568359375	0.99822998046875	4.87060546875E-07	4.86198473481636E-07	2049498.75	5.2002229494974E-05
2	558	94.4084237616416	0.988311767578125	0.9881591796875	4.67529296874999E-07	4.61993352018908E-07	2113577	5.20502944709733E-05
2	559	94.5091317613874	0.978240966796875	0.97930908203125	4.55322265624999E-07	4.45901235934798E-07	2150804.25	5.20967660122551E-05
2	560	94.6098397611331	0.968170166015625	0.96771240234375	4.46472167968751E-07	4.32056623367316E-07	2167464.25	5.21421752637252E-05
2	561	94.7105477608789	0.958099365234375	0.95794677734375	4.412841796875E-07	4.22726742499435E-07	2170816.25	5.2186875109328E-05
2	562	94.8112557606246	0.948028564453125	0.9478759765625	4.3792724609375E-07	4.15100714690197E-07	2164460	5.22311493114103E-05
2	563	94.9119637603703	0.937957763671875	0.93780517578125	4.3487548828125E-07	4.07828480319949E-07	2156491.25	5.22750960953999E-05
2	564	95.0126717601161	0.927886962890625	0.92803955078125	4.3212890625E-07	4.01032707486593E-07	2147599	5.23187554790638E-05
2	565	95.1133797598618	0.917816162109375	0.9173583984375	4.2999267578125E-07	3.94457373431578E-07	2133428	5.23621638421901E-05
2	566	95.2140877596075	0.907745361328125	0.90728759765625	4.26025390625E-07	3.86527517548529E-07	2129656.25	5.24052702530753E-05
2	567	95.3147957593533	0.897674560546875	0.8984375	4.20532226562501E-07	3.77821919528287E-07	2136429.75	5.2447896450758E-05
2	568	95.415503759099	0.887603759765625	0.88714599609375	4.150390625E-07	3.68200232969684E-07	2137500	5.2489969675662E-05
2	569	95.5162117588447	0.877532958984375	0.87738037109375	4.08020019531249E-07	3.57988739096982E-07	2150336.5	5.25314171682112E-05
2	570	95.6169197585905	0.867462158203125	0.86761474609375	4.00695800781251E-07	3.47649574905518E-07	2165270.5	5.2572137064999E-05
2	571	95.7176277583362	0.857391357421875	0.8575439453125	3.9215087890625E-07	3.36286603896951E-07	2186770.5	5.2612060244428E-05
2	572	95.818335758082	0.847320556640625	0.84716796875	3.84521484375E-07	3.25754285768198E-07	2203174.5	5.26511685166042E-05
2	573	95.9190437578277	0.837249755859375	0.83740234375	3.7689208984375E-07	3.15610293455393E-07	2221862.5	5.26895091752522E-05
2	574	96.0197517575734	0.827178955078125	0.8270263671875	3.6956787109375E-07	3.05642373632509E-07	2237820	5.2727096772287E-05
2	575	96.1204597573192	0.817108154296875	0.81695556640625	3.62548828125001E-07	2.96186300374757E-07	2253367	5.27639604115393E-05
2	576	96.2211677570649	0.807037353515625	0.806884765625	3.558349609375E-07	2.87117785546798E-07	2267581.5	5.2800136472797E-05
2	577	96.3218757568106	0.796966552734375	0.79742431640625	3.4759521484375E-07	2.77180873808902E-07	2294117.75	5.28355558344629E-05
2	578	96.4225837565564	0.786895751953125	0.7867431640625	3.37829589843749E-07	2.65785132569363E-07	2328816.5	5.28700693394057E-05
2	579	96.5232917563021	0.776824951171875	0.77728271484375	3.2501220703125E-07	2.52626364272146E-07	2391549.5	5.29034477949608E-05
2	580	96.6239997560479	0.766754150390625	0.7666015625	3.07312011718749E-07	2.35585858376908E-07	2494538.25	5.29352873854805E-05
2	581	96.7247077557936	0.756683349609375	0.7568359375	2.8350830078125E-07	2.14569254808339E-07	2669537.25	5.29650351381861E-05
2	582	96.8254157555393	0.746612548828125	0.746551513671875	2.50854492187499E-07	1.87275801977194E-07	2976034	5.29919452674221E-05
2	583	96.9261237552851	0.736541748046875	0.736480712890625	2.0751953125E-07	1.52834118694045E-07	3548970.75	5.30150246049743E-05
2	584	97.0268317550308	0.726470947265625	0.726318359375	1.5228271484375E-07	1.10605725467394E-07	4769539.5	5.30331417394336E-05
2	585	97.1275397547765	0.716400146484375	0.71624755859375	8.42285156249997E-08	6.03284675548821E-08	8503624	5.3045052482048E-05
2	586	97.2282477545223	0.706329345703125	0.706207275390625	6.103515625E-09	4.31034719028389E-09	115705000	5.30495999555569E-05
2	587	97.328955754268	0.696258544921875	0.6961669921875	-7.75146484375003E-08	-5.39631415108488E-08	-8981102	5.30460056324955E-05
2	588	97.4296637540137	0.686187744140625	0.686065673828125	-1.5716552734375E-07	-1.07825876227707E-07	-4365242.5	5.30341858393513E-05
2	589	97.5303717537595	0.676116943359375	0.676055908203125	-2.24609375E-07	-1.51848482232708E-07	-3009918.5	5.30149627593346E-05
2	590	97.6310797535052	0.666046142578125	0.665985107421875	-2.74658203125E-07	-1.82918270752452E-07	-2424778	5.29898243257776E-05
2	591	97.731787753251	0.655975341796875	0.6558837890625	-3.04260253906249E-07	-1.99559366365065E-07	-2155667	5.29606732015964E-05
2	592	97.8324957529967	0.645904541015625	0.64581298828125	-3.1402587890625E-07	-2.02801984983125E-07	-2056559.875	5.29295393789653E-05
2	593	97.9332037527424	0.635833740234375	0.63580322265625	-3.0670166015625E-07	-1.95001902625336E-07	-2073034.875	5.28982818650547E-05
2	594	98.0339117524882	0.625762939453125	0.62567138671875	-2.880859375E-07	-1.80247127445909E-07	-2171822	5.28683340235148E-05
2	595	98.1346197522339	0.615692138671875	0.615631103515625	-2.6092529296875E-07	-1.60633717882774E-07	-2359415.25	5.28406890225597E-05
2	596	98.2353277519796	0.605621337890625	0.60552978515625	-2.2705078125E-07	-1.3748601190855E-07	-2666935.5	5.28161181136966E-05
2	597	98.3360357517254	0.595550537109375	0.595489501953125	-1.904296875E-07	-1.13398883172522E-07	-3127083.25	5.27950942341704E-05
2	598	98.4367437514711	0.585479736328125	0.58538818359375	-1.568603515625E-07	-9.1824198023005E-08	-3731906.5	5.27776064700447E-05
2	599	98.5374517512168	0.575408935546875	0.57537841796875	-1.30615234375001E-07	-7.51531885612167E-08	-4405140	5.27631309523713E-05
2	600	98.6381597509626	0.565338134765625	0.565338134765625	-1.08947753906249E-07	-6.15923170244059E-08	-5189075.5	5.2751067414647E-05
2	601	98.7388677507083	0.555267333984375	0.555267333984375	-9.002685546875E-08	-4.99889694083322E-08	-6167797	5.27410484210122E-05
2	602	98.8395757504541	0.545196533203125	0.545166015625	-7.35473632812497E-08	-4.00955215695831E-08	-7412448.5	5.2732812036993E-05
2	603	98.9402837501998	0.535125732421875	0.535064697265625	-5.92041015625003E-08	-3.16780237596959E-08	-9037629	5.27261290699244E-05
2	604	99.0409917499455	0.525054931640625	0.525054931640625	-4.730224609375E-08	-2.48362770349786E-08	-11100001	5.27207666891627E-05
2	605	99.1416997496913	0.514984130859375	0.514923095703125	-3.57055664062494E-08	-1.8385620137451E-08	-14421368	5.27165866515134E-05
2	606	99.242407749437	0.504913330078125	0.504852294921875	-2.593994140625E-08	-1.30958381916457E-08	-19462354	5.27134834555909E-05
2	607	99.3431157491827	0.494842529296875	0.494781494140625	-1.678466796875E-08	-8.30474267132786E-09	-29478182	5.27113297721371E-05
2	608	99.4438237489285	0.484771728515625	0.484771728515625	-8.54492187500056E-09	-4.14233669587816E-09	-56732140	5.27100564795546E-05
2	609	99.5445317486742	0.474700927734375	0.47467041015625	-9.15527343750555E-10	-4.34573738106181E-10	-518466688	5.27095799043309E-05
2	610	99.64523974842	0.464630126953125	0.464569091796875	5.18798828124945E-09	2.41017894531126E-09	89547056	5.27097945450805E-05
2	611	99.7459477481657	0.454559326171875	0.45458984375	1.12915039062494E-08	5.1330029116059E-09	40259460	5.27106240042485E-05
2	612	99.8466557479114	0.444488525390625	0.4444580078125	1.70898437499997E-08	7.59571694430861E-09	26007144	5.27120537299197E-05
2	613	99.9473637476572	0.434417724609375	0.434478759765625	2.16674804687497E-08	9.41405975396492E-09	20052112	5.27140036865603E-05
2	614	100.048071747403	0.424346923828125	0.42431640625	2.593994140625E-08	1.10067421843496E-08	16357648	5.27164011145942E-05
2	615	100.148779747149	0.414276123046875	0.414337158203125	2.92968749999997E-08	1.21387833118547E-08	14142709	5.27191841683816E-05
2	616	100.249487746894	0.404205322265625	0.40411376953125	3.29589843750006E-08	1.33191786488851E-08	12261112	5.27223164681345E-05
2	617	100.35019574664	0.394134521484375	0.394195556640625	3.63159179687503E-08	1.43155736154199E-08	10854622	5.27258052898105E-05
2	618	100.450903746386	0.384063720703125	0.384063720703125	3.90625000000006E-08	1.50024881406807E-08	9832031	5.27296033396851E-05
2	619	100.551611746132	0.373992919921875	0.37396240234375	4.18090820312494E-08	1.56350239421954E-08	8944526	5.27336742379703E-05
2	620	100.652319745877	0.363922119140625	0.363922119140625	4.45556640624997E-08	1.62147912874389E-08	8167808.5	5.27380216226447E-05
2	621	100.753027745623	0.353851318359375	0.353851318359375	4.69970703125003E-08	1.66299756187982E-08	7529221	5.27426309417933E-05
2	622	100.853735745369	0.343780517578125	0.34375	4.91333007812497E-08	1.68895706309513E-08	6996273.5	5.27474730915856E-05
2	623	100.954443745115	0.333709716796875	0.33367919921875	5.06591796874997E-08	1.69039147124295E-08	6586747	5.27524971403182E-05
2	624	101.05515174486	0.323638916015625	0.323638916015625	5.21850585937497E-08	1.68891158836004E-08	6201754.5	5.27576776221395E-05
2	625	101.155859744606	0.313568115234375	0.313507080078125	5.340576171875E-08	1.67430833641902E-08	5870286	5.27629927091766E-05
2	626	101.256567744352	0.303497314453125	0.303497314453125	5.46264648437503E-08	1.65789852957232E-08	5555866	5.2768435125472E-05
2	627	101.357275744097	0.293426513671875	0.29339599609375	5.52368164062497E-08	1.62062594455392E-08	5311602.5	5.27739648532588E-05
2	628	101.457983743843	0.283355712890625	0.28326416015625	5.55419921874995E-08	1.57330557470914E-08	5100000	5.27795455127489E-05
2	629	101.558691743589	0.273284912109375	0.273284912109375	5.61523437500003E-08	1.53455879114972E-08	4866848	5.27851698279846E-05
2	630	101.659399743335	0.263214111328125	0.26318359375	5.58471679687506E-08	1.46980578819011E-08	4712568.5	5.27908086951356E-05
2	631	101.76010774308	0.253143310546875	0.253173828125	5.52368164062497E-08	1.39845157676177E-08	4583425.5	5.27964002685621E-05
2	632	101.860815742826	0.243072509765625	0.243072509765625	5.46264648437503E-08	1.32781918793512E-08	4449720.5	5.28019336343277E-05
2	633	101.961523742572	0.233001708984375	0.233001708984375	5.37109374999997E-08	1.25147394669511E-08	4338068.5	5.28073869645596E-05
2	634	102.062231742318	0.222930908203125	0.222930908203125	5.12695312500006E-08	1.14295630737615E-08	4348214.5	5.28126729477663E-05
2	635	102.162939742063	0.212860107421875	0.212890625	4.94384765624994E-08	1.05249879922553E-08	4306173	5.28177442902233E-05
2	636	102.263647741809	0.202789306640625	0.202911376953125	4.63867187499994E-08	9.41239264307114E-09	4374342.5	5.28225718881004E-05
2	637	102.364355741555	0.192718505859375	0.1927490234375	4.18090820312494E-08	8.05865951747364E-09	4610219	5.2827010222245E-05
2	638	102.465063741301	0.182647705078125	0.1826171875	3.69262695312497E-08	6.74337163886207E-09	4945454.5	5.28309756191447E-05
2	639	102.565771741046	0.172576904296875	0.17254638671875	2.99072265625006E-08	5.16038412001762E-09	5769387.5	5.28343407495413E-05
2	640	102.666479740792	0.162506103515625	0.16259765625	2.01416015624997E-08	3.2749769562912E-09	8072727.5	5.28368618688546E-05
2	641	102.767187740538	0.152435302734375	0.152496337890625	6.103515625E-09	9.30763743856033E-10	24985000	5.28381824551616E-05
2	642	102.867895740284	0.142364501953125	0.142425537109375	-1.19018554687503E-08	-1.69512814895967E-09	-11966667	5.2837891416857E-05
2	643	102.968603740029	0.132293701171875	0.132354736328125	-3.69262695312497E-08	-4.887366955586E-09	-3584297.5	5.28354321431834E-05
2	644	103.069311739775	0.122222900390625	0.122222900390625	-7.171630859375E-08	-8.76537509242326E-09	-1704255.375	5.28299606230576E-05
2	645	103.170019739521	0.112152099609375	0.1121826171875	-1.20849609375E-07	-1.35572246762194E-08	-928282.875	5.28202654095367E-05
2	646	103.270727739266	0.102081298828125	0.10205078125	-1.88293457031249E-07	-1.92154949729684E-08	-541977.3125	5.28046984982211E-05
2	647	103.371435739012	0.092010498046875	0.092071533203125	-2.79541015625E-07	-2.573776924919E-08	-329366.8125	5.27811425854452E-05
2	648	103.472143738758	0.081939697265625	0.08203125	-4.0313720703125E-07	-3.30698490813575E-08	-203482.21875	5.2746767323697E-05
2	649	103.572851738504	0.071868896484375	0.071929931640625	-5.6304931640625E-07	-4.05000974978975E-08	-127750.6796875	5.26981166331097E-05
2	650	103.673559738249	0.061798095703125	0.061798095703125	-7.6171875E-07	-4.7072767017653E-08	-81129.8046875	5.26314070157241E-05
2	651	103.774267737995	0.051727294921875	0.051727294921875	-9.94873046875E-07	-5.14620914771058E-08	-51993.86328125	5.25429568369873E-05
2	652	103.874975737741	0.041656494140625	0.041778564453125	-1.25E-06	-5.22232035393699E-08	-33422.8515625	5.24299175594933E-05
2	653	103.975683737487	0.031585693359375	0.031658935546875	-1.50634765625E-06	-4.76893653456045E-08	-21017.017578125	5.2291125030024E-05
2	654	104.076391737232	0.021514892578125	0.021612548828125	-1.73614501953125E-06	-3.75225184257033E-08	-12448.5849609375	5.21278525411617E-05
2	655	104.177099736978	0.011444091796875	0.01156005859375	-1.9171142578125E-06	-2.21619504969794E-08	-6029.92724609375	5.19438945048023E-05
2	656	104.277807736724	0.001373291015625	0.00145568847656249	-2.034912109375E-06	-2.96219804241105E-09	-715.35693359375	5.17448970640544E-05
2	657	104.37851573647	-0.008697509765625	-0.00860595703125	-2.08770751953125E-06	1.79667214439405E-08	4122.2041015625	5.15373067173641E-05
2	658	104.479223736215	-0.018768310546875	-0.018646240234375	-2.0855712890625E-06	3.88880607715691E-08	8940.591796875	5.13271625095513E-05
2	659	104.579931735961	-0.028839111328125	-0.0287445068359375	-2.04345703125E-06	5.87381663308406E-08	14066.607421875	5.1119252020726E-05
2	660	104.680639735707	-0.038909912109375	-0.0388031005859375	-1.9775390625E-06	7.67346506336253E-08	19621.912109375	5.09167766722385E-05
2	661	104.781347735453	-0.048980712890625	-0.048846435546875	-1.90093994140625E-06	9.28541368239166E-08	25695.939453125	5.07214790559374E-05
2	662	104.882055735198	-0.059051513671875	-0.0589599609375	-1.82159423828125E-06	1.07401120885697E-07	32367.23046875	5.05340358358808E-05
2	663	104.982763734944	-0.069122314453125	-0.069091796875	-1.74468994140625E-06	1.20543759862812E-07	39601.19140625	5.03544579260051E-05
2	664	105.08347173469	-0.079193115234375	-0.079193115234375	-1.67510986328125E-06	1.32657163476324E-07	47276.37109375	5.01822578371502E-05
2	665	105.184179734435	-0.089263916015625	-0.089202880859375	-1.611328125E-06	1.43735107371867E-07	55359.84765625	5.00167734571733E-05
2	666	105.284887734181	-0.099334716796875	-0.099212646484375	-1.55517578125E-06	1.54293090304236E-07	63795.13671875	4.9857328122016E-05
2	667	105.385595733927	-0.109405517578125	-0.109283447265625	-1.50634765625E-06	1.64618867870558E-07	72548.625	4.97031687700655E-05
2	668	105.486303733673	-0.119476318359375	-0.119415283203125	-1.46331787109375E-06	1.74742510239412E-07	81605.84375	4.95536332891788E-05
2	669	105.587011733418	-0.129547119140625	-0.1295166015625	-1.42608642578125E-06	1.84701875127757E-07	90819.6015625	4.94081396027468E-05
2	670	105.687719733164	-0.139617919921875	-0.1395263671875	-1.39434814453125E-06	1.94548334775391E-07	100065.65625	4.92661201860756E-05
2	671	105.78842773291	-0.149688720703125	-0.149566650390625	-1.3665771484375E-06	2.04394353886528E-07	109446.1875	4.91270948259626E-05
2	672	105.889135732656	-0.159759521484375	-0.159698486328125	-1.34307861328125E-06	2.14487613448E-07	118904.796875	4.89906560687814E-05
2	673	105.989843732401	-0.169830322265625	-0.169708251953125	-1.32354736328125E-06	2.24616897526175E-07	128222.28125	4.88563782710116E-05
2	674	106.090551732147	-0.179901123046875	-0.179779052734375	-1.307373046875E-06	2.35038285723022E-07	137511.671875	4.87239012727514E-05
2	675	106.191259731893	-0.189971923828125	-0.189849853515625	-1.2945556640625E-06	2.4577119006608E-07	146652.515625	4.85928831039928E-05
2	676	106.291967731639	-0.200042724609375	-0.19989013671875	-1.28387451171875E-06	2.56633825301833E-07	155692.90625	4.84630509163253E-05
2	677	106.392675731384	-0.189971923828125	-0.189788818359375	-1.13372802734375E-06	2.15168896033902E-07	167402.421875	4.83413132315036E-05
