Potential - Start -0.2 V, Upper Vertex 1.5 V, Lower Vertex -0.2 V, Stop -0.19 V; Scan - # end cross 5, Rate 0.1 Vps, Step 0.01 V 
Scan	Index	Time (s)	Potential applied (V)	WE(1).Potential (V)	WE(1).Current (A)	WE(1).Power (W)	WE(1).Resistance (Ω)	WE(1).Charge (C)
1	1	66.6305878317739	-0.189971923828125	-0.1898193359375	-2.37426757812501E-07	4.50681874042402E-08	799485.875	0
1	2	66.7312958315197	-0.179901123046875	-0.179779052734375	-2.044677734375E-07	3.67590224925607E-08	879253.75	-2.22511555847404E-08
1	3	66.8320038312654	-0.169830322265625	-0.169647216796875	-1.788330078125E-07	3.03385228050956E-08	948634.8125	-4.15518819352201E-08
1	4	66.9327118310111	-0.159759521484375	-0.159698486328125	-1.5594482421875E-07	2.49041516298121E-08	1024070.5	-5.84092845201667E-08
1	5	67.0334198307569	-0.149688720703125	-0.149566650390625	-1.34887695312499E-07	2.01746992445351E-08	1108823.625	-7.30538687321314E-08
1	6	67.1341278305026	-0.139617919921875	-0.139434814453125	-1.1474609375E-07	1.59995998672002E-08	1215159.625	-8.56239239510614E-08
1	7	67.2348358302484	-0.129547119140625	-0.129425048828125	-9.49096679687497E-08	1.22836878446719E-08	1363665.625	-9.61809334398822E-08
1	8	67.3355438299941	-0.119476318359375	-0.119384765625	-7.44628906250003E-08	8.88973428203599E-09	1603278.75	-1.04709513948364E-07
1	9	67.4362518297398	-0.109405517578125	-0.109344482421875	-5.12695312500006E-08	5.60604052068925E-09	2132738	-1.11040648675953E-07
1	10	67.5369598294856	-0.099334716796875	-0.099273681640625	-2.50244140624994E-08	2.48426568205673E-09	3967073.5	-1.14882354296242E-07
1	11	67.6376678292313	-0.089263916015625	-0.089202880859375	7.32421875000028E-09	-6.53341380996153E-10	-12179167	-1.1577363068227E-07
1	12	67.738375828977	-0.079193115234375	-0.07916259765625	4.76074218749997E-08	-3.76872710816656E-09	-1662820.5	-1.13007601498794E-07
1	13	67.8390838287228	-0.069122314453125	-0.069000244140625	1.0040283203125E-07	-6.9278196512812E-09	-687234.0625	-1.05554690321696E-07
1	14	67.9397918284685	-0.059051513671875	-0.058990478515625	1.708984375E-07	-1.00813801751087E-08	-345178.59375	-9.18935896265793E-08
1	15	68.0404998282143	-0.048980712890625	-0.0488555908203125	2.6519775390625E-07	-1.2956392403396E-08	-184223.25	-6.99344013810332E-08
1	16	68.14120782796	-0.038909912109375	-0.0387786865234375	3.89709472656249E-07	-1.51124215364007E-08	-99506.65625	-3.69572035197052E-08
1	17	68.2419158277057	-0.028839111328125	-0.028729248046875	5.5084228515625E-07	-1.58252859705499E-08	-52155.125	1.04033395231795E-08
1	18	68.3426238274515	-0.018768310546875	-0.0186431884765625	7.51647949218751E-07	-1.40131142245536E-08	-24803.087890625	7.59889289270177E-08
1	19	68.4433318271972	-0.008697509765625	-0.00856933593750001	9.87548828125E-07	-8.46263681353321E-09	-8677.3798828125	1.63564436661545E-07
1	20	68.5440398269429	0.001373291015625	0.0014984130859375	1.246337890625E-06	1.86752902031628E-09	1202.25268554688	2.76049576086734E-07
1	21	68.6447478266887	0.011444091796875	0.0115020751953125	1.510009765625E-06	1.73682455084645E-08	7617.21923828125	4.14842702411988E-07
1	22	68.7454558264344	0.021514892578125	0.0216339111328125	1.7498779296875E-06	3.78567044378997E-08	12363.09765625	5.78991091515491E-07
1	23	68.8461638261801	0.031585693359375	0.0316650390625	1.9415283203125E-06	6.14785662378381E-08	16309.3359375	7.64868161695631E-07
1	24	68.9468718259259	0.041656494140625	0.041748046875	2.07061767578125E-06	8.64442455394965E-08	20162.12109375	9.66895754572761E-07
1	25	69.0475798256716	0.051727294921875	0.051788330078125	2.13409423828125E-06	1.10521170881839E-07	24267.126953125	1.17861986836942E-06
1	26	69.1482878254174	0.061798095703125	0.061798095703125	2.14019775390625E-06	1.32260140617291E-07	28874.947265625	1.39384746944415E-06
1	27	69.2489958251631	0.071868896484375	0.0718994140625	2.10357666015625E-06	1.51245927781929E-07	34179.6015625	1.60753847922024E-06
1	28	69.3497038249088	0.081939697265625	0.082061767578125	2.041015625E-06	1.67489332625337E-07	40206.34375	1.81623533990205E-06
1	29	69.4504118246546	0.092010498046875	0.09210205078125	1.9647216796875E-06	1.80954884854145E-07	46877.9140625	2.01794023269031E-06
1	30	69.5511198244003	0.102081298828125	0.102081298828125	1.8853759765625E-06	1.92461627079865E-07	54143.73828125	2.21180789594655E-06
1	31	69.651827824146	0.112152099609375	0.112152099609375	1.80816650390625E-06	2.02789664172087E-07	62025.3203125	2.39779274124885E-06
1	32	69.7525358238918	0.122222900390625	0.122283935546875	1.73553466796875E-06	2.12228002283155E-07	70458.9453125	2.57623219113157E-06
1	33	69.8532438236375	0.132293701171875	0.132354736328125	1.66900634765625E-06	2.20900886915842E-07	79301.515625	2.74766443908447E-06
1	34	69.9539518233832	0.142364501953125	0.14239501953125	1.6094970703125E-06	2.29184365707624E-07	88471.75	2.91275023300841E-06
1	35	70.054659823129	0.152435302734375	0.152496337890625	1.5557861328125E-06	2.37251683188333E-07	98018.8359375	3.07213485939428E-06
1	36	70.1553678228747	0.162506103515625	0.16253662109375	1.5081787109375E-06	2.45134259557744E-07	107770.1328125	3.22641767525056E-06
1	37	70.2560758226205	0.172576904296875	0.172576904296875	1.46636962890625E-06	2.53061529065235E-07	117689.9140625	3.37619803758571E-06
1	38	70.3567838223662	0.182647705078125	0.1826171875	1.42791748046875E-06	2.60762277548565E-07	127890.578125	3.52193706021353E-06
1	39	70.4574918221119	0.192718505859375	0.19268798828125	1.39404296875E-06	2.68615309551024E-07	138222.421875	3.6640340113081E-06
1	40	70.5581998218577	0.202789306640625	0.2027587890625	1.36383056640625E-06	2.76528623999184E-07	148668.609375	3.80290407520079E-06
1	41	70.6589078216034	0.212860107421875	0.21295166015625	1.3360595703125E-06	2.84516090687248E-07	159387.859375	3.93885420635343E-06
1	42	70.7596158213491	0.222930908203125	0.222900390625	1.3116455078125E-06	2.92366308940473E-07	169939.5	4.07217703468632E-06
1	43	70.8603238210949	0.233001708984375	0.233001708984375	1.28936767578125E-06	3.00424858323822E-07	180710.0625	4.20314836446778E-06
1	44	70.9610318208406	0.243072509765625	0.24310302734375	1.268310546875E-06	3.08330129428214E-07	191674.703125	4.33193736171233E-06
1	45	71.0617398205864	0.253143310546875	0.253173828125	1.25E-06	3.16467264838138E-07	202539.0625	4.45874457000173E-06
1	46	71.1624478203321	0.263214111328125	0.263214111328125	1.23321533203125E-06	3.24599682244298E-07	213437.265625	4.58378417533822E-06
1	47	71.2631558200778	0.273284912109375	0.27337646484375	1.2176513671875E-06	3.32877192477099E-07	224511.296875	4.7071953304112E-06
1	48	71.3638638198236	0.283355712890625	0.283355712890625	1.20391845703125E-06	3.41137138093472E-07	235361.234375	4.82913083033054E-06
1	49	71.4645718195693	0.293426513671875	0.293365478515625	1.1907958984375E-06	3.49338392879872E-07	246360.859375	4.9497143663757E-06
1	50	71.565279819315	0.303497314453125	0.303466796875	1.17828369140625E-06	3.57569973630234E-07	257549.859375	5.06900732943905E-06
1	51	71.6659878190608	0.313568115234375	0.31353759765625	1.16851806640625E-06	3.66374337090747E-07	268320.71875	5.1871779760404E-06
1	52	71.7666958188065	0.323638916015625	0.32366943359375	1.15875244140625E-06	3.75052735535064E-07	279325.78125	5.30436545886914E-06
1	53	71.8674038185522	0.333709716796875	0.333740234375	1.1505126953125E-06	3.83972349027317E-07	290079.59375	5.42064617548021E-06
1	54	71.968111818298	0.343780517578125	0.343841552734375	1.142578125E-06	3.92865814546894E-07	300934.84375	5.53611243958585E-06
1	55	72.0688198180437	0.353851318359375	0.3538818359375	1.13555908203125E-06	4.01853725406909E-07	311636.65625	5.65082564207842E-06
1	56	72.1695278177895	0.363922119140625	0.363922119140625	1.12945556640625E-06	4.11033852287801E-07	322210.21875	5.76487809667015E-06
1	57	72.2702358175352	0.373992919921875	0.373992919921875	1.124267578125E-06	4.2046809767271E-07	332654.71875	5.87836211707327E-06
1	58	72.3709438172809	0.384063720703125	0.384063720703125	1.11968994140625E-06	4.30032287113136E-07	343009	5.99135455559008E-06
1	59	72.4716518170267	0.394134521484375	0.394134521484375	1.11572265625E-06	4.39744809455078E-07	353254.9375	6.1039163483656E-06
1	60	72.5723598167724	0.404205322265625	0.40423583984375	1.112060546875E-06	4.495347241118E-07	363501.65625	6.21609433437698E-06
1	61	72.6730678165181	0.414276123046875	0.414276123046875	1.1090087890625E-06	4.59435852917522E-07	373555.34375	6.32793398835929E-06
1	62	72.7737758162639	0.424346923828125	0.42437744140625	1.10687255859375E-06	4.69731730845524E-07	383402.25	6.4395126173622E-06
1	63	72.8744838160096	0.434417724609375	0.4344482421875	1.1053466796875E-06	4.80215931020211E-07	393042.53125	6.55090661894064E-06
1	64	72.9751918157554	0.444488525390625	0.44451904296875	1.1041259765625E-06	4.90805007302697E-07	402598.125	6.66216237732442E-06
1	65	73.0758998155011	0.454559326171875	0.45452880859375	1.10260009765625E-06	5.01163526678283E-07	412233.59375	6.77327989251353E-06
1	66	73.1766078152468	0.464630126953125	0.46453857421875	1.10260009765625E-06	5.12200301727717E-07	421311.9375	6.88432055540034E-06
1	67	73.2773158149926	0.474700927734375	0.474700927734375	1.10321044921875E-06	5.23695007359493E-07	430290.5	6.99539168635965E-06
1	68	73.3780238147383	0.484771728515625	0.484771728515625	1.10382080078125E-06	5.35101094101265E-07	439176.125	7.10652466295869E-06
1	69	73.478731814484	0.494842529296875	0.49481201171875	1.10504150390625E-06	5.46787816801952E-07	447776.84375	7.21774949852261E-06
1	70	73.5794398142298	0.504913330078125	0.5048828125	1.1065673828125E-06	5.58686792828667E-07	456260.375	7.32911303202854E-06
1	71	73.6801478139755	0.514984130859375	0.514984130859375	1.10931396484375E-06	5.71279088035226E-07	464236.59375	7.44069166103145E-06
1	72	73.7808558137212	0.525054931640625	0.52496337890625	1.11236572265625E-06	5.83951248245285E-07	471934.1875	7.55256178308628E-06
1	73	73.881563813467	0.535125732421875	0.53509521484375	1.11541748046875E-06	5.96854533796431E-07	479726.40625	7.6647393143503E-06
1	74	73.9822718132127	0.545196533203125	0.545196533203125	1.1187744140625E-06	6.09951939622988E-07	487315.875	7.7772401709808E-06
1	75	74.0829798129585	0.555267333984375	0.555206298828125	1.1236572265625E-06	6.23861524218228E-07	494106.5	7.89015575719532E-06
1	76	74.1836878127042	0.565338134765625	0.5653076171875	1.12762451171875E-06	6.37454718344088E-07	501326.125	8.0035169958137E-06
1	77	74.2843958124499	0.575408935546875	0.575347900390625	1.1328125E-06	6.51761297376652E-07	507893.3125	8.11733843875118E-06
1	78	74.3851038121957	0.585479736328125	0.585479736328125	1.13861083984375E-06	6.66633582113718E-07	514205.3125	8.23171376396203E-06
1	79	74.4858118119414	0.595550537109375	0.59552001953125	1.1444091796875E-06	6.8151854293319E-07	520373.375	8.34667298477143E-06
1	80	74.5865198116871	0.605621337890625	0.6055908203125	1.1517333984375E-06	6.97479151767766E-07	525808.1875	8.46229340822902E-06
1	81	74.6872278114329	0.615692138671875	0.61566162109375	1.1590576171875E-06	7.13587269274285E-07	531174.3125	8.57865052239504E-06
1	82	74.7879358111786	0.625762939453125	0.625762939453125	1.16729736328125E-06	7.30451404251653E-07	536078.4375	8.69579162099399E-06
1	83	74.8886438109243	0.635833740234375	0.63580322265625	1.17645263671875E-06	7.47992373817397E-07	540441	8.81380947248545E-06
1	84	74.9893518106701	0.645904541015625	0.6458740234375	1.18682861328125E-06	7.6654180247715E-07	544201.5625	8.93280957825482E-06
1	85	75.0900598104158	0.655975341796875	0.655914306640625	1.19842529296875E-06	7.86064276780962E-07	547313.5	9.05291653907625E-06
1	86	75.1907678101616	0.666046142578125	0.666015625	1.20941162109375E-06	8.05487047728093E-07	550693.9375	9.1741612777696E-06
1	87	75.2914758099073	0.676116943359375	0.676055908203125	1.2200927734375E-06	8.24850872049865E-07	554102.0625	9.29649650061037E-06
1	88	75.392183809653	0.686187744140625	0.686126708984375	1.23016357421875E-06	8.44048088310956E-07	557752.4375	9.41987673286349E-06
1	89	75.4928918093988	0.696258544921875	0.6961669921875	1.239013671875E-06	8.62560398218193E-07	561871.9375	9.54420920606935E-06
1	90	75.5935998091445	0.706329345703125	0.706298828125	1.246337890625E-06	8.80286961546517E-07	566699.3125	9.66935658652801E-06
1	91	75.6943078088902	0.716400146484375	0.716339111328125	1.2542724609375E-06	8.98484415756684E-07	571119.25	9.79527249000967E-06
1	92	75.795015808636	0.726470947265625	0.72637939453125	1.26251220703125E-06	9.17062891403475E-07	575344.4375	9.92200239124941E-06
1	93	75.8957238083817	0.736541748046875	0.7364501953125	1.27166748046875E-06	9.36519711558503E-07	579121.6875	1.00496090453817E-05
1	94	75.9964318081275	0.746612548828125	0.74652099609375	1.28448486328125E-06	9.58894929681264E-07	581183.1875	1.01783216450713E-05
1	95	76.0971398078732	0.756683349609375	0.75653076171875	1.3018798828125E-06	9.84912162493856E-07	581106.4375	1.03085549199022E-05
1	96	76.1978478076189	0.766754150390625	0.76690673828125	1.3262939453125E-06	1.01714374522999E-06	578232.875	1.04408945844625E-05
1	97	76.2985558073647	0.776824951171875	0.77728271484375	1.36016845703125E-06	1.05723540855251E-06	571460.625	1.05761682789307E-05
1	98	76.3992638071104	0.786895751953125	0.78643798828125	1.40594482421875E-06	1.10568839772895E-06	559366.1875	1.07154528450337E-05
1	99	76.4999718068561	0.796966552734375	0.797119140625	1.46392822265625E-06	1.16692513074668E-06	544507	1.08599624581984E-05
1	100	76.6006798066019	0.807037353515625	0.8074951171875	1.5362548828125E-06	1.24051837246952E-06	525625.75	1.10110340756364E-05
1	101	76.7013878063476	0.817108154296875	0.8172607421875	1.6204833984375E-06	1.32435741306836E-06	504331.46875	1.11699882836547E-05
1	102	76.8020958060933	0.827178955078125	0.82794189453125	1.71234130859375E-06	1.41771909056843E-06	483514.53125	1.13378091555205E-05
1	103	76.9028038058391	0.837249755859375	0.83770751953125	1.8035888671875E-06	1.51087988342624E-06	464467.03125	1.15148504846729E-05
1	104	77.0035118055848	0.847320556640625	0.8477783203125	1.8853759765625E-06	1.59838077706809E-06	449660.09375	1.17006047730683E-05
1	105	77.1042198053306	0.857391357421875	0.8575439453125	1.94915771484375E-06	1.67148834862019E-06	439956.1875	1.18936886792653E-05
1	106	77.2049278050763	0.867462158203125	0.86761474609375	1.993408203125E-06	1.72951035892766E-06	435241.875	1.20922131827683E-05
1	107	77.305635804822	0.877532958984375	0.87738037109375	2.01568603515625E-06	1.76852336153388E-06	435276.3125	1.22940864457632E-05
1	108	77.4063438045678	0.887603759765625	0.887451171875	2.02117919921875E-06	1.79369783381844E-06	439075.96875	1.24973594211042E-05
1	109	77.5070518043135	0.897674560546875	0.89813232421875	2.01416015625E-06	1.80898234702909E-06	445909.09375	1.27005541799008E-05
1	110	77.6077598040592	0.907745361328125	0.90789794921875	2.0001220703125E-06	1.81590678494103E-06	453921.25	1.29026893773698E-05
1	111	77.708467803805	0.917816162109375	0.91766357421875	1.983642578125E-06	1.82031647000258E-06	462615.40625	1.31032884382876E-05
1	112	77.8091758035507	0.927886962890625	0.927734375	1.96807861328125E-06	1.825854155868E-06	471390.9375	1.33022731461097E-05
1	113	77.9098838032965	0.937957763671875	0.9381103515625	1.95556640625E-06	1.83453710178583E-06	479712.875	1.34998444991652E-05
1	114	78.0105918030422	0.948028564453125	0.94818115234375	1.94732666015625E-06	1.84641839950928E-06	486914.28125	1.36963708428084E-05
1	115	78.1112998027879	0.958099365234375	0.95794677734375	1.94610595703125E-06	1.86426586878952E-06	492237.75	1.38924206112279E-05
1	116	78.2120078025337	0.968170166015625	0.96832275390625	1.95098876953125E-06	1.88918670573912E-06	496324.125	1.40886550070718E-05
1	117	78.3127158022794	0.978240966796875	0.97869873046875	1.9622802734375E-06	1.92048128155875E-06	498755.8125	1.42857034006738E-05
1	118	78.4134238020251	0.988311767578125	0.9881591796875	1.978759765625E-06	1.95532948055188E-06	499383.125	1.44841505971272E-05
1	119	78.5141318017709	0.998382568359375	0.99853515625	1.99798583984375E-06	1.99505893760943E-06	499770.9375	1.46843958646059E-05
1	120	78.6148398015166	1.00845336914063	1.00799560546875	2.015380859375E-06	2.03149511435186E-06	500151.40625	1.48864846778451E-05
1	121	78.7155478012623	1.01852416992188	1.01806640625	2.02880859375E-06	2.06546178560529E-06	501805.09375	1.50901259985403E-05
1	122	78.8162558010081	1.02859497070313	1.02874755859375	2.0355224609375E-06	2.09403856388235E-06	505397.3125	1.5294781405828E-05
1	123	78.9169638007538	1.03866577148438	1.03851318359375	2.03582763671875E-06	2.11423366636154E-06	510118.46875	1.54997906065546E-05
1	124	79.0176718004996	1.04873657226563	1.04888916015625	2.030029296875E-06	2.12927557186049E-06	516686.71875	1.57045215019025E-05
1	125	79.1183798002453	1.05880737304688	1.0589599609375	2.0208740234375E-06	2.14002466236707E-06	524010.875	1.59085011546267E-05
1	126	79.219087799991	1.06887817382813	1.0687255859375	2.00836181640625E-06	2.14638748730067E-06	532138	1.61113894137088E-05
1	127	79.3197957997368	1.07894897460938	1.0784912109375	1.995849609375E-06	2.15250611290685E-06	540367	1.63130171131343E-05
1	128	79.4205037994825	1.08901977539063	1.0888671875	1.98272705078125E-06	2.15892646338034E-06	549176.5	1.65133551490726E-05
1	129	79.5212117992282	1.09909057617188	1.09893798828125	1.971435546875E-06	2.16648527384677E-06	557430.375	1.67124635481741E-05
1	130	79.621919798974	1.10916137695313	1.10931396484375	1.961669921875E-06	2.17610772779153E-06	565494.75	1.6910509657464E-05
1	131	79.7226277987197	1.11923217773438	1.11907958984375	1.9525146484375E-06	2.18501918425318E-06	573147.875	1.71076044352958E-05
1	132	79.8233357984655	1.12930297851563	1.129150390625	1.9451904296875E-06	2.19641242438229E-06	580483.1875	1.73038697539596E-05
1	133	79.9240437982112	1.13937377929688	1.1395263671875	1.939697265625E-06	2.21033633351908E-06	587476.375	1.74994893313851E-05
1	134	80.0247517979569	1.14944458007813	1.14959716796875	1.93511962890625E-06	2.22460789700563E-06	594070.375	1.76946014107671E-05
1	135	80.1254597977027	1.15951538085938	1.1602783203125	1.93206787109375E-06	2.24173641072412E-06	600537.0625	1.78893315023743E-05
1	136	80.2261677974484	1.16958618164063	1.1700439453125	1.92962646484375E-06	2.25774783757515E-06	606357.75	1.80837832886027E-05
1	137	80.3268757971941	1.17965698242188	1.17950439453125	1.92901611328125E-06	2.27528289542533E-06	611453.9375	1.82780804607319E-05
1	138	80.4275837969399	1.18972778320313	1.190185546875	1.9293212890625E-06	2.29625038628001E-06	616893.375	1.84723630809458E-05
1	139	80.5282917966856	1.19979858398438	1.1993408203125	1.93023681640625E-06	2.31501167036186E-06	621343.875	1.86667075467994E-05
1	140	80.6289997964313	1.20986938476563	1.209716796875	1.9329833984375E-06	2.33836249208252E-06	625828.875	1.88612357305828E-05
1	141	80.7297077961771	1.21994018554688	1.219482421875	1.93634033203125E-06	2.36133314501785E-06	629787.25	1.90560713235755E-05
1	142	80.8304157959228	1.23001098632813	1.229248046875	1.94061279296875E-06	2.3854943265178E-06	633432.9375	1.92512925423216E-05
1	143	80.9311237956686	1.24008178710938	1.240234375	1.94580078125E-06	2.41324892158445E-06	637390.25	1.94469885173021E-05
1	144	81.0318317954143	1.25015258789063	1.25	1.95098876953125E-06	2.43873591898591E-06	640700.8125	1.96432065422414E-05
1	145	81.13253979516	1.26022338867188	1.259765625	1.9573974609375E-06	2.46586205321364E-06	643592.125	1.98400102817686E-05
1	146	81.2332477949058	1.27029418945313	1.2701416015625	1.96441650390625E-06	2.49508707383939E-06	646574.5	2.00374888663646E-05
1	147	81.3339557946515	1.28036499023438	1.28021240234375	1.9720458984375E-06	2.52463746619469E-06	649179.875	2.02357059606584E-05
1	148	81.4346637943972	1.29043579101563	1.29058837890625	1.9805908203125E-06	2.55612735600153E-06	651617.9375	2.04347361432156E-05
1	149	81.535371794143	1.30050659179688	1.30035400390625	1.98944091796875E-06	2.58697718891199E-06	653627.9375	2.06346430786652E-05
1	150	81.6360797938887	1.31057739257813	1.3104248046875	1.99920654296875E-06	2.61980972027231E-06	655472.5	2.08354886126472E-05
1	151	81.7367877936344	1.32064819335938	1.32080078125	2.00958251953125E-06	2.65425796897034E-06	657251.375	2.10373473237269E-05
1	152	81.8374957933802	1.33071899414063	1.33026123046875	2.02056884765625E-06	2.68788448920532E-06	658359.75	2.12402810575441E-05
1	153	81.9382037931259	1.34078979492188	1.34002685546875	2.03277587890625E-06	2.72397437584004E-06	659210.3125	2.14443825825583E-05
1	154	82.0389117928717	1.35086059570313	1.35101318359375	2.04498291015625E-06	2.76279888566933E-06	660647.6875	2.16497155633988E-05
1	155	82.1396197926174	1.36093139648438	1.3604736328125	2.05841064453125E-06	2.80041354017158E-06	660934	2.1856336388737E-05
1	156	82.2403277923631	1.37100219726563	1.37115478515625	2.07244873046875E-06	2.84164798358688E-06	661610.9375	2.20643414650112E-05
1	157	82.3410357921089	1.38107299804688	1.3812255859375	2.0867919921875E-06	2.88233036371821E-06	661889.4375	2.22737762669567E-05
1	158	82.4417437918546	1.39114379882813	1.39129638671875	2.10296630859375E-06	2.92584923045069E-06	661587.625	2.24847481149482E-05
1	159	82.5424517916003	1.40121459960938	1.4013671875	2.1221923828125E-06	2.97397082249518E-06	660339.375	2.26975007535657E-05
1	160	82.6431597913461	1.41128540039063	1.41143798828125	2.14447021484375E-06	3.02678677144286E-06	658175.5625	2.29123452299973E-05
1	161	82.7438677910918	1.42135620117188	1.4215087890625	2.17132568359375E-06	3.0865585358697E-06	654673.25	2.31296617130283E-05
1	162	82.8445757908376	1.43142700195313	1.4312744140625	2.20489501953125E-06	3.15580996357312E-06	649134.9375	2.33500231843209E-05
1	163	82.9452837905833	1.44149780273438	1.44134521484375	2.24578857421875E-06	3.23695644510735E-06	641799.1875	2.35741317737848E-05
1	164	83.045991790329	1.45156860351563	1.451416015625	2.2955322265625E-06	3.33177217726188E-06	632278.6875	2.38028060266515E-05
1	165	83.1466997900748	1.46163940429688	1.46148681640625	2.35565185546875E-06	3.44275395036675E-06	620417.1875	2.40370118262945E-05
1	166	83.2474077898205	1.47171020507813	1.47186279296875	2.42706298828125E-06	3.57230373992934E-06	606437.8125	2.42778405663557E-05
1	167	83.3481157895662	1.48178100585938	1.48193359375	2.508544921875E-06	3.71749683836242E-06	590754.25	2.45263690885622E-05
1	168	83.448823789312	1.49185180664063	1.49139404296875	2.5994873046875E-06	3.87685986424913E-06	573726.25	2.47835778282024E-05
1	169	83.5495317890577	1.50192260742188	1.50177001953125	2.69622802734375E-06	4.04911452278611E-06	556989.25	2.50502380367834E-05
1	170	83.6502397888034	1.49185180664063	1.49139404296875	2.40509033203125E-06	3.58693728230719E-06	620099	2.53071102633839E-05
1	171	83.7509477885492	1.48178100585938	1.48223876953125	2.1942138671875E-06	3.25234873344016E-06	675521.625	2.55387039942434E-05
1	172	83.8516557882949	1.47171020507813	1.47186279296875	2.0294189453125E-06	2.98702616419178E-06	725263.125	2.5751380235306E-05
1	173	83.9523637880407	1.46163940429688	1.46209716796875	1.89483642578125E-06	2.77043500318541E-06	771621.875	2.59489825111814E-05
1	174	84.0530717877864	1.45156860351563	1.45172119140625	1.78314208984375E-06	2.58862496593792E-06	814136.625	2.61341829173034E-05
1	175	84.1537797875321	1.44149780273438	1.441650390625	1.6888427734375E-06	2.43472072725126E-06	853632.125	2.63090114458464E-05
1	176	84.2544877872779	1.43142700195313	1.431884765625	1.60888671875E-06	2.30374030252278E-06	889984.8125	2.64750651695067E-05
1	177	84.3551957870236	1.42135620117188	1.42120361328125	1.54052734375E-06	2.18940294871572E-06	922543.625	2.66336519416654E-05
1	178	84.4559037867693	1.41128540039063	1.41143798828125	1.48223876953125E-06	2.0920881524944E-06	952233.875	2.6785859517986E-05
1	179	84.5566117865151	1.40121459960938	1.4013671875	1.43096923828125E-06	2.00531326299824E-06	979313.3125	2.69325519184349E-05
1	180	84.6573197862608	1.39114379882813	1.39068603515625	1.38671875E-06	1.92849029190256E-06	1002860.9375	2.70744330919115E-05
1	181	84.7580277860066	1.38107299804688	1.3812255859375	1.34857177734375E-06	1.86268187007954E-06	1024213.625	2.72121651505586E-05
1	182	84.8587357857523	1.37100219726563	1.370849609375	1.31500244140625E-06	1.80267056748562E-06	1042469.25	2.7346288334229E-05
1	183	84.959443785498	1.36093139648438	1.36077880859375	1.285400390625E-06	1.74914555373107E-06	1058642	2.74772282864433E-05
1	184	85.0601517852438	1.35086059570313	1.3507080078125	1.258544921875E-06	1.6999266563289E-06	1073229.875	2.76053251582198E-05
1	185	85.1608597849895	1.34078979492188	1.34063720703125	1.23504638671875E-06	1.65574920174549E-06	1085495.375	2.77308881777572E-05
1	186	85.2615677847352	1.33071899414063	1.33087158203125	1.21307373046875E-06	1.61444529567234E-06	1097107	2.78541610896355E-05
1	187	85.362275784481	1.32064819335938	1.32049560546875	1.19354248046875E-06	1.57606746142847E-06	1106366.75	2.79753439826891E-05
1	188	85.4629837842267	1.31057739257813	1.3104248046875	1.1761474609375E-06	1.54125268636562E-06	1114167.125	2.80946678685723E-05
1	189	85.5636917839724	1.30050659179688	1.30126953125	1.1590576171875E-06	1.50824621414358E-06	1122696.25	2.82122546195751E-05
1	190	85.6643997837182	1.29043579101563	1.290283203125	1.14349365234375E-06	1.47543062212208E-06	1128369.375	2.83281970041571E-05
1	191	85.7651077834639	1.28036499023438	1.280517578125	1.129150390625E-06	1.44589694173192E-06	1134054	2.8442633265513E-05
1	192	85.8658157832097	1.27029418945313	1.2701416015625	1.11541748046875E-06	1.41673820053256E-06	1138714.125	2.85556561721023E-05
1	193	85.9665237829554	1.26022338867188	1.2603759765625	1.102294921875E-06	1.38930590765085E-06	1143410.875	2.86673275695648E-05
1	194	86.0672317827011	1.25015258789063	1.25	1.0894775390625E-06	1.36184689836227E-06	1147338.875	2.87776911136461E-05
1	195	86.1679397824469	1.24008178710938	1.240234375	1.07757568359375E-06	1.33644641664432E-06	1150948.75	2.88868104689755E-05
1	196	86.2686477821926	1.23001098632813	1.2298583984375	1.06597900390625E-06	1.31100318867539E-06	1153736.125	2.89947474811925E-05
1	197	86.3693557819383	1.21994018554688	1.21917724609375	1.05499267578125E-06	1.28622298234404E-06	1155626.375	2.91015476250323E-05
1	198	86.4700637816841	1.20986938476563	1.209716796875	1.043701171875E-06	1.26258271393453E-06	1159064.375	2.92072254524101E-05
1	199	86.5707717814298	1.19979858398438	1.1993408203125	1.03363037109375E-06	1.23967515719414E-06	1160318.875	2.9311826438061E-05
1	200	86.6714797811755	1.18972778320313	1.18988037109375	1.02294921875E-06	1.21718710488494E-06	1163186.25	2.94153833237942E-05
1	201	86.7721877809213	1.17965698242188	1.17950439453125	1.0125732421875E-06	1.19433457257401E-06	1164858.375	2.95178797387052E-05
1	202	86.872895780667	1.16958618164063	1.16943359375	1.00311279296875E-06	1.17307376967801E-06	1165804.75	2.96193775284337E-05
1	203	86.9736037804128	1.15951538085938	1.15936279296875	9.930419921875E-07	1.15129591904406E-06	1167486.125	2.97198930638842E-05
1	204	87.0743117801585	1.14944458007813	1.1492919921875	9.83581542968751E-07	1.13042244720418E-06	1168476.5	2.9819422707078E-05
1	205	87.1750197799042	1.13937377929688	1.1395263671875	9.735107421875E-07	1.10934115582495E-06	1170532.875	2.99179719149834E-05
1	206	87.27572777965	1.12930297851563	1.1297607421875	9.63134765625E-07	1.088111844183E-06	1173003.75	3.00154897558969E-05
1	207	87.3764357793957	1.11923217773438	1.119384765625	9.53063964843751E-07	1.06684524325829E-06	1174511.75	3.01119762298185E-05
1	208	87.4771437791414	1.10916137695313	1.10931396484375	9.417724609375E-07	1.04472132989031E-06	1177900.25	3.02073894999921E-05
1	209	87.5778517788872	1.09909057617188	1.09893798828125	9.2926025390625E-07	1.02119940947887E-06	1182594.375	3.03016040561488E-05
1	210	87.6785597786329	1.08901977539063	1.0894775390625	9.1552734375E-07	9.97446477413177E-07	1190000	3.03944962070091E-05
1	211	87.7792677783787	1.07894897460938	1.0784912109375	8.99658203125001E-07	9.7027339052147E-07	1198778.875	3.04858986055478E-05
1	212	87.8799757781244	1.06887817382813	1.06842041015625	8.81347656250001E-07	9.41649830110691E-07	1212257.625	3.05755784211215E-05
1	213	87.9806837778701	1.05880737304688	1.058349609375	8.59680175781249E-07	9.09842128749005E-07	1231097	3.06632464344148E-05
1	214	88.0813917776159	1.04873657226563	1.048583984375	8.33740234374999E-07	8.7424666617153E-07	1257686.75	3.07485170196742E-05
1	215	88.1820997773616	1.03866577148438	1.0382080078125	8.0230712890625E-07	8.32961688956857E-07	1294028.125	3.08308990497608E-05
1	216	88.2828077771073	1.02859497070313	1.0284423828125	7.672119140625E-07	7.89033208548062E-07	1340493.25	3.0909930501366E-05
1	217	88.3835157768531	1.01852416992188	1.01837158203125	7.27233886718751E-07	7.405943165395E-07	1400335.75	3.09851820929907E-05
1	218	88.4842237765988	1.00845336914063	1.00830078125	6.86035156250001E-07	6.91729781010508E-07	1469750.875	3.10563445964362E-05
1	219	88.5849317763445	0.998382568359375	0.99822998046875	6.4727783203125E-07	6.46132150450285E-07	1542197.125	3.11234834953211E-05
1	220	88.6856397760903	0.988311767578125	0.98846435546875	6.14013671874999E-07	6.06930598223698E-07	1609841.125	3.11869953293353E-05
1	221	88.786347775836	0.978240966796875	0.97808837890625	5.86853027343751E-07	5.73994100250275E-07	1666666.75	3.1247462175088E-05
1	222	88.8870557755818	0.968170166015625	0.96832275390625	5.6732177734375E-07	5.49350545497873E-07	1706831.625	3.13055788865313E-05
1	223	88.9877637753275	0.958099365234375	0.958251953125	5.52978515624999E-07	5.29892759004724E-07	1732891.875	3.13619893859141E-05
1	224	89.0884717750732	0.948028564453125	0.9478759765625	5.4168701171875E-07	5.1345205065445E-07	1749859.25	3.14171120407991E-05
1	225	89.189179774819	0.937957763671875	0.93841552734375	5.3131103515625E-07	4.98590509323549E-07	1766226.375	3.1471143302042E-05
1	226	89.2898877745647	0.927886962890625	0.92803955078125	5.18188476562501E-07	4.80899416288594E-07	1790930.5	3.15239885821939E-05
1	227	89.3905957743104	0.917816162109375	0.91766357421875	5.0048828125E-07	4.59279874576168E-07	1833536.625	3.15752840833738E-05
1	228	89.4913037740562	0.907745361328125	0.9075927734375	4.75158691406249E-07	4.3125058368787E-07	1910083.5	3.16244113491848E-05
1	229	89.5920117738019	0.897674560546875	0.8978271484375	4.3975830078125E-07	3.94826912497592E-07	2041637.875	3.1670479074819E-05
1	230	89.6927197735477	0.887603759765625	0.88775634765625	3.92761230468749E-07	3.48676280736981E-07	2260295.25	3.17123995046131E-05
1	231	89.7934277732934	0.877532958984375	0.877685546875	3.2989501953125E-07	2.89544090037452E-07	2660499.5	3.17487902066205E-05
1	232	89.8941357730391	0.867462158203125	0.8673095703125	2.5177001953125E-07	2.18362544046613E-07	3444848.5	3.17780795739964E-05
1	233	89.9948437727849	0.857391357421875	0.85723876953125	1.605224609375E-07	1.37606079420038E-07	5340304	3.17988378810696E-05
1	234	90.0955517725306	0.847320556640625	0.84747314453125	6.31713867187495E-08	5.35360520359518E-08	13415459	3.18101047014352E-05
1	235	90.1962597722763	0.837249755859375	0.83770751953125	-3.29589843750006E-08	-2.76099871854285E-08	-25416668	3.18116253765766E-05
1	236	90.2969677720221	0.827178955078125	0.82763671875	-1.16577148437499E-07	-9.6483525169333E-08	-7099476.5	3.18040947604459E-05
1	237	90.3976757717678	0.817108154296875	0.81695556640625	-1.8157958984375E-07	-1.48342451211647E-07	-4499160	3.1789080821909E-05
1	238	90.4983837715135	0.807037353515625	0.8074951171875	-2.227783203125E-07	-1.79892396090509E-07	-3624657.75	3.17687190545257E-05
1	239	90.5990917712593	0.796966552734375	0.79742431640625	-2.42004394531251E-07	-1.92980166957568E-07	-3295082.25	3.17453159368597E-05
1	240	90.699799771005	0.786895751953125	0.7867431640625	-2.423095703125E-07	-1.90635390140415E-07	-3246851.5	3.17209305649158E-05
1	241	90.8005077707508	0.776824951171875	0.77667236328125	-2.28271484375001E-07	-1.7729215073814E-07	-3402406.5	3.16972327709664E-05
1	242	90.9012157704965	0.766754150390625	0.7672119140625	-2.0599365234375E-07	-1.58040776909729E-07	-3724444.5	3.16753685183357E-05
1	243	91.0019237702422	0.756683349609375	0.75714111328125	-1.7822265625E-07	-1.34939696749825E-07	-4248288	3.16560217470396E-05
1	244	91.102631769988	0.746612548828125	0.746490478515625	-1.47399902343751E-07	-1.10032623013012E-07	-5064389	3.16396217385773E-05
1	245	91.2033397697337	0.736541748046875	0.7364501953125	-1.15356445312501E-07	-8.49542729497443E-08	-6384127	3.16263940476347E-05
1	246	91.3040477694794	0.726470947265625	0.726409912109375	-8.42285156249997E-08	-6.11844228615155E-08	-8624276	3.16163423121907E-05
1	247	91.4047557692252	0.716400146484375	0.71630859375	-5.70678710937494E-08	-4.08782057093049E-08	-12551872	3.1609226425644E-05
1	248	91.5054637689709	0.706329345703125	0.70623779296875	-3.47900390625003E-08	-2.45700384482461E-08	-20300000	3.16046025545802E-05
1	249	91.6061717687166	0.696258544921875	0.696197509765625	-1.58691406249994E-08	-1.1048055803542E-08	-43871152	3.16020523314364E-05
1	250	91.7068797684624	0.686187744140625	0.68609619140625	-1.52587890625E-09	-1.04689967805882E-09	-449640000	3.16011755785439E-05
1	251	91.8075877682081	0.676116943359375	0.676055908203125	1.068115234375E-08	7.22105575334808E-09	63294288	3.16016376018524E-05
1	252	91.9082957679539	0.666046142578125	0.66607666015625	2.01416015624997E-08	1.34158497644421E-08	33069698	3.16031873808242E-05
1	253	92.0090037676996	0.655975341796875	0.6558837890625	2.92968749999997E-08	1.92153457589939E-08	22387500	3.16056793963071E-05
1	254	92.1097117674453	0.645904541015625	0.645843505859375	3.78417968750003E-08	2.44398794535527E-08	17066936	3.16090590786189E-05
1	255	92.2104197671911	0.635833740234375	0.63580322265625	4.60815429687497E-08	2.92987927252852E-08	13797351	3.16132864099927E-05
1	256	92.3111277669368	0.625762939453125	0.625701904296875	5.40161132812494E-08	3.3797984855255E-08	11583616	3.16183250106405E-05
1	257	92.4118357666825	0.615692138671875	0.615753173828125	6.22558593750003E-08	3.83342424470356E-08	9890687	3.16241785185412E-05
1	258	92.5125437664283	0.605621337890625	0.60552978515625	7.04956054687497E-08	4.26871871184176E-08	8589611	3.16308651235886E-05
1	259	92.613251766174	0.595550537109375	0.59552001953125	7.781982421875E-08	4.63432598962754E-08	7652549.5	3.16383338940796E-05
1	260	92.7139597659198	0.585479736328125	0.58544921875	8.48388671875006E-08	4.96688485895902E-08	6900719.5	3.16465229843743E-05
1	261	92.8146677656655	0.575408935546875	0.57537841796875	9.1552734375E-08	5.26774677211961E-08	6284666.5	3.16554069286212E-05
1	262	92.9153757654112	0.565338134765625	0.565338134765625	9.70458984375006E-08	5.48637473229974E-08	5825471.5	3.16649020533077E-05
1	263	93.016083765157	0.555267333984375	0.55523681640625	1.0223388671875E-07	5.67640157100868E-08	5431045	3.16749355988577E-05
1	264	93.1167917649027	0.545196533203125	0.545166015625	1.0711669921875E-07	5.8396384616799E-08	5089459	3.16854784614407E-05
1	265	93.2174997646484	0.535125732421875	0.5350341796875	1.116943359375E-07	5.97602891616589E-08	4790164	3.16964978992473E-05
1	266	93.3182077643942	0.525054931640625	0.5250244140625	1.15356445312501E-07	6.05649503881978E-08	4551323	3.17079284286592E-05
1	267	93.4189157641399	0.514984130859375	0.51495361328125	1.190185546875E-07	6.12890360685014E-08	4326667	3.17197300319094E-05
1	268	93.5196237638856	0.504913330078125	0.5048828125	1.2237548828125E-07	6.17852791151563E-08	4125686	3.17318845191039E-05
1	269	93.6203317636314	0.494842529296875	0.49481201171875	1.251220703125E-07	6.19119049360961E-08	3954634.25	3.1744348234497E-05
1	270	93.7210397633771	0.484771728515625	0.484771728515625	1.27563476562501E-07	6.1839159570809E-08	3800239.5	3.17570738843642E-05
1	271	93.8217477631229	0.474700927734375	0.474639892578125	1.30310058593749E-07	6.18503506188972E-08	3642388.75	3.17700578307267E-05
1	272	93.9224557628686	0.464630126953125	0.464630126953125	1.31835937499999E-07	6.12549442280397E-08	3524305.75	3.17832564178389E-05
1	273	94.0231637626143	0.454559326171875	0.454559326171875	1.33361816406249E-07	6.06208558906474E-08	3408467	3.17966114380397E-05
1	274	94.1238717623601	0.444488525390625	0.44451904296875	1.35192871093751E-07	6.00958003360574E-08	3288036.25	3.18101338052657E-05
1	275	94.2245797621058	0.434417724609375	0.4344482421875	1.361083984375E-07	5.91320556964092E-08	3191928.25	3.18237944156863E-05
1	276	94.3252877618515	0.424346923828125	0.42431640625	1.373291015625E-07	5.8270988034792E-08	3089778	3.18375641654711E-05
1	277	94.4259957615973	0.414276123046875	0.414276123046875	1.385498046875E-07	5.73978766738037E-08	2990088	3.18514539685566E-05
1	278	94.526703761343	0.404205322265625	0.4041748046875	1.39770507812501E-07	5.64917179701752E-08	2891703	3.18654711009003E-05
1	279	94.6274117610888	0.394134521484375	0.394134521484375	1.4007568359375E-07	5.52086625305037E-08	2813725.5	3.18795609928202E-05
1	280	94.7281197608345	0.384063720703125	0.384063720703125	1.4068603515625E-07	5.40323981113033E-08	2729935	3.18936981784645E-05
1	281	94.8288277605802	0.373992919921875	0.37396240234375	1.40991210937499E-07	5.27254080395778E-08	2652381	3.19078826578334E-05
1	282	94.929535760326	0.363922119140625	0.3638916015625	1.41296386718751E-07	5.14165670040256E-08	2575378	3.19220962410327E-05
1	283	95.0302437600717	0.353851318359375	0.3538818359375	1.416015625E-07	5.0110219973476E-08	2499138	3.19363425660413E-05
1	284	95.1309517598174	0.343780517578125	0.34381103515625	1.4190673828125E-07	4.87891043121635E-08	2422795.75	3.19506179948803E-05
1	285	95.2316597595632	0.333709716796875	0.333740234375	1.422119140625E-07	4.74618389034731E-08	2346781	3.19649225275498E-05
1	286	95.3323677593089	0.323638916015625	0.323638916015625	1.416015625E-07	4.58277753523362E-08	2285560.25	3.19792161462829E-05
1	287	95.4330757590546	0.313568115234375	0.313629150390625	1.4190673828125E-07	4.45060912568351E-08	2210107.5	3.19934915751219E-05
1	288	95.5337837588004	0.303497314453125	0.303436279296875	1.40991210937499E-07	4.27818456216755E-08	2152164.5	3.20077342621516E-05
1	289	95.6344917585461	0.293426513671875	0.29339599609375	1.4068603515625E-07	4.12767171553696E-08	2085466.5	3.20219187415205E-05
1	290	95.7351997582919	0.283355712890625	0.2833251953125	1.4007568359375E-07	3.9686970154662E-08	2022658	3.20360559271649E-05
1	291	95.8359077580376	0.273284912109375	0.273284912109375	1.385498046875E-07	3.78635718334408E-08	1972466.875	3.20500876114238E-05
1	292	95.9366157577833	0.263214111328125	0.26324462890625	1.3702392578125E-07	3.60708085622718E-08	1921158.25	3.20639628625941E-05
1	293	96.0373237575291	0.253143310546875	0.25311279296875	1.35498046875E-07	3.42962884758435E-08	1868018.125	3.20776853186544E-05
1	294	96.1380317572748	0.243072509765625	0.24310302734375	1.33361816406249E-07	3.24206581581166E-08	1822883.375	3.20912222377956E-05
1	295	96.2387397570205	0.233001708984375	0.2330322265625	1.3092041015625E-07	3.05086764740281E-08	1779953.375	3.21045299642719E-05
1	296	96.3394477567663	0.222930908203125	0.222930908203125	1.28173828125E-07	2.85739076844038E-08	1739285.75	3.2117579394253E-05
1	297	96.440155756512	0.212860107421875	0.21282958984375	1.251220703125E-07	2.66296797946097E-08	1700975.625	3.21303305099718E-05
1	298	96.5408637562577	0.202789306640625	0.20281982421875	1.21459960937501E-07	2.46344882270932E-08	1669849.25	3.21427469316404E-05
1	299	96.6415717560035	0.192718505859375	0.192779541015625	1.171875E-07	2.25913510121245E-08	1645052.125	3.21547668136191E-05
1	300	96.7422797557492	0.182647705078125	0.18267822265625	1.12304687500001E-07	2.05156194255096E-08	1626630.5	3.21663210343104E-05
1	301	96.842987755495	0.172576904296875	0.172637939453125	1.06201171875001E-07	1.83343509263523E-08	1625574.75	3.2177322282223E-05
1	302	96.9436957552407	0.162506103515625	0.162506103515625	9.82666015624995E-08	1.59689221845838E-08	1653726.75	3.21876214002259E-05
1	303	97.0444037549864	0.152435302734375	0.1524658203125	8.91113281249995E-08	1.35864315353729E-08	1710959	3.21970546792727E-05
1	304	97.1451117547322	0.142364501953125	0.142425537109375	7.69042968749994E-08	1.09531352876502E-08	1851984.25	3.22054147545714E-05
1	305	97.2458197544779	0.132293701171875	0.132354736328125	6.07299804687503E-08	8.03790101144841E-09	2179397	3.22123451041989E-05
1	306	97.3465277542236	0.122222900390625	0.1221923828125	3.84521484374997E-08	4.69855931939378E-09	3177778	3.2217340049101E-05
1	307	97.4472357539694	0.112152099609375	0.112152099609375	6.103515625E-09	6.84522050153902E-10	18375000	3.22195810440462E-05
1	308	97.5479437537151	0.102081298828125	0.102142333984375	-3.63159179687503E-08	-3.7093925708831E-09	-2812605	3.22180603689048E-05
1	309	97.6486517534609	0.092010498046875	0.09210205078125	-9.55200195312506E-08	-8.79758932370578E-09	-964217.3125	3.22114246955607E-05
1	310	97.7493597532066	0.081939697265625	0.081939697265625	-1.76086425781249E-07	-1.44284673098127E-08	-465337.96875	3.2197745895246E-05
1	311	97.8500677529523	0.071868896484375	0.071929931640625	-2.8656005859375E-07	-2.06122443557888E-08	-251011.734375	3.21744519169442E-05
1	312	97.9507757526981	0.061798095703125	0.061798095703125	-4.31213378906251E-07	-2.66481663402374E-08	-143312.109375	3.21383085974958E-05
1	313	98.0514837524438	0.051727294921875	0.051727294921875	-6.15844726562501E-07	-3.18559827405807E-08	-83994.0546875	3.20855833706446E-05
1	314	98.1521917521895	0.041656494140625	0.04178466796875	-8.41369628906249E-07	-3.51563507194896E-08	-49662.67578125	3.20122089760844E-05
1	315	98.2528997519353	0.031585693359375	0.0316650390625	-1.0992431640625E-06	-3.48075772649281E-08	-28806.21875	3.19144892273471E-05
1	316	98.353607751681	0.021514892578125	0.0215972900390625	-1.370849609375E-06	-2.96066353655533E-08	-15754.67578125	3.17901103699114E-05
1	317	98.4543157514267	0.011444091796875	0.011529541015625	-1.63177490234375E-06	-1.88136137779793E-08	-7065.64453125	3.16389159706887E-05
1	318	98.5550237511725	0.001373291015625	0.0014495849609375	-1.85577392578125E-06	-2.69010191900065E-09	-781.121520996094	3.14633034577128E-05
1	319	98.6557317509182	-0.008697509765625	-0.0086090087890625	-2.01995849609375E-06	1.73898406785611E-08	4261.9736328125	3.12681477225851E-05
1	320	98.756439750664	-0.018768310546875	-0.0186614990234375	-2.11456298828125E-06	3.94609145359937E-08	8825.2275390625	3.10599571093917E-05
1	321	98.8571477504097	-0.028839111328125	-0.028704833984375	-2.144775390625E-06	6.15654229818574E-08	13383.6083984375	3.08454800688196E-05
1	322	98.9578557501554	-0.038909912109375	-0.03873291015625	-2.122802734375E-06	8.2222321395875E-08	18246.1171875	3.06305919366423E-05
1	323	99.0585637499012	-0.048980712890625	-0.0488525390625	-2.06695556640625E-06	1.00976023986732E-07	23635.0234375	3.04196200886508E-05
1	324	99.1592717496469	-0.059051513671875	-0.059051513671875	-1.99188232421875E-06	1.17623663697941E-07	29646.0859375	3.02152420772472E-05
1	325	99.2599797493926	-0.069122314453125	-0.069061279296875	-1.91070556640625E-06	1.31955772531001E-07	36144.38671875	3.0018731195014E-05
1	326	99.3606877491384	-0.079193115234375	-0.07916259765625	-1.82891845703125E-06	1.44781921562753E-07	43283.83203125	2.98304257739801E-05
1	327	99.4613957488841	-0.089263916015625	-0.089141845703125	-1.75323486328125E-06	1.56286589003685E-07	50844.2109375	2.96500511467457E-05
1	328	99.5621037486299	-0.099334716796875	-0.099212646484375	-1.68365478515625E-06	1.67039843290695E-07	58926.953125	2.94769888569135E-05
1	329	99.6628117483756	-0.109405517578125	-0.109344482421875	-1.622314453125E-06	1.77391129341231E-07	67400.3046875	2.93105204036692E-05
1	330	99.7635197481213	-0.119476318359375	-0.119384765625	-1.5692138671875E-06	1.87340233992472E-07	76079.34375	2.91498145088553E-05
1	331	99.8642277478671	-0.129547119140625	-0.129425048828125	-1.52252197265625E-06	1.97052486328175E-07	85007.015625	2.89941326627741E-05
1	332	99.9649357476128	-0.139617919921875	-0.13946533203125	-1.48284912109375E-06	2.06806035407681E-07	94052.28125	2.88428000203567E-05
1	333	100.065643747359	-0.149688720703125	-0.149505615234375	-1.4483642578125E-06	2.16538580843917E-07	103223.7734375	2.86952017631847E-05
1	334	100.166351747104	-0.159759521484375	-0.15966796875	-1.41937255859375E-06	2.26628330324274E-07	112491.9375	2.85507994703948E-05
1	335	100.26705974685	-0.169830322265625	-0.169647216796875	-1.39495849609375E-06	2.36650819829265E-07	121614.53125	2.84090874629328E-05
1	336	100.367767746596	-0.179901123046875	-0.179779052734375	-1.37481689453125E-06	2.47163285393981E-07	130765.8203125	2.82696182694053E-05
1	337	100.468475746341	-0.189971923828125	-0.189849853515625	-1.358642578125E-06	2.57938097547594E-07	139734.953125	2.81319771602284E-05
1	338	100.569183746087	-0.200042724609375	-0.19989013671875	-1.3458251953125E-06	2.6901716410066E-07	148526.078125	2.79957966995426E-05
1	339	100.669891745833	-0.189971923828125	-0.1898193359375	-1.18682861328125E-06	2.25283017130096E-07	159938.28125	2.786826735246E-05
2	340	100.770599745579	-0.179901123046875	-0.1798095703125	-1.07635498046875E-06	1.9353890934326E-07	167054.15625	2.77543076663278E-05
2	341	100.871307745324	-0.169830322265625	-0.169708251953125	-9.87854003906249E-07	1.67646959425838E-07	171794.890625	2.76503669738304E-05
2	342	100.97201574507	-0.159759521484375	-0.15966796875	-9.124755859375E-07	1.45693121567092E-07	174983.28125	2.75546772172675E-05
2	343	101.072723744816	-0.149688720703125	-0.14959716796875	-8.45947265625E-07	1.26551313428536E-07	176839.828125	2.74661324510816E-05
2	344	101.173431744562	-0.139617919921875	-0.139556884765625	-7.8582763671875E-07	1.09667659842216E-07	177592.234375	2.73839668807341E-05
2	345	101.274139744307	-0.129547119140625	-0.129425048828125	-7.2967529296875E-07	9.4438256326157E-08	177373.484375	2.73076548182871E-05
2	346	101.374847744053	-0.119476318359375	-0.119415283203125	-6.7718505859375E-07	8.08662434792495E-08	176340.703125	2.7236814275966E-05
2	347	101.475555743799	-0.109405517578125	-0.1092529296875	-6.2530517578125E-07	6.83164245174339E-08	174719.375	2.71712287940318E-05
2	348	101.576263743545	-0.099334716796875	-0.0992431640625	-5.72509765625E-07	5.68176794502051E-08	173347.546875	2.7110914743389E-05
2	349	101.67697174329	-0.089263916015625	-0.089202880859375	-5.16357421875E-07	4.60605704688533E-08	172754.140625	2.70560849457979E-05
2	350	101.777679743036	-0.079193115234375	-0.07916259765625	-4.534912109375E-07	3.58995428939579E-08	174562.59375	2.70072487182915E-05
2	351	101.878387742782	-0.069122314453125	-0.069122314453125	-3.79333496093751E-07	2.62204089551688E-08	182220.4375	2.69653137365822E-05
2	352	101.979095742528	-0.059051513671875	-0.0589599609375	-2.9022216796875E-07	1.71114855618271E-08	203154.59375	2.69315987679875E-05
2	353	102.079803742273	-0.048980712890625	-0.04886474609375	-1.7730712890625E-07	8.66406768551542E-09	275593.78125	2.69080555881374E-05
2	354	102.180511742019	-0.038909912109375	-0.0387847900390625	-3.44848632812506E-08	1.33748823127888E-09	1124690.25	2.68973926722538E-05
2	355	102.281219741765	-0.028839111328125	-0.0287139892578125	1.4373779296875E-07	-4.12728562437792E-09	-199766.453125	2.69028932962101E-05
2	356	102.38192774151	-0.018768310546875	-0.0186309814453125	3.6163330078125E-07	-6.73758293601168E-09	-51518.98828125	2.69283409579657E-05
2	357	102.482635741256	-0.008697509765625	-0.00858154296874999	6.1492919921875E-07	-5.27704147046393E-09	-13955.3349609375	2.69775136985118E-05
2	358	102.583343741002	0.001373291015625	0.00145874023437501	8.9385986328125E-07	1.30390931385449E-09	1631.95629882813	2.70534874289297E-05
2	359	102.684051740748	0.011444091796875	0.01153564453125	1.17706298828125E-06	1.35781794696754E-08	9800.36328125	2.71577664534561E-05
2	360	102.784759740493	0.021514892578125	0.0216156005859375	1.43829345703125E-06	3.10895771349351E-08	15028.6435546875	2.72894612862729E-05
2	361	102.885467740239	0.031585693359375	0.0316864013671875	1.651611328125E-06	5.23336218805071E-08	19185.14453125	2.74450503638946E-05
2	362	102.986175739985	0.041656494140625	0.0417327880859375	1.8011474609375E-06	7.51669020360168E-08	23170.11328125	2.76189093710855E-05
2	363	103.086883739731	0.051727294921875	0.0517578125	1.88140869140625E-06	9.73775939883126E-08	27510.138671875	2.78043407888617E-05
2	364	103.187591739476	0.061798095703125	0.061798095703125	1.90093994140625E-06	1.17474463934286E-07	32509.232421875	2.799479807436E-05
2	365	103.288299739222	0.071868896484375	0.071929931640625	1.8743896484375E-06	1.34824716724324E-07	38375.125	2.81849006569246E-05
2	366	103.389007738968	0.081939697265625	0.082000732421875	1.81884765625E-06	1.49146842431946E-07	45083.89453125	2.83708704955643E-05
2	367	103.489715738714	0.092010498046875	0.09210205078125	1.74896240234375E-06	1.61083022476305E-07	52660.96484375	2.85505229840055E-05
2	368	103.590423738459	0.102081298828125	0.10211181640625	1.6741943359375E-06	1.70955019029861E-07	60991.6171875	2.87228940578643E-05
2	369	103.691131738205	0.112152099609375	0.11212158203125	1.60064697265625E-06	1.79467065208883E-07	70047.6640625	2.88877945422428E-05
2	370	103.791839737951	0.122222900390625	0.12225341796875	1.53106689453125E-06	1.87178144983591E-07	79848.5234375	2.90454881906044E-05
2	371	103.892547737697	0.132293701171875	0.13232421875	1.46759033203125E-06	1.94197738778712E-07	90164.2734375	2.91964843199821E-05
2	372	103.993255737442	0.142364501953125	0.1424560546875	1.41082763671875E-06	2.00980935005646E-07	100973.3984375	2.93414232146461E-05
2	373	104.093963737188	0.152435302734375	0.1524658203125	1.3604736328125E-06	2.07425713938392E-07	112068.1953125	2.94809688057285E-05
2	374	104.194671736934	0.162506103515625	0.1624755859375	1.31622314453125E-06	2.13854121966506E-07	123440.765625	2.96157522825524E-05
2	375	104.295379736679	0.172576904296875	0.172607421875	1.27685546875E-06	2.20394724692596E-07	135181.65625	2.97463229799177E-05
2	376	104.396087736425	0.182647705078125	0.182647705078125	1.24237060546875E-06	2.26916128553967E-07	147015.484375	2.98731774819316E-05
2	377	104.496795736171	0.192718505859375	0.1927490234375	1.21124267578125E-06	2.3346584043793E-07	159133.28125	2.99967268801993E-05
2	378	104.597503735917	0.202789306640625	0.202850341796875	1.18499755859375E-06	2.40377147520121E-07	171182.09375	3.01173859043047E-05
2	379	104.698211735662	0.212860107421875	0.21282958984375	1.160888671875E-06	2.47071454850811E-07	183333.34375	3.0235511076171E-05
2	380	104.798919735408	0.222930908203125	0.222991943359375	1.13922119140625E-06	2.54037132663143E-07	195740.703125	3.03513315884629E-05
2	381	104.899627735154	0.233001708984375	0.233062744140625	1.11968994140625E-06	2.60958017861412E-07	208149.359375	3.04650766338455E-05
2	382	105.0003357349	0.243072509765625	0.2430419921875	1.1029052734375E-06	2.68052275487207E-07	220365.25	3.05769935948774E-05
2	383	105.101043734645	0.253143310546875	0.253143310546875	1.08734130859375E-06	2.75253171366785E-07	232809.4375	3.06872789224144E-05
2	384	105.201751734391	0.263214111328125	0.263214111328125	1.07391357421875E-06	2.82669191165041E-07	245098.0625	3.07961090584286E-05
2	385	105.302459734137	0.273284912109375	0.273345947265625	1.060791015625E-06	2.89962912347619E-07	257681.25	3.09036004182417E-05
2	386	105.403167733883	0.283355712890625	0.2833251953125	1.0491943359375E-06	2.97263198945075E-07	270040.71875	3.1009843951324E-05
2	387	105.503875733628	0.293426513671875	0.29339599609375	1.03912353515625E-06	3.04874674839084E-07	282349.5	3.1114999728743E-05
2	388	105.604583733374	0.303497314453125	0.303466796875	1.02996826171875E-06	3.1256115562428E-07	294637.0625	3.12191878037993E-05
2	389	105.70529173312	0.313568115234375	0.313568115234375	1.021728515625E-06	3.20381474239184E-07	306899.65625	3.13224991259631E-05
2	390	105.805999732866	0.323638916015625	0.323577880859375	1.01470947265625E-06	3.28337534938328E-07	318887.21875	3.14250428345986E-05
2	391	105.906707732611	0.333709716796875	0.333740234375	1.0076904296875E-06	3.36306840154066E-07	331193.21875	3.15268771373667E-05
2	392	106.007415732357	0.343780517578125	0.343780517578125	1.00189208984375E-06	3.44430986842781E-07	343131.28125	3.16280675178859E-05
2	393	106.108123732103	0.353851318359375	0.35382080078125	9.9700927734375E-07	3.52762612010338E-07	354882.15625	3.17287194775417E-05
2	394	106.208831731848	0.363922119140625	0.36395263671875	9.9212646484375E-07	3.61087018063699E-07	366841	3.18288803100586E-05
2	395	106.309539731594	0.373992919921875	0.37396240234375	9.87854003906249E-07	3.69420234846984E-07	378560.4375	3.19285827572457E-05
2	396	106.41024773134	0.384063720703125	0.384033203125	9.844970703125E-07	3.78079562324274E-07	390080.59375	3.20278959407005E-05
2	397	106.510955731086	0.394134521484375	0.3941650390625	9.82055664062501E-07	3.87092001119527E-07	401367.3125	3.21269217238296E-05
2	398	106.611663730831	0.404205322265625	0.40423583984375	9.796142578125E-07	3.95995186863729E-07	412647.96875	3.22257001243997E-05
2	399	106.712371730577	0.414276123046875	0.414276123046875	9.7808837890625E-07	4.05198647968064E-07	423556.96875	3.23242784361355E-05
2	400	106.813079730323	0.424346923828125	0.42431640625	9.765625E-07	4.14371470469632E-07	434500.03125	3.24227003147826E-05
2	401	106.913787730069	0.434417724609375	0.43438720703125	9.75341796875E-07	4.23675999172701E-07	445369.21875	3.25209875882138E-05
2	402	107.014495729814	0.444488525390625	0.444488525390625	9.7503662109375E-07	4.33392585819092E-07	455868.53125	3.261919846409E-05
2	403	107.11520372956	0.454559326171875	0.45452880859375	9.7503662109375E-07	4.43182244680429E-07	466165.875	3.27173911500722E-05
2	404	107.215911729306	0.464630126953125	0.464630126953125	9.7503662109375E-07	4.53031390179603E-07	476525.8125	3.28155838360544E-05
2	405	107.316619729052	0.474700927734375	0.474639892578125	9.7564697265625E-07	4.63080937151972E-07	486487.375	3.29138092638459E-05
2	406	107.417327728797	0.484771728515625	0.4847412109375	9.7686767578125E-07	4.73528018574143E-07	496219.9375	3.30121256411076E-05
2	407	107.518035728543	0.494842529296875	0.494720458984375	9.77783203125E-07	4.83729365896579E-07	505961.3125	3.31105511577334E-05
2	408	107.618743728289	0.504913330078125	0.5048828125	9.80224609374999E-07	4.94898586111958E-07	515068.46875	3.32091440213844E-05
2	409	107.719451728035	0.514984130859375	0.514984130859375	9.8297119140625E-07	5.06214576034836E-07	523905.625	3.33079988195095E-05
2	410	107.82015972778	0.525054931640625	0.5250244140625	9.8602294921875E-07	5.17686089551717E-07	532466.75	3.34071446559392E-05
2	411	107.920867727526	0.535125732421875	0.535064697265625	9.8876953125E-07	5.2905568281858E-07	541141.9375	3.35065851686522E-05
2	412	108.021575727272	0.545196533203125	0.545166015625	9.9212646484375E-07	5.40873600129999E-07	549492.5	3.36063312715851E-05
2	413	108.122283727017	0.555267333984375	0.55523681640625	9.9639892578125E-07	5.53237327949319E-07	557243.5625	3.37064593622927E-05
2	414	108.222991726763	0.565338134765625	0.565338134765625	1.00128173828125E-06	5.66062738016626E-07	564614.4375	3.38070531142876E-05
2	415	108.323699726509	0.575408935546875	0.575286865234375	1.00677490234375E-06	5.79184359139617E-07	571415.625	3.39081670972519E-05
2	416	108.424407726255	0.585479736328125	0.585418701171875	1.011962890625E-06	5.92421940837085E-07	578498.25	3.40098158631008E-05
2	417	108.525115726	0.595550537109375	0.59552001953125	1.0186767578125E-06	6.06642345246655E-07	584601.5625	3.41120685334317E-05
2	418	108.625823725746	0.605621337890625	0.605560302734375	1.02569580078125E-06	6.21120591404178E-07	590389.8125	3.42150087817572E-05
2	419	108.726531725492	0.615692138671875	0.615631103515625	1.03424072265625E-06	6.36710694834619E-07	595249.375	3.4318734833505E-05
2	420	108.827239725238	0.625762939453125	0.625732421875	1.043701171875E-06	6.53077620427212E-07	599532.1875	3.44233703799546E-05
2	421	108.927947724983	0.635833740234375	0.63580322265625	1.05438232421875E-06	6.70379677103483E-07	603010.125	3.45290172845125E-05
2	422	109.028655724729	0.645904541015625	0.64581298828125	1.0662841796875E-06	6.88620161781728E-07	605666.875	3.46357992384583E-05
2	423	109.129363724475	0.655975341796875	0.655975341796875	1.07879638671875E-06	7.07663787125057E-07	608062.25	3.47438144672196E-05
2	424	109.230071724221	0.666046142578125	0.666015625	1.0919189453125E-06	7.27235033082252E-07	609949.75	3.48531175404787E-05
2	425	109.330779723966	0.676116943359375	0.67608642578125	1.10504150390625E-06	7.47103570120089E-07	611819.9375	3.49637448380236E-05
2	426	109.431487723712	0.686187744140625	0.686126708984375	1.1175537109375E-06	7.66783443850727E-07	613954.125	3.50756599800661E-05
2	427	109.532195723458	0.696258544921875	0.6961669921875	1.1297607421875E-06	7.86502084793028E-07	616207.5	3.51888229488395E-05
2	428	109.632903723204	0.706329345703125	0.706268310546875	1.141357421875E-06	8.06104594630597E-07	618796.8125	3.53031828126404E-05
2	429	109.733611722949	0.716400146484375	0.71630859375	1.15264892578125E-06	8.25652307412383E-07	621445.625	3.54186922777444E-05
2	430	109.834319722695	0.726470947265625	0.7264404296875	1.1639404296875E-06	8.4553335000237E-07	624121.6875	3.55353440681938E-05
2	431	109.935027722441	0.736541748046875	0.7364501953125	1.177978515625E-06	8.67522430780809E-07	625181.375	3.56532691512257E-05
2	432	110.035735722186	0.746612548828125	0.74658203125	1.1932373046875E-06	8.90849491952395E-07	625677.75	3.57726676156744E-05
2	433	110.136443721932	0.756683349609375	0.7568359375	1.21368408203125E-06	9.18559749152337E-07	623585.625	3.58938668796327E-05
2	434	110.237151721678	0.766754150390625	0.7666015625	1.239013671875E-06	9.49829768615018E-07	618719.25	3.60173689841758E-05
2	435	110.337859721424	0.776824951171875	0.7769775390625	1.2725830078125E-06	9.88768420029373E-07	610551.5625	3.61438396794256E-05
2	436	110.438567721169	0.786895751953125	0.787353515625	1.3153076171875E-06	1.03561205833103E-06	598607.875	3.62741484423168E-05
2	437	110.539275720915	0.796966552734375	0.79681396484375	1.36932373046875E-06	1.09109623736003E-06	581903.25	3.64093320968095E-05
2	438	110.639983720661	0.807037353515625	0.80718994140625	1.43463134765625E-06	1.1580199270611E-06	562646.25	3.65505220543128E-05
2	439	110.740691720407	0.817108154296875	0.81756591796875	1.51092529296875E-06	1.23528093354253E-06	541102.8125	3.66988424502779E-05
2	440	110.841399720152	0.827178955078125	0.82733154296875	1.59393310546875E-06	1.31871115627291E-06	519050.34375	3.68551845895126E-05
2	441	110.942107719898	0.837249755859375	0.83770751953125	1.67724609375E-06	1.40504164392041E-06	499454.15625	3.70199013559613E-05
2	442	111.042815719644	0.847320556640625	0.84716796875	1.75262451171875E-06	1.48476738104364E-06	483371.0625	3.71926071238704E-05
2	443	111.14352371939	0.857391357421875	0.85784912109375	1.8121337890625E-06	1.55453733441391E-06	473391.71875	3.73721086361911E-05
2	444	111.244231719135	0.867462158203125	0.86761474609375	1.85455322265625E-06	1.60903766754927E-06	467829.53125	3.75567396986298E-05
2	445	111.344939718881	0.877532958984375	0.87738037109375	1.8768310546875E-06	1.64669472724199E-06	467479.6875	3.77446303900797E-05
2	446	111.445647718627	0.887603759765625	0.8868408203125	1.883544921875E-06	1.67040445830935E-06	470836.03125	3.79339799110312E-05
2	447	111.546355718373	0.897674560546875	0.8978271484375	1.8792724609375E-06	1.68726182891987E-06	477752.53125	3.81234531232622E-05
2	448	111.647063718118	0.907745361328125	0.9075927734375	1.8682861328125E-06	1.69564293628355E-06	485788.96875	3.83121587219648E-05
2	449	111.747771717864	0.917816162109375	0.91796875	1.8548583984375E-06	1.7027020930982E-06	494899.625	3.84996346838307E-05
2	450	111.84847971761	0.927886962890625	0.927734375	1.8414306640625E-06	1.7083584680222E-06	503811.75	3.86857573175803E-05
2	451	111.949187717355	0.937957763671875	0.9381103515625	1.8316650390625E-06	1.71830390627292E-06	512162.625	3.88707121601328E-05
2	452	112.049895717101	0.948028564453125	0.94818115234375	1.82647705078125E-06	1.7318311620329E-06	519131.15625	3.90549139410723E-05
2	453	112.150603716847	0.958099365234375	0.95855712890625	1.82647705078125E-06	1.75078264419426E-06	524812.0625	3.92388537875377E-05
2	454	112.251311716593	0.968170166015625	0.96832275390625	1.8328857421875E-06	1.77482490926195E-06	528305.0625	3.94231174141169E-05
2	455	112.352019716338	0.978240966796875	0.977783203125	1.84539794921875E-06	1.80439906216634E-06	529849.5	3.96083341911435E-05
2	456	112.452727716084	0.988311767578125	0.9881591796875	1.86187744140625E-06	1.83983127044485E-06	530732.6875	3.97950097976718E-05
2	457	112.55343571583	0.998382568359375	0.99822998046875	1.8804931640625E-06	1.87716455002374E-06	530834.1875	3.99834534619004E-05
2	458	112.654143715576	1.00845336914063	1.00830078125	1.898193359375E-06	1.91394974535797E-06	531189.75	4.01737270294689E-05
2	459	112.754851715321	1.01852416992188	1.0186767578125	1.91162109375E-06	1.9473238808132E-06	532886.375	4.03655649279244E-05
2	460	112.855559715067	1.02859497070313	1.029052734375	1.9183349609375E-06	1.97406779989251E-06	536430.1875	4.05584178224672E-05
2	461	112.956267714813	1.03866577148438	1.0382080078125	1.91802978515625E-06	1.9913138658012E-06	541288.8125	4.07515944971237E-05
2	462	113.056975714559	1.04873657226563	1.04888916015625	1.91162109375E-06	2.00507861336519E-06	548690.9375	4.09444328397512E-05
2	463	113.157683714304	1.05880737304688	1.0589599609375	1.90093994140625E-06	2.01301918423269E-06	557071.75	4.11364126193803E-05
2	464	113.25839171405	1.06887817382813	1.06903076171875	1.88812255859375E-06	2.01846091840707E-06	566187.1875	4.13272064179182E-05
2	465	113.359099713796	1.07894897460938	1.07940673828125	1.87469482421875E-06	2.02355818146316E-06	575777.3125	4.15166796301492E-05
2	466	113.459807713542	1.08901977539063	1.08917236328125	1.8603515625E-06	2.02624346457014E-06	585465.875	4.17047522205394E-05
2	467	113.560515713287	1.09909057617188	1.0980224609375	1.8463134765625E-06	2.02729370357702E-06	594710.75	4.18913987232372E-05
2	468	113.661223713033	1.10916137695313	1.1090087890625	1.8341064453125E-06	2.03404010790109E-06	604658.9375	4.20767210016493E-05
2	469	113.761931712779	1.11923217773438	1.11907958984375	1.8231201171875E-06	2.04021648642083E-06	613826.5625	4.22608791268431E-05
2	470	113.862639712524	1.12930297851563	1.13006591796875	1.81365966796875E-06	2.04955495064496E-06	623086	4.24440040660556E-05
2	471	113.96334771227	1.13937377929688	1.13983154296875	1.805419921875E-06	2.05787455342943E-06	631338.75	4.26262413384393E-05
2	472	114.064055712016	1.14944458007813	1.14990234375	1.798095703125E-06	2.06763434107415E-06	639511.1875	4.28076928074006E-05
2	473	114.164763711762	1.15951538085938	1.15966796875	1.79229736328125E-06	2.0784698335774E-06	647028.8125	4.2988482164219E-05
2	474	114.265471711507	1.16958618164063	1.16943359375	1.788330078125E-06	2.09133327189193E-06	653924.9375	4.31687803938985E-05
2	475	114.366179711253	1.17965698242188	1.1798095703125	1.7852783203125E-06	2.10628832064685E-06	660854.6875	4.33487257396337E-05
2	476	114.466887710999	1.18972778320313	1.1895751953125	1.783447265625E-06	2.12154463952174E-06	667008.875	4.35284273407888E-05
2	477	114.567595710745	1.19979858398438	1.1993408203125	1.7822265625E-06	2.13749694921717E-06	672945.25	4.37079725088552E-05
2	478	114.66830371049	1.20986938476563	1.21002197265625	1.7828369140625E-06	2.15727186514414E-06	678705.9375	4.38874885730911E-05
2	479	114.769011710236	1.21994018554688	1.21978759765625	1.78436279296875E-06	2.17654360312736E-06	683598.4375	4.40671101387125E-05
2	480	114.869719709982	1.23001098632813	1.229248046875	1.787109375E-06	2.19680077861995E-06	687841.5625	4.42469463450834E-05
2	481	114.970427709728	1.24008178710938	1.23992919921875	1.79107666015625E-06	2.22080825551529E-06	692281.5	4.44271245214622E-05
2	482	115.071135709473	1.25015258789063	1.25030517578125	1.79656982421875E-06	2.24626046474441E-06	695940.25	4.4607775635086E-05
2	483	115.171843709219	1.26022338867188	1.25946044921875	1.80267333984375E-06	2.27039572564536E-06	698662.625	4.47890124632977E-05
2	484	115.272551708965	1.27029418945313	1.2701416015625	1.810302734375E-06	2.29934084927663E-06	701618.375	4.49709405074827E-05
2	485	115.373259708711	1.28036499023438	1.280517578125	1.81915283203125E-06	2.32945717471011E-06	703908.75	4.51536980108358E-05
2	486	115.473967708456	1.29043579101563	1.29058837890625	1.829833984375E-06	2.36156256505637E-06	705303.5625	4.53374377684668E-05
2	487	115.574675708202	1.30050659179688	1.3006591796875	1.84173583984375E-06	2.39547057390155E-06	706213.8125	4.55223162134644E-05
2	488	115.675383707948	1.31057739257813	1.31103515625	1.85455322265625E-06	2.43138447331148E-06	706927.8125	4.5708438847214E-05
2	489	115.776091707693	1.32064819335938	1.32080078125	1.868896484375E-06	2.46843978857214E-06	706727.625	4.58959293609951E-05
2	490	115.876799707439	1.33071899414063	1.33087158203125	1.88507080078125E-06	2.50878724727954E-06	706006.1875	4.60849587398116E-05
2	491	115.977507707185	1.34078979492188	1.34063720703125	1.90185546875E-06	2.54969813795469E-06	704910.1875	4.62756433989853E-05
2	492	116.078215706931	1.35086059570313	1.35101318359375	1.9195556640625E-06	2.59334501606645E-06	703815.5625	4.64680670120288E-05
2	493	116.178923706676	1.36093139648438	1.361083984375	1.93756103515625E-06	2.63718311543926E-06	702472.875	4.6662287786603E-05
2	494	116.279631706422	1.37100219726563	1.370849609375	1.95587158203125E-06	2.68120584223652E-06	700889.375	4.68583384645171E-05
2	495	116.380339706168	1.38107299804688	1.3812255859375	1.97540283203125E-06	2.72847682936117E-06	699212.125	4.70562954433262E-05
2	496	116.481047705914	1.39114379882813	1.3916015625	1.99493408203125E-06	2.77615345112281E-06	697567.6875	4.72562169306912E-05
2	497	116.581755705659	1.40121459960938	1.4007568359375	2.01629638671875E-06	2.82434075415949E-06	694717.75	4.74581975140609E-05
2	498	116.682463705405	1.41128540039063	1.41082763671875	2.039794921875E-06	2.8777990337403E-06	691651.6875	4.76624372822698E-05
2	499	116.783171705151	1.42135620117188	1.4208984375	2.0660400390625E-06	2.93563289233134E-06	687740.0625	4.78691836178768E-05
2	500	116.883879704897	1.43142700195313	1.43157958984375	2.09808349609375E-06	3.00357351079583E-06	682327.25	4.80788658023812E-05
2	501	116.984587704642	1.44149780273438	1.4410400390625	2.13714599609375E-06	3.07971276924945E-06	674282.5	4.82921241200529E-05
2	502	117.085295704388	1.45156860351563	1.451416015625	2.183837890625E-06	3.16965702040761E-06	664617.125	4.85097043565474E-05
2	503	117.186003704134	1.46163940429688	1.46209716796875	2.24029541015625E-06	3.2755294796516E-06	652635.9375	4.87324759887997E-05
2	504	117.28671170388	1.47171020507813	1.47186279296875	2.305908203125E-06	3.3939802506211E-06	638300.75	4.8961395805236E-05
2	505	117.387419703625	1.48178100585938	1.48193359375	2.3828125E-06	3.53116979567858E-06	621926.25	4.91974933538586E-05
2	506	117.488127703371	1.49185180664063	1.49200439453125	2.4688720703125E-06	3.68356791113911E-06	604326.3125	4.94417945446912E-05
2	507	117.588835703117	1.50192260742188	1.5020751953125	2.5616455078125E-06	3.84778422812815E-06	586371.25	4.96950997330714E-05
2	508	117.689543702862	1.49185180664063	1.49200439453125	2.2930908203125E-06	3.42130147146236E-06	650652.125	4.99395573569927E-05
2	509	117.790251702608	1.48178100585938	1.4813232421875	2.10113525390625E-06	3.11246026285517E-06	705010.9375	5.01608228660189E-05
2	510	117.890959702354	1.47171020507813	1.4715576171875	1.95098876953125E-06	2.87099237539223E-06	754262.5	5.03648625453934E-05
2	511	117.9916677021	1.46163940429688	1.46209716796875	1.82891845703125E-06	2.67405630438589E-06	799432.6875	5.05551979586016E-05
2	512	118.092375701845	1.45156860351563	1.45233154296875	1.7279052734375E-06	2.50949119617871E-06	840515.75	5.07342956552748E-05
2	513	118.193083701591	1.44149780273438	1.4410400390625	1.64276123046875E-06	2.36728465097258E-06	877206.0625	5.09040219185408E-05
2	514	118.293791701337	1.43142700195313	1.4312744140625	1.57135009765625E-06	2.24903305934276E-06	910856.5	5.10658683197107E-05
2	515	118.394499701083	1.42135620117188	1.4215087890625	1.5106201171875E-06	2.14735973713687E-06	941010.125	5.12210572196636E-05
2	516	118.495207700828	1.41128540039063	1.4111328125	1.45751953125E-06	2.05675360120949E-06	968174.25	5.13705126650166E-05
2	517	118.595915700574	1.40121459960938	1.4013671875	1.41204833984375E-06	1.97879808183643E-06	992435.75	5.15150095452555E-05
2	518	118.69662370032	1.39114379882813	1.39129638671875	1.3726806640625E-06	1.90980563274934E-06	1013561.5625	5.1655231800396E-05
2	519	118.797331700066	1.38107299804688	1.38153076171875	1.3385009765625E-06	1.84918030754488E-06	1032147.75	5.17917505931109E-05
2	520	118.898039699811	1.37100219726563	1.37054443359375	1.3079833984375E-06	1.79264930011414E-06	1047830.1875	5.19250097568147E-05
2	521	118.998747699557	1.36093139648438	1.361083984375	1.28082275390625E-06	1.74330727986671E-06	1062663.875	5.20553658134304E-05
2	522	119.099455699303	1.35086059570313	1.3507080078125	1.256103515625E-06	1.69662905591395E-06	1075315.875	5.21831098012626E-05
2	523	119.200163699049	1.34078979492188	1.34124755859375	1.23382568359375E-06	1.65486562764272E-06	1087064.125	5.23084891028702E-05
2	524	119.300871698794	1.33071899414063	1.33056640625	1.21368408203125E-06	1.6148873100974E-06	1096303.75	5.24317329109181E-05
2	525	119.40157969854	1.32064819335938	1.32110595703125	1.1944580078125E-06	1.57800548095111E-06	1106029.75	5.25529903825372E-05
2	526	119.502287698286	1.31057739257813	1.3104248046875	1.1773681640625E-06	1.54285248754604E-06	1113011.875	5.26724215887953E-05
2	527	119.602995698031	1.30050659179688	1.3006591796875	1.160888671875E-06	1.50992036651587E-06	1120399.625	5.2790161134908E-05
2	528	119.703703697777	1.29043579101563	1.29058837890625	1.14593505859375E-06	1.47893047142134E-06	1126231.75	5.29063217982184E-05
2	529	119.804411697523	1.28036499023438	1.280517578125	1.1309814453125E-06	1.44824161907309E-06	1132218	5.30209727003239E-05
2	530	119.905119697269	1.27029418945313	1.27044677734375	1.11724853515625E-06	1.41940483899816E-06	1137121	5.3134179324843E-05
2	531	120.005827697014	1.26022338867188	1.2603759765625	1.10382080078125E-06	1.39122914788459E-06	1141830.25	5.32460180693306E-05
2	532	120.10653569676	1.25015258789063	1.25030517578125	1.09100341796875E-06	1.36408709749958E-06	1146014	5.33565362275112E-05
2	533	120.207243696506	1.24008178710938	1.2396240234375	1.0784912109375E-06	1.33692356030224E-06	1149405.75	5.34657810931094E-05
2	534	120.307951696252	1.23001098632813	1.23016357421875	1.065673828125E-06	1.31095305277995E-06	1154352.875	5.35737490281463E-05
2	535	120.408659695997	1.21994018554688	1.21978759765625	1.05377197265625E-06	1.28537794807926E-06	1157544.25	5.36804691364523E-05
2	536	120.509367695743	1.20986938476563	1.209716796875	1.04156494140625E-06	1.25999861211312E-06	1161441.5	5.37859777978156E-05
2	537	120.610075695489	1.19979858398438	1.19964599609375	1.03057861328125E-06	1.23632946724683E-06	1164051	5.38903186679818E-05
2	538	120.710783695235	1.18972778320313	1.18988037109375	1.0186767578125E-06	1.21210337056255E-06	1168064.75	5.39935062988661E-05
2	539	120.81149169498	1.17965698242188	1.1798095703125	1.00677490234375E-06	1.18780258162587E-06	1171870.375	5.40954970347229E-05
2	540	120.912199694726	1.16958618164063	1.16973876953125	9.9517822265625E-07	1.1640985349004E-06	1175406.375	5.41963017894886E-05
2	541	121.012907694472	1.15951538085938	1.15997314453125	9.83581542968751E-07	1.14092824787804E-06	1179336	5.42959423910361E-05
2	542	121.113615694218	1.14944458007813	1.15020751953125	9.71374511718751E-07	1.1172821814398E-06	1184103.125	5.43943824595772E-05
2	543	121.214323693963	1.13937377929688	1.13983154296875	9.59167480468751E-07	1.09328925645968E-06	1188355.125	5.44915928912815E-05
2	544	121.315031693709	1.12930297851563	1.12945556640625	9.47265625E-07	1.06989443793282E-06	1192332.5	5.45875882380642E-05
2	545	121.415739693455	1.11923217773438	1.11907958984375	9.3353271484375E-07	1.04469734196755E-06	1198757.75	5.46822957403492E-05
2	546	121.5164476932	1.10916137695313	1.10931396484375	9.2010498046875E-07	1.02068531759869E-06	1205638.5	5.4775631724624E-05
2	547	121.617155692946	1.09909057617188	1.09893798828125	9.0484619140625E-07	9.94369770523917E-07	1214502.625	5.48675270692911E-05
2	548	121.717863692692	1.08901977539063	1.0894775390625	8.88977050781251E-07	9.6852045317064E-07	1225540.75	5.49578508071136E-05
2	549	121.818571692438	1.07894897460938	1.0791015625	8.697509765625E-07	9.38549646889442E-07	1240701.75	5.50464101252146E-05
2	550	121.919279692183	1.06887817382813	1.0687255859375	8.489990234375E-07	9.07346930034691E-07	1258806.625	5.51329576410353E-05
2	551	122.019987691929	1.05880737304688	1.05865478515625	8.23974609375E-07	8.7230461076615E-07	1284814.875	5.52171986782923E-05
2	552	122.120695691675	1.04873657226563	1.048583984375	7.94677734375E-07	8.33286321721971E-07	1319508.5	5.52987039554864E-05
2	553	122.221403691421	1.03866577148438	1.03851318359375	7.60803222656251E-07	7.901041385594E-07	1365022.125	5.53770296392031E-05
2	554	122.322111691166	1.02859497070313	1.02813720703125	7.2296142578125E-07	7.43303530725825E-07	1422119	5.54517428099643E-05
2	555	122.422819690912	1.01852416992188	1.01837158203125	6.8084716796875E-07	6.9335538910309E-07	1495741.875	5.55224287381861E-05
2	556	122.523527690658	1.00845336914063	1.0089111328125	6.3751220703125E-07	6.43193118321506E-07	1582575.5	5.55888145754579E-05
2	557	122.624235690404	0.998382568359375	0.99853515625	5.96923828125E-07	5.96049403611687E-07	1672801.625	5.56509730813559E-05
2	558	122.724943690149	0.988311767578125	0.98846435546875	5.6121826171875E-07	5.54744246983319E-07	1761283.375	5.57092898816336E-05
2	559	122.825651689895	0.978240966796875	0.97869873046875	5.328369140625E-07	5.21486811067007E-07	1836769.75	5.57643797947094E-05
2	560	122.926359689641	0.968170166015625	0.968017578125	5.11474609375E-07	4.95116410093033E-07	1892601.5	5.58169667783659E-05
2	561	123.027067689387	0.958099365234375	0.9576416015625	4.94995117187499E-07	4.74027899599605E-07	1934648.625	5.58676438231487E-05
2	562	123.127775689132	0.948028564453125	0.94757080078125	4.81567382812501E-07	4.56319185104803E-07	1967680.625	5.59168183826841E-05
2	563	123.228483688878	0.937957763671875	0.93841552734375	4.6875E-07	4.39882256841884E-07	2001953.125	5.59646723559126E-05
2	564	123.329191688624	0.927886962890625	0.92803955078125	4.53796386718749E-07	4.21141010065185E-07	2045057.125	5.60111257073004E-05
2	565	123.429899688369	0.917816162109375	0.91827392578125	4.35485839843749E-07	3.99895270675188E-07	2108619.5	5.60559019504581E-05
2	566	123.530607688115	0.907745361328125	0.90850830078125	4.09851074218751E-07	3.72353071043108E-07	2216679.25	5.60984699404798E-05
2	567	123.631315687861	0.897674560546875	0.8978271484375	3.753662109375E-07	3.37013972284694E-07	2391870	5.61380074941553E-05
2	568	123.732023687607	0.887603759765625	0.887451171875	3.2958984375E-07	2.92494888753936E-07	2692592.75	5.61735068913549E-05
2	569	123.832731687352	0.877532958984375	0.87738037109375	2.69165039062499E-07	2.36160119015949E-07	3259637.25	5.62036548217293E-05
2	570	123.933439687098	0.867462158203125	0.8673095703125	1.96533203125E-07	1.70455123793545E-07	4413043.5	5.62271052331198E-05
2	571	124.034147686844	0.857391357421875	0.8575439453125	1.11083984375E-07	9.52593950387381E-08	7719780	5.62425957468804E-05
2	572	124.13485568659	0.847320556640625	0.84716796875	2.10571289062503E-08	1.78389232274867E-08	40231888	5.62492496101186E-05
2	573	124.235563686335	0.837249755859375	0.83709716796875	-6.77490234374994E-08	-5.67125120198853E-08	-12355856	5.62468994758092E-05
2	574	124.336271686081	0.827178955078125	0.8270263671875	-1.4495849609375E-07	-1.19884489890865E-07	-5705263.5	5.62361856282223E-05
2	575	124.436979685827	0.817108154296875	0.81756591796875	-2.05078124999999E-07	-1.67664879313634E-07	-3986607.25	5.62185632588807E-05
2	576	124.537687685573	0.807037353515625	0.80718994140625	-2.43530273437501E-07	-1.96575186350856E-07	-3314536.25	5.61959714104887E-05
2	577	124.638395685318	0.796966552734375	0.79742431640625	-2.63366699218751E-07	-2.1001501693263E-07	-3027810	5.61704473511782E-05
2	578	124.739103685064	0.786895751953125	0.78704833984375	-2.6702880859375E-07	-2.10164586178507E-07	-2947428.5	5.61437409487553E-05
2	579	124.83981168481	0.776824951171875	0.77667236328125	-2.57568359375E-07	-2.00046230247608E-07	-3015402.75	5.6117325584637E-05
2	580	124.940519684556	0.766754150390625	0.76690673828125	-2.4139404296875E-07	-1.85126722840323E-07	-3176991	5.60922017029952E-05
2	581	125.041227684301	0.756683349609375	0.75714111328125	-2.20336914062499E-07	-1.66826140457488E-07	-3436288	5.60689513804391E-05
2	582	125.141935684047	0.746612548828125	0.7464599609375	-1.97753906250001E-07	-1.47615367040999E-07	-3774691.25	5.60478983970825E-05
2	583	125.242643683793	0.736541748046875	0.73638916015625	-1.751708984375E-07	-1.28993946191258E-07	-4203833	5.60291191504803E-05
2	584	125.343351683538	0.726470947265625	0.7264404296875	-1.5289306640625E-07	-1.11067706143331E-07	-4751297.5	5.60125990887173E-05
2	585	125.444059683284	0.716400146484375	0.71630859375	-1.33056640625E-07	-9.53096090938743E-08	-5383486.5	5.59981999685988E-05
2	586	125.54476768303	0.706329345703125	0.70623779296875	-1.16577148437499E-07	-8.23311907538482E-08	-6058115	5.59856307518203E-05
2	587	125.645475682776	0.696258544921875	0.696136474609375	-1.0406494140625E-07	-7.24433988352757E-08	-6689443	5.59745203645434E-05
2	588	125.746183682521	0.686187744140625	0.686126708984375	-9.27734375000003E-08	-6.36543333598638E-08	-7395724	5.59646105102729E-05
2	589	125.846891682267	0.676116943359375	0.676116943359375	-8.392333984375E-08	-5.67419924379919E-08	-8056363.5	5.59557120141108E-05
2	590	125.947599682013	0.666046142578125	0.666015625	-7.62939453125E-08	-5.08129573972838E-08	-8729600	5.59476429771166E-05
2	591	126.048307681759	0.655975341796875	0.65594482421875	-6.77490234374994E-08	-4.44396199839048E-08	-9681982	5.59403924853541E-05
2	592	126.149015681504	0.645904541015625	0.6458740234375	-5.88989257812506E-08	-3.80412856770818E-08	-10965804	5.59340151085053E-05
2	593	126.24972368125	0.635833740234375	0.63580322265625	-5.035400390625E-08	-3.20152366839466E-08	-12626667	5.59285144845489E-05
2	594	126.350431680996	0.625762939453125	0.625732421875	-4.02832031249994E-08	-2.52065053274464E-08	-15533334	5.5923948821146E-05
2	595	126.451139680742	0.615692138671875	0.615631103515625	-3.0517578125E-08	-1.8787568834E-08	-20173002	5.59203836019151E-05
2	596	126.551847680487	0.605621337890625	0.605560302734375	-2.04467773437494E-08	-1.23817560648831E-08	-29616418	5.59178188268561E-05
2	597	126.652555680233	0.595550537109375	0.59552001953125	-1.19018554687503E-08	-7.08779301916707E-09	-50035896	5.59161890123505E-05
2	598	126.753263679979	0.585479736328125	0.585479736328125	-2.13623046874945E-09	-1.25071952794542E-09	-274071456	5.59154832444619E-05
2	599	126.853971679725	0.575408935546875	0.57537841796875	6.103515625E-09	3.51183104818631E-09	94270000	5.59156833332963E-05
2	600	126.95467967947	0.565338134765625	0.56524658203125	1.40380859374997E-08	7.93497978435198E-09	40265220	5.59166946914047E-05
2	601	127.055387679216	0.555267333984375	0.55523681640625	2.13623046875E-08	1.1861137849678E-08	25991430	5.59184773010202E-05
2	602	127.156095678962	0.545196533203125	0.545074462890625	2.77709960937497E-08	1.5137260334086E-08	19627472	5.5920951126609E-05
2	603	127.256803678707	0.535125732421875	0.53509521484375	3.38745117187497E-08	1.81260890741441E-08	15796397	5.59240579605103E-05
2	604	127.357511678453	0.525054931640625	0.52496337890625	3.90625000000006E-08	2.05063805935879E-08	13439063	5.59277286811266E-05
2	605	127.458219678199	0.514984130859375	0.5150146484375	4.45556640624997E-08	2.29468195556137E-08	11558905	5.59319378226064E-05
2	606	127.558927677945	0.504913330078125	0.504913330078125	4.91333007812497E-08	2.48080578302279E-08	10276398	5.59366562811192E-05
2	607	127.65963567769	0.494842529296875	0.49481201171875	5.40161132812494E-08	2.67278217336298E-08	9160452	5.59418513148557E-05
2	608	127.760343677436	0.484771728515625	0.4847412109375	5.76782226562503E-08	2.79590111063044E-08	8404233	5.59474756300915E-05
2	609	127.861051677182	0.474700927734375	0.47467041015625	6.16455078124994E-08	2.9261299161476E-08	7700000	5.59534855710808E-05
2	610	127.961759676928	0.464630126953125	0.46466064453125	6.50024414062506E-08	3.02040739086351E-08	7148357	5.59598593099508E-05
2	611	128.062467676673	0.454559326171875	0.454498291015625	6.83593750000003E-08	3.10692200855556E-08	6648660.5	5.59665750188287E-05
2	612	128.163175676419	0.444488525390625	0.444488525390625	7.14111328125003E-08	3.17414290407214E-08	6224359.5	5.59736145078205E-05
2	613	128.263883676165	0.434417724609375	0.4344482421875	7.38525390624995E-08	3.20851079038675E-08	5882644.5	5.59809304832015E-05
2	614	128.364591675911	0.424346923828125	0.42431640625	7.62939453125E-08	3.237277113044E-08	5561600	5.59884902031627E-05
2	615	128.465299675656	0.414276123046875	0.41424560546875	7.90405273437503E-08	3.2742189404189E-08	5240927	5.59963118575979E-05
2	616	128.566007675402	0.404205322265625	0.404266357421875	8.087158203125E-08	3.26936593353366E-08	4998868	5.6004362704698E-05
2	617	128.666715675148	0.394134521484375	0.394073486328125	8.23974609375E-08	3.24706519450046E-08	4782593	5.6012584536802E-05
2	618	128.767423674894	0.384063720703125	0.384063720703125	8.42285156249997E-08	3.23491136100529E-08	4559783	5.60209737159312E-05
2	619	128.868131674639	0.373992919921875	0.373992919921875	8.48388671875006E-08	3.17291366513928E-08	4408273.5	5.60294865863398E-05
2	620	128.968839674385	0.363922119140625	0.36395263671875	8.697509765625E-08	3.16548138812323E-08	4184561.75	5.60381413379218E-05
2	621	129.069547674131	0.353851318359375	0.35394287109375	8.78906250000006E-08	3.11082608561719E-08	4027083.25	5.6046945246635E-05
2	622	129.170255673876	0.343780517578125	0.343780517578125	8.88061523437497E-08	3.0529825778558E-08	3871134	5.60558437427972E-05
2	623	129.270963673622	0.333709716796875	0.333740234375	8.97216796875003E-08	2.99437346029663E-08	3719727.75	5.60648331884295E-05
2	624	129.371671673368	0.323638916015625	0.323699951171875	9.03320312499997E-08	2.92404731538909E-08	3583446	5.60738990316167E-05
2	625	129.472379673114	0.313568115234375	0.31353759765625	9.06372070312494E-08	2.84181727039368E-08	3459259.25	5.60830121685285E-05
2	626	129.573087672859	0.303497314453125	0.303466796875	9.06372070312494E-08	2.75053828602267E-08	3348148	5.60921398573555E-05
2	627	129.673795672605	0.293426513671875	0.29345703125	9.09423828125006E-08	2.66876813981298E-08	3226845.75	5.61012820980977E-05
2	628	129.774503672351	0.283355712890625	0.28326416015625	9.03320312499997E-08	2.55878269683762E-08	3135810.75	5.61104097869247E-05
2	629	129.875211672097	0.273284912109375	0.2733154296875	8.94165039062506E-08	2.44389095627184E-08	3056655.25	5.61194610781968E-05
2	630	129.975919671842	0.263214111328125	0.263214111328125	8.91113281249995E-08	2.34553585443109E-08	2953767.25	5.61284505238291E-05
2	631	130.076627671588	0.253143310546875	0.25311279296875	8.78906250000006E-08	2.22462421817227E-08	2879861	5.61373635719065E-05
2	632	130.177335671334	0.243072509765625	0.243072509765625	8.63647460937506E-08	2.09928945338334E-08	2814487.75	5.61461383767892E-05
2	633	130.27804367108	0.233001708984375	0.23297119140625	8.48388671875006E-08	1.97650109612368E-08	2746043.25	5.61547567485832E-05
2	634	130.378751670825	0.222930908203125	0.222930908203125	8.20922851562503E-08	1.83009074561369E-08	2715613.5	5.61631641176064E-05
2	635	130.479459670571	0.212860107421875	0.212890625	7.96508789062497E-08	1.69569247532309E-08	2672797	5.61713095521554E-05
2	636	130.580167670317	0.202789306640625	0.20281982421875	7.65991210937497E-08	1.55358197417854E-08	2647808.75	5.61791748623364E-05
2	637	130.680875670063	0.192718505859375	0.192718505859375	7.26318359375006E-08	1.39974982715785E-08	2653361.5	5.61866909265518E-05
2	638	130.781583669808	0.182647705078125	0.182647705078125	6.83593750000003E-08	1.24856835981291E-08	2671875	5.61937886232045E-05
2	639	130.882291669554	0.172576904296875	0.172607421875	6.28662109374997E-08	1.08511741814254E-08	2745631.25	5.62003988306969E-05
2	640	130.9829996693	0.162506103515625	0.162506103515625	5.55419921874995E-08	9.02591246187967E-09	2925824.25	5.62063614779618E-05
2	641	131.083707669045	0.152435302734375	0.15252685546875	4.57763671875E-08	6.98212554439692E-09	3332000	5.62114619242493E-05
2	642	131.184415668791	0.142364501953125	0.142425537109375	3.29589843750006E-08	4.69420102788831E-09	4321296.5	5.6215427321149E-05
2	643	131.285123668537	0.132293701171875	0.13238525390625	1.58691406249994E-08	2.10084016849521E-09	8342307.5	5.62178865948226E-05
2	644	131.385831668283	0.122222900390625	0.12225341796875	-7.93457031249972E-09	-9.70028390945288E-10	-15407692	5.62182867724914E-05
2	645	131.486539668028	0.112152099609375	0.1121826171875	-4.119873046875E-08	-4.62178117999201E-09	-2722963.25	5.62158093089238E-05
2	646	131.587247667774	0.102081298828125	0.102081298828125	-8.66699218750003E-08	-8.84737794137891E-09	-1177816.875	5.6209373724414E-05
2	647	131.68795566752	0.092010498046875	0.092071533203125	-1.4984130859375E-07	-1.37961180257662E-08	-614460.3125	5.61974629817996E-05
2	648	131.788663667266	0.081939697265625	0.08197021484375	-2.3651123046875E-07	-1.93868761044769E-08	-346580.65625	5.61780070711393E-05
2	649	131.889371667011	0.071868896484375	0.07196044921875	-3.53393554687501E-07	-2.54303582636339E-08	-203626.953125	5.61483029741794E-05
2	650	131.990079666757	0.061798095703125	0.061859130859375	-5.0689697265625E-07	-3.13562082965291E-08	-122034.9140625	5.61049855605233E-05
2	651	132.090787666503	0.051727294921875	0.051849365234375	-7.01293945312501E-07	-3.63616443621595E-08	-73933.859375	5.60441476409324E-05
2	652	132.191495666249	0.041656494140625	0.041754150390625	-9.34753417968751E-07	-3.90298318109217E-08	-44668.625	5.59617656108458E-05
2	653	132.292203665994	0.031585693359375	0.031658935546875	-1.1993408203125E-06	-3.79698548158558E-08	-26396.947265625	5.58543069928419E-05
2	654	132.39291166574	0.021514892578125	0.02158203125	-1.4727783203125E-06	-3.17855466391848E-08	-14653.9580078125	5.57197563466616E-05
2	655	132.493619665486	0.011444091796875	0.0115386962890625	-1.73126220703125E-06	-1.99765093356064E-08	-6664.904296875	5.55584192625247E-05
2	656	132.594327665232	0.001373291015625	0.00146484375	-1.9476318359375E-06	-2.85297607760526E-09	-752.115356445313	5.53731697436888E-05
2	657	132.695035664977	-0.008697509765625	-0.008587646484375	-2.10113525390625E-06	1.80438046726294E-08	4087.14624023438	5.51693010493182E-05
2	658	132.795743664723	-0.018768310546875	-0.018658447265625	-2.18475341796875E-06	4.07641067567965E-08	8540.2998046875	5.49534888705239E-05
2	659	132.896451664469	-0.028839111328125	-0.028741455078125	-2.20489501953125E-06	6.33718926223992E-08	13035.2939453125	5.47324525541626E-05
2	660	132.997159664214	-0.038909912109375	-0.0387969970703125	-2.176513671875E-06	8.44421919055094E-08	17825.294921875	5.45118309673853E-05
2	661	133.09786766396	-0.048980712890625	-0.048870849609375	-2.1160888671875E-06	1.03415061403211E-07	23094.896484375	5.4295680456562E-05
2	662	133.198575663706	-0.059051513671875	-0.059051513671875	-2.0404052734375E-06	1.20489019650449E-07	28941.072265625	5.40863838978112E-05
2	663	133.299283663452	-0.069122314453125	-0.069061279296875	-1.95892333984375E-06	1.3528575948385E-07	35254.7109375	5.38850035809446E-05
2	664	133.399991663197	-0.079193115234375	-0.0791015625	-1.87896728515625E-06	1.48629254681509E-07	42098.42578125	5.36917505087331E-05
2	665	133.500699662943	-0.089263916015625	-0.08917236328125	-1.80450439453125E-06	1.60911909574679E-07	49416.54296875	5.35062717972323E-05
2	666	133.601407662689	-0.099334716796875	-0.099273681640625	-1.7388916015625E-06	1.72626172911805E-07	57090.20703125	5.33278471266385E-05
2	667	133.702115662435	-0.109405517578125	-0.10931396484375	-1.67999267578125E-06	1.8364664811088E-07	65068.125	5.31556943315081E-05
2	668	133.80282366218	-0.119476318359375	-0.11944580078125	-1.6290283203125E-06	1.94580579204739E-07	73323.34375	5.29890712641645E-05
2	669	133.903531661926	-0.129547119140625	-0.12945556640625	-1.585693359375E-06	2.05276833753487E-07	81639.7265625	5.28271957591642E-05
2	670	134.004239661672	-0.139617919921875	-0.1395263671875	-1.54937744140625E-06	2.16179003587058E-07	90053.1796875	5.2669332944788E-05
2	671	134.104947661418	-0.149688720703125	-0.1495361328125	-1.51824951171875E-06	2.27033154942546E-07	98492.4609375	5.25148643646389E-05
2	672	134.205655661163	-0.159759521484375	-0.15960693359375	-1.4935302734375E-06	2.38377779737675E-07	106865.5546875	5.23632115800865E-05
2	673	134.306363660909	-0.169830322265625	-0.169677734375	-1.47369384765625E-06	2.50053034278608E-07	115137.7109375	5.22137997904792E-05
2	674	134.407071660655	-0.179901123046875	-0.1798095703125	-1.4581298828125E-06	2.62185693600259E-07	123315.1953125	5.20661706104875E-05
2	675	134.507779660401	-0.189971923828125	-0.189788818359375	-1.446533203125E-06	2.74535807420762E-07	131202.53125	5.19199093105271E-05
2	676	134.608487660146	-0.200042724609375	-0.199859619140625	-1.4385986328125E-06	2.87517764263612E-07	138926.609375	5.17746302648447E-05
2	677	134.709195659892	-0.189971923828125	-0.189788818359375	-1.27105712890625E-06	2.41232413600301E-07	149315.734375	5.16381878696848E-05
