Potential - Start -0.2 V, Upper Vertex 1.5 V, Lower Vertex -0.2 V, Stop -0.19 V; Scan - # end cross 5, Rate 0.1 Vps, Step 0.01 V 
Scan	Index	Time (s)	Potential applied (V)	WE(1).Potential (V)	WE(1).Current (A)	WE(1).Power (W)	WE(1).Resistance (Ω)	WE(1).Charge (C)
1	1	64.1951908379227	-0.189971923828125	-0.189727783203125	-2.362060546875E-07	4.48148504972323E-08	803230	0
1	2	64.2958988376685	-0.179901123046875	-0.179656982421875	-2.09960937500001E-07	3.77209481428054E-08	855668.625	-2.2466291937917E-08
1	3	64.3966068374142	-0.169830322265625	-0.169647216796875	-1.89819335937499E-07	3.22023225862722E-08	893729.9375	-4.2596827398711E-08
1	4	64.4973148371599	-0.159759521484375	-0.159576416015625	-1.73339843750001E-07	2.76609508631509E-08	920598.625	-6.08833445880919E-08
1	5	64.5980228369057	-0.149688720703125	-0.149566650390625	-1.5869140625E-07	2.37349428999778E-08	942500	-7.76024435822364E-08
1	6	64.6987308366514	-0.139617919921875	-0.13946533203125	-1.45874023437501E-07	2.03443697444072E-08	956066.9375	-9.29385350900702E-08
1	7	64.7994388363971	-0.129547119140625	-0.129425048828125	-1.3275146484375E-07	1.71813656635322E-08	974942.5	-1.06968442992184E-07
1	8	64.9001468361429	-0.119476318359375	-0.119384765625	-1.21154785156249E-07	1.4464035302808E-08	985390.4375	-1.19753636340647E-07
1	9	65.0008548358886	-0.109405517578125	-0.109344482421875	-1.080322265625E-07	1.18127276849123E-08	1012146.9375	-1.31294115135461E-07
1	10	65.1015628356344	-0.099334716796875	-0.099273681640625	-9.52148437499995E-08	9.45232780935612E-09	1042628.1875	-1.41528417429981E-07
1	11	65.2022708353801	-0.089263916015625	-0.089080810546875	-7.99560546874995E-08	7.12255010526519E-09	1114122.125	-1.5034898126487E-07
1	12	65.3029788351258	-0.079193115234375	-0.079071044921875	-6.13403320312497E-08	4.85024420626701E-09	1289054.75	-1.57463816208292E-07
1	13	65.4036868348716	-0.069122314453125	-0.06903076171875	-3.814697265625E-08	2.63331445538029E-09	1809600	-1.62473398290786E-07
1	14	65.5043948346173	-0.059051513671875	-0.058929443359375	-7.93457031249972E-09	4.67579808205443E-10	7426923	-1.64793789281248E-07
1	15	65.605102834363	-0.048980712890625	-0.0488006591796875	3.47900390625003E-08	-1.69777669700721E-09	-1402719.375	-1.63441512768259E-07
1	16	65.7058108341088	-0.038909912109375	-0.0387420654296875	9.09423828125006E-08	-3.5232956552278E-09	-426006.71875	-1.5711037804067E-07
1	17	65.8065188338545	-0.028839111328125	-0.02872314453125	1.6754150390625E-07	-4.81231898774581E-09	-171438.984375	-1.44094684628726E-07
1	18	65.9072268336002	-0.018768310546875	-0.01866455078125	2.70690917968749E-07	-5.05232433667402E-09	-68951.515625	-1.22027927318413E-07
1	19	66.007934833346	-0.008697509765625	-0.00858154296874999	4.0557861328125E-07	-3.48049034037956E-09	-21158.767578125	-8.79750530202728E-08
1	20	66.1086428330917	0.001373291015625	0.001507568359375	5.7525634765625E-07	8.67238225676914E-10	2620.68994140625	-3.85860907670121E-08
1	21	66.2093508328375	0.011444091796875	0.0115936279296875	7.7972412109375E-07	9.03983110589479E-09	14868.884765625	2.96425906043396E-08
1	22	66.3100588325832	0.021514892578125	0.021636962890625	1.00616455078125E-06	2.17703455263063E-08	21504.3984375	1.19569222079008E-07
1	23	66.4107668323289	0.031585693359375	0.0316986083984375	1.23992919921875E-06	3.93040266999378E-08	25564.853515625	2.32669023603194E-07
1	24	66.5114748320747	0.041656494140625	0.041778564453125	1.45904541015625E-06	6.09568218123968E-08	28634.177734375	3.6857318264083E-07
1	25	66.6121828318204	0.051727294921875	0.05181884765625	1.640625E-06	8.50152943598914E-08	31584.822265625	5.24654012679093E-07
1	26	66.7128908315661	0.061798095703125	0.061798095703125	1.7694091796875E-06	1.09346110832576E-07	34925.83984375	6.96362860708177E-07
1	27	66.8135988313119	0.071868896484375	0.07196044921875	1.83746337890625E-06	1.32224684534776E-07	39162.93359375	8.77983325153764E-07
1	28	66.9143068310576	0.081939697265625	0.08203125	1.8524169921875E-06	1.51956072613757E-07	44283.359375	1.0637835430316E-06
1	29	67.0150148308034	0.092010498046875	0.092071533203125	1.82525634765625E-06	1.68054143045993E-07	50443.0703125	1.24896905617788E-06
1	30	67.1157228305491	0.102081298828125	0.102203369140625	1.7706298828125E-06	1.80964335072531E-07	57721.4765625	1.43003637731454E-06
1	31	67.2164308302948	0.112152099609375	0.1121826171875	1.7022705078125E-06	1.90965153024081E-07	65901.7578125	1.60491072165314E-06
1	32	67.3171388300406	0.122222900390625	0.122314453125	1.6278076171875E-06	1.99104391640503E-07	75140.609375	1.77259346401115E-06
1	33	67.4178468297863	0.132293701171875	0.132293701171875	1.553955078125E-06	2.05578459144817E-07	85133.546875	1.93280789062555E-06
1	34	67.518554829532	0.142364501953125	0.1424560546875	1.48406982421875E-06	2.11414729278658E-07	95990.1328125	2.08578467209009E-06
1	35	67.6192628292778	0.152435302734375	0.15252685546875	1.41998291015625E-06	2.16585519297041E-07	107414.578125	2.23201527660422E-06
1	36	67.7199708290235	0.162506103515625	0.16253662109375	1.36138916015625E-06	2.21275584522118E-07	119390.28125	2.3720685931039E-06
1	37	67.8206788287692	0.172576904296875	0.172607421875	1.30889892578125E-06	2.25925660402027E-07	131872.234375	2.50652828981401E-06
1	38	67.921386828515	0.182647705078125	0.182647705078125	1.26220703125E-06	2.30539214385317E-07	144705.03125	2.63599372374301E-06
1	39	68.0220948282607	0.192718505859375	0.19281005859375	1.219482421875E-06	2.35128482017899E-07	158108.109375	2.76095670415089E-06
1	40	68.1228028280065	0.202789306640625	0.202789306640625	1.181640625E-06	2.39624085907053E-07	171616.734375	2.8818628834415E-06
1	41	68.2235108277522	0.212860107421875	0.212860107421875	1.14776611328125E-06	2.44313611119651E-07	185456	2.99915768664505E-06
1	42	68.3242188274979	0.222930908203125	0.222930908203125	1.116943359375E-06	2.49001175234298E-07	199590.171875	3.11319490720052E-06
1	43	68.4249268272437	0.233001708984375	0.233001708984375	1.0888671875E-06	2.53707924002811E-07	213985.421875	3.22426626553352E-06
1	44	68.5256348269894	0.243072509765625	0.24310302734375	1.06414794921875E-06	2.58697582466993E-07	228448.53125	3.33267917085323E-06
1	45	68.6263428267351	0.253143310546875	0.253173828125	1.04095458984375E-06	2.63542460743338E-07	243213.140625	3.43867964147648E-06
1	46	68.7270508264809	0.263214111328125	0.26324462890625	1.0205078125E-06	2.68643191247975E-07	257954.5625	3.54248254552658E-06
1	47	68.8277588262266	0.273284912109375	0.273284912109375	1.00128173828125E-06	2.73635180292331E-07	272935.09375	3.64428774446424E-06
1	48	68.9284668259724	0.283355712890625	0.283355712890625	9.8419189453125E-07	2.78876370884973E-07	287907	3.7442641769303E-06
1	49	69.0291748257181	0.293426513671875	0.29345703125	9.686279296875E-07	2.84250660342877E-07	302961.5625	3.84259647034924E-06
1	50	69.1298828254638	0.303497314453125	0.303558349609375	9.54589843750001E-07	2.89773709027941E-07	317998.71875	3.93943810195196E-06
1	51	69.2305908252096	0.313568115234375	0.313629150390625	9.417724609375E-07	2.9536730039581E-07	333020.09375	4.03492776968051E-06
1	52	69.3312988249553	0.323638916015625	0.323699951171875	9.30175781250001E-07	3.01097855981425E-07	347998.6875	4.12918780057225E-06
1	53	69.432006824701	0.333709716796875	0.333770751953125	9.2010498046875E-07	3.07104130570224E-07	362752.90625	4.22235689256922E-06
1	54	69.5327148244468	0.343780517578125	0.343780517578125	9.112548828125E-07	3.13271669938331E-07	377260.5625	4.31457283411874E-06
1	55	69.6334228241925	0.353851318359375	0.3538818359375	9.0362548828125E-07	3.19776631840796E-07	391624.46875	4.40595931650023E-06
1	56	69.7341308239382	0.363922119140625	0.36395263671875	8.97216796875E-07	3.26544409290364E-07	405646.28125	4.49663912149845E-06
1	57	69.834838823684	0.373992919921875	0.37396240234375	8.92028808593751E-07	3.33585234102429E-07	419226.84375	4.58673457615077E-06
1	58	69.9355468234297	0.384063720703125	0.384033203125	8.880615234375E-07	3.41045108598337E-07	432439.875	4.67636937173666E-06
1	59	70.0362548231755	0.394134521484375	0.3941650390625	8.85620117187499E-07	3.49080465866791E-07	445072.375	4.76568129670341E-06
1	60	70.1369628229212	0.404205322265625	0.40423583984375	8.837890625E-07	3.57259210659322E-07	457389.53125	4.85477812617319E-06
1	61	70.2376708226669	0.414276123046875	0.414306640625	8.82873535156251E-07	3.65780351785361E-07	469270.65625	4.9437367124483E-06
1	62	70.3383788224127	0.424346923828125	0.424346923828125	8.8348388671875E-07	3.74903663669102E-07	480310.875	5.03267983731348E-06
1	63	70.4390868221584	0.434417724609375	0.434417724609375	8.8470458984375E-07	3.84331343639133E-07	491031.40625	5.12171527589089E-06
1	64	70.5397948219041	0.444488525390625	0.44451904296875	8.868408203125E-07	3.94217607890823E-07	501238.84375	5.21091988048283E-06
1	65	70.6405028216499	0.454559326171875	0.45458984375	8.88977050781251E-07	4.04119930408342E-07	511362.875	5.30033912582439E-06
1	66	70.7412108213956	0.464630126953125	0.464630126953125	8.9263916015625E-07	4.14747034938046E-07	520512.8125	5.39005077371257E-06
1	67	70.8419188211413	0.474700927734375	0.474700927734375	8.96606445312501E-07	4.25619901989194E-07	529441.8125	5.4801462283649E-06
1	68	70.9426268208871	0.484771728515625	0.484771728515625	9.0179443359375E-07	4.37164430877601E-07	537563.4375	5.57070325157838E-06
1	69	71.0433348206328	0.494842529296875	0.494873046875	9.0789794921875E-07	4.492942196066E-07	545075.625	5.66182825423311E-06
1	70	71.1440428203786	0.504913330078125	0.5048828125	9.14916992187501E-07	4.6192587888072E-07	551834.5625	5.75361445953604E-06
1	71	71.2447508201243	0.514984130859375	0.5150146484375	9.228515625E-07	4.7528206437164E-07	558068.8125	5.84615327170468E-06
1	72	71.34545881987	0.525054931640625	0.525054931640625	9.31396484375E-07	4.89034334805183E-07	563728.6875	5.93952199778869E-06
1	73	71.4461668196158	0.535125732421875	0.535125732421875	9.4146728515625E-07	5.03803335050179E-07	568395.5	6.03382841291022E-06
1	74	71.5468748193615	0.545196533203125	0.54522705078125	9.521484375E-07	5.19137074661558E-07	572628.25	6.12917938269675E-06
1	75	71.6475828191072	0.555267333984375	0.5552978515625	9.65270996093751E-07	5.36012862539792E-07	575276.6875	6.22572906650021E-06
1	76	71.748290818853	0.565338134765625	0.56536865234375	9.81750488281249E-07	5.55050917228073E-07	575878.1875	6.32376941211987E-06
1	77	71.8489988185987	0.575408935546875	0.57537841796875	1.00250244140625E-06	5.76818308672955E-07	573942.125	6.42368468106724E-06
1	78	71.9497068183445	0.585479736328125	0.58544921875	1.02783203125E-06	6.01743465722393E-07	569596.1875	6.52592007099884E-06
1	79	72.0504148180902	0.595550537109375	0.595550537109375	1.06201171875E-06	6.32481658158213E-07	560775.875	6.63115179122542E-06
1	80	72.1511228178359	0.605621337890625	0.605621337890625	1.1077880859375E-06	6.70900078603154E-07	546694.1875	6.7404102992441E-06
1	81	72.2518308175817	0.615692138671875	0.61572265625	1.17034912109375E-06	7.20610444204794E-07	526101.75	6.85512350173667E-06
1	82	72.3525388173274	0.625762939453125	0.62579345703125	1.25518798828125E-06	7.85488396104483E-07	498565.53125	6.97725909049041E-06
1	83	72.4532468170731	0.635833740234375	0.63580322265625	1.36932373046875E-06	8.70620453952142E-07	464319.15625	7.10941367287887E-06
1	84	72.5539548168189	0.645904541015625	0.645843505859375	1.52099609375E-06	9.82325445875176E-07	424618.78125	7.25495283404598E-06
1	85	72.6546628165646	0.655975341796875	0.655914306640625	1.7132568359375E-06	1.12374959826411E-06	382846.46875	7.4178101385769E-06
1	86	72.7553708163103	0.666046142578125	0.666046142578125	1.94488525390625E-06	1.29538329929346E-06	342460.375	7.60201237426372E-06
1	87	72.8560788160561	0.676116943359375	0.676055908203125	2.20947265625E-06	1.49372692703764E-06	305980.6875	7.811200703145E-06
1	88	72.9567868158018	0.686187744140625	0.686187744140625	2.4920654296875E-06	1.71002466231585E-06	275349.03125	8.0479421740165E-06
1	89	73.0574948155476	0.696258544921875	0.6962890625	2.7691650390625E-06	1.92813922694768E-06	251443.703125	8.31286615721183E-06
1	90	73.1582028152933	0.706329345703125	0.706329345703125	3.017578125E-06	2.13140401683631E-06	234071.59375	8.60425188875524E-06
1	91	73.258910815039	0.716400146484375	0.716339111328125	3.21258544921875E-06	2.30130058298528E-06	222979.015625	8.91796571522718E-06
1	92	73.3596188147848	0.726470947265625	0.72637939453125	3.34381103515625E-06	2.42887540480297E-06	217231	9.24810592550784E-06
1	93	73.4603268145305	0.736541748046875	0.7364501953125	3.408203125E-06	2.50997163675493E-06	216081.671875	9.58809687290341E-06
1	94	73.5610348142762	0.746612548828125	0.74652099609375	3.41949462890625E-06	2.55272448157484E-06	218313.265625	9.9318986030994E-06
1	95	73.661742814022	0.756683349609375	0.75714111328125	3.3935546875E-06	2.5693996121845E-06	223111.515625	1.0274963642587E-05
1	96	73.7624508137677	0.766754150390625	0.76690673828125	3.350830078125E-06	2.56977409662795E-06	228870.6875	1.06145698737237E-05
1	97	73.8631588135135	0.776824951171875	0.77728271484375	3.309326171875E-06	2.57228202826809E-06	234876.4375	1.0949935131066E-05
1	98	73.9638668132592	0.786895751953125	0.7867431640625	3.28369140625E-06	2.58342174674908E-06	239591.09375	1.12819207060966E-05
1	99	74.0645748130049	0.796966552734375	0.797119140625	3.2867431640625E-06	2.61992590822047E-06	242525.53125	1.16127675937605E-05
1	100	74.1652828127507	0.807037353515625	0.806884765625	3.3282470703125E-06	2.68551184490207E-06	242435.359375	1.19458591143484E-05
1	101	74.2659908124964	0.817108154296875	0.8172607421875	3.416748046875E-06	2.79237383438158E-06	239192.578125	1.2285496268305E-05
1	102	74.3666988122421	0.827178955078125	0.82733154296875	3.558349609375E-06	2.94393475996912E-06	232504.296875	1.26367203847622E-05
1	103	74.4674068119879	0.837249755859375	0.83770751953125	3.7493896484375E-06	3.14089197672729E-06	223425.03125	1.30046946651419E-05
1	104	74.5681148117336	0.847320556640625	0.8477783203125	3.98101806640625E-06	3.37502069669426E-06	212955.15625	1.33939511215431E-05
1	105	74.6688228114793	0.857391357421875	0.85723876953125	4.23187255859375E-06	3.62772516382392E-06	202567.25	1.38075038194074E-05
1	106	74.7695308112251	0.867462158203125	0.8673095703125	4.47906494140625E-06	3.88473608836648E-06	193636.296875	1.42461340146838E-05
1	107	74.8702388109708	0.877532958984375	0.87799072265625	4.69207763671875E-06	4.11960081692087E-06	187121.953125	1.47079381349613E-05
1	108	74.9709468107166	0.887603759765625	0.8880615234375	4.8516845703125E-06	4.30859427069663E-06	183041.890625	1.51885042214417E-05
1	109	75.0716548104623	0.897674560546875	0.8978271484375	4.9468994140625E-06	4.44146053268923E-06	181492.90625	1.56819023686694E-05
1	110	75.172362810208	0.907745361328125	0.9075927734375	4.9774169921875E-06	4.51746745966375E-06	182342.140625	1.61816315085161E-05
1	111	75.2730708099538	0.917816162109375	0.91796875	4.9560546875E-06	4.54950304629165E-06	185221.6875	1.6681820852682E-05
1	112	75.3737788096995	0.927886962890625	0.92803955078125	4.89990234375E-06	4.54730297860806E-06	189399.609375	1.71781084645772E-05
1	113	75.4744868094452	0.937957763671875	0.9381103515625	4.8358154296875E-06	4.53652819487615E-06	193992.1875	1.76683406607481E-05
1	114	75.575194809191	0.948028564453125	0.94818115234375	4.7760009765625E-06	4.52851418231148E-06	198530.359375	1.81523337232647E-05
1	115	75.6759028089367	0.958099365234375	0.958251953125	4.73388671875E-06	4.53625625596032E-06	202423.921875	1.8631195416674E-05
1	116	75.7766108086824	0.968170166015625	0.968017578125	4.7210693359375E-06	4.57007809018251E-06	205042.015625	1.91072886082111E-05
1	117	75.8773188084282	0.978240966796875	0.9783935546875	4.74609375E-06	4.64354707219172E-06	206147.125	1.9583998437156E-05
1	118	75.9780268081739	0.988311767578125	0.9881591796875	4.8126220703125E-06	4.75563683721703E-06	205326.5625	2.00653194042388E-05
1	119	76.0787348079197	0.998382568359375	0.99853515625	4.92218017578125E-06	4.91496984977857E-06	202864.421875	2.05555043066852E-05
1	120	76.1794428076654	1.00845336914063	1.00830078125	5.072021484375E-06	5.11412326886784E-06	198796.640625	2.10587531910278E-05
1	121	76.2801508074111	1.01852416992188	1.01837158203125	5.242919921875E-06	5.33924094270333E-06	194237.484375	2.15781510632951E-05
1	122	76.3808588071569	1.02859497070313	1.0284423828125	5.4168701171875E-06	5.57093881070614E-06	189859.15625	2.2114914827398E-05
1	123	76.4815668069026	1.03866577148438	1.03851318359375	5.572509765625E-06	5.78712479182286E-06	186363.640625	2.26682732318295E-05
1	124	76.5822748066483	1.04873657226563	1.04827880859375	5.6884765625E-06	5.96310928813182E-06	184281.125	2.32353086175863E-05
1	125	76.6829828063941	1.05880737304688	1.058349609375	5.755615234375E-06	6.0914526329725E-06	183881.234375	2.38115644606296E-05
1	126	76.7836908061398	1.06887817382813	1.06903076171875	5.767822265625E-06	6.16597935731988E-06	185343.921875	2.43918166233925E-05
1	127	76.8843988058856	1.07894897460938	1.0791015625	5.7342529296875E-06	6.1878408814664E-06	188185.21875	2.49709919444285E-05
1	128	76.9851068056313	1.08901977539063	1.0888671875	5.670166015625E-06	6.17405794400838E-06	192034.4375	2.55452505371068E-05
1	129	77.085814805377	1.09909057617188	1.0992431640625	5.584716796875E-06	6.13896190770902E-06	196830.609375	2.61119785136543E-05
1	130	77.1865228051228	1.10916137695313	1.1090087890625	5.4931640625E-06	6.09196695222636E-06	201888.890625	2.66697934421245E-05
1	131	77.2872308048685	1.11923217773438	1.11907958984375	5.401611328125E-06	6.04483284405433E-06	207175.140625	2.72183897322975E-05
1	132	77.3879388046142	1.12930297851563	1.129150390625	5.3131103515625E-06	5.99930035605212E-06	212521.546875	2.77579183602938E-05
1	133	77.48864680436	1.13937377929688	1.13983154296875	5.230712890625E-06	5.96213158132741E-06	217911.328125	2.8288841349422E-05
1	134	77.5893548041057	1.14944458007813	1.14959716796875	5.1605224609375E-06	5.93252207181649E-06	222767.59375	2.8812082746299E-05
1	135	77.6900628038514	1.15951538085938	1.15966796875	5.096435546875E-06	5.91017305850983E-06	227544.921875	2.93285611405736E-05
1	136	77.7907708035972	1.16958618164063	1.16973876953125	5.0445556640625E-06	5.90081208429183E-06	231881.4375	2.98392005788628E-05
1	137	77.8914788033429	1.17965698242188	1.1798095703125	5.0018310546875E-06	5.90120816923445E-06	235875.53125	3.03450760839041E-05
1	138	77.9921868030887	1.18972778320313	1.18988037109375	4.9688720703125E-06	5.9123631217517E-06	239466.90625	3.08471426251344E-05
1	139	78.0928948028344	1.19979858398438	1.19964599609375	4.94903564453125E-06	5.9370904637035E-06	242399.96875	3.1346546165878E-05
1	140	78.1936028025801	1.20986938476563	1.209716796875	4.9444580078125E-06	5.98139376961626E-06	244661.15625	3.18447237077635E-05
1	141	78.2943108023259	1.21994018554688	1.2200927734375	4.9566650390625E-06	6.04759088673745E-06	246151.96875	3.23432868754026E-05
1	142	78.3950188020716	1.23001098632813	1.2298583984375	4.99267578125E-06	6.1402843130054E-06	246332.515625	3.28442729369272E-05
1	143	78.4957268018173	1.24008178710938	1.240234375	5.0537109375E-06	6.26778592049959E-06	245410.625	3.33501520799473E-05
1	144	78.5964348015631	1.25015258789063	1.25	5.13916015625E-06	6.42394979877281E-06	243230.421875	3.38634017680306E-05
1	145	78.6971428013088	1.26022338867188	1.26007080078125	5.255126953125E-06	6.621831744269E-06	239779.328125	3.43867977790069E-05
1	146	78.7978508010546	1.27029418945313	1.2701416015625	5.389404296875E-06	6.84530641592573E-06	235673.84375	3.49227921105921E-05
1	147	78.8985588008003	1.28036499023438	1.280517578125	5.52978515625E-06	7.08098696122761E-06	231567.328125	3.54726143996231E-05
1	148	78.999266800546	1.29043579101563	1.29058837890625	5.6732177734375E-06	7.32178887119517E-06	227487.890625	3.60367303073872E-05
1	149	79.0999748002918	1.30050659179688	1.3006591796875	5.8013916015625E-06	7.54563325244817E-06	224197.796875	3.66145250154659E-05
1	150	79.2006828000375	1.31057739257813	1.31072998046875	5.9173583984375E-06	7.75605894887121E-06	221505.9375	3.7204608815955E-05
1	151	79.3013907997832	1.32064819335938	1.32049560546875	6.0150146484375E-06	7.94280003901804E-06	219533.234375	3.78054537577555E-05
1	152	79.402098799529	1.33071899414063	1.33026123046875	6.09130859375E-06	8.10303117759759E-06	218386.78125	3.84150553145446E-05
1	153	79.5028067992747	1.34078979492188	1.34124755859375	6.15234375E-06	8.25181632535532E-06	218005.953125	3.9031572669046E-05
1	154	79.6035147990204	1.35086059570313	1.35101318359375	6.195068359375E-06	8.36961862660246E-06	218078.828125	3.96533141611144E-05
1	155	79.7042227987662	1.36093139648438	1.36077880859375	6.2286376953125E-06	8.47579849505564E-06	218471.34375	4.02788973588031E-05
1	156	79.8049307985119	1.37100219726563	1.370849609375	6.25E-06	8.56781025504461E-06	219335.9375	4.09072454203852E-05
1	157	79.9056387982577	1.38107299804688	1.3812255859375	6.2652587890625E-06	8.6537356764893E-06	220457.875	4.15374379372224E-05
1	158	80.0063467980034	1.39114379882813	1.3909912109375	6.2774658203125E-06	8.73189947014907E-06	221584.84375	4.21690165239852E-05
1	159	80.1070547977491	1.40121459960938	1.4013671875	6.28662109375E-06	8.80986408446915E-06	222912.625	4.28016683144961E-05
1	160	80.2077627974949	1.41128540039063	1.41143798828125	6.2957763671875E-06	8.88609793037176E-06	224188.09375	4.34352405136451E-05
1	161	80.3084707972406	1.42135620117188	1.4215087890625	6.31103515625E-06	8.97119207365904E-06	225241.78125	4.40700459876098E-05
1	162	80.4091787969863	1.43142700195313	1.43096923828125	6.329345703125E-06	9.057098395715E-06	226084.859375	4.47065394837409E-05
1	163	80.5098867967321	1.44149780273438	1.44134521484375	6.3507080078125E-06	9.15356213226914E-06	226958.203125	4.53450302302372E-05
1	164	80.6105947964778	1.45156860351563	1.4520263671875	6.378173828125E-06	9.26127631828422E-06	227655.515625	4.5985980250407E-05
1	165	80.7113027962235	1.46163940429688	1.4617919921875	6.4178466796875E-06	9.38155699259369E-06	227769.859375	4.66303099528886E-05
1	166	80.8120107959693	1.47171020507813	1.47186279296875	6.4910888671875E-06	9.55399173108162E-06	226751.296875	4.72803258162457E-05
1	167	80.912718795715	1.48178100585938	1.4813232421875	6.6009521484375E-06	9.77814397629118E-06	224410.546875	4.79395639558788E-05
1	168	81.0134267954608	1.49185180664063	1.49200439453125	6.75048828125E-06	1.00717579698539E-05	221021.703125	4.86118624394294E-05
1	169	81.1141347952065	1.50192260742188	1.50177001953125	6.93359375E-06	1.04126629594248E-05	216593.3125	4.93009101774078E-05
1	170	81.2148427949522	1.49185180664063	1.49200439453125	6.43310546875E-06	9.59822136792354E-06	231926	4.99739762744866E-05
1	171	81.315550794698	1.48178100585938	1.4813232421875	6.0638427734375E-06	8.9825107352226E-06	244287.875	5.06032483826857E-05
1	172	81.4162587944437	1.47171020507813	1.4715576171875	5.780029296875E-06	8.50564629217843E-06	254593.453125	5.11996331624687E-05
1	173	81.5169667941894	1.46163940429688	1.46148681640625	5.55419921875E-06	8.11738846095977E-06	263131.875	5.17703592777252E-05
1	174	81.6176747939352	1.45156860351563	1.4508056640625	5.37109375E-06	7.79241327109048E-06	270113.625	5.23204907949548E-05
1	175	81.7183827936809	1.44149780273438	1.44195556640625	5.218505859375E-06	7.52485311750206E-06	276315.8125	5.28537202626467E-05
1	176	81.8190907934267	1.43142700195313	1.43218994140625	5.09033203125E-06	7.29032217350323E-06	281354.9375	5.33728125446942E-05
1	177	81.9197987931724	1.42135620117188	1.4215087890625	4.97711181640625E-06	7.07500794305815E-06	285609.1875	5.38797467015684E-05
1	178	82.0205067929181	1.41128540039063	1.41143798828125	4.87548828125E-06	6.88144928062684E-06	289496.75	5.43758651474491E-05
1	179	82.1212147926639	1.40121459960938	1.4007568359375	4.77935791015625E-06	6.69471819492173E-06	293084.75	5.48620264453348E-05
1	180	82.2219227924096	1.39114379882813	1.3909912109375	4.6832275390625E-06	6.51432810627739E-06	297015.53125	5.5338503443636E-05
1	181	82.3226307921553	1.38107299804688	1.38092041015625	4.5806884765625E-06	6.32556611890323E-06	301465.71875	5.58049796381965E-05
1	182	82.4233387919011	1.37100219726563	1.370849609375	4.4696044921875E-06	6.12715530223795E-06	306704.90625	5.62606983294245E-05
1	183	82.5240467916468	1.36093139648438	1.36016845703125	4.342041015625E-06	5.90590707361116E-06	313255.5625	5.67044007766526E-05
1	184	82.6247547913925	1.35086059570313	1.3507080078125	4.19891357421875E-06	5.67150573260733E-06	321680.375	5.71344717172906E-05
1	185	82.7254627911383	1.34078979492188	1.34063720703125	4.0374755859375E-06	5.41278950549895E-06	332048.40625	5.75492049392778E-05
1	186	82.826170790884	1.33071899414063	1.33056640625	3.8592529296875E-06	5.13499253429472E-06	344773.0625	5.7946836022893E-05
1	187	82.9268787906298	1.32064819335938	1.32049560546875	3.670654296875E-06	4.84708289150149E-06	359743.9375	5.83259970881045E-05
1	188	83.0275867903755	1.31057739257813	1.3104248046875	3.480224609375E-06	4.56057250630693E-06	376534.5625	5.8686073316494E-05
1	189	83.1282947901212	1.30050659179688	1.30035400390625	3.29559326171875E-06	4.28543762609479E-06	394573.59375	5.90272611589171E-05
1	190	83.229002789867	1.29043579101563	1.29058837890625	3.12347412109375E-06	4.03111926061683E-06	413190.0625	5.93504882999696E-05
1	191	83.3297107896127	1.28036499023438	1.280517578125	2.96966552734375E-06	3.80270898858726E-06	431199.25	5.96573008806445E-05
1	192	83.4304187893584	1.27029418945313	1.27105712890625	2.84332275390625E-06	3.61402544513112E-06	447032.34375	5.99500090174843E-05
1	193	83.5311267891042	1.26022338867188	1.26068115234375	2.74505615234375E-06	3.46064030054549E-06	459255.15625	6.02314066782128E-05
1	194	83.6318347888499	1.25015258789063	1.24969482421875	2.67791748046875E-06	3.34657943312777E-06	466666.6875	6.05044770054519E-05
1	195	83.7325427885957	1.24008178710938	1.240234375	2.63671875E-06	3.27014913636958E-06	470370.40625	6.07720903644804E-05
1	196	83.8332507883414	1.23001098632813	1.23016357421875	2.613525390625E-06	3.2150637707673E-06	470691.28125	6.10364586464129E-05
1	197	83.9339587880871	1.21994018554688	1.21978759765625	2.60345458984375E-06	3.17566150442872E-06	468526.5625	6.1299157096073E-05
1	198	84.0346667878329	1.20986938476563	1.21002197265625	2.5994873046875E-06	3.14543672175205E-06	465484.84375	6.15611425018869E-05
1	199	84.1353747875786	1.19979858398438	1.19964599609375	2.59918212890625E-06	3.11809844788513E-06	461547.5	6.182291690493E-05
1	200	84.2360827873243	1.18972778320313	1.1895751953125	2.598876953125E-06	3.0915593924874E-06	457726.65625	6.20846622041427E-05
1	201	84.3367907870701	1.17965698242188	1.17950439453125	2.5970458984375E-06	3.06322681353777E-06	454171.59375	6.23462983639911E-05
1	202	84.4374987868158	1.16958618164063	1.1700439453125	2.5921630859375E-06	3.03294473269489E-06	451377.4375	6.26075925538316E-05
1	203	84.5382067865615	1.15951538085938	1.15966796875	2.58392333984375E-06	2.99649309454253E-06	448801.21875	6.28682319074869E-05
1	204	84.6389147863073	1.14944458007813	1.148681640625	2.56988525390625E-06	2.95198015010101E-06	446977.78125	6.3127743487712E-05
1	205	84.739622786053	1.13937377929688	1.13922119140625	2.550048828125E-06	2.90506955025194E-06	446744.875	6.33855524938554E-05
1	206	84.8403307857988	1.12930297851563	1.12945556640625	2.52105712890625E-06	2.84742191070109E-06	448008.75	6.36409022263251E-05
1	207	84.9410387855445	1.11923217773438	1.119384765625	2.48016357421875E-06	2.77625713351881E-06	451335.09375	6.38927376712672E-05
1	208	85.0417467852902	1.10916137695313	1.1090087890625	2.42462158203125E-06	2.68892654275987E-06	457394.59375	6.41397127765231E-05
1	209	85.142454785036	1.09909057617188	1.0992431640625	2.349853515625E-06	2.5830604499788E-06	467792.21875	6.43801249680109E-05
1	210	85.2431627847817	1.08901977539063	1.08917236328125	2.2503662109375E-06	2.45103660745372E-06	483997.84375	6.46117623546161E-05
1	211	85.3438707845274	1.07894897460938	1.0791015625	2.1209716796875E-06	2.28874387175892E-06	508776.96875	6.4831881900318E-05
1	212	85.4445787842732	1.06887817382813	1.0687255859375	1.95953369140625E-06	2.09420363717072E-06	545397.9375	6.50373476673849E-05
1	213	85.5452867840189	1.05880737304688	1.05865478515625	1.7645263671875E-06	1.86802424195776E-06	599965.4375	6.52248709229752E-05
1	214	85.6459947837646	1.04873657226563	1.04888916015625	1.54327392578125E-06	1.6187233313758E-06	679651.9375	6.53914321446791E-05
1	215	85.7467027835104	1.03866577148438	1.03851318359375	1.3067626953125E-06	1.357090241072E-06	794722.125	6.55349431326613E-05
1	216	85.8474107832561	1.02859497070313	1.0284423828125	1.07269287109375E-06	1.10320274870901E-06	958748.25	6.5654756326694E-05
1	217	85.9481187830019	1.01852416992188	1.0186767578125	8.60595703125E-07	8.76668821092608E-07	1183688	6.57521086395718E-05
1	218	86.0488267827476	1.00845336914063	1.0089111328125	6.87561035156251E-07	6.93687923103425E-07	1467376.875	6.58300632494502E-05
1	219	86.1495347824933	0.998382568359375	0.99884033203125	5.65185546875E-07	5.64530125757301E-07	1767278.625	6.58931458019651E-05
1	220	86.2502427822391	0.988311767578125	0.98846435546875	4.9591064453125E-07	4.90189961510623E-07	1993230.875	6.59465731587261E-05
1	221	86.3509507819848	0.978240966796875	0.9783935546875	4.73632812499999E-07	4.63399288719302E-07	2065721.625	6.59953948343173E-05
1	222	86.4516587817305	0.968170166015625	0.968017578125	4.8553466796875E-07	4.70006085606656E-07	1993714.75	6.60436926409602E-05
1	223	86.5523667814763	0.958099365234375	0.95794677734375	5.15136718750001E-07	4.93473578444537E-07	1859597.125	6.60940786474384E-05
1	224	86.653074781222	0.948028564453125	0.948486328125	5.42602539062501E-07	5.146511057319E-07	1748031.5	6.61473386571743E-05
1	225	86.7537827809678	0.937957763671875	0.93841552734375	5.51757812500001E-07	5.17778119046852E-07	1700774.375	6.62024467601441E-05
1	226	86.8544907807135	0.927886962890625	0.9283447265625	5.28869628906251E-07	4.90973320665944E-07	1755337.5	6.62568636471406E-05
1	227	86.9551987804592	0.917816162109375	0.91827392578125	4.66003417968749E-07	4.27918763534763E-07	1970530.5	6.63069586153142E-05
1	228	87.055906780205	0.907745361328125	0.908203125	3.5369873046875E-07	3.21230260169614E-07	2567731	6.63482351228595E-05
1	229	87.1566147799507	0.897674560546875	0.8978271484375	1.88598632812501E-07	1.69328970400784E-07	4760518	6.63755417917855E-05
1	230	87.2573227796964	0.887603759765625	0.88775634765625	-2.50244140624994E-08	-2.22155804863178E-08	-35475612	6.63837781758048E-05
1	231	87.3580307794422	0.877532958984375	0.87738037109375	-2.7740478515625E-07	-2.43389507659231E-07	-3162816.25	6.63685495965183E-05
1	232	87.4587387791879	0.867462158203125	0.86761474609375	-5.48400878906249E-07	-4.75800675303617E-07	-1582081.25	6.63269674987532E-05
1	233	87.5594467789336	0.857391357421875	0.8575439453125	-8.1512451171875E-07	-6.99005113347084E-07	-1052040.5	6.62583042867482E-05
1	234	87.6601547786794	0.847320556640625	0.84747314453125	-1.048583984375E-06	-8.88646752628119E-07	-808207.25	6.61644589854404E-05
1	235	87.7608627784251	0.837249755859375	0.83770751953125	-1.23016357421875E-06	-1.03051729638537E-06	-680972.5	6.60497171338648E-05
1	236	87.8615707781709	0.827178955078125	0.82763671875	-1.34246826171875E-06	-1.11107601696858E-06	-616503.8125	6.59201759845018E-05
1	237	87.9622787779166	0.817108154296875	0.8172607421875	-1.387939453125E-06	-1.13430837700434E-06	-588830.25	6.57826894894242E-05
1	238	88.0629867776623	0.807037353515625	0.8074951171875	-1.37481689453125E-06	-1.11015788206714E-06	-587347.375	6.5643573179841E-05
1	239	88.1636947774081	0.796966552734375	0.79681396484375	-1.3232421875E-06	-1.05437777619954E-06	-602167.9375	6.55077092233114E-05
1	240	88.2644027771538	0.786895751953125	0.78704833984375	-1.25152587890625E-06	-9.85011411103187E-07	-628871	6.53780662105419E-05
1	241	88.3651107768995	0.776824951171875	0.7769775390625	-1.17950439453125E-06	-9.1644841404559E-07	-658732.25	6.52556482236832E-05
1	242	88.4658187766453	0.766754150390625	0.76690673828125	-1.12335205078125E-06	-8.61506237015419E-07	-682694.9375	6.5139691287186E-05
1	243	88.566526776391	0.756683349609375	0.75714111328125	-1.094970703125E-06	-8.29047337447264E-07	-691471.5625	6.50279907858931E-05
1	244	88.6672347761368	0.746612548828125	0.746551513671875	-1.10565185546875E-06	-8.25426013761899E-07	-675213.9375	6.4917177951429E-05
1	245	88.7679427758825	0.736541748046875	0.73651123046875	-1.16302490234375E-06	-8.56580868457968E-07	-633272.125	6.48029454168864E-05
1	246	88.8686507756282	0.726470947265625	0.72637939453125	-1.270751953125E-06	-9.23047991818748E-07	-571613.875	6.46803964627907E-05
1	247	88.969358775374	0.716400146484375	0.716400146484375	-1.42822265625E-06	-1.02317892469728E-06	-501602.5625	6.45444888505153E-05
1	248	89.0700667751197	0.706329345703125	0.706329345703125	-1.6241455078125E-06	-1.14718159238691E-06	-434892.90625	6.43907915218733E-05
1	249	89.1707747748654	0.696258544921875	0.696258544921875	-1.84112548828125E-06	-1.28189935821865E-06	-378170.0625	6.421629950637E-05
1	250	89.2714827746112	0.686187744140625	0.686187744140625	-2.05078125E-06	-1.4072209069127E-06	-334598.21875	6.40203288639896E-05
1	251	89.3721907743569	0.676116943359375	0.676116943359375	-2.2265625E-06	-1.50541654875269E-06	-303659.5625	6.38049459666945E-05
1	252	89.4728987741026	0.666046142578125	0.666046142578125	-2.34588623046875E-06	-1.56246835558704E-06	-283920.9375	6.35747055639513E-05
1	253	89.5736067738484	0.655975341796875	0.65594482421875	-2.39837646484375E-06	-1.57320255311788E-06	-273495.375	6.33358140476048E-05
1	254	89.6743147735941	0.645904541015625	0.6458740234375	-2.38433837890625E-06	-1.53998223595408E-06	-270881.875	6.30949798505753E-05
1	255	89.7750227733399	0.635833740234375	0.63580322265625	-2.3175048828125E-06	-1.47347702750267E-06	-274348.1875	6.28582274657674E-05
1	256	89.8757307730856	0.625762939453125	0.62579345703125	-2.215576171875E-06	-1.38649306791194E-06	-282451.78125	6.26299661234953E-05
1	257	89.9764387728313	0.615692138671875	0.61572265625	-2.0947265625E-06	-1.28977058011515E-06	-293939.375	6.24129243078642E-05
1	258	90.0771467725771	0.605621337890625	0.60565185546875	-1.966552734375E-06	-1.19104629447975E-06	-307976.4375	6.22084262431599E-05
1	259	90.1778547723228	0.595550537109375	0.59552001953125	-1.83990478515625E-06	-1.09570009954041E-06	-323668.9375	6.20167556917295E-05
1	260	90.2785627720685	0.585479736328125	0.58551025390625	-1.719970703125E-06	-1.00706051853194E-06	-340418.75	6.18374979239888E-05
1	261	90.3792707718143	0.575408935546875	0.575347900390625	-1.6082763671875E-06	-9.25318374811468E-07	-357741.9375	6.16699107922614E-05
1	262	90.47997877156	0.565338134765625	0.565338134765625	-1.50543212890625E-06	-8.51078198138566E-07	-375532.125	6.15131211816333E-05
1	263	90.5806867713057	0.555267333984375	0.55523681640625	-1.412353515625E-06	-7.84190660851891E-07	-393128.78125	6.13661977695301E-05
1	264	90.6813947710515	0.545196533203125	0.545196533203125	-1.32781982421875E-06	-7.23922710221814E-07	-410595.28125	6.12282237852924E-05
1	265	90.7821027707972	0.535125732421875	0.535125732421875	-1.2506103515625E-06	-6.69233770622668E-07	-427891.65625	6.10983843216673E-05
1	266	90.882810770543	0.525054931640625	0.52508544921875	-1.18072509765625E-06	-6.19981562977046E-07	-444714.375	6.0975959058851E-05
1	267	90.9835187702887	0.514984130859375	0.5150146484375	-1.11724853515625E-06	-5.75399383251352E-07	-460966.9375	6.08602495049126E-05
1	268	91.0842267700344	0.504913330078125	0.504913330078125	-1.058349609375E-06	-5.3437480573848E-07	-477076.15625	6.07506990490947E-05
1	269	91.1849347697802	0.494842529296875	0.494781494140625	-1.0052490234375E-06	-4.97378607633436E-07	-492197.9375	6.06467874604277E-05
1	270	91.2856427695259	0.484771728515625	0.48480224609375	-9.55810546875E-07	-4.63379080883897E-07	-507215.875	6.05480418016668E-05
1	271	91.3863507692716	0.474700927734375	0.47479248046875	-9.10339355468751E-07	-4.32222265089877E-07	-521555.5	6.04540728090797E-05
1	272	91.4870587690174	0.464630126953125	0.46466064453125	-8.67614746093751E-07	-4.03146430016932E-07	-535561	6.03645457886159E-05
1	273	91.5877667687631	0.454559326171875	0.45465087890625	-8.2855224609375E-07	-3.76701990489892E-07	-548729.3125	6.02791369601618E-05
1	274	91.6884747685089	0.444488525390625	0.444549560546875	-7.92846679687501E-07	-3.5245963658781E-07	-560700.5625	6.01974934397731E-05
1	275	91.7891827682546	0.434417724609375	0.434417724609375	-7.59277343750001E-07	-3.29843516055917E-07	-572146.3125	6.01193351030815E-05
1	276	91.8898907680003	0.424346923828125	0.42437744140625	-7.281494140625E-07	-3.09010175669755E-07	-582816.4375	6.00444400333799E-05
1	277	91.9905987677461	0.414276123046875	0.414306640625	-6.988525390625E-07	-2.89539258346849E-07	-592838.4375	5.99725826759823E-05
1	278	92.0913067674918	0.404205322265625	0.40423583984375	-6.7138671875E-07	-2.71398562290415E-07	-602090.9375	5.99035884079058E-05
1	279	92.1920147672375	0.394134521484375	0.394195556640625	-6.451416015625E-07	-2.54311942171626E-07	-611021.75	5.98372935201041E-05
1	280	92.2927227669833	0.384063720703125	0.38409423828125	-6.201171875E-07	-2.38183446299445E-07	-619389.75	5.97735815972555E-05
1	281	92.393430766729	0.373992919921875	0.37408447265625	-5.963134765625E-07	-2.2307159497359E-07	-627328.625	5.97123325860593E-05
1	282	92.4941387664747	0.363922119140625	0.363922119140625	-5.7342529296875E-07	-2.08682138236327E-07	-634646.125	5.96534300711937E-05
1	283	92.5948467662205	0.353851318359375	0.3538818359375	-5.51757812500001E-07	-1.95257072732602E-07	-641371.6875	5.95967721892521E-05
1	284	92.6955547659662	0.343780517578125	0.34381103515625	-5.3070068359375E-07	-1.82460752284896E-07	-647843.625	5.95422679907642E-05
1	285	92.796262765712	0.333709716796875	0.33380126953125	-5.11474609375E-07	-1.70730871218439E-07	-652625.3125	5.94897901464719E-05
1	286	92.8969707654577	0.323638916015625	0.323638916015625	-4.931640625E-07	-1.59607083105584E-07	-656250	5.94392004131805E-05
1	287	92.9976787652034	0.313568115234375	0.313568115234375	-4.7576904296875E-07	-1.49186007547542E-07	-659076.3125	5.93904114793986E-05
1	288	93.0983867649492	0.303497314453125	0.303497314453125	-4.58984375E-07	-1.3930052489286E-07	-661236.6875	5.93433433095925E-05
1	289	93.1990947646949	0.293426513671875	0.29351806640625	-4.43420410156251E-07	-1.30151889266017E-07	-661940.8125	5.92979049542919E-05
1	290	93.2998027644406	0.283355712890625	0.283416748046875	-4.2877197265625E-07	-1.21521154028414E-07	-660996.5	5.92539836361539E-05
1	291	93.4005107641864	0.273284912109375	0.273345947265625	-4.15649414062499E-07	-1.13616074770562E-07	-657635.875	5.92114665778354E-05
1	292	93.5012187639321	0.263214111328125	0.263214111328125	-4.0252685546875E-07	-1.05950746842609E-07	-653904.5	5.91702664678451E-05
1	293	93.6019267636779	0.253143310546875	0.253204345703125	-3.9093017578125E-07	-9.89852111388245E-08	-647697.125	5.91303141845856E-05
1	294	93.7026347634236	0.243072509765625	0.243133544921875	-3.80554199218749E-07	-9.25254894923455E-08	-638893.375	5.90914642089047E-05
1	295	93.8033427631693	0.233001708984375	0.2330322265625	-3.704833984375E-07	-8.63345661628045E-08	-628995.0625	5.90536474192049E-05
1	296	93.9040507629151	0.222930908203125	0.222991943359375	-3.6285400390625E-07	-8.09135158874597E-08	-614550.0625	5.9016721934313E-05
1	297	94.0047587626608	0.212860107421875	0.212921142578125	-3.55224609375E-07	-7.56348299546517E-08	-599398.625	5.89805640629493E-05
1	298	94.1054667624065	0.202789306640625	0.202911376953125	-3.50036621093749E-07	-7.10264060899135E-08	-579686.1875	5.89450501138344E-05
1	299	94.2061747621523	0.192718505859375	0.1927490234375	-3.45764160156251E-07	-6.66457040665591E-08	-557458.0625	5.89100127399433E-05
1	300	94.306882761898	0.182647705078125	0.18267822265625	-3.436279296875E-07	-6.27733385272222E-08	-531616.3125	5.88752991461661E-05
1	301	94.4075907616437	0.172576904296875	0.172637939453125	-3.4454345703125E-07	-5.94812732401806E-08	-501062.90625	5.88406473980285E-05
1	302	94.5082987613895	0.162506103515625	0.16253662109375	-3.48815917968751E-07	-5.6695359518244E-08	-465966.75	5.88057337154169E-05
1	303	94.6090067611352	0.152435302734375	0.1524658203125	-3.57971191406251E-07	-5.45783684913204E-08	-425916.46875	5.87701470067259E-05
1	304	94.709714760881	0.142364501953125	0.14239501953125	-3.7200927734375E-07	-5.29722683495493E-08	-382772.75	5.8733388868859E-05
1	305	94.8104227606267	0.132293701171875	0.13238525390625	-3.936767578125E-07	-5.21169951639422E-08	-336279.09375	5.86948335694615E-05
1	306	94.9111307603724	0.122222900390625	0.122283935546875	-4.26025390625E-07	-5.2096059022233E-08	-287034.40625	5.86535570619162E-05
1	307	95.0118387601182	0.112152099609375	0.112213134765625	-4.7271728515625E-07	-5.304508476911E-08	-237378.96875	5.8608300605556E-05
1	308	95.1125467598639	0.102081298828125	0.102142333984375	-5.3741455078125E-07	-5.48927765464668E-08	-190062.453125	5.8557438023854E-05
1	309	95.2132547596096	0.092010498046875	0.09210205078125	-6.2713623046875E-07	-5.77605305807083E-08	-146861.3125	5.84987974434625E-05
1	310	95.3139627593554	0.081939697265625	0.082000732421875	-7.464599609375E-07	-6.12102581953877E-08	-109852.828125	5.84296321903821E-05
1	311	95.4146707591011	0.071868896484375	0.07196044921875	-8.99658203125001E-07	-6.47398081810024E-08	-79986.4375	5.83467444812413E-05
1	312	95.5153787588469	0.061798095703125	0.061859130859375	-1.0882568359375E-06	-6.73186164590334E-08	-56842.40234375	5.82466454943642E-05
1	313	95.6160867585926	0.051727294921875	0.051849365234375	-1.30584716796875E-06	-6.77073472843404E-08	-39705.5390625	5.81260901526548E-05
1	314	95.7167947583383	0.041656494140625	0.04178466796875	-1.53900146484375E-06	-6.43066613292831E-08	-27150.50390625	5.79828410991468E-05
1	315	95.8175027580841	0.031585693359375	0.031683349609375	-1.76910400390625E-06	-5.60511352887261E-08	-17909.263671875	5.78162653255276E-05
1	316	95.9182107578298	0.021514892578125	0.02164306640625	-1.97174072265625E-06	-4.26745145887253E-08	-10976.6298828125	5.7627898058854E-05
1	317	96.0189187575755	0.011444091796875	0.0115997314453125	-2.12799072265625E-06	-2.46841214135429E-08	-5451.025390625	5.74214609514456E-05
1	318	96.1196267573213	0.001373291015625	0.0014678955078125	-2.2271728515625E-06	-3.26925708726833E-09	-659.084655761719	5.72021599509753E-05
1	319	96.220334757067	-0.008697509765625	-0.0085784912109375	-2.269287109375E-06	1.94670590758506E-08	3780.25830078125	5.69757467019372E-05
1	320	96.3210427568127	-0.018768310546875	-0.0186492919921875	-2.26348876953125E-06	4.22124628585152E-08	8239.1796875	5.6747503549559E-05
1	321	96.4217507565585	-0.028839111328125	-0.02869873046875	-2.22412109375E-06	6.38294537225192E-08	12903.4033203125	5.65215341339353E-05
1	322	96.5224587563042	-0.038909912109375	-0.03873291015625	-2.16552734375E-06	8.38771754274603E-08	17886.1328125	5.63004978175741E-05
1	323	96.62316675605	-0.048980712890625	-0.04881591796875	-2.09716796875E-06	1.02375175003999E-07	23277.06640625	5.60858534299769E-05
1	324	96.7238747557957	-0.059051513671875	-0.058929443359375	-2.0269775390625E-06	1.19448657187604E-07	29072.5703125	5.58781866857316E-05
1	325	96.8245827555414	-0.069122314453125	-0.069061279296875	-1.959228515625E-06	1.35306819970538E-07	35249.22265625	5.56774648430292E-05
1	326	96.9252907552872	-0.079193115234375	-0.07916259765625	-1.8951416015625E-06	1.50024320078046E-07	41771.33984375	5.54833823116496E-05
1	327	97.0259987550329	-0.089263916015625	-0.089141845703125	-1.837158203125E-06	1.63767666094827E-07	48521.59765625	5.52954443264753E-05
1	328	97.1267067547786	-0.099334716796875	-0.099212646484375	-1.78558349609375E-06	1.77152458036289E-07	55563.15234375	5.51130251551513E-05
1	329	97.2274147545244	-0.109405517578125	-0.1092529296875	-1.73675537109375E-06	1.89745605894132E-07	62906.34765625	5.49356627743691E-05
1	330	97.3281227542701	-0.119476318359375	-0.119415283203125	-1.6943359375E-06	2.02329601961537E-07	70479.109375	5.47628915228415E-05
1	331	97.4288307540158	-0.129547119140625	-0.129425048828125	-1.65802001953125E-06	2.14589320535197E-07	78060.0078125	5.45940893061925E-05
1	332	97.5295387537616	-0.139617919921875	-0.13946533203125	-1.62506103515625E-06	2.26639670586337E-07	85821.59375	5.44287722732406E-05
1	333	97.6302467535073	-0.149688720703125	-0.1495361328125	-1.5966796875E-06	2.38761316495584E-07	93654.4375	5.4266543884296E-05
1	334	97.7309547532531	-0.159759521484375	-0.159637451171875	-1.57196044921875E-06	2.50943742230447E-07	101553.1015625	5.41069930477533E-05
1	335	97.8316627529988	-0.169830322265625	-0.16973876953125	-1.5521240234375E-06	2.63455603999319E-07	109359.0234375	5.39496795681771E-05
1	336	97.9323707527445	-0.179901123046875	-0.17974853515625	-1.5362548828125E-06	2.76139559218791E-07	117004.3671875	5.37941705260891E-05
1	337	98.0330787524903	-0.189971923828125	-0.189727783203125	-1.52435302734375E-06	2.89212124471305E-07	124464.4609375	5.36400548298843E-05
1	338	98.133786752236	-0.200042724609375	-0.19989013671875	-1.5167236328125E-06	3.03178097738055E-07	131790.75	5.34869250259362E-05
1	339	98.2344947519817	-0.189971923828125	-0.1898193359375	-1.33819580078125E-06	2.54015418477138E-07	141847.21875	5.33431666553952E-05
2	340	98.3352027517275	-0.179901123046875	-0.17974853515625	-1.20941162109375E-06	2.17389967360759E-07	148624.78125	5.32148842466995E-05
2	341	98.4359107514732	-0.169830322265625	-0.169677734375	-1.10626220703125E-06	1.87708053545066E-07	153379.3125	5.30982833879534E-05
2	342	98.536618751219	-0.159759521484375	-0.15960693359375	-1.019287109375E-06	1.62685282134589E-07	156586.828125	5.29912540514488E-05
2	343	98.6373267509647	-0.149688720703125	-0.149566650390625	-9.4482421875E-07	1.4131418879515E-07	158301.03125	5.28923519595992E-05
2	344	98.7380347507104	-0.139617919921875	-0.13946533203125	-8.7890625E-07	1.2257694947948E-07	158680.5625	5.28005184605718E-05
2	345	98.8387427504562	-0.129547119140625	-0.12939453125	-8.20312500000001E-07	1.0614395051789E-07	157738.09375	5.27149568370078E-05
2	346	98.9394507502019	-0.119476318359375	-0.119354248046875	-7.6629638671875E-07	9.14607269919543E-08	155754.6875	5.26350631844252E-05
2	347	99.0401587499476	-0.109405517578125	-0.1092529296875	-7.171630859375E-07	7.83521656444464E-08	152340.4375	5.2560368203558E-05
2	348	99.1408667496934	-0.099334716796875	-0.099212646484375	-6.695556640625E-07	6.64283916762543E-08	148176.84375	5.24905408383347E-05
2	349	99.2415747494391	-0.089263916015625	-0.089111328125	-6.23474121093751E-07	5.55586048278656E-08	142927.078125	5.24254319316242E-05
2	350	99.3422827491848	-0.079193115234375	-0.079132080078125	-5.7525634765625E-07	4.55212294525609E-08	137559.6875	5.23650705872569E-05
2	351	99.4429907489306	-0.069122314453125	-0.069091796875	-5.2459716796875E-07	3.62453604907387E-08	131704.484375	5.23096896358766E-05
2	352	99.5436987486763	-0.059051513671875	-0.05902099609375	-4.6722412109375E-07	2.75760321244434E-08	126322.6640625	5.22597474628128E-05
2	353	99.6444067484221	-0.048980712890625	-0.048834228515625	-3.9947509765625E-07	1.95080573917039E-08	122245.9921875	5.22161026310641E-05
2	354	99.7451147481678	-0.038909912109375	-0.038751220703125	-3.1768798828125E-07	1.23107977145764E-08	121978.875	5.21799920534249E-05
2	355	99.8458227479135	-0.028839111328125	-0.0286651611328125	-2.14233398437499E-07	6.14103479179562E-09	133803.421875	5.21532092534471E-05
2	356	99.9465307476593	-0.018768310546875	-0.0186126708984375	-8.392333984375E-08	1.56203761036977E-09	221781.828125	5.21381953149103E-05
2	357	100.047238747405	-0.008697509765625	-0.0085601806640625	7.81249999999997E-08	-6.68764099653885E-10	-109570.3125	5.21379006386269E-05
2	358	100.147946747151	0.001373291015625	0.0014801025390625	2.7587890625E-07	4.08329065004764E-10	5365.04443359375	5.21557267347816E-05
2	359	100.248654746896	0.011444091796875	0.0115325927734375	5.035400390625E-07	5.80712189446331E-09	22903.029296875	5.21949732501525E-05
2	360	100.349362746642	0.021514892578125	0.0216522216796875	7.4981689453125E-07	1.62352016275236E-08	28876.6796875	5.2258084906498E-05
2	361	100.450070746388	0.031585693359375	0.031719970703125	9.979248046875E-07	3.16541459710606E-08	31785.935546875	5.23460912518203E-05
2	362	100.550778746134	0.041656494140625	0.0417877197265625	1.2237548828125E-06	5.11379276701973E-08	34147.1328125	5.24579627381172E-05
2	363	100.651486745879	0.051727294921875	0.05181884765625	1.40594482421875E-06	7.28544407024856E-08	36856.95703125	5.25903778907377E-05
2	364	100.752194745625	0.061798095703125	0.0618896484375	1.5301513671875E-06	9.47005247553534E-08	40446.75	5.27382217114791E-05
2	365	100.852902745371	0.071868896484375	0.0718994140625	1.59515380859375E-06	1.14690621444424E-07	45073.65625	5.28955933987163E-05
2	366	100.953610745117	0.081939697265625	0.082061767578125	1.607666015625E-06	1.31927905044904E-07	51044.04296875	5.30568686372135E-05
2	367	101.054318744862	0.092010498046875	0.09210205078125	1.58203125E-06	1.45708327181637E-07	58217.59375	5.32174817635678E-05
2	368	101.155026744608	0.102081298828125	0.102203369140625	1.53289794921875E-06	1.56667340434069E-07	66673.3046875	5.33743332198355E-05
2	369	101.255734744354	0.112152099609375	0.112274169921875	1.470947265625E-06	1.65149387498786E-07	76327.796875	5.35255858267192E-05
2	370	101.3564427441	0.122222900390625	0.122344970703125	1.40533447265625E-06	1.7193559642692E-07	87057.5546875	5.36704210389871E-05
2	371	101.457150743845	0.132293701171875	0.13238525390625	1.34033203125E-06	1.77440199422563E-07	98770.4921875	5.3808675147593E-05
2	372	101.557858743591	0.142364501953125	0.1424560546875	1.27960205078125E-06	1.82287053007713E-07	111328.4140625	5.39405991730746E-05
2	373	101.658566743337	0.152435302734375	0.15252685546875	1.22528076171875E-06	1.86888215125691E-07	124483.1953125	5.40667315362953E-05
2	374	101.759274743083	0.162506103515625	0.162506103515625	1.17584228515625E-06	1.91081539924198E-07	138204	5.41876361239702E-05
2	375	101.859982742828	0.172576904296875	0.172637939453125	1.1322021484375E-06	1.95461041130329E-07	152479.796875	5.43038549949415E-05
2	376	101.960690742574	0.182647705078125	0.182708740234375	1.0931396484375E-06	1.99726173377712E-07	167141.265625	5.44159120181575E-05
2	377	102.06139874232	0.192718505859375	0.1927490234375	1.05987548828125E-06	2.0428996094779E-07	181860.078125	5.45243237866089E-05
2	378	102.162106742065	0.202789306640625	0.202850341796875	1.02874755859375E-06	2.08681782964959E-07	197181.84375	5.46294941159431E-05
2	379	102.262814741811	0.212860107421875	0.21295166015625	1.00189208984375E-06	2.13354582001557E-07	212549.5	5.47317431482952E-05
2	380	102.363522741557	0.222930908203125	0.2230224609375	9.7808837890625E-07	2.18135667751085E-07	228018.734375	5.48314455954824E-05
2	381	102.464230741303	0.233001708984375	0.2330322265625	9.564208984375E-07	2.22876892053137E-07	243650.296875	5.49288561160211E-05
2	382	102.564938741048	0.243072509765625	0.24310302734375	9.37499999999999E-07	2.27909083605482E-07	259309.90625	5.50242220924702E-05
2	383	102.665646740794	0.253143310546875	0.253143310546875	9.2041015625E-07	2.32995660098823E-07	275033.15625	5.51177763554733E-05
2	384	102.76635474054	0.263214111328125	0.263275146484375	9.04541015625E-07	2.38143158526327E-07	291059.40625	5.52096680621617E-05
2	385	102.867062740286	0.273284912109375	0.2733154296875	8.9111328125E-07	2.43555007273244E-07	306712.34375	5.53000863874331E-05
2	386	102.967770740031	0.283355712890625	0.28338623046875	8.7860107421875E-07	2.48983440087613E-07	322542.5625	5.53891986783128E-05
2	387	103.068478739777	0.293426513671875	0.293426513671875	8.67309570312499E-07	2.54491624218645E-07	338318.09375	5.5477114074165E-05
2	388	103.169186739523	0.303497314453125	0.303497314453125	8.575439453125E-07	2.60262282836266E-07	353914.59375	5.55639671802055E-05
2	389	103.269894739269	0.313568115234375	0.313629150390625	8.4869384765625E-07	2.66175135266167E-07	369543.34375	5.56498816877138E-05
2	390	103.370602739014	0.323638916015625	0.323638916015625	8.41064453125E-07	2.72201191364729E-07	384796.8125	5.5734966736054E-05
2	391	103.47131073876	0.333709716796875	0.333770751953125	8.34045410156251E-07	2.78379957308061E-07	400182.9375	5.58193169126753E-05
2	392	103.572018738506	0.343780517578125	0.34381103515625	8.27941894531251E-07	2.84655556015423E-07	415259.875	5.59030049771536E-05
2	393	103.672726738252	0.353851318359375	0.3538818359375	8.2275390625E-07	2.91157647325235E-07	430118.71875	5.59861218789592E-05
2	394	103.773434737997	0.363922119140625	0.364013671875	8.18481445312499E-07	2.97938413496013E-07	444742.75	5.60687658435199E-05
2	395	103.874142737743	0.373992919921875	0.3740234375	8.1512451171875E-07	3.04875669598914E-07	458854.375	5.61510241823271E-05
2	396	103.974850737489	0.384063720703125	0.384124755859375	8.12683105468751E-07	3.12171692939955E-07	472662.4375	5.62329914828297E-05
2	397	104.075558737234	0.394134521484375	0.394134521484375	8.10852050781249E-07	3.19584785302141E-07	486074.53125	5.63147441425826E-05
2	398	104.17626673698	0.404205322265625	0.404266357421875	8.09631347656251E-07	3.27306707958996E-07	499321.53125	5.63963403692469E-05
2	399	104.276974736726	0.414276123046875	0.414306640625	8.099365234375E-07	3.35562077680152E-07	511529.78125	5.64778929401655E-05
2	400	104.377682736472	0.424346923828125	0.424346923828125	8.099365234375E-07	3.43694068760669E-07	523926.15625	5.65594600629993E-05
2	401	104.478390736217	0.434417724609375	0.4344482421875	8.10546875E-07	3.52140659742872E-07	535994	5.66410562896635E-05
2	402	104.579098735963	0.444488525390625	0.44451904296875	8.10852050781249E-07	3.60439173618943E-07	548212.25	5.67226998100523E-05
2	403	104.679806735709	0.454559326171875	0.454620361328125	8.1207275390625E-07	3.69184817827772E-07	559827.125	5.6804419727996E-05
2	404	104.780514735455	0.464630126953125	0.464630126953125	8.1329345703125E-07	3.77880610358261E-07	571294.5625	5.68862669751979E-05
2	405	104.8812227352	0.474700927734375	0.474761962890625	8.15734863281251E-07	3.87279868618862E-07	582005.25	5.69682924833614E-05
2	406	104.981930734946	0.484771728515625	0.484710693359375	8.19091796875E-07	3.9702254639451E-07	591766.0625	5.70506126678083E-05
2	407	105.082638734692	0.494842529296875	0.49481201171875	8.23364257812501E-07	4.07410510661066E-07	600963.6875	5.71333184780087E-05
2	408	105.183346734438	0.504913330078125	0.504974365234375	8.2763671875E-07	4.17935325458529E-07	610140.125	5.72164535697084E-05
2	409	105.284054734183	0.514984130859375	0.5150146484375	8.33740234374999E-07	4.29388421707699E-07	617716	5.73001088923775E-05
2	410	105.384762733929	0.525054931640625	0.525054931640625	8.41064453125E-07	4.41605038759008E-07	624274.3125	5.73844408791047E-05
2	411	105.485470733675	0.535125732421875	0.535125732421875	8.489990234375E-07	4.54321195775265E-07	630302	5.7469544117339E-05
2	412	105.586178733421	0.545196533203125	0.545196533203125	8.59985351562501E-07	4.68861031777124E-07	633960.25	5.75555968680419E-05
2	413	105.686886733166	0.555267333984375	0.555328369140625	8.73413085937499E-07	4.85031023345073E-07	635814.125	5.76428828935605E-05
2	414	105.787594732912	0.565338134765625	0.565277099609375	8.89892578125E-07	5.03035892052139E-07	635219.5	5.77316714043263E-05
2	415	105.888302732658	0.575408935546875	0.575408935546875	9.11865234375001E-07	5.24695394688024E-07	631024.125	5.78223953198176E-05
2	416	105.989010732403	0.585479736328125	0.585479736328125	9.40551757812499E-07	5.5067397397579E-07	622485.4375	5.79156730964314E-05
2	417	106.089718732149	0.595550537109375	0.5955810546875	9.7991943359375E-07	5.83621442729054E-07	607785.75	5.80123778490815E-05
2	418	106.190426731895	0.605621337890625	0.605621337890625	1.03363037109375E-06	6.25988604951999E-07	585916.75	5.81137683184352E-05
2	419	106.291134731641	0.615692138671875	0.61566162109375	1.10687255859375E-06	6.81458971030224E-07	556217.25	5.82215507165529E-05
2	420	106.391842731386	0.625762939453125	0.625701904296875	1.20758056640625E-06	7.55585460865404E-07	518145.0625	5.83380933676381E-05
2	421	106.492550731132	0.635833740234375	0.6357421875	1.34124755859375E-06	8.52687662700191E-07	473993.1875	5.84664339839946E-05
2	422	106.593258730878	0.645904541015625	0.645843505859375	1.51580810546875E-06	9.78974867393845E-07	426072.09375	5.86102978559211E-05
2	423	106.693966730624	0.655975341796875	0.655975341796875	1.7315673828125E-06	1.13586543193378E-06	378833.28125	5.87738177273422E-05
2	424	106.794674730369	0.666046142578125	0.665985107421875	1.9873046875E-06	1.32351522097451E-06	335119.78125	5.89610790484585E-05
2	425	106.895382730115	0.676116943359375	0.67608642578125	2.26959228515625E-06	1.53444045736251E-06	297888.9375	5.91754287597723E-05
2	426	106.996090729861	0.686187744140625	0.686187744140625	2.5604248046875E-06	1.75693207893346E-06	267997.625	5.94186421949416E-05
2	427	107.096798729607	0.696258544921875	0.696258544921875	2.833251953125E-06	1.97267581825145E-06	245745.359375	5.96902318648063E-05
2	428	107.197506729352	0.706329345703125	0.706298828125	3.06640625E-06	2.16579906009429E-06	230334.40625	5.99873055762146E-05
2	429	107.298214729098	0.716400146484375	0.71630859375	3.23760986328125E-06	2.31912758863473E-06	221246.125	6.03047374170274E-05
2	430	107.398922728844	0.726470947265625	0.72637939453125	3.34136962890625E-06	2.42710211750818E-06	217389.71875	6.06360154051799E-05
2	431	107.49963072859	0.736541748046875	0.73651123046875	3.38165283203125E-06	2.49062532020616E-06	217796.234375	6.09745475230739E-05
2	432	107.600338728335	0.746612548828125	0.746551513671875	3.37615966796875E-06	2.52047698268143E-06	221124.46875	6.1314829508774E-05
2	433	107.701046728081	0.756683349609375	0.75653076171875	3.34197998046875E-06	2.52831068792148E-06	226372.03125	6.16531178820878E-05
2	434	107.801754727827	0.766754150390625	0.7672119140625	3.29986572265625E-06	2.53169628194883E-06	232497.921875	6.19875572738238E-05
2	435	107.902462727572	0.776824951171875	0.7763671875	3.2647705078125E-06	2.53466055255558E-06	237801.46875	6.23181113041937E-05
2	436	108.003170727318	0.786895751953125	0.78765869140625	3.251953125E-06	2.56142902799184E-06	242210.96875	6.26462569925934E-05
2	437	108.103878727064	0.796966552734375	0.79742431640625	3.27178955078125E-06	2.6090044684679E-06	243727.28125	6.29747519269586E-05
2	438	108.20458672681	0.807037353515625	0.80718994140625	3.33343505859375E-06	2.69071506409091E-06	242149.59375	6.33073505014181E-05
2	439	108.305294726555	0.817108154296875	0.81756591796875	3.4442138671875E-06	2.81587176687026E-06	237373.75	6.3648636569269E-05
2	440	108.406002726301	0.827178955078125	0.82763671875	3.60687255859375E-06	2.98518011732085E-06	229461.046875	6.40036814729683E-05
2	441	108.506710726047	0.837249755859375	0.83709716796875	3.81317138671875E-06	3.19199489240418E-06	219527.8125	6.43773164483719E-05
2	442	108.607418725793	0.847320556640625	0.84747314453125	4.04815673828125E-06	3.43070428243664E-06	209347.90625	6.47731649223715E-05
2	443	108.708126725538	0.857391357421875	0.85723876953125	4.2901611328125E-06	3.67769234799198E-06	199815.046875	6.51930313324556E-05
2	444	108.808834725284	0.867462158203125	0.8673095703125	4.51446533203125E-06	3.91543881050893E-06	192117.90625	6.56363772577606E-05
2	445	108.90954272503	0.877532958984375	0.877685546875	4.69268798828125E-06	4.11870450989227E-06	187032.578125	6.60999940009788E-05
2	446	109.010250724776	0.887603759765625	0.88775634765625	4.810791015625E-06	4.27081022280618E-06	184534.390625	6.65785337332636E-05
2	447	109.110958724521	0.897674560546875	0.8978271484375	4.86297607421875E-06	4.36611162513145E-06	184625.046875	6.7065644543618E-05
2	448	109.211666724267	0.907745361328125	0.90789794921875	4.85931396484375E-06	4.41176098320284E-06	186836.65625	6.75552000757307E-05
2	449	109.312374724013	0.917816162109375	0.91827392578125	4.8138427734375E-06	4.42042619397398E-06	190756.953125	6.80422817822546E-05
2	450	109.413082723759	0.927886962890625	0.92803955078125	4.749755859375E-06	4.40796111433883E-06	195386.796875	6.85238483129069E-05
2	451	109.513790723504	0.937957763671875	0.9381103515625	4.68353271484375E-06	4.39367022408987E-06	200299.734375	6.89988519297913E-05
2	452	109.61449872325	0.948028564453125	0.94818115234375	4.62890625E-06	4.3890413508052E-06	204839.140625	6.94677728461102E-05
2	453	109.715206722996	0.958099365234375	0.958251953125	4.59808349609375E-06	4.40612211605185E-06	208402.484375	6.99323863955215E-05
2	454	109.815914722741	0.968170166015625	0.96832275390625	4.6026611328125E-06	4.45686146122171E-06	210383.234375	7.03956829966046E-05
2	455	109.916622722487	0.978240966796875	0.97808837890625	4.64752197265625E-06	4.54568726127036E-06	210453.734375	7.08614679751918E-05
2	456	110.017330722233	0.988311767578125	0.9881591796875	4.735107421875E-06	4.67903964818106E-06	208687.8125	7.13339177309535E-05
2	457	110.118038721979	0.998382568359375	0.99853515625	4.86297607421875E-06	4.85585223941598E-06	205334.171875	7.18172232154757E-05
2	458	110.218746721724	1.00845336914063	1.00860595703125	5.023193359375E-06	5.06642254549661E-06	200789.796875	7.23150296835229E-05
2	459	110.31945472147	1.01852416992188	1.01837158203125	5.2001953125E-06	5.29573071617051E-06	195833.34375	7.28298182366416E-05
2	460	110.420162721216	1.02859497070313	1.029052734375	5.3619384765625E-06	5.51771745449514E-06	191918.046875	7.33616616344079E-05
2	461	110.520870720962	1.03866577148438	1.03912353515625	5.4962158203125E-06	5.711247013096E-06	189061.640625	7.39084134693258E-05
2	462	110.621578720707	1.04873657226563	1.048583984375	5.584716796875E-06	5.85604448133381E-06	187759.5625	7.44663848308846E-05
2	463	110.722286720453	1.05880737304688	1.058349609375	5.6182861328125E-06	5.94611083215568E-06	188375.875	7.50304971006699E-05
2	464	110.822994720199	1.06887817382813	1.0687255859375	5.5999755859375E-06	5.98483711655717E-06	190844.6875	7.55953878979199E-05
2	465	110.923702719945	1.07894897460938	1.0791015625	5.5450439453125E-06	5.98366523263394E-06	194606.5	7.61565825087018E-05
2	466	111.02441071969	1.08901977539063	1.08917236328125	5.462646484375E-06	5.949763362878E-06	199385.484375	7.67108649597503E-05
2	467	111.125118719436	1.09909057617188	1.09893798828125	5.364990234375E-06	5.89579121879069E-06	204835.046875	7.72560742916539E-05
2	468	111.225826719182	1.10916137695313	1.1090087890625	5.267333984375E-06	5.8415198509465E-06	210544.609375	7.77914538048208E-05
2	469	111.326534718928	1.11923217773438	1.119384765625	5.169677734375E-06	5.78685830987524E-06	216528.9375	7.83170034992509E-05
2	470	111.427242718673	1.12930297851563	1.129150390625	5.078125E-06	5.73396664549364E-06	222355.765625	7.88330216892064E-05
2	471	111.527950718419	1.13937377929688	1.13922119140625	4.9957275390625E-06	5.69123858440435E-06	228039.09375	7.93402796261944E-05
2	472	111.628658718165	1.14944458007813	1.14959716796875	4.92218017578125E-06	5.65852405998157E-06	233554.484375	7.98396868049167E-05
2	473	111.72936671791	1.15951538085938	1.15966796875	4.8590087890625E-06	5.63483672522125E-06	238663.484375	8.0332210927736E-05
2	474	111.830074717656	1.16958618164063	1.16943359375	4.80682373046875E-06	5.62126115255523E-06	243286.140625	8.08189215604216E-05
2	475	111.930782717402	1.17965698242188	1.17950439453125	4.76654052734375E-06	5.62215518584708E-06	247455.03125	8.13009755802341E-05
2	476	112.031490717148	1.18972778320313	1.1895751953125	4.73876953125E-06	5.6371222854068E-06	251030.40625	8.17796098999679E-05
2	477	112.132198716893	1.19979858398438	1.199951171875	4.72503662109375E-06	5.66981316296733E-06	253955.96875	8.22561487439089E-05
2	478	112.232906716639	1.20986938476563	1.209716796875	4.72808837890625E-06	5.71964756090892E-06	255857.484375	8.27321491669863E-05
2	479	112.333614716385	1.21994018554688	1.21978759765625	4.7540283203125E-06	5.79890502194758E-06	256579.78125	8.32096120575443E-05
2	480	112.434322716131	1.23001098632813	1.23016357421875	4.80499267578125E-06	5.91092657487025E-06	256017.796875	8.3690945757553E-05
2	481	112.535030715876	1.24008178710938	1.23992919921875	4.88555908203125E-06	6.05774721407215E-06	253794.734375	8.41789078549482E-05
2	482	112.635738715622	1.25015258789063	1.25	4.9957275390625E-06	6.24465928922291E-06	250213.8125	8.46764669404365E-05
2	483	112.736446715368	1.26022338867188	1.26007080078125	5.1239013671875E-06	6.45647833152907E-06	245920.203125	8.51860313559882E-05
2	484	112.837154715114	1.27029418945313	1.27044677734375	5.2642822265625E-06	6.68799020786537E-06	241333.328125	8.57091217767447E-05
2	485	112.937862714859	1.28036499023438	1.28021240234375	5.4046630859375E-06	6.91911691319547E-06	236871.8125	8.6246342107188E-05
2	486	113.038570714605	1.29043579101563	1.29058837890625	5.535888671875E-06	7.14455381967127E-06	233131.203125	8.67972412379459E-05
2	487	113.139278714351	1.30050659179688	1.30035400390625	5.6488037109375E-06	7.34544391889358E-06	230199.90625	8.73604367370717E-05
2	488	113.239986714097	1.31057739257813	1.3104248046875	5.7403564453125E-06	7.52230516809504E-06	228282.828125	8.79339277162217E-05
2	489	113.340694713842	1.32064819335938	1.3214111328125	5.8135986328125E-06	7.68215340940515E-06	227296.59375	8.85157132870518E-05
2	490	113.441402713588	1.33071899414063	1.33056640625	5.8685302734375E-06	7.80846858106088E-06	226729.078125	8.91039599082433E-05
2	491	113.542110713334	1.34078979492188	1.34124755859375	5.9051513671875E-06	7.92027003626572E-06	227131.78125	8.96968122106045E-05
2	492	113.642818713079	1.35086059570313	1.3507080078125	5.9295654296875E-06	8.0091112977243E-06	227792.078125	9.0292734967079E-05
2	493	113.743526712825	1.36093139648438	1.36077880859375	5.9417724609375E-06	8.08543791208649E-06	229019.015625	9.08905058167875E-05
2	494	113.844234712571	1.37100219726563	1.370849609375	5.950927734375E-06	8.15782641439E-06	230358.984375	9.14893462322652E-05
2	495	113.944942712317	1.38107299804688	1.38153076171875	5.95703125E-06	8.22982201498235E-06	231915.984375	9.20889651752077E-05
2	496	114.045650712062	1.39114379882813	1.3916015625	5.9661865234375E-06	8.30255430628313E-06	233248.078125	9.2689340817742E-05
2	497	114.146358711808	1.40121459960938	1.4013671875	5.975341796875E-06	8.37364768813131E-06	234525.03125	9.3290647782851E-05
2	498	114.247066711554	1.41128540039063	1.41143798828125	5.9906005859375E-06	8.4553612396121E-06	235608.765625	9.38931843847968E-05
2	499	114.3477747113	1.42135620117188	1.42120361328125	6.0089111328125E-06	8.53988603921607E-06	236516	9.44974017329514E-05
2	500	114.448482711045	1.43142700195313	1.4312744140625	6.036376953125E-06	8.63971126818797E-06	237108.203125	9.51039328356273E-05
2	501	114.549190710791	1.44149780273438	1.44134521484375	6.072998046875E-06	8.75328714755597E-06	237336.6875	9.57136871875264E-05
2	502	114.649898710537	1.45156860351563	1.451416015625	6.11572265625E-06	8.87645728653297E-06	237325.359375	9.63274360401556E-05
2	503	114.750606710283	1.46163940429688	1.461181640625	6.1676025390625E-06	9.01198745850706E-06	236912.421875	9.69459506450221E-05
2	504	114.851314710028	1.47171020507813	1.47186279296875	6.231689453125E-06	9.17219222174026E-06	236190.015625	9.75703078438528E-05
2	505	114.952022709774	1.48178100585938	1.48162841796875	6.329345703125E-06	9.37773802434094E-06	234088.71875	9.82028068392538E-05
2	506	115.05273070952	1.49185180664063	1.49200439453125	6.4697265625E-06	9.65286017162725E-06	230613.203125	9.88472893368453E-05
2	507	115.153438709266	1.50192260742188	1.50177001953125	6.6436767578125E-06	9.97727420326555E-06	226045.03125	9.95076043182053E-05
2	508	115.254146709011	1.49185180664063	1.49169921875	6.1614990234375E-06	9.19110243557952E-06	242100.0625	0.000100152392406017
2	509	115.354854708757	1.48178100585938	1.48223876953125	5.8074951171875E-06	8.60809359437553E-06	255228.609375	0.000100755081803072
2	510	115.455562708503	1.47171020507813	1.4715576171875	5.5389404296875E-06	8.15086968941614E-06	265674.9375	0.000101326419098768
2	511	115.556270708248	1.46163940429688	1.461181640625	5.3253173828125E-06	7.78125559008913E-06	274383.96875	0.000101873476523906
2	512	115.656978707994	1.45156860351563	1.45172119140625	5.1513671875E-06	7.47834883441101E-06	281812.8125	0.000102401019830722
2	513	115.75768670774	1.44149780273438	1.44195556640625	5.010986328125E-06	7.22561935617705E-06	287758.84375	0.000102912737929728
2	514	115.858394707486	1.43142700195313	1.431884765625	4.89013671875E-06	7.00211194271105E-06	292810.78125	0.000103411301097367
2	515	115.959102707231	1.42135620117188	1.42181396484375	4.78759765625E-06	6.80707262290525E-06	296978.59375	0.000103898608358577
2	516	116.059810706977	1.41128540039063	1.4111328125	4.696044921875E-06	6.62674301565858E-06	300493.90625	0.000104376151284669
2	517	116.160518706723	1.40121459960938	1.4013671875	4.610595703125E-06	6.4611372181389E-06	303944.9375	0.000104844773886725
2	518	116.261226706469	1.39114379882813	1.3916015625	4.525146484375E-06	6.29720079814433E-06	307526.3125	0.000105304796306882
2	519	116.361934706214	1.38107299804688	1.3812255859375	4.4366455078125E-06	6.12800795352086E-06	311322.0625	0.000105756058474071
2	520	116.46264270596	1.37100219726563	1.37115478515625	4.339599609375E-06	5.95026267546928E-06	315963.4375	0.000106197978311684
2	521	116.563350705706	1.36093139648438	1.3604736328125	4.2291259765625E-06	5.75361400478869E-06	321691.46875	0.000106629449874163
2	522	116.664058705452	1.35086059570313	1.3507080078125	4.1021728515625E-06	5.54083726456156E-06	329266.5	0.000107048959762324
2	523	116.764766705197	1.34078979492188	1.34063720703125	3.95660400390625E-06	5.30437046109E-06	338835.34375	0.000107454754470382
2	524	116.865474704943	1.33071899414063	1.33087158203125	3.7921142578125E-06	5.04681702295784E-06	350957.6875	0.0001078449349734
2	525	116.966182704689	1.32064819335938	1.32049560546875	3.61419677734375E-06	4.77253070130246E-06	365363.53125	0.000108217871456873
2	526	117.066890704435	1.31057739257813	1.31072998046875	3.427734375E-06	4.49283425041358E-06	382389.59375	0.000108572457975242
2	527	117.16759870418	1.30050659179688	1.3006591796875	3.2403564453125E-06	4.21459935751045E-06	401393.875	0.000108908221591264
2	528	117.268306703926	1.29043579101563	1.2908935546875	3.05755615234375E-06	3.94697963201907E-06	422197.84375	0.000109225351479836
2	529	117.369014703672	1.28036499023438	1.280517578125	2.89031982421875E-06	3.70110524272604E-06	443036.625	0.000109524851723108
2	530	117.469722703417	1.27029418945313	1.26983642578125	2.747802734375E-06	3.48925982507353E-06	462127.9375	0.000109808752313256
2	531	117.570430703163	1.26022338867188	1.26007080078125	2.63427734375E-06	3.31937599185039E-06	478336.4375	0.000110079759906512
2	532	117.671138702909	1.25015258789063	1.25030517578125	2.55340576171875E-06	3.19253626912541E-06	489661.78125	0.000110340981336776
2	533	117.771846702655	1.24008178710938	1.240234375	2.50152587890625E-06	3.10247833112953E-06	495791.15625	0.000110595516161993
2	534	117.8725547024	1.23001098632813	1.22955322265625	2.4725341796875E-06	3.04011223306588E-06	497284.625	0.000110845983726904
2	535	117.973262702146	1.21994018554688	1.2200927734375	2.45941162109375E-06	3.00071019410098E-06	496091.34375	0.000111094326712191
2	536	118.073970701892	1.20986938476563	1.209716796875	2.4566650390625E-06	2.97186898023938E-06	492422.375	0.000111341869342141
2	537	118.174678701638	1.19979858398438	1.19964599609375	2.45849609375E-06	2.94932488031918E-06	487959.28125	0.000111589368316345
2	538	118.275386701383	1.18972778320313	1.1895751953125	2.462158203125E-06	2.92892218567431E-06	483143.28125	0.000111837143776938
2	539	118.376094701129	1.17965698242188	1.17950439453125	2.464599609375E-06	2.90700586447201E-06	478578.53125	0.000112085224827752
2	540	118.476802700875	1.16958618164063	1.16943359375	2.464599609375E-06	2.88218529931328E-06	474492.34375	0.000112333429569844
2	541	118.577510700621	1.15951538085938	1.15936279296875	2.4627685546875E-06	2.85524197352061E-06	470755.90625	0.000112581539724488
2	542	118.678218700366	1.14944458007813	1.1492919921875	2.45513916015625E-06	2.82167161458347E-06	468116.84375	0.000112829176941887
2	543	118.778926700112	1.13937377929688	1.138916015625	2.442626953125E-06	2.7819469323731E-06	466266.875	0.000113075795525219
2	544	118.879634699858	1.12930297851563	1.129150390625	2.42156982421875E-06	2.7343162400939E-06	466288.625	0.000113320733362343
2	545	118.980342699604	1.11923217773438	1.119384765625	2.39105224609375E-06	2.67650739260716E-06	468155.71875	0.000113563066406641
2	546	119.081050699349	1.10916137695313	1.109619140625	2.3468017578125E-06	2.60405613516923E-06	472821.875	0.000113801637780853
2	547	119.181758699095	1.09909057617188	1.09893798828125	2.28515625E-06	2.51124492933741E-06	480902.8125	0.000114034875878133
2	548	119.282466698841	1.08901977539063	1.08917236328125	2.2015380859375E-06	2.39785435951489E-06	494732.46875	0.000114260794362053
2	549	119.383174698586	1.07894897460938	1.07879638671875	2.08953857421875E-06	2.25418671107036E-06	516284.5	0.000114476868475322
2	550	119.483882698332	1.06887817382813	1.0687255859375	1.94549560546875E-06	2.07920083994395E-06	549333.3125	0.000114680049591698
2	551	119.584590698078	1.05880737304688	1.0589599609375	1.76788330078125E-06	1.87211765023676E-06	598998.8125	0.000114867034426425
2	552	119.685298697824	1.04873657226563	1.048583984375	1.5594482421875E-06	1.63521235663211E-06	672407.0625	0.000115034577902406
2	553	119.786006697569	1.03866577148438	1.0382080078125	1.33148193359375E-06	1.38235520807939E-06	779738.6875	0.000115180147986393
2	554	119.886714697315	1.02859497070313	1.02813720703125	1.0980224609375E-06	1.1289176882201E-06	936353.625	0.000115302478661761
2	555	119.987422697061	1.01852416992188	1.01837158203125	8.7890625E-07	8.9505311962057E-07	1158680.625	0.000115402028313838
2	556	120.088130696807	1.00845336914063	1.0089111328125	6.915283203125E-07	6.97690609285928E-07	1458958.5	0.000115481103421189
2	557	120.188838696552	0.998382568359375	0.99822998046875	5.52978515624999E-07	5.51999733033881E-07	1805187.625	0.00011554377124412
2	558	120.289546696298	0.988311767578125	0.98846435546875	4.6844482421875E-07	4.63041004650222E-07	2110097.75	0.000115595204988495
2	559	120.390254696044	0.978240966796875	0.97869873046875	4.3487548828125E-07	4.256120860191E-07	2250526.25	0.000115640686999541
2	560	120.49096269579	0.968170166015625	0.968017578125	4.412841796875E-07	4.27170817829392E-07	2193637.75	0.000115684808406513
2	561	120.591670695535	0.958099365234375	0.958251953125	4.72412109375001E-07	4.52689818075669E-07	2028423.875	0.000115730814286508
2	562	120.692378695281	0.948028564453125	0.94818115234375	5.096435546875E-07	4.83234373405139E-07	1860479.125	0.000115780268970411
2	563	120.793086695027	0.937957763671875	0.93780517578125	5.3375244140625E-07	5.00555813687242E-07	1757004	0.000115832808660343
2	564	120.893794694773	0.927886962890625	0.92803955078125	5.3070068359375E-07	4.92511219363223E-07	1748706.125	0.000115886403364129
2	565	120.994502694518	0.917816162109375	0.91827392578125	4.901123046875E-07	4.50057370926515E-07	1873599	0.000115937808004674
2	566	121.095210694264	0.907745361328125	0.9075927734375	4.0283203125E-07	3.65607434105186E-07	2253030.25	0.000115982773422729
2	567	121.19591869401	0.897674560546875	0.8978271484375	2.63671875E-07	2.36731764857723E-07	3405092.75	0.000116016330139246
2	568	121.296626693755	0.887603759765625	0.88775634765625	7.29370117187503E-08	6.47502957917823E-08	12171548	0.000116033283120487
2	569	121.397334693501	0.877532958984375	0.87738037109375	-1.62353515624999E-07	-1.42445784945266E-07	-5404135.5	0.000116028779302724
2	570	121.498042693247	0.867462158203125	0.8673095703125	-4.2388916015625E-07	-3.67643139043139E-07	-2046076.25	0.000115999260742683
2	571	121.598750692993	0.857391357421875	0.85784912109375	-6.90612792968751E-07	-5.92441551816592E-07	-1242156.5	0.000115943141281605
2	572	121.699458692738	0.847320556640625	0.84747314453125	-9.3353271484375E-07	-7.91143918377202E-07	-907813	0.000115861359518021
2	573	121.800166692484	0.837249755859375	0.83709716796875	-1.1297607421875E-06	-9.45719477840612E-07	-740950.875	0.000115757466119248
2	574	121.90087469223	0.827178955078125	0.8270263671875	-1.26190185546875E-06	-1.0436260708957E-06	-655380.875	0.000115637034468818
2	575	122.001582691976	0.817108154296875	0.81695556640625	-1.32537841796875E-06	-1.08277527033351E-06	-616394.1875	0.000115506751171779
2	576	122.102290691721	0.807037353515625	0.80718994140625	-1.3250732421875E-06	-1.0695857781684E-06	-609166.3125	0.00011537329555722
2	577	122.202998691467	0.796966552734375	0.79681396484375	-1.27838134765625E-06	-1.01863213330944E-06	-623299.125	0.000115242197352927
2	578	122.303706691213	0.786895751953125	0.787353515625	-1.207275390625E-06	-9.50552475842414E-07	-652173.9375	0.000115117036330048
2	579	122.404414690959	0.776824951171875	0.77728271484375	-1.129150390625E-06	-8.77669094734301E-07	-688378.375	0.000114999384095427
2	580	122.505122690704	0.766754150390625	0.7672119140625	-1.06231689453125E-06	-8.15022133338061E-07	-722206.25	0.00011488903692225
2	581	122.60583069045	0.756683349609375	0.75714111328125	-1.0205078125E-06	-7.72668386161968E-07	-741925.875	0.000114784161269199
2	582	122.706538690196	0.746612548828125	0.746612548828125	-1.01531982421875E-06	-7.58050475724303E-07	-735347.1875	0.000114681650302373
2	583	122.807246689942	0.736541748046875	0.736419677734375	-1.05560302734375E-06	-7.77366778947908E-07	-697629.375	0.000114577371277846
2	584	122.907954689687	0.726470947265625	0.7264404296875	-1.14715576171875E-06	-8.33340322969889E-07	-633253.5	0.000114466449304018
2	585	123.008662689433	0.716400146484375	0.71636962890625	-1.290283203125E-06	-9.24319692785502E-07	-555203.4375	0.000114343718450982
2	586	123.109370689179	0.706329345703125	0.706329345703125	-1.4764404296875E-06	-1.04285322777287E-06	-478400.1875	0.000114204398414586
2	587	123.210078688924	0.696258544921875	0.6961669921875	-1.6900634765625E-06	-1.17656634301966E-06	-411917.6875	0.000114044953079429
2	588	123.31078668867	0.686187744140625	0.686126708984375	-1.90277099609375E-06	-1.30554190036491E-06	-360593.4375	0.000113864036393352
2	589	123.411494688416	0.676116943359375	0.676025390625	-2.09014892578125E-06	-1.41299369715853E-06	-323434.09375	0.000113662979856599
2	590	123.512202688162	0.666046142578125	0.665985107421875	-2.2235107421875E-06	-1.48082494888513E-06	-299519.65625	0.000113445770693943
2	591	123.612910687907	0.655975341796875	0.655975341796875	-2.29095458984375E-06	-1.50280970956373E-06	-286332.75	0.000113218447950203
2	592	123.713618687653	0.645904541015625	0.6458740234375	-2.2900390625E-06	-1.47907667269465E-06	-282036.25	0.000112987778265961
2	593	123.814326687399	0.635833740234375	0.635711669921875	-2.2332763671875E-06	-1.41971975153865E-06	-284654.28125	0.000112760011688806
2	594	123.915034687145	0.625762939453125	0.625762939453125	-2.13623046875E-06	-1.33677383473696E-06	-292928.5625	0.000112539986730553
2	595	124.01574268689	0.615692138671875	0.61572265625	-2.0147705078125E-06	-1.24053974559502E-06	-305604.375	0.000112330970296171
2	596	124.116450686636	0.605621337890625	0.605560302734375	-1.8853759765625E-06	-1.14170882170583E-06	-321188.09375	0.000112134577648249
2	597	124.217158686382	0.595550537109375	0.5955810546875	-1.7547607421875E-06	-1.04510218079668E-06	-339408.71875	0.00011195128899999
2	598	124.317866686128	0.585479736328125	0.585479736328125	-1.63055419921875E-06	-9.54656456997327E-07	-359067.9375	0.000111780820589047
2	599	124.418574685873	0.575408935546875	0.575408935546875	-1.513671875E-06	-8.70980272793531E-07	-380141.15625	0.000111622495751362
2	600	124.519282685619	0.565338134765625	0.56536865234375	-1.4068603515625E-06	-7.95394726083032E-07	-401865.53125	0.000111475434096064
2	601	124.619990685365	0.555267333984375	0.555267333984375	-1.30950927734375E-06	-7.27127712707443E-07	-424027.0625	0.000111338653368875
2	602	124.720698685111	0.545196533203125	0.545196533203125	-1.22161865234375E-06	-6.6602223114387E-07	-446290.28125	0.000111211207695305
2	603	124.821406684856	0.535125732421875	0.535125732421875	-1.1407470703125E-06	-6.10443066761945E-07	-469101.125	0.000111092253064271
2	604	124.922114684602	0.525054931640625	0.5250244140625	-1.06719970703125E-06	-5.60305920771498E-07	-491964.53125	0.000110981069155969
2	605	125.022822684348	0.514984130859375	0.5150146484375	-1.0009765625E-06	-5.15517569965596E-07	-514512.1875	0.000110876928374637
2	606	125.123530684093	0.504913330078125	0.504974365234375	-9.40856933593751E-07	-4.75108635100696E-07	-536717.5	0.000110779154056218
2	607	125.224238683839	0.494842529296875	0.494842529296875	-8.8470458984375E-07	-4.37789424267976E-07	-559330.8125	0.00011068722960772
2	608	125.324946683585	0.484771728515625	0.484771728515625	-8.3343505859375E-07	-4.0402574086329E-07	-581655.125	0.00011060071119573
2	609	125.425654683331	0.474700927734375	0.474700927734375	-7.86743164062501E-07	-3.73467713643549E-07	-603374.6875	0.000110519125883002
2	610	125.526362683076	0.464630126953125	0.464630126953125	-7.42492675781251E-07	-3.44984471212229E-07	-625770.6875	0.000110442124423571
2	611	125.627070682822	0.454559326171875	0.454620361328125	-7.02514648437499E-07	-3.19377448931846E-07	-647132.9375	0.000110369364847429
2	612	125.727778682568	0.444488525390625	0.444549560546875	-6.6497802734375E-07	-2.95615677714522E-07	-668517.6875	0.000110300505184568
2	613	125.828486682314	0.434417724609375	0.434478759765625	-6.304931640625E-07	-2.73935881978105E-07	-689109.375	0.000110235276224557
2	614	125.929194682059	0.424346923828125	0.42437744140625	-5.9844970703125E-07	-2.53968551078287E-07	-709128.0625	0.000110173386929091
2	615	126.029902681805	0.414276123046875	0.41424560546875	-5.682373046875E-07	-2.35389791214402E-07	-729001.125	0.000110114640847314
2	616	126.130610681551	0.404205322265625	0.404296875	-5.3985595703125E-07	-2.18262073303777E-07	-748897.6875	0.000110058848804329
2	617	126.231318681297	0.394134521484375	0.394195556640625	-5.13610839843751E-07	-2.02463098730732E-07	-767498.5625	0.000110005799797364
2	618	126.332026681042	0.384063720703125	0.384063720703125	-4.8828125E-07	-1.87531099982152E-07	-786562.5625	0.000109955348307267
2	619	126.432734680788	0.373992919921875	0.374053955078125	-4.638671875E-07	-1.7351135284116E-07	-806381.625	0.000109907407022547
2	620	126.533442680534	0.363922119140625	0.364044189453125	-4.40368652343751E-07	-1.60313646802024E-07	-826680.5625	0.000109861874079797
2	621	126.63415068028	0.353851318359375	0.35394287109375	-4.180908203125E-07	-1.47980259157521E-07	-846569.3125	0.000109818647615612
2	622	126.734858680025	0.343780517578125	0.343780517578125	-3.97338867187499E-07	-1.36597350319789E-07	-865207.4375	0.000109777589386795
2	623	126.835566679771	0.333709716796875	0.333740234375	-3.77807617187501E-07	-1.26089588547984E-07	-883360.3125	0.000109738553874195
2	624	126.936274679517	0.323638916015625	0.32366943359375	-3.5888671875E-07	-1.16160663310438E-07	-901870.75	0.000109701461042278
2	625	127.036982679262	0.313568115234375	0.313507080078125	-3.4149169921875E-07	-1.0706006747796E-07	-918051.8125	0.000109666194475722
2	626	127.137690679008	0.303497314453125	0.303497314453125	-3.24401855468751E-07	-9.84550894145286E-08	-935559.8125	0.000109632659587078
2	627	127.238398678754	0.293426513671875	0.29345703125	-3.09143066406251E-07	-9.07201993527451E-08	-949259.6875	0.000109600761788897
2	628	127.3391066785	0.283355712890625	0.2833251953125	-2.9449462890625E-07	-8.34377402725295E-08	-962072.625	0.000109570362837985
2	629	127.439814678245	0.273284912109375	0.2733154296875	-2.8076171875E-07	-7.6736512255593E-08	-973478.25	0.000109541397250723
2	630	127.540522677991	0.263214111328125	0.263275146484375	-2.6824951171875E-07	-7.06234217773272E-08	-981456.25	0.000109513755887747
2	631	127.641230677737	0.253143310546875	0.253204345703125	-2.57263183593751E-07	-6.51401492746118E-08	-984223.0625	0.000109487293229904
2	632	127.741938677483	0.243072509765625	0.24310302734375	-2.46276855468749E-07	-5.98706435539498E-08	-987112.8125	0.000109461936517619
2	633	127.842646677228	0.233001708984375	0.23309326171875	-2.37426757812501E-07	-5.53425749671987E-08	-981748.125	0.000109437583887484
2	634	127.943354676974	0.222930908203125	0.222991943359375	-2.2918701171875E-07	-5.11068556363625E-08	-972969.375	0.00010941408254439
2	635	128.04406267672	0.212860107421875	0.21295166015625	-2.2247314453125E-07	-4.73760231045617E-08	-957201.6875	0.000109391345176846
2	636	128.144770676466	0.202789306640625	0.202880859375	-2.166748046875E-07	-4.39591723022659E-08	-936338	0.000109369226265699
2	637	128.245478676211	0.192718505859375	0.192779541015625	-2.1331787109375E-07	-4.11233180841464E-08	-903719.625	0.000109347580291796
2	638	128.346186675957	0.182647705078125	0.1827392578125	-2.11486816406251E-07	-3.86469416469026E-08	-864069.3125	0.000109326188976411
2	639	128.446894675703	0.172576904296875	0.172607421875	-2.12707519531249E-07	-3.671489778867E-08	-811477.75	0.000109304826764856
2	640	128.547602675449	0.162506103515625	0.16253662109375	-2.1697998046875E-07	-3.52671918335545E-08	-749085.8125	0.000109283188066911
2	641	128.648310675194	0.152435302734375	0.152496337890625	-2.2552490234375E-07	-3.43917214706835E-08	-676184.0625	0.000109260909084696
2	642	128.74901867494	0.142364501953125	0.142425537109375	-2.3956298828125E-07	-3.41198855835501E-08	-594522.3125	0.000109237487777136
2	643	128.849726674686	0.132293701171875	0.13238525390625	-2.6123046875E-07	-3.45830635239963E-08	-506775.6875	0.000109212269308046
2	644	128.950434674431	0.122222900390625	0.122344970703125	-2.92358398437501E-07	-3.57685756569026E-08	-418476.03125	0.000109184395114426
2	645	129.051142674177	0.112152099609375	0.112152099609375	-3.375244140625E-07	-3.785406832435E-08	-332278.5	0.000109152679215185
2	646	129.151850673923	0.102081298828125	0.10211181640625	-3.997802734375E-07	-4.08222895487143E-08	-255419.84375	0.000109115557279438
2	647	129.252558673669	0.092010498046875	0.09197998046875	-4.86145019531251E-07	-4.4715605440615E-08	-189202.78125	0.000109070941107348
2	648	129.353266673414	0.081939697265625	0.08203125	-6.011962890625E-07	-4.93168847981451E-08	-136446.703125	0.000109016189526301
2	649	129.45397467316	0.071868896484375	0.071929931640625	-7.5103759765625E-07	-5.40220810307801E-08	-95774.078125	0.000108948101114947
2	650	129.554682672906	0.061798095703125	0.0618896484375	-9.3505859375E-07	-5.7870444436503E-08	-66187.9921875	0.000108863197965547
2	651	129.655390672652	0.051727294921875	0.05181884765625	-1.15203857421875E-06	-5.96973066535611E-08	-44980.1328125	0.000108758104033768
2	652	129.756098672397	0.041656494140625	0.04173583984375	-1.387939453125E-06	-5.79268153444445E-08	-30070.361328125	0.000108630207250826
2	653	129.856806672143	0.031585693359375	0.03170166015625	-1.62628173828125E-06	-5.15558333802346E-08	-19493.33984375	0.000108478430774994
2	654	129.957514671889	0.021514892578125	0.021624755859375	-1.8414306640625E-06	-3.98204846874251E-08	-11743.4541015625	0.000108303815068211
2	655	130.058222671635	0.011444091796875	0.0115631103515625	-2.0135498046875E-06	-2.32828956114872E-08	-5742.6494140625	0.000108109699795023
2	656	130.15893067138	0.001373291015625	0.001483154296875	-2.12921142578125E-06	-3.15794901339927E-09	-696.574401855469	0.000107901098090224
2	657	130.259638671126	-0.008697509765625	-0.0085601806640625	-2.186279296875E-06	1.87149460373348E-08	3915.41040039063	0.000107683794340119
2	658	130.360346670872	-0.018768310546875	-0.0186431884765625	-2.191162109375E-06	4.08502494053664E-08	8508.3564453125	0.000107463376480155
2	659	130.461054670618	-0.028839111328125	-0.0287200927734375	-2.15972900390625E-06	6.20276097151873E-08	13298.0078125	0.000107244290120434
2	660	130.561762670363	-0.038909912109375	-0.0387451171875	-2.1038818359375E-06	8.15151466326824E-08	18416.013671875	0.000107029598439112
2	661	130.662470670109	-0.048980712890625	-0.0487945556640625	-2.037353515625E-06	9.94117570485287E-08	23949.97265625	0.00010682106949389
2	662	130.763178669855	-0.059051513671875	-0.0589599609375	-1.966552734375E-06	1.15947869971933E-07	29981.37890625	0.000106619459984358
2	663	130.8638866696	-0.069122314453125	-0.06903076171875	-1.89666748046875E-06	1.30928398789365E-07	36395.81640625	0.000106424929981586
2	664	130.964594669346	-0.079193115234375	-0.079071044921875	-1.83197021484375E-06	1.44855789585563E-07	43161.75390625	0.000106237181171309
2	665	131.065302669092	-0.089263916015625	-0.08917236328125	-1.77154541015625E-06	1.57972891656755E-07	50335.91796875	0.000106055726064369
2	666	131.166010668838	-0.099334716796875	-0.099212646484375	-1.71722412109375E-06	1.70370341834314E-07	57775.015625	0.000105880055343732
2	667	131.266718668583	-0.109405517578125	-0.109222412109375	-1.668701171875E-06	1.82259555003839E-07	65453.55078125	0.000105709557828959
2	668	131.367426668329	-0.119476318359375	-0.119415283203125	-1.6253662109375E-06	1.94093559002795E-07	73469.7734375	0.000105543687823229
2	669	131.468134668075	-0.129547119140625	-0.129425048828125	-1.58721923828125E-06	2.05425919830304E-07	81542.0078125	0.000105381921457592
2	670	131.568842667821	-0.139617919921875	-0.1395263671875	-1.55517578125E-06	2.1698801333514E-07	89717.4296875	0.000105223691207357
2	671	131.669550667566	-0.149688720703125	-0.1495361328125	-1.52801513671875E-06	2.28493476583935E-07	97862.9921875	0.000105068436823785
2	672	131.770258667312	-0.159759521484375	-0.159637451171875	-1.50604248046875E-06	2.40420774844097E-07	105997.9765625	0.00010491566354176
2	673	131.870966667058	-0.169830322265625	-0.169647216796875	-1.4874267578125E-06	2.52337798656299E-07	114054.1640625	0.000104764927527867
2	674	131.971674666804	-0.179901123046875	-0.179718017578125	-1.47491455078125E-06	2.65068706539751E-07	121849.7890625	0.000104615763120819
2	675	132.072382666549	-0.189971923828125	-0.18975830078125	-1.46636962890625E-06	2.7825578285956E-07	129406.875	0.000104467661003582
2	676	132.173090666295	-0.200042724609375	-0.199859619140625	-1.46209716796875E-06	2.92214167529892E-07	136693.8125	0.000104320199170616
2	677	132.273798666041	-0.189971923828125	-0.1898193359375	-1.27777099609375E-06	2.42545638684533E-07	148555.0625	0.000104182232462335
