Potential - OCP -0.00217542461320466 V
Time (s)	WE(1).Potential (V)
6.76530598291924	-0.003192138671875
6.86530598266677	-0.003192138671875
6.96530598241429	-0.003192138671875
7.06530598216182	-0.0031890869140625
7.16530598190934	-0.00318603515625
7.26530598165687	-0.0031768798828125
7.36530598140439	-0.00316772460937501
7.46530598115191	-0.00316467285156249
7.56530598089944	-0.003155517578125
7.66530598064696	-0.00315246582031251
7.76530598039449	-0.0031463623046875
7.86530598014201	-0.00313720703125001
7.96530597988954	-0.003131103515625
8.06530597963706	-0.00312194824218751
8.16530597938458	-0.0031158447265625
8.26530597913211	-0.0031097412109375
8.36530597887963	-0.00310668945312501
8.46530597862716	-0.00310668945312501
8.56530597837468	-0.0030975341796875
8.66530597812221	-0.00309143066406251
8.76530597786973	-0.003094482421875
8.86530597761725	-0.00309143066406251
8.96530597736478	-0.00308837890624999
9.0653059771123	-0.0030792236328125
9.16530597685983	-0.00306396484375
9.26530597660735	-0.0030517578125
9.36530597635488	-0.00304565429687501
9.4653059761024	-0.00304260253906249
9.56530597584992	-0.00303955078125
9.66530597559745	-0.00304260253906249
9.76530597534497	-0.0030364990234375
9.8653059750925	-0.0030242919921875
9.96530597484002	-0.00301208496093749
10.0653059745875	-0.0030059814453125
10.1653059743351	-0.0030029296875
10.2653059740826	-0.0029876708984375
10.3653059738301	-0.002978515625
10.4653059735776	-0.00296630859374999
10.5653059733252	-0.00295410156250001
10.6653059730727	-0.00294189453125
10.7653059728202	-0.0029266357421875
10.8653059725677	-0.0029022216796875
10.9653059723153	-0.0028839111328125
11.0653059720628	-0.00287475585937499
11.1653059718103	-0.0028533935546875
11.2653059715578	-0.002838134765625
11.3653059713054	-0.002838134765625
11.4653059710529	-0.002838134765625
11.5653059708004	-0.0028350830078125
11.6653059705479	-0.0028228759765625
11.7653059702955	-0.0028076171875
11.865305970043	-0.0027923583984375
11.9653059697905	-0.002777099609375
12.065305969538	-0.0027618408203125
12.1653059692856	-0.00275268554687499
12.2653059690331	-0.00274047851562501
12.3653059687806	-0.00272521972656251
12.4653059685281	-0.002716064453125
12.5653059682757	-0.00270996093750001
12.6653059680232	-0.002703857421875
12.7653059677707	-0.00270690917968749
12.8653059675182	-0.0027130126953125
12.9653059672657	-0.002728271484375
13.0653059670133	-0.00274658203125
13.1653059667608	-0.00274658203125
13.2653059665083	-0.00272521972656251
13.3653059662558	-0.002716064453125
13.4653059660034	-0.00270996093750001
13.5653059657509	-0.00269775390625
13.6653059654984	-0.002685546875
13.7653059652459	-0.0026702880859375
13.8653059649935	-0.0026580810546875
13.965305964741	-0.002642822265625
14.0653059644885	-0.00263366699218751
14.165305964236	-0.00263061523437499
14.2653059639836	-0.0026275634765625
14.3653059637311	-0.00261840820312501
14.4653059634786	-0.00261535644531249
14.5653059632261	-0.0026123046875
14.6653059629737	-0.002606201171875
14.7653059627212	-0.00260314941406251
14.8653059624687	-0.00260314941406251
14.9653059622162	-0.0025970458984375
15.0653059619638	-0.0025970458984375
15.1653059617113	-0.00260009765624999
15.2653059614588	-0.00260009765624999
15.3653059612063	-0.0025970458984375
15.4653059609539	-0.002593994140625
15.5653059607014	-0.0025909423828125
15.6653059604489	-0.0025909423828125
15.7653059601964	-0.00258789062500001
15.865305959944	-0.00258483886718749
15.9653059596915	-0.00258789062500001
16.065305959439	-0.00258789062500001
16.1653059591865	-0.0025909423828125
16.2653059589341	-0.00258789062500001
16.3653059586816	-0.00258789062500001
16.4653059584291	-0.0025787353515625
16.5653059581766	-0.00257568359375
16.6653059579241	-0.002581787109375
16.7653059576717	-0.0025909423828125
16.8653059574192	-0.00260314941406251
16.9653059571667	-0.002606201171875
17.0653059569142	-0.0026092529296875
17.1653059566618	-0.002606201171875
17.2653059564093	-0.002606201171875
17.3653059561568	-0.002606201171875
17.4653059559043	-0.00260009765624999
17.5653059556519	-0.0025909423828125
17.6653059553994	-0.00257568359375
17.7653059551469	-0.0025665283203125
17.8653059548944	-0.00255737304687501
17.965305954642	-0.0025482177734375
18.0653059543895	-0.0025360107421875
18.165305954137	-0.0025299072265625
18.2653059538845	-0.002520751953125
18.3653059536321	-0.00250854492187499
18.4653059533796	-0.0024993896484375
18.5653059531271	-0.002490234375
18.6653059528746	-0.00247802734374999
18.7653059526222	-0.0024688720703125
18.8653059523697	-0.002459716796875
18.9653059521172	-0.00244750976562499
19.0653059518647	-0.00244750976562499
19.1653059516123	-0.00243530273437501
19.2653059513598	-0.00243225097656249
19.3653059511073	-0.00243530273437501
19.4653059508548	-0.00243225097656249
19.5653059506024	-0.00242004394531251
19.6653059503499	-0.00241699218749999
19.7653059500974	-0.0024139404296875
19.8653059498449	-0.0024078369140625
19.9653059495924	-0.00240478515625001
20.06530594934	-0.002398681640625
20.1653059490875	-0.002392578125
20.265305948835	-0.0023834228515625
20.3653059485825	-0.00237426757812501
20.4653059483301	-0.002362060546875
20.5653059480776	-0.0023529052734375
20.6653059478251	-0.00234375000000001
20.7653059475726	-0.00233154296875
20.8653059473202	-0.0023223876953125
20.9653059470677	-0.0023162841796875
21.0653059468152	-0.00230712890625
21.1653059465627	-0.002301025390625
21.2653059463103	-0.0022918701171875
21.3653059460578	-0.00228271484375001
21.4653059458053	-0.00227966308593749
21.5653059455528	-0.0022735595703125
21.6653059453004	-0.0022613525390625
21.7653059450479	-0.00224914550781249
21.8653059447954	-0.0022430419921875
21.9653059445429	-0.002239990234375
22.0653059442905	-0.00223693847656251
22.165305944038	-0.00223388671874999
22.2653059437855	-0.0022308349609375
22.365305943533	-0.0022247314453125
22.4653059432806	-0.00221862792968749
22.5653059430281	-0.0022125244140625
22.6653059427756	-0.00220642089843751
22.7653059425231	-0.0022003173828125
22.8653059422707	-0.0021942138671875
22.9653059420182	-0.0021942138671875
23.0653059417657	-0.00218811035156249
23.1653059415132	-0.00218505859375
23.2653059412607	-0.00218505859375
23.3653059410083	-0.00218811035156249
23.4653059407558	-0.00219116210937501
23.5653059405033	-0.00219116210937501
23.6653059402508	-0.0021942138671875
23.7653059399984	-0.0022003173828125
23.8653059397459	-0.00220336914062499
23.9653059394934	-0.0022003173828125
24.0653059392409	-0.002197265625
24.1653059389885	-0.0021942138671875
24.265305938736	-0.00218811035156249
24.3653059384835	-0.00218505859375
24.465305938231	-0.00218505859375
24.5653059379786	-0.00218505859375
24.6653059377261	-0.0021820068359375
24.7653059374736	-0.00217590332031251
24.8653059372211	-0.00217590332031251
24.9653059369687	-0.00218505859375
25.0653059367162	-0.00219116210937501
25.1653059364637	-0.00218811035156249
25.2653059362112	-0.00218505859375
25.3653059359588	-0.0021820068359375
25.4653059357063	-0.002178955078125
25.5653059354538	-0.002178955078125
25.6653059352013	-0.0021820068359375
25.7653059349489	-0.0021820068359375
25.8653059346964	-0.00218505859375
25.9653059344439	-0.00218505859375
26.0653059341914	-0.00218811035156249
26.165305933939	-0.00218505859375
26.2653059336865	-0.00218505859375
26.365305933434	-0.0021820068359375
26.4653059331815	-0.00217590332031251
26.565305932929	-0.00217285156249999
26.6653059326766	-0.0021697998046875
26.7653059324241	-0.002166748046875
26.8653059321716	-0.002166748046875
26.9653059319191	-0.002166748046875
27.0653059316667	-0.002166748046875
27.1653059314142	-0.002166748046875
27.2653059311617	-0.002166748046875
27.3653059309092	-0.002166748046875
27.4653059306568	-0.0021697998046875
27.5653059304043	-0.00217285156249999
27.6653059301518	-0.0021820068359375
27.7653059298993	-0.0021942138671875
27.8653059296469	-0.00220642089843751
27.9653059293944	-0.002215576171875
28.0653059291419	-0.00222167968750001
28.1653059288894	-0.002227783203125
28.265305928637	-0.002239990234375
28.3653059283845	-0.00225219726562501
28.465305928132	-0.00226440429687499
28.5653059278795	-0.00227966308593749
28.6653059276271	-0.0022918701171875
28.7653059273746	-0.0023040771484375
28.8653059271221	-0.00231323242187501
28.9653059268696	-0.00232543945312499
29.0653059266172	-0.002337646484375
29.1653059263647	-0.00234069824218749
29.2653059261122	-0.00234375000000001
29.3653059258597	-0.002349853515625
29.4653059256073	-0.0023529052734375
29.5653059253548	-0.00235595703124999
29.6653059251023	-0.00235595703124999
29.7653059248498	-0.00235900878906251
29.8653059245974	-0.002362060546875
29.9653059243449	-0.002362060546875
30.0653059240924	-0.00235900878906251
30.1653059238399	-0.00235595703124999
30.2653059235874	-0.002349853515625
30.365305923335	-0.00234375000000001
30.4653059230825	-0.002337646484375
30.56530592283	-0.00232849121093751
30.6653059225775	-0.0023193359375
30.7653059223251	-0.00231018066406249
30.8653059220726	-0.00230712890625
30.9653059218201	-0.00229797363281251
31.0653059215676	-0.0022918701171875
31.1653059213152	-0.00228271484375001
31.2653059210627	-0.002276611328125
31.3653059208102	-0.0022705078125
31.4653059205577	-0.0022613525390625
31.5653059203053	-0.00225830078125
31.6653059200528	-0.0022552490234375
31.7653059198003	-0.0022430419921875
31.8653059195478	-0.002239990234375
31.9653059192954	-0.0022308349609375
32.0653059190429	-0.002227783203125
32.1653059187904	-0.0022247314453125
32.2653059185379	-0.002215576171875
32.3653059182855	-0.00220947265625
32.465305918033	-0.00220336914062499
32.5653059177805	-0.0021942138671875
32.665305917528	-0.00218811035156249
32.7653059172756	-0.0021820068359375
32.8653059170231	-0.00217590332031251
32.9653059167706	-0.00217590332031251
33.0653059165181	-0.00217285156249999
33.1653059162657	-0.0021697998046875
33.2653059160132	-0.00217285156249999
33.3653059157607	-0.00217285156249999
33.4653059155082	-0.0021697998046875
33.5653059152557	-0.0021697998046875
33.6653059150033	-0.002166748046875
33.7653059147508	-0.002166748046875
33.8653059144983	-0.0021636962890625
33.9653059142458	-0.00216064453125001
34.0653059139934	-0.00216064453125001
34.1653059137409	-0.00215759277343749
34.2653059134884	-0.00215759277343749
34.3653059132359	-0.002154541015625
34.4653059129835	-0.002154541015625
34.565305912731	-0.0021514892578125
34.6653059124785	-0.0021484375
34.765305912226	-0.00214538574218751
34.8653059119736	-0.00214233398437499
34.9653059117211	-0.00214233398437499
35.0653059114686	-0.00214538574218751
35.1653059112161	-0.00214538574218751
35.2653059109637	-0.00214538574218751
35.3653059107112	-0.0021484375
35.4653059104587	-0.002154541015625
35.5653059102062	-0.002166748046875
35.6653059099538	-0.00217590332031251
35.7653059097013	-0.00217285156249999
35.8653059094488	-0.00217285156249999
35.9653059091963	-0.00217285156249999
36.0653059089439	-0.002166748046875
36.1653059086914	-0.0021636962890625
36.2653059084389	-0.00216064453125001
36.3653059081864	-0.0021636962890625
36.465305907934	-0.00216064453125001
36.5653059076815	-0.00215759277343749
36.665305907429	-0.002154541015625
