Potential - Start -0.2 V, Upper Vertex 1.5 V, Lower Vertex -0.2 V, Stop -0.19 V; Scan - # end cross 5, Rate 0.1 Vps, Step 0.01 V 
Scan	Index	Time (s)	Potential applied (V)	WE(1).Potential (V)	WE(1).Current (A)	WE(1).Power (W)	WE(1).Resistance (Ω)	WE(1).Charge (C)
1	1	66.0885708331424	-0.189971923828125	-0.189788818359375	-2.3162841796875E-07	4.39604797008997E-08	819367.625	0
1	2	66.1892788328881	-0.179901123046875	-0.179718017578125	-2.001953125E-07	3.59787044601489E-08	897713.4375	-2.17440501160127E-08
1	3	66.2899868326339	-0.169830322265625	-0.169677734375	-1.73034667968749E-07	2.93601303269497E-08	980599.6875	-4.05376709977645E-08
1	4	66.3906948323796	-0.159759521484375	-0.15966796875	-1.48620605468749E-07	2.37299495609022E-08	1074332.625	-5.67343008128773E-08
1	5	66.4914028321253	-0.149688720703125	-0.14959716796875	-1.2664794921875E-07	1.89461744071195E-08	1181204.875	-7.05951777035807E-08
1	6	66.5921108318711	-0.139617919921875	-0.13946533203125	-1.055908203125E-07	1.47262575467266E-08	1320809.375	-8.22893255758572E-08
1	7	66.6928188316168	-0.129547119140625	-0.129425048828125	-8.57543945312497E-08	1.10987663504147E-08	1509252.625	-9.1924320599901E-08
1	8	66.7935268313626	-0.119476318359375	-0.119354248046875	-6.65283203125006E-08	7.94043675256262E-09	1794036.875	-9.95923628011042E-08
1	9	66.8942348311083	-0.109405517578125	-0.109344482421875	-4.63867187499994E-08	5.07213160361175E-09	2357237	-1.0527809024552E-07
1	10	66.994942830854	-0.099334716796875	-0.099212646484375	-2.47192382812497E-08	2.45246112307029E-09	4013580.25	-1.08858557723579E-07
1	11	67.0956508305998	-0.089263916015625	-0.08917236328125	1.83105468749972E-09	-1.63279473275324E-10	-48700000	-1.10011072251837E-07
1	12	67.1963588303455	-0.079193115234375	-0.079193115234375	3.41796874999994E-08	-2.70679567648813E-09	-2316964.5	-1.08197781401032E-07
1	13	67.2970668300912	-0.069122314453125	-0.069061279296875	7.50732421874997E-08	-5.18465403942514E-09	-919918.75	-1.02696461112828E-07
1	14	67.397774829837	-0.059051513671875	-0.0589599609375	1.2786865234375E-07	-7.53913020901109E-09	-461097.875	-9.24775278576817E-08
1	15	67.4984828295827	-0.048980712890625	-0.048858642578125	1.97753906250001E-07	-9.66198765439685E-09	-247067.90625	-7.60811289524099E-08
1	16	67.5991908293284	-0.038909912109375	-0.0387908935546875	2.89001464843749E-07	-1.12106244287702E-08	-134223.859375	-5.15710496529209E-08
1	17	67.6998988290742	-0.028839111328125	-0.0287322998046875	4.0740966796875E-07	-1.17058167603545E-08	-70524.34375	-1.65039644173248E-08
1	18	67.8006068288199	-0.018768310546875	-0.01866455078125	5.55419921875E-07	-1.0366662195338E-08	-33604.39453125	3.19783559632469E-08
1	19	67.9013148285657	-0.008697509765625	-0.0086212158203125	7.33337402343751E-07	-6.32226004881886E-09	-11756.1376953125	9.68724407357513E-08
1	20	68.0020228283114	0.001373291015625	0.0014923095703125	9.3231201171875E-07	1.39129818776951E-09	1600.65478515625	1.80744549993506E-07
1	21	68.1027308280571	0.011444091796875	0.011541748046875	1.13800048828125E-06	1.313451480911E-08	10142.1298828125	2.84993063814909E-07
1	22	68.2034388278029	0.021514892578125	0.021612548828125	1.33087158203125E-06	2.87635266715824E-08	16239.3955078125	4.09310644045036E-07
1	23	68.3041468275486	0.031585693359375	0.0316650390625	1.49017333984375E-06	4.7186393459242E-08	21249.232421875	5.51361551970331E-07
1	24	68.4048548272943	0.041656494140625	0.04176025390625	1.6021728515625E-06	6.69071411607547E-08	26064.763671875	7.07073525063606E-07
1	25	68.5055628270401	0.051727294921875	0.05169677734375	1.6619873046875E-06	8.59193889368726E-08	31105.3984375	8.71437066507497E-07
1	26	68.6062708267858	0.061798095703125	0.0618896484375	1.67633056640625E-06	1.03747503032992E-07	36919.71875	1.03953470897977E-06
1	27	68.7069788265316	0.071868896484375	0.071929931640625	1.65435791015625E-06	1.18997853348901E-07	43479.0625	1.20724814678397E-06
1	28	68.8076868262773	0.081939697265625	0.081939697265625	1.6119384765625E-06	1.32081737547196E-07	50833.01953125	1.37171923597634E-06
1	29	68.908394826023	0.092010498046875	0.092071533203125	1.55792236328125E-06	1.434403031908E-07	59098.921875	1.53133441926911E-06
1	30	69.0091028257688	0.102081298828125	0.102142333984375	1.4996337890625E-06	1.53176088701912E-07	68111.5234375	1.68529459187994E-06
1	31	69.1098108255145	0.112152099609375	0.112152099609375	1.44134521484375E-06	1.6164987926004E-07	77810.71875	1.83338465831184E-06
1	32	69.2105188252602	0.122222900390625	0.12225341796875	1.3861083984375E-06	1.69456484400143E-07	88199.03125	1.97575832316943E-06
1	33	69.311226825006	0.132293701171875	0.132354736328125	1.33514404296875E-06	1.76712632082854E-07	99131.4296875	2.11278415918059E-06
1	34	69.4119348247517	0.142364501953125	0.142364501953125	1.28875732421875E-06	1.83473289894209E-07	110466.4921875	2.24490804612287E-06
1	35	69.5126428244974	0.152435302734375	0.152496337890625	1.2469482421875E-06	1.90155034829331E-07	122295.6484375	2.37259109781007E-06
1	36	69.6133508242432	0.162506103515625	0.16253662109375	1.2103271484375E-06	1.96722481859979E-07	134291.484375	2.49632466875482E-06
1	37	69.7140588239889	0.172576904296875	0.172576904296875	1.17767333984375E-06	2.03239210350148E-07	146540.5625	2.6165701001446E-06
1	38	69.8147668237347	0.182647705078125	0.18267822265625	1.14837646484375E-06	2.09783365789917E-07	159075.203125	2.73369596470729E-06
1	39	69.9154748234804	0.192718505859375	0.19268798828125	1.1212158203125E-06	2.16044810485982E-07	171856.296875	2.84797897620592E-06
1	40	70.0161828232261	0.202789306640625	0.202850341796875	1.0968017578125E-06	2.22486605139238E-07	184947.140625	2.95966515295731E-06
1	41	70.1168908229719	0.212860107421875	0.21282958984375	1.07421875E-06	2.28625538056804E-07	198125	3.06898459712102E-06
1	42	70.2175988227176	0.222930908203125	0.222930908203125	1.0540771484375E-06	2.34986359259892E-07	211493.9375	3.17615285894135E-06
1	43	70.3183068224633	0.233001708984375	0.23309326171875	1.03546142578125E-06	2.41359089159232E-07	225110.515625	3.28136957250535E-06
1	44	70.4190148222091	0.243072509765625	0.243072509765625	1.01837158203125E-06	2.47538139319659E-07	238687.453125	3.38478821504395E-06
1	45	70.5197228219548	0.253143310546875	0.253143310546875	1.00341796875E-06	2.54008540423456E-07	252281.015625	3.48659341398161E-06
1	46	70.6204308217006	0.263214111328125	0.263214111328125	9.89990234375E-07	2.60579383848381E-07	265875.46875	3.58696934199543E-06
1	47	70.7211388214463	0.273284912109375	0.2733154296875	9.77783203125E-07	2.67243223106561E-07	279525.59375	3.68605469702743E-06
1	48	70.821846821192	0.283355712890625	0.283355712890625	9.66491699218749E-07	2.73860933930337E-07	293179.65625	3.78395679945243E-06
1	49	70.9225548209378	0.293426513671875	0.293487548828125	9.55810546875E-07	2.80518491990733E-07	307056.21875	3.88075250157272E-06
1	50	71.0232628206835	0.303497314453125	0.303558349609375	9.4573974609375E-07	2.87087175365741E-07	320974.53125	3.97650319428067E-06
1	51	71.1239708204292	0.313568115234375	0.3135986328125	9.37499999999999E-07	2.93998709821608E-07	334505.21875	4.07133165936102E-06
1	52	71.224678820175	0.323638916015625	0.323638916015625	9.30175781250001E-07	3.01041069405983E-07	347933.09375	4.1653765947558E-06
1	53	71.3253868199207	0.333709716796875	0.333709716796875	9.24072265625001E-07	3.08371880919367E-07	361129.46875	4.25874532083981E-06
1	54	71.4260948196664	0.343780517578125	0.343841552734375	9.19189453124999E-07	3.1605551953362E-07	374070.40625	4.35156107414514E-06
1	55	71.5268028194122	0.353851318359375	0.353851318359375	9.14611816406249E-07	3.23636584198539E-07	386886.90625	4.44390025222674E-06
1	56	71.6275108191579	0.363922119140625	0.36395263671875	9.10339355468751E-07	3.31320393343049E-07	399798.875	4.53579377790447E-06
1	57	71.7282188189037	0.373992919921875	0.373992919921875	9.06982421874999E-07	3.39205001864684E-07	412348.59375	4.62730304207071E-06
1	58	71.8289268186494	0.384063720703125	0.38409423828125	9.03930664062499E-07	3.47194543337537E-07	424915.59375	4.71848989036516E-06
1	59	71.9296348183951	0.394134521484375	0.39410400390625	9.0057373046875E-07	3.54919706069268E-07	437614.375	4.80935386804049E-06
1	60	72.0303428181409	0.404205322265625	0.4041748046875	8.98132324218751E-07	3.63002470749052E-07	450017	4.89992589791655E-06
1	61	72.1310508178866	0.414276123046875	0.414306640625	8.9691162109375E-07	3.71596428294652E-07	461925.84375	4.99031375511549E-06
1	62	72.2317588176323	0.424346923828125	0.424346923828125	8.9599609375E-07	3.80213180051214E-07	473603.53125	5.08059383719228E-06
1	63	72.3324668173781	0.434417724609375	0.434478759765625	8.9447021484375E-07	3.88628308201078E-07	485738.65625	5.17075068273698E-06
1	64	72.4331748171238	0.444488525390625	0.444488525390625	8.929443359375E-07	3.96903487853706E-07	497778.5625	5.26075427842443E-06
1	65	72.5338828168695	0.454559326171875	0.454559326171875	8.92028808593751E-07	4.05479994469715E-07	509579.21875	5.35063463757979E-06
1	66	72.6345908166153	0.464630126953125	0.464599609375	8.90502929687501E-07	4.13727320847102E-07	521727.21875	5.44039221495041E-06
1	67	72.735298816361	0.474700927734375	0.47467041015625	8.89892578125E-07	4.22405662448E-07	533401.9375	5.53004247194622E-06
1	68	72.8360068161068	0.484771728515625	0.484832763671875	8.8958740234375E-07	4.31301117487237E-07	545008.5625	5.61964634471224E-06
1	69	72.9367148158525	0.494842529296875	0.494842529296875	8.9019775390625E-07	4.40507704979609E-07	555879.375	5.70926567888819E-06
1	70	73.0374228155982	0.504913330078125	0.504852294921875	8.92028808593751E-07	4.50342781732616E-07	565959.6875	5.79900779484888E-06
1	71	73.138130815344	0.514984130859375	0.5150146484375	8.93554687500001E-07	4.60193746221194E-07	576366.125	5.8889190768241E-06
1	72	73.2388388150897	0.525054931640625	0.5250244140625	8.96301269531249E-07	4.70580033606893E-07	585767.8125	5.97904545429628E-06
1	73	73.3395468148354	0.535125732421875	0.53509521484375	8.984375E-07	4.80749577036477E-07	595584.25	6.0694178500853E-06
1	74	73.4402548145812	0.545196533203125	0.545196533203125	9.02099609375E-07	4.91821595005604E-07	604364	6.16008219367359E-06
1	75	73.5409628143269	0.555267333984375	0.55523681640625	9.0606689453125E-07	5.03081707847741E-07	612798.9375	6.25113034402602E-06
1	76	73.6416708140727	0.565338134765625	0.565338134765625	9.112548828125E-07	5.15167130288319E-07	620395.1875	6.34264006293961E-06
1	77	73.7423788138184	0.575408935546875	0.575439453125	9.1888427734375E-07	5.2876225709042E-07	626237.125	6.43479461359675E-06
1	78	73.8430868135641	0.585479736328125	0.585540771484375	9.2803955078125E-07	5.43405008102127E-07	630943.8125	6.52779499432654E-06
1	79	73.9437948133099	0.595550537109375	0.595550537109375	9.4024658203125E-07	5.59964348667563E-07	633398.25	6.62187039779383E-06
1	80	74.0445028130556	0.605621337890625	0.605621337890625	9.5489501953125E-07	5.78304764076165E-07	634228.25	6.71729821988265E-06
1	81	74.1452108128013	0.615692138671875	0.6156005859375	9.722900390625E-07	5.98542271745828E-07	633145.0625	6.81433994031977E-06
1	82	74.2459188125471	0.625762939453125	0.625701904296875	9.9456787109375E-07	6.22302991359902E-07	629119.375	6.91337891112198E-06
1	83	74.3466268122928	0.635833740234375	0.635772705078125	1.0223388671875E-06	6.49975163469207E-07	621880.5625	7.01493854649016E-06
1	84	74.4473348120385	0.645904541015625	0.6458740234375	1.0546875E-06	6.8119521756671E-07	612384.3125	7.11952498022583E-06
1	85	74.5480428117843	0.655975341796875	0.65594482421875	1.092529296875E-06	7.16638908215828E-07	600391.0625	7.2276457103726E-06
1	86	74.64875081153	0.666046142578125	0.66595458984375	1.13311767578125E-06	7.54604855046637E-07	587718.875	7.33971592126181E-06
1	87	74.7494588112758	0.676116943359375	0.67608642578125	1.17279052734375E-06	7.92907712821034E-07	576476.75	7.45582792660571E-06
1	88	74.8501668110215	0.686187744140625	0.686126708984375	1.20849609375E-06	8.29181431072357E-07	567752.5	7.5757352533401E-06
1	89	74.9508748107672	0.696258544921875	0.696197509765625	1.23931884765625E-06	8.62810679791437E-07	561758.1875	7.69899270380847E-06
1	90	75.051582810513	0.706329345703125	0.70623779296875	1.26220703125E-06	8.91418267201516E-07	559526.125	7.82495408202522E-06
1	91	75.1522908102587	0.716400146484375	0.716339111328125	1.2799072265625E-06	9.16847625376249E-07	559680.5	7.95296000433154E-06
1	92	75.2529988100044	0.726470947265625	0.7264404296875	1.2945556640625E-06	9.40417578476627E-07	561150.375	8.08259392215405E-06
1	93	75.3537068097502	0.736541748046875	0.73651123046875	1.30889892578125E-06	9.6401868177054E-07	562695.3125	8.2136884884676E-06
1	94	75.4544148094959	0.746612548828125	0.74658203125	1.32659912109375E-06	9.90415060186933E-07	562778.9375	8.34639649838209E-06
1	95	75.5551228092417	0.756683349609375	0.75775146484375	1.35009765625E-06	1.02303840776585E-06	561256.8125	8.48117906571133E-06
1	96	75.6558308089874	0.766754150390625	0.767822265625	1.38336181640625E-06	1.06217601114622E-06	555040.8125	8.61881926539354E-06
1	97	75.7565388087331	0.776824951171875	0.7769775390625	1.42852783203125E-06	1.10993403268367E-06	543900.875	8.76040940056555E-06
1	98	75.8572468084789	0.786895751953125	0.7867431640625	1.490478515625E-06	1.17262368348747E-06	527846.0625	8.90739283931907E-06
1	99	75.9579548082246	0.796966552734375	0.797119140625	1.57135009765625E-06	1.2525531474239E-06	507283	9.06156856217422E-06
1	100	76.0586628079703	0.807037353515625	0.80718994140625	1.6741943359375E-06	1.35139282519958E-06	482136.34375	9.22499475564109E-06
1	101	76.1593708077161	0.817108154296875	0.8172607421875	1.79595947265625E-06	1.4677671060781E-06	455055.25	9.39973051572451E-06
1	102	76.2600788074618	0.827178955078125	0.82733154296875	1.93267822265625E-06	1.59896546847449E-06	428075.1875	9.58748205448501E-06
1	103	76.3607868072075	0.837249755859375	0.83770751953125	2.07122802734375E-06	1.73508328771277E-06	404449.6875	9.78909520199522E-06
1	104	76.4614948069533	0.847320556640625	0.84808349609375	2.200927734375E-06	1.86657041467697E-06	385330.03125	1.00042152553215E-05
1	105	76.562202806699	0.857391357421875	0.85784912109375	2.30682373046875E-06	1.97890676645329E-06	371874.59375	1.02311987575376E-05
1	106	76.6629108064448	0.867462158203125	0.8673095703125	2.3828125E-06	2.06663594326528E-06	363985.65625	1.04673408714007E-05
1	107	76.7636188061905	0.877532958984375	0.8770751953125	2.42523193359375E-06	2.12711074709659E-06	361645.90625	1.07094447230338E-05
1	108	76.8643268059362	0.887603759765625	0.887451171875	2.44110107421875E-06	2.16635794458853E-06	363545.4375	1.09544844235643E-05
1	109	76.965034805682	0.897674560546875	0.8978271484375	2.43682861328125E-06	2.18785066863347E-06	368440.84375	1.12001071101986E-05
1	110	77.0657428054277	0.907745361328125	0.90789794921875	2.42340087890625E-06	2.20020069718885E-06	374637.9375	1.14448394015199E-05
1	111	77.1664508051734	0.917816162109375	0.91796875	2.40966796875E-06	2.2120000267023E-06	380952.375	1.16882038128097E-05
1	112	77.2671588049192	0.927886962890625	0.92803955078125	2.40234375E-06	2.22946982830763E-06	386305.90625	1.19305077532772E-05
1	113	77.3678668046649	0.937957763671875	0.9381103515625	2.4090576171875E-06	2.25996177505294E-06	389409.6875	1.21727807709249E-05
1	114	77.4685748044107	0.948028564453125	0.94757080078125	2.43316650390625E-06	2.3055974907038E-06	389439.375	1.24166062960285E-05
1	115	77.5692828041564	0.958099365234375	0.958251953125	2.48046875E-06	2.3769139261276E-06	386318.90625	1.26640279631829E-05
1	116	77.6699908039021	0.968170166015625	0.96832275390625	2.55096435546875E-06	2.47015691456909E-06	379590.84375	1.29173804452876E-05
1	117	77.7706988036479	0.978240966796875	0.9783935546875	2.64404296875E-06	2.58691466115124E-06	370036.9375	1.31789702209062E-05
1	118	77.8714068033936	0.988311767578125	0.9881591796875	2.75421142578125E-06	2.72159923042636E-06	358781.15625	1.34507936309092E-05
1	119	77.9721148031393	0.998382568359375	0.99884033203125	2.87078857421875E-06	2.86745921584952E-06	347932.40625	1.37340348373982E-05
1	120	78.0728228028851	1.00845336914063	1.00860595703125	2.9803466796875E-06	3.00599526781298E-06	338419	1.40286629175534E-05
1	121	78.1735308026308	1.01852416992188	1.01837158203125	3.06884765625E-06	3.12522706735763E-06	331841.71875	1.43332636071136E-05
1	122	78.2742388023765	1.02859497070313	1.029052734375	3.1268310546875E-06	3.21767402056139E-06	329104.0625	1.46452412081999E-05
1	123	78.3749468021223	1.03866577148438	1.03851318359375	3.15093994140625E-06	3.27229258800799E-06	329588.375	1.4961351553211E-05
1	124	78.475654801868	1.04873657226563	1.048583984375	3.14453125E-06	3.29730482917512E-06	333462.75	1.52783541125245E-05
1	125	78.5763628016138	1.05880737304688	1.05865478515625	3.115234375E-06	3.29795761899732E-06	339831.53125	1.5593557691318E-05
1	126	78.6770708013595	1.06887817382813	1.06903076171875	3.07098388671875E-06	3.28297619489604E-06	348106.9375	1.59050596266752E-05
1	127	78.7777788011052	1.07894897460938	1.0784912109375	3.02001953125E-06	3.25706446346885E-06	357114	1.62117648869753E-05
1	128	78.878486800851	1.08901977539063	1.0894775390625	2.967529296875E-06	3.23305653182615E-06	367132.875	1.6513262380613E-05
1	129	78.9791948005967	1.09909057617188	1.09893798828125	2.9180908203125E-06	3.20680078402802E-06	376594.84375	1.68096266861539E-05
1	130	79.0799028003424	1.10916137695313	1.10931396484375	2.87109375E-06	3.18494448947604E-06	386373.28125	1.71011361089768E-05
1	131	79.1806108000882	1.11923217773438	1.119384765625	2.82867431640625E-06	3.16637488140259E-06	395727.6875	1.73881417140365E-05
1	132	79.2813187998339	1.12930297851563	1.12945556640625	2.79052734375E-06	3.15177658194443E-06	404746.28125	1.76710909727262E-05
1	133	79.3820267995796	1.13937377929688	1.1395263671875	2.75604248046875E-06	3.14058297590236E-06	413464.71875	1.79503822437255E-05
1	134	79.4827347993254	1.14944458007813	1.14990234375	2.72552490234375E-06	3.1340873647423E-06	421901.25	1.82264011527877E-05
1	135	79.5834427990711	1.15951538085938	1.15966796875	2.6983642578125E-06	3.12920656142524E-06	429767.03125	1.84995169547619E-05
1	136	79.6841507988169	1.16958618164063	1.16973876953125	2.67578125E-06	3.12996485263284E-06	437157.875	1.8770126189338E-05
1	137	79.7848587985626	1.17965698242188	1.1798095703125	2.6556396484375E-06	3.13314899358375E-06	444265.71875	1.90385853784392E-05
1	138	79.8855667983083	1.18972778320313	1.18988037109375	2.637939453125E-06	3.13883219860145E-06	451064.34375	1.9305136447656E-05
1	139	79.9862747980541	1.19979858398438	1.199951171875	2.6220703125E-06	3.14635622089554E-06	457635.03125	1.95699994947063E-05
1	140	80.0869827977998	1.20986938476563	1.2091064453125	2.608642578125E-06	3.15412648888014E-06	463500.25	1.98333873413503E-05
1	141	80.1876907975455	1.21994018554688	1.21978759765625	2.59521484375E-06	3.16561067847942E-06	470014.125	2.00954218598781E-05
1	142	80.2883987972913	1.23001098632813	1.22955322265625	2.58331298828125E-06	3.17632066071383E-06	475959.875	2.0356181266834E-05
1	143	80.389106797037	1.24008178710938	1.23992919921875	2.57232666015625E-06	3.18950287692132E-06	482026.34375	2.06157892534975E-05
1	144	80.4898147967828	1.25015258789063	1.25	2.5634765625E-06	3.20434560308058E-06	487619.0625	2.0874396795989E-05
1	145	80.5905227965285	1.26022338867188	1.26007080078125	2.55645751953125E-06	3.22131745633669E-06	492897.21875	2.11322058021324E-05
1	146	80.6912307962742	1.27029418945313	1.26983642578125	2.5506591796875E-06	3.23891981679481E-06	497846.40625	2.13893708860269E-05
1	147	80.79193879602	1.28036499023438	1.2811279296875	2.545166015625E-06	3.26068311551353E-06	503357.34375	2.16459648072487E-05
1	148	80.8926467957657	1.29043579101563	1.28997802734375	2.5408935546875E-06	3.27769680552592E-06	507686.78125	2.19020694203209E-05
1	149	80.9933547955114	1.30050659179688	1.30126953125	2.53631591796875E-06	3.30043053509144E-06	513055	2.21577265619999E-05
1	150	81.0940627952572	1.31057739257813	1.31072998046875	2.53326416015625E-06	3.32042509398889E-06	517407.5625	2.24129998969147E-05
1	151	81.1947707950029	1.32064819335938	1.32049560546875	2.53082275390625E-06	3.3419403280277E-06	521765.34375	2.26679967454402E-05
1	152	81.2954787947486	1.33071899414063	1.33056640625	2.529296875E-06	3.3653973332548E-06	526061.8125	2.29227935051313E-05
1	153	81.3961867944944	1.34078979492188	1.34063720703125	2.529296875E-06	3.39086932399368E-06	530043.4375	2.31775138672674E-05
1	154	81.4968947942401	1.35086059570313	1.35101318359375	2.5311279296875E-06	3.41958707394951E-06	533759.375	2.34323269978631E-05
1	155	81.5976027939859	1.36093139648438	1.36077880859375	2.53387451171875E-06	3.44804266205756E-06	537034.8125	2.36873711401131E-05
1	156	81.6983107937316	1.37100219726563	1.370849609375	2.53753662109375E-06	3.47858099303266E-06	540228.5	2.39427354244981E-05
1	157	81.7990187934773	1.38107299804688	1.38092041015625	2.54180908203125E-06	3.51003586729348E-06	543282.5625	2.41985017055413E-05
1	158	81.8997267932231	1.39114379882813	1.39129638671875	2.54638671875E-06	3.54277858605201E-06	546380.625	2.44547118199989E-05
1	159	82.0004347929688	1.40121459960938	1.4013671875	2.55126953125E-06	3.57526528205199E-06	549282.3125	2.47114003286697E-05
1	160	82.1011427927145	1.41128540039063	1.4111328125	2.55706787109375E-06	3.60836224899685E-06	551855.875	2.49686254392145E-05
1	161	82.2018507924603	1.42135620117188	1.4215087890625	2.5640869140625E-06	3.64487186743645E-06	554391.8125	2.52264962909976E-05
1	162	82.302558792206	1.43142700195313	1.43157958984375	2.57110595703125E-06	3.68074256584805E-06	556795.25	2.54850729106693E-05
1	163	82.4032667919518	1.44149780273438	1.44195556640625	2.578125E-06	3.71754140360281E-06	559304	2.57443571172189E-05
1	164	82.5039747916975	1.45156860351563	1.45172119140625	2.58514404296875E-06	3.75290824194963E-06	561563	2.60043489106465E-05
1	165	82.6046827914432	1.46163940429688	1.46209716796875	2.59185791015625E-06	3.78954791813157E-06	564111.625	2.62650319200475E-05
1	166	82.705390791189	1.47171020507813	1.47186279296875	2.59857177734375E-06	3.82474081561668E-06	566412.25	2.65263897745172E-05
1	167	82.8060987909347	1.48178100585938	1.48193359375	2.60528564453125E-06	3.86086003345554E-06	568818.125	2.67884261120344E-05
1	168	82.9068067906804	1.49185180664063	1.49169921875	2.6141357421875E-06	3.89950400858652E-06	570628.0625	2.70512446149951E-05
1	169	83.0075147904262	1.50192260742188	1.5020751953125	2.6251220703125E-06	3.94313065044116E-06	572192.5	2.73150617431384E-05
1	170	83.1082227901719	1.49185180664063	1.49169921875	2.47467041015625E-06	3.69146368939255E-06	602787.0625	2.75718575721839E-05
1	171	83.2089307899176	1.48178100585938	1.48162841796875	2.3663330078125E-06	3.50602590515336E-06	626128.5	2.78156203421531E-05
1	172	83.3096387896634	1.47171020507813	1.47186279296875	2.2802734375E-06	3.3562494081707E-06	645476.5	2.80495951301418E-05
1	173	83.4103467894091	1.46163940429688	1.46148681640625	2.2076416015625E-06	3.22643904837605E-06	662012.75	2.82755809166702E-05
1	174	83.5110547891549	1.45156860351563	1.4520263671875	2.14508056640625E-06	3.11471353597881E-06	676909.9375	2.8494758225861E-05
1	175	83.6117627889006	1.44149780273438	1.441650390625	2.09014892578125E-06	3.01326394946955E-06	689735.75	2.87080183625221E-05
1	176	83.7124707886463	1.43142700195313	1.43157958984375	2.041015625E-06	2.921876102846E-06	701405.5625	2.89160379907116E-05
1	177	83.8131787883921	1.42135620117188	1.4208984375	1.99798583984375E-06	2.83893473351782E-06	711165.5	2.91194191959221E-05
1	178	83.9138867881378	1.41128540039063	1.41143798828125	1.959228515625E-06	2.76532955467701E-06	720405	2.93186803901335E-05
1	179	84.0145947878835	1.40121459960938	1.4007568359375	1.92474365234375E-06	2.69609790848335E-06	727762.8125	2.9514254492824E-05
1	180	84.1153027876293	1.39114379882813	1.39129638671875	1.89361572265625E-06	2.63458059635013E-06	734730.0625	2.97065234917682E-05
1	181	84.216010787375	1.38107299804688	1.3812255859375	1.86431884765625E-06	2.5750448457984E-06	740874.125	2.98957511404296E-05
1	182	84.3167187871207	1.37100219726563	1.370849609375	1.83685302734375E-06	2.51804931394872E-06	746303.375	3.00821193377487E-05
1	183	84.4174267868665	1.36093139648438	1.361083984375	1.810302734375E-06	2.46397394221276E-06	751854.375	3.02657681459095E-05
1	184	84.5181347866122	1.35086059570313	1.35101318359375	1.78497314453125E-06	2.41152201851946E-06	756881.5625	3.04468048852868E-05
1	185	84.618842786358	1.34078979492188	1.3409423828125	1.7620849609375E-06	2.36285427490657E-06	760997.5625	3.0625411454821E-05
1	186	84.7195507861037	1.33071899414063	1.33087158203125	1.7401123046875E-06	2.3158659132605E-06	764819.375	3.08017624774948E-05
1	187	84.8202587858494	1.32064819335938	1.32049560546875	1.71966552734375E-06	2.27081068260304E-06	767879.3125	3.09759780066088E-05
1	188	84.9209667855952	1.31057739257813	1.3104248046875	1.6998291015625E-06	2.22749827116786E-06	770915.625	3.11481599055696E-05
1	189	85.0216747853409	1.30050659179688	1.3006591796875	1.680908203125E-06	2.18628861148318E-06	773783.5625	3.13183954858687E-05
1	190	85.1223827850866	1.29043579101563	1.29058837890625	1.6619873046875E-06	2.14494161809853E-06	776533.25	3.14867247652728E-05
1	191	85.2230907848324	1.28036499023438	1.28021240234375	1.64276123046875E-06	2.10308326131781E-06	779305.25	3.1653129553888E-05
1	192	85.3237987845781	1.27029418945313	1.27044677734375	1.6241455078125E-06	2.06339041142201E-06	782224.75	3.18176316795871E-05
1	193	85.4245067843239	1.26022338867188	1.26007080078125	1.6058349609375E-06	2.02346564037725E-06	784682.6875	3.19802747981157E-05
1	194	85.5252147840696	1.25015258789063	1.25	1.5887451171875E-06	1.98593124878244E-06	786784.5	3.21411353070289E-05
1	195	85.6259227838153	1.24008178710938	1.240234375	1.5728759765625E-06	1.95073471331852E-06	788513.8125	3.2300336897606E-05
1	196	85.7266307835611	1.23001098632813	1.2298583984375	1.5570068359375E-06	1.91489789358457E-06	789886.3125	3.24579377775081E-05
1	197	85.8273387833068	1.21994018554688	1.219482421875	1.541748046875E-06	1.88013461865921E-06	790973.875	3.26139706885442E-05
1	198	85.9280467830525	1.20986938476563	1.209716796875	1.52740478515625E-06	1.84772716238513E-06	792008	3.27685156662483E-05
1	199	86.0287547827983	1.19979858398438	1.1993408203125	1.51214599609375E-06	1.8135784785045E-06	793138.25	3.29215690726414E-05
1	200	86.129462782544	1.18972778320313	1.190185546875	1.49749755859375E-06	1.78229981884215E-06	794783	3.30731163558085E-05
1	201	86.2301707822897	1.17965698242188	1.17950439453125	1.48345947265625E-06	1.74974684341578E-06	795103.9375	3.32232193613891E-05
1	202	86.3308787820355	1.16958618164063	1.16943359375	1.46942138671875E-06	1.7183906493301E-06	795846.3125	3.33719108311925E-05
1	203	86.4315867817812	1.15951538085938	1.15936279296875	1.456298828125E-06	1.68837868841365E-06	796102.25	3.35192307829857E-05
1	204	86.532294781527	1.14944458007813	1.14959716796875	1.44378662109375E-06	1.65977291999297E-06	796237.625	3.36652628902812E-05
1	205	86.6330027812727	1.13937377929688	1.1395263671875	1.42974853515625E-06	1.6292361806336E-06	797011.75	3.38099562213756E-05
1	206	86.7337107810184	1.12930297851563	1.129150390625	1.4141845703125E-06	1.59682701905695E-06	798446.25	3.39531579811592E-05
1	207	86.8344187807642	1.11923217773438	1.119384765625	1.39678955078125E-06	1.56354496994027E-06	801398.3125	3.40947044605855E-05
1	208	86.9351267805099	1.10916137695313	1.10931396484375	1.37542724609375E-06	1.52578070355958E-06	806523.1875	3.42342973453924E-05
1	209	87.0358347802556	1.09909057617188	1.09893798828125	1.34918212890625E-06	1.48266747146408E-06	814521.625	3.43714891641866E-05
1	210	87.1365427800014	1.08901977539063	1.08917236328125	1.317138671875E-06	1.43459101309418E-06	826923.125	3.45057524100412E-05
1	211	87.2372507797471	1.07894897460938	1.0791015625	1.27532958984375E-06	1.37621009344002E-06	846135.5	3.46362903655972E-05
1	212	87.3379587794929	1.06887817382813	1.06842041015625	1.22222900390625E-06	1.30585442548181E-06	874157.3125	3.47620552929584E-05
1	213	87.4386667792386	1.05880737304688	1.058349609375	1.153564453125E-06	1.22087442377961E-06	917460.3125	3.4881682950072E-05
1	214	87.5393747789843	1.04873657226563	1.048583984375	1.06475830078125E-06	1.11648853362567E-06	984809.4375	3.49933870893437E-05
1	215	87.6400827787301	1.03866577148438	1.0382080078125	9.539794921875E-07	9.90429157354811E-07	1088291.75	3.50950358551927E-05
1	216	87.7407907784758	1.02859497070313	1.0284423828125	8.20312500000001E-07	8.43644158976531E-07	1253720.25	3.51843809767161E-05
1	217	87.8414987782215	1.01852416992188	1.01806640625	6.69250488281251E-07	6.8134141884002E-07	1521203.875	3.52593851857819E-05
1	218	87.9422067779673	1.00845336914063	1.00830078125	5.11474609375E-07	5.15720216753834E-07	1971360.5	3.53188406734262E-05
1	219	88.042914777713	0.998382568359375	0.9979248046875	3.60717773437499E-07	3.59969192231802E-07	2766497.5	3.53627583535854E-05
1	220	88.1436227774587	0.988311767578125	0.98846435546875	2.31018066406249E-07	2.28353115971913E-07	4278732	3.53925534000155E-05
1	221	88.2443307772045	0.978240966796875	0.97808837890625	1.33056640625E-07	1.30141145859852E-07	7350918	3.54108888132032E-05
1	222	88.3450387769502	0.968170166015625	0.96832275390625	6.98852539062503E-08	6.76714790870392E-08	13855895	3.54211042576935E-05
1	223	88.445746776696	0.958099365234375	0.95855712890625	3.96728515625E-08	3.80286948598041E-08	24161538	3.54266230715439E-05
1	224	88.5464547764417	0.948028564453125	0.9478759765625	3.509521484375E-08	3.32659126911494E-08	27008696	3.54303883796092E-05
1	225	88.6471627761874	0.937957763671875	0.9381103515625	4.82177734375006E-08	4.52335910949841E-08	19455698	3.54345829691738E-05
1	226	88.7478707759332	0.927886962890625	0.92742919921875	6.80541992187506E-08	6.3115450643636E-08	13627803	3.54404364770744E-05
1	227	88.8485787756789	0.917816162109375	0.91796875	8.30078124999995E-08	7.61985745612037E-08	11058824	3.544804349076E-05
1	228	88.9492867754246	0.907745361328125	0.90789794921875	8.48388671875006E-08	7.70250352388757E-08	10701439	3.54564945155289E-05
1	229	89.0499947751704	0.897674560546875	0.8978271484375	6.68334960937503E-08	6.00049219201537E-08	13433790	3.54641342710238E-05
1	230	89.1507027749161	0.887603759765625	0.887451171875	2.62451171874997E-08	2.32912586994871E-08	33813956	3.54688199877273E-05
1	231	89.2514107746618	0.877532958984375	0.877685546875	-4.15039062499997E-08	-3.64273802233583E-08	-21147058	3.5468052374199E-05
1	232	89.3521187744076	0.867462158203125	0.86761474609375	-1.361083984375E-07	-1.18089651834907E-07	-6374439.5	3.54591065843124E-05
1	233	89.4528267741533	0.857391357421875	0.8575439453125	-2.532958984375E-07	-2.17212360098529E-07	-3385542.25	3.5439501516521E-05
1	234	89.5535347738991	0.847320556640625	0.84808349609375	-3.8330078125E-07	-3.25071056295201E-07	-2212579.75	3.54074436472729E-05
1	235	89.6542427736448	0.837249755859375	0.83709716796875	-5.13916015625E-07	-4.30197644618602E-07	-1628859.875	3.53622672264464E-05
1	236	89.7549507733905	0.827178955078125	0.82794189453125	-6.28662109375E-07	-5.2049568921575E-07	-1316990.25	3.53047325916123E-05
1	237	89.8556587731363	0.817108154296875	0.81695556640625	-7.15026855468751E-07	-5.84145141147019E-07	-1142552.375	3.5237073461758E-05
1	238	89.956366772882	0.807037353515625	0.80718994140625	-7.68432617187501E-07	-6.20271066509304E-07	-1050436.875	3.5162374842912E-05
1	239	90.0570747726277	0.796966552734375	0.79742431640625	-7.88269042968751E-07	-6.28584871265048E-07	-1011614.4375	3.50839873135556E-05
1	240	90.1577827723735	0.786895751953125	0.7867431640625	-7.81860351562499E-07	-6.1512326965385E-07	-1006245.1875	3.50049267581198E-05
1	241	90.2584907721192	0.776824951171875	0.7769775390625	-7.57751464843751E-07	-5.88755824537657E-07	-1025372.5625	3.49274014297407E-05
1	242	90.359198771865	0.766754150390625	0.76690673828125	-7.2174072265625E-07	-5.53507845779677E-07	-1062579.25	3.48529028997291E-05
1	243	90.4599067716107	0.756683349609375	0.75653076171875	-6.82373046875E-07	-5.16236184466834E-07	-1108676.25	3.47821987816133E-05
1	244	90.5606147713564	0.746612548828125	0.74652099609375	-6.4239501953125E-07	-4.7956132220861E-07	-1162090.375	3.47154928022064E-05
1	245	90.6613227711022	0.736541748046875	0.736480712890625	-6.060791015625E-07	-4.46365561401763E-07	-1215156.125	3.46526285284199E-05
1	246	90.7620307708479	0.726470947265625	0.726409912109375	-5.7525634765625E-07	-4.17871888203081E-07	-1262758.75	3.45931402989663E-05
1	247	90.8627387705936	0.716400146484375	0.716339111328125	-5.523681640625E-07	-3.95682889120508E-07	-1296850.875	3.4536362363724E-05
1	248	90.9634467703394	0.706329345703125	0.706268310546875	-5.38330078125E-07	-3.80205477767959E-07	-1311961.375	3.44814397976734E-05
1	249	91.0641547700851	0.696258544921875	0.69622802734375	-5.322265625E-07	-3.70551020978382E-07	-1308142.25	3.44275322277099E-05
1	250	91.1648627698308	0.686187744140625	0.686126708984375	-5.322265625E-07	-3.65174827265946E-07	-1289163	3.4373933885945E-05
1	251	91.2655707695766	0.676116943359375	0.676055908203125	-5.3558349609375E-07	-3.62084364269322E-07	-1262279.25	3.43201645591762E-05
1	252	91.3662787693223	0.666046142578125	0.665985107421875	-5.38330078125E-07	-3.58519827159398E-07	-1237131.5	3.42660896421876E-05
1	253	91.4669867690681	0.655975341796875	0.655975341796875	-5.37719726562499E-07	-3.52730864960904E-07	-1219920.625	3.42119055858348E-05
1	254	91.5676947688138	0.645904541015625	0.6458740234375	-5.30090332031249E-07	-3.42371578199163E-07	-1218422.5	3.41581362590659E-05
1	255	91.6684027685595	0.635833740234375	0.635772705078125	-5.1727294921875E-07	-3.28868026144846E-07	-1229085.5	3.41054001182783E-05
1	256	91.7691107683053	0.625762939453125	0.625732421875	-4.99572753906249E-07	-3.12598871232694E-07	-1252535.125	3.40541955665685E-05
1	257	91.869818768051	0.615692138671875	0.615631103515625	-4.78515625000001E-07	-2.94589113991606E-07	-1286543.375	3.40049446094781E-05
1	258	91.9705267677967	0.605621337890625	0.6055908203125	-4.559326171875E-07	-2.76108579555512E-07	-1328246.375	3.39578909915872E-05
1	259	92.0712347675425	0.595550537109375	0.595489501953125	-4.32739257812501E-07	-2.57691681326833E-07	-1376093.125	3.391314385226E-05
1	260	92.1719427672882	0.585479736328125	0.585357666015625	-4.1015625E-07	-2.40088098735214E-07	-1427157.75	3.38707031914964E-05
1	261	92.272650767034	0.575408935546875	0.57537841796875	-3.875732421875E-07	-2.23001279664459E-07	-1484567	3.38305326295085E-05
1	262	92.3733587667797	0.565338134765625	0.56536865234375	-3.662109375E-07	-2.07044180910998E-07	-1543833.375	3.37925775966141E-05
1	263	92.4740667665254	0.555267333984375	0.55523681640625	-3.47290039062501E-07	-1.92828210288098E-07	-1598769.75	3.37566489179153E-05
1	264	92.5747747662712	0.545196533203125	0.545166015625	-3.30200195312499E-07	-1.80013913109178E-07	-1651016.75	3.37225355906412E-05
1	265	92.6754827660169	0.535125732421875	0.53515625	-3.15246582031251E-07	-1.6870617969289E-07	-1697579.875	3.36900338879786E-05
1	266	92.7761907657626	0.525054931640625	0.525054931640625	-3.0181884765625E-07	-1.58471465283583E-07	-1739636.125	3.36589619109873E-05
1	267	92.8768987655084	0.514984130859375	0.514984130859375	-2.89306640625001E-07	-1.48988320347598E-07	-1780063.375	3.36291959683876E-05
1	268	92.9776067652541	0.504913330078125	0.50482177734375	-2.7801513671875E-07	-1.40348092259046E-07	-1815806.75	3.36006305587944E-05
1	269	93.0783147649998	0.494842529296875	0.494842529296875	-2.67333984375E-07	-1.32288221266208E-07	-1851027.5	3.35731674567796E-05
1	270	93.1790227647456	0.484771728515625	0.484710693359375	-2.5909423828125E-07	-1.25585742694057E-07	-1870789.125	3.35466611431912E-05
1	271	93.2797307644913	0.474700927734375	0.474700927734375	-2.5054931640625E-07	-1.18935986392898E-07	-1894640.75	3.35209988406859E-05
1	272	93.3804387642371	0.464630126953125	0.464630126953125	-2.43530273437501E-07	-1.13151507719067E-07	-1907894.625	3.34961187036242E-05
1	273	93.4811467639828	0.454559326171875	0.454620361328125	-2.38647460937499E-07	-1.08493992456715E-07	-1904987.25	3.34718388330657E-05
1	274	93.5818547637285	0.444488525390625	0.444549560546875	-2.3468017578125E-07	-1.04326964844859E-07	-1894278.375	3.34480064339004E-05
1	275	93.6825627634743	0.434417724609375	0.4344482421875	-2.3162841796875E-07	-1.00630551003178E-07	-1875625.875	3.34245269186795E-05
1	276	93.78327076322	0.424346923828125	0.42431640625	-2.288818359375E-07	-9.71183169440337E-08	-1853866.75	3.34013384417631E-05
1	277	93.8839787629657	0.414276123046875	0.414276123046875	-2.26440429687499E-07	-9.38088575708207E-08	-1829514.875	3.3378408261342E-05
1	278	93.9846867627115	0.404205322265625	0.4041748046875	-2.227783203125E-07	-9.00413823501367E-08	-1814246.625	3.33557909470983E-05
1	279	94.0853947624572	0.394134521484375	0.3941650390625	-2.1942138671875E-07	-8.64882352402674E-08	-1796383.875	3.33335228788201E-05
1	280	94.1861027622029	0.384063720703125	0.384063720703125	-2.16064453125001E-07	-8.29825168580101E-08	-1777542.375	3.33115967805497E-05
1	281	94.2868107619487	0.373992919921875	0.37396240234375	-2.1240234375E-07	-7.94304924056632E-08	-1760632.25	3.32900199282449E-05
1	282	94.3875187616944	0.363922119140625	0.36395263671875	-2.0782470703125E-07	-7.56383471411937E-08	-1751248.25	3.32688614435028E-05
1	283	94.4882267614402	0.353851318359375	0.353912353515625	-2.0294189453125E-07	-7.18236421448637E-08	-1743909.75	3.32481758960057E-05
1	284	94.5889347611859	0.343780517578125	0.343780517578125	-1.97753906250001E-07	-6.79839402550897E-08	-1738425.875	3.32279996655416E-05
1	285	94.6896427609316	0.333709716796875	0.333740234375	-1.9195556640625E-07	-6.40632933368579E-08	-1738632.75	3.32083764078561E-05
1	286	94.7903507606774	0.323638916015625	0.32373046875	-1.849365234375E-07	-5.98695848452735E-08	-1750495	3.31893970724195E-05
1	287	94.8910587604231	0.313568115234375	0.313690185546875	-1.79138183593749E-07	-5.61938904297676E-08	-1751107.375	3.31710652972106E-05
1	288	94.9917667601688	0.303497314453125	0.303497314453125	-1.7242431640625E-07	-5.23303143040721E-08	-1760177.125	3.31533628923353E-05
1	289	95.0924747599146	0.293426513671875	0.293426513671875	-1.6754150390625E-07	-4.91611196196118E-08	-1751366.125	3.31362425640691E-05
1	290	95.1931827596603	0.283355712890625	0.283355712890625	-1.6326904296875E-07	-4.62632137043784E-08	-1735514.125	3.31195878970902E-05
1	291	95.2938907594061	0.273284912109375	0.2733154296875	-1.6021728515625E-07	-4.37898570737616E-08	-1705904.75	3.31032970279921E-05
1	292	95.3945987591518	0.263214111328125	0.26318359375	-1.5716552734375E-07	-4.13633891582776E-08	-1674563.125	3.30873153870925E-05
1	293	95.4953067588975	0.253143310546875	0.253143310546875	-1.544189453125E-07	-3.90901213620509E-08	-1639328.125	3.30716284224764E-05
1	294	95.5960147586433	0.243072509765625	0.2430419921875	-1.51672363281249E-07	-3.68627510738406E-08	-1602414.625	3.30562143062707E-05
1	295	95.696722758389	0.233001708984375	0.233001708984375	-1.4984130859375E-07	-3.49132776022998E-08	-1554989.875	3.30410330207087E-05
1	296	95.7974307581347	0.222930908203125	0.222930908203125	-1.483154296875E-07	-3.30640901324841E-08	-1503086.5	3.30260190821718E-05
1	297	95.8981387578805	0.212860107421875	0.212860107421875	-1.47399902343751E-07	-3.13755599279375E-08	-1444099.375	3.30111288349144E-05
1	298	95.9988467576262	0.202789306640625	0.202789306640625	-1.4801025390625E-07	-3.00148954579527E-08	-1370103.125	3.29962531395722E-05
1	299	96.0995547573719	0.192718505859375	0.19268798828125	-1.495361328125E-07	-2.88138171100627E-08	-1288571.375	3.29812683048658E-05
1	300	96.2002627571177	0.182647705078125	0.182647705078125	-1.51672363281249E-07	-2.77026064310348E-08	-1204225.375	3.2966101571219E-05
1	301	96.3009707568634	0.172576904296875	0.17254638671875	-1.55029296875001E-07	-2.67497455297416E-08	-1112992.125	3.29506583511829E-05
1	302	96.4016787566092	0.162506103515625	0.162567138671875	-1.5899658203125E-07	-2.58476191561385E-08	-1022456.8125	3.29348476952873E-05
1	303	96.5023867563549	0.152435302734375	0.1524658203125	-1.629638671875E-07	-2.48464182561747E-08	-935580.5625	3.29186332237441E-05
1	304	96.6030947561006	0.142364501953125	0.142425537109375	-1.7059326171875E-07	-2.42968365427032E-08	-834883.75	3.29018403135706E-05
1	305	96.7038027558464	0.132293701171875	0.13238525390625	-1.8157958984375E-07	-2.40384583349851E-08	-729075.6875	3.2884105166886E-05
1	306	96.8045107555921	0.122222900390625	0.12225341796875	-1.97753906250001E-07	-2.41760904629018E-08	-618209.875	3.28650057781488E-05
1	307	96.9052187553378	0.112152099609375	0.112213134765625	-2.20947265625E-07	-2.47931843944116E-08	-507872.9375	3.28439200529829E-05
1	308	97.0059267550836	0.102081298828125	0.102142333984375	-2.532958984375E-07	-2.58722341328621E-08	-403253.03125	3.28200403600931E-05
1	309	97.1066347548293	0.092010498046875	0.092041015625	-2.978515625E-07	-2.74145595113851E-08	-309016.40625	3.27922898577526E-05
1	310	97.2073427545751	0.081939697265625	0.082000732421875	-3.59191894531249E-07	-2.94539983514142E-08	-228292.265625	3.27592024405021E-05
1	311	97.3080507543208	0.071868896484375	0.07196044921875	-4.425048828125E-07	-3.18428483581101E-08	-162620.6875	3.27188354276586E-05
1	312	97.4087587540665	0.061798095703125	0.0618896484375	-5.523681640625E-07	-3.41858701347064E-08	-112044.203125	3.2668740459485E-05
1	313	97.5094667538123	0.051727294921875	0.051849365234375	-6.93664550781251E-07	-3.59660674575935E-08	-74747.03125	3.26059962389991E-05
1	314	97.610174753558	0.041656494140625	0.041748046875	-8.6669921875E-07	-3.61829997075347E-08	-48169.015625	3.25274268107023E-05
1	315	97.7108827533037	0.031585693359375	0.0317047119140625	-1.06719970703125E-06	-3.3835259927173E-08	-29708.322265625	3.24300453939941E-05
1	316	97.8115907530495	0.021514892578125	0.02164306640625	-1.279296875E-06	-2.76879070781888E-08	-16917.939453125	3.23118911182974E-05
1	317	97.9122987527952	0.011444091796875	0.011566162109375	-1.48712158203125E-06	-1.72002874165855E-08	-7777.55029296875	3.2172589271795E-05
1	318	98.0130067525409	0.001373291015625	0.00150451660156251	-1.66595458984375E-06	-2.50645615373912E-09	-903.095825195313	3.20138206006959E-05
1	319	98.1137147522867	-0.008697509765625	-0.00856933593750001	-1.8011474609375E-06	1.54346366798563E-08	4757.708984375	3.18392376357224E-05
1	320	98.2144227520324	-0.018768310546875	-0.0186614990234375	-1.8841552734375E-06	3.51611610938107E-08	9904.4384765625	3.16536679747514E-05
1	321	98.3151307517782	-0.028839111328125	-0.02867431640625	-1.91741943359375E-06	5.49806919991624E-08	14954.638671875	3.14622448058799E-05
1	322	98.4158387515239	-0.038909912109375	-0.038751220703125	-1.91070556640625E-06	7.40421768341548E-08	20281.10546875	3.12694828608073E-05
1	323	98.5165467512696	-0.048980712890625	-0.0488372802734375	-1.8780517578125E-06	9.17189453275569E-08	26004.2265625	3.10787036141846E-05
1	324	98.6172547510154	-0.059051513671875	-0.0589599609375	-1.829833984375E-06	1.07886940270419E-07	32221.48046875	3.08919952658471E-05
1	325	98.7179627507611	-0.069122314453125	-0.06903076171875	-1.77459716796875E-06	1.22501788268892E-07	38899.3984375	3.07105001411401E-05
1	326	98.8186707505068	-0.079193115234375	-0.079132080078125	-1.719970703125E-06	1.36104858938779E-07	46007.80859375	3.05345347442199E-05
1	327	98.9193787502526	-0.089263916015625	-0.08917236328125	-1.66717529296875E-06	1.48665961319239E-07	53487.09375	3.03639772027964E-05
1	328	99.0200867499983	-0.099334716796875	-0.099212646484375	-1.61956787109375E-06	1.60681608463165E-07	61258.71875	3.01984764519148E-05
1	329	99.1207947497441	-0.109405517578125	-0.1092529296875	-1.57806396484375E-06	1.724081073462E-07	69232.2578125	3.00374631478917E-05
1	330	99.2215027494898	-0.119476318359375	-0.119384765625	-1.5435791015625E-06	1.84279826953571E-07	77342.828125	2.98802751785843E-05
1	331	99.3222107492355	-0.129547119140625	-0.129425048828125	-1.51580810546875E-06	1.96183535194905E-07	85383.53125	2.97262231470086E-05
1	332	99.4229187489813	-0.139617919921875	-0.13958740234375	-1.4935302734375E-06	2.08478013519198E-07	93461.3828125	2.95746922347462E-05
1	333	99.523626748727	-0.149688720703125	-0.1495361328125	-1.47674560546875E-06	2.20826819941067E-07	101260.59375	2.94251258310396E-05
1	334	99.6243347484727	-0.159759521484375	-0.15960693359375	-1.4642333984375E-06	2.33701797469621E-07	109003.75	2.92770364467287E-05
1	335	99.7250427482185	-0.169830322265625	-0.169647216796875	-1.45538330078125E-06	2.46901720402093E-07	116565.3203125	2.91300220851554E-05
1	336	99.8257507479642	-0.179901123046875	-0.179718017578125	-1.451416015625E-06	2.60845610000615E-07	123822.5390625	2.89836534648202E-05
1	337	99.9264587477099	-0.189971923828125	-0.1898193359375	-1.45233154296875E-06	2.75680605454909E-07	130699.7265625	2.8837437639595E-05
1	338	100.027166747456	-0.200042724609375	-0.199920654296875	-1.45751953125E-06	2.91388261075554E-07	137165	2.86909144051606E-05
1	339	100.127874747201	-0.189971923828125	-0.189788818359375	-1.27227783203125E-06	2.41464107375577E-07	149172.46875	2.85534588329028E-05
2	340	100.228582746947	-0.179901123046875	-0.17974853515625	-1.1431884765625E-06	2.05486443860536E-07	157234.390625	2.84318302874453E-05
2	341	100.329290746693	-0.169830322265625	-0.169647216796875	-1.04034423828125E-06	1.76491496972631E-07	163068.359375	2.8321881472948E-05
2	342	100.429998746439	-0.159759521484375	-0.15966796875	-9.539794921875E-07	1.52319955759594E-07	167370.453125	2.8221458705957E-05
2	343	100.530706746184	-0.149688720703125	-0.14959716796875	-8.78295898437501E-07	1.31390578417268E-07	170326.625	2.81291959254304E-05
2	344	100.63141474593	-0.139617919921875	-0.139495849609375	-8.11157226562501E-07	1.13153056702231E-07	171971.421875	2.80441254290054E-05
2	345	100.732122745676	-0.129547119140625	-0.129425048828125	-7.50732421875E-07	9.71635785163016E-08	172398.375	2.79654777841642E-05
2	346	100.832830745422	-0.119476318359375	-0.119354248046875	-6.94885253906249E-07	8.29375039756997E-08	171761.09375	2.78926854662132E-05
2	347	100.933538745167	-0.109405517578125	-0.10931396484375	-6.41784667968751E-07	7.01560267657442E-08	170328.109375	2.78253792203031E-05
2	348	101.034246744913	-0.099334716796875	-0.099273681640625	-5.89599609374999E-07	5.85317252443929E-08	168374.734375	2.77633735095151E-05
2	349	101.134954744659	-0.089263916015625	-0.089202880859375	-5.34667968749999E-07	4.76939199245408E-08	166837.90625	2.77067629212979E-05
2	350	101.235662744405	-0.079193115234375	-0.079193115234375	-4.7576904296875E-07	3.76776334576334E-08	166452.859375	2.76558821497019E-05
2	351	101.33637074415	-0.069122314453125	-0.06903076171875	-4.0771484375E-07	2.81448642169835E-08	169311.390625	2.76113951258594E-05
2	352	101.437078743896	-0.059051513671875	-0.05902099609375	-3.265380859375E-07	1.92726030689983E-08	180747.671875	2.75744223472429E-05
2	353	101.537786743642	-0.048980712890625	-0.048809814453125	-2.288818359375E-07	1.11716795814232E-08	213253.34375	2.75464553851634E-05
2	354	101.638494743387	-0.038909912109375	-0.0387542724609375	-1.0833740234375E-07	4.19853751765231E-09	357718.3125	2.75294751190813E-05
2	355	101.739202743133	-0.028839111328125	-0.0286834716796875	4.08935546875003E-08	-1.17296916624099E-09	-701417.9375	2.75260790658649E-05
2	356	101.839910742879	-0.018768310546875	-0.0186279296875	2.19116210937501E-07	-4.08168121524E-09	-85013.9375	2.75391721515916E-05
2	357	101.940618742625	-0.008697509765625	-0.008575439453125	4.25109863281251E-07	-3.64550367670802E-09	-20172.291015625	2.75716101896251E-05
2	358	102.04132674237	0.001373291015625	0.00150451660156251	6.4849853515625E-07	9.75676761605371E-10	2320	2.76256723736878E-05
2	359	102.142034742116	0.011444091796875	0.0115264892578125	8.7432861328125E-07	1.00779393719108E-08	13183.2470703125	2.77023518719943E-05
2	360	102.242742741862	0.021514892578125	0.0216339111328125	1.08001708984375E-06	2.33649952718906E-08	20031.08203125	2.78007610177156E-05
2	361	102.343450741608	0.031585693359375	0.0316802978515625	1.24542236328125E-06	3.94553509863727E-08	25437.392578125	2.79178566415794E-05
2	362	102.444158741353	0.041656494140625	0.0417694091796875	1.358642578125E-06	5.67496947212476E-08	30743.486328125	2.80489821307128E-05
2	363	102.544866741099	0.051727294921875	0.05181884765625	1.416015625E-06	7.33762988147646E-08	36594.828125	2.81886968878098E-05
2	364	102.645574740845	0.061798095703125	0.06182861328125	1.4263916015625E-06	8.81918111872437E-08	43346.171875	2.83318222500384E-05
2	365	102.746282740591	0.071868896484375	0.0718994140625	1.40289306640625E-06	1.00867190155896E-07	51250.81640625	2.84742891381029E-05
2	366	102.846990740336	0.081939697265625	0.08197021484375	1.35955810546875E-06	1.11443263506317E-07	60291.80859375	2.86133890767815E-05
2	367	102.947698740082	0.092010498046875	0.092071533203125	1.30584716796875E-06	1.20231348432753E-07	70507.125	2.87476032099221E-05
2	368	103.048406739828	0.102081298828125	0.102142333984375	1.24969482421875E-06	1.27646742953402E-07	81733.8203125	2.88762839772971E-05
2	369	103.149114739574	0.112152099609375	0.112213134765625	1.1944580078125E-06	1.34033868448569E-07	93944.8203125	2.8999356800341E-05
2	370	103.249822739319	0.122222900390625	0.122314453125	1.143798828125E-06	1.39903136187058E-07	106937.03125	2.91170981654432E-05
2	371	103.350530739065	0.132293701171875	0.13232421875	1.09710693359375E-06	1.45173814303234E-07	120611.96875	2.92299373541027E-05
2	372	103.451238738811	0.142364501953125	0.14239501953125	1.055908203125E-06	1.50356072481372E-07	134855.484375	2.93383491225541E-05
2	373	103.551946738556	0.152435302734375	0.15240478515625	1.02081298828125E-06	1.5557678523237E-07	149297.453125	2.94429210043745E-05
2	374	103.652654738302	0.162506103515625	0.16259765625	9.9029541015625E-07	1.61019698907694E-07	164191.078125	2.95441877824487E-05
2	375	103.753362738048	0.172576904296875	0.172607421875	9.6435546875E-07	1.66454896088908E-07	178987.34375	2.96426132990746E-05
2	376	103.854070737794	0.182647705078125	0.18267822265625	9.41162109375E-07	1.71929826819905E-07	194098.578125	2.97385631711222E-05
2	377	103.954778737539	0.192718505859375	0.19268798828125	9.20715332031249E-07	1.77410782953302E-07	209280.75	2.98323157039704E-05
2	378	104.055486737285	0.202789306640625	0.202850341796875	9.0179443359375E-07	1.82929298375711E-07	224940.78125	2.99240873573581E-05
2	379	104.156194737031	0.212860107421875	0.212921142578125	8.85620117187499E-07	1.88567241821147E-07	240420.40625	3.00140909530455E-05
2	380	104.256902736777	0.222930908203125	0.2230224609375	8.70361328124999E-07	1.94110114648538E-07	256241.234375	3.01025102089625E-05
2	381	104.357610736522	0.233001708984375	0.233001708984375	8.5784912109375E-07	1.99880304307953E-07	271611.53125	3.01895324810175E-05
2	382	104.458318736268	0.243072509765625	0.24310302734375	8.46252441406251E-07	2.05726522040095E-07	287270.125	3.02753414871404E-05
2	383	104.559026736014	0.253143310546875	0.253143310546875	8.3587646484375E-07	2.1159652874303E-07	302847.75	3.03600427287165E-05
2	384	104.65973473576	0.263214111328125	0.26318359375	8.26416015625001E-07	2.17499135146682E-07	318463.8125	3.04437471640995E-05
2	385	104.760442735505	0.273284912109375	0.2733154296875	8.16650390625E-07	2.23203144855688E-07	334678.625	3.0526480259141E-05
2	386	104.861150735251	0.283355712890625	0.28338623046875	8.07800292968749E-07	2.28919475375733E-07	350812.25	3.06082802126184E-05
2	387	104.961858734997	0.293426513671875	0.293487548828125	7.9925537109375E-07	2.34571501778191E-07	367201.21875	3.06891997752246E-05
2	388	105.062566734743	0.303497314453125	0.303497314453125	7.9193115234375E-07	2.40348981606076E-07	383237	3.07693226204719E-05
2	389	105.163274734488	0.313568115234375	0.313690185546875	7.8643798828125E-07	2.46697879902058E-07	398874.6875	3.08488015434705E-05
2	390	105.263982734234	0.323638916015625	0.323638916015625	7.81860351562499E-07	2.53040411735128E-07	413934.4375	3.0927771149436E-05
2	391	105.36469073398	0.333709716796875	0.33380126953125	7.781982421875E-07	2.5976356710089E-07	428941.1875	3.10063260258175E-05
2	392	105.465398733725	0.343780517578125	0.343719482421875	7.7362060546875E-07	2.65908454366581E-07	444299.8125	3.10844661726151E-05
2	393	105.566106733471	0.353851318359375	0.3538818359375	7.708740234375E-07	2.72798303058153E-07	459065.71875	3.11622388835531E-05
2	394	105.666814733217	0.363922119140625	0.36395263671875	7.67822265625E-07	2.79450944162818E-07	474006.375	3.12397169182077E-05
2	395	105.767522732963	0.373992919921875	0.37396240234375	7.659912109375E-07	2.86451921738262E-07	488207.15625	3.13169512082823E-05
2	396	105.868230732708	0.384063720703125	0.384063720703125	7.6507568359375E-07	2.93837786102813E-07	501994.4375	3.13940472551621E-05
2	397	105.968938732454	0.394134521484375	0.39422607421875	7.659912109375E-07	3.01973699379232E-07	514661.34375	3.1471143302042E-05
2	398	106.0696467322	0.404205322265625	0.404205322265625	7.66601562499999E-07	3.09864418568395E-07	527269.125	3.15483121084981E-05
2	399	106.170354731946	0.414276123046875	0.414276123046875	7.67822265625E-07	3.18090428663709E-07	539546.875	3.16255791403819E-05
2	400	106.271062731691	0.424346923828125	0.424285888671875	7.68432617187501E-07	3.26035092257371E-07	552144.5625	3.17029334837571E-05
2	401	106.371770731437	0.434417724609375	0.434417724609375	7.6873779296875E-07	3.33953323661262E-07	565105.1875	3.17803387588356E-05
2	402	106.472478731183	0.444488525390625	0.444488525390625	7.6934814453125E-07	3.41966398309523E-07	577746.9375	3.18577876896597E-05
2	403	106.573186730929	0.454559326171875	0.45452880859375	7.69653320312499E-07	3.49829605283958E-07	590563.0625	3.19352802762296E-05
2	404	106.673894730674	0.464630126953125	0.46466064453125	7.71179199218749E-07	3.5833662082041E-07	602532.625	3.20128674502485E-05
2	405	106.77460273042	0.474700927734375	0.4747314453125	7.72705078124999E-07	3.66827379139067E-07	614376	3.20906074193772E-05
2	406	106.875310730166	0.484771728515625	0.48486328125	7.74230957031249E-07	3.75396155050112E-07	626251.5	3.21685038215946E-05
2	407	106.976018729912	0.494842529296875	0.49481201171875	7.76062011718751E-07	3.84004806619487E-07	637593.4375	3.22465675708372E-05
2	408	107.076726729657	0.504913330078125	0.5048828125	7.7667236328125E-07	3.92128498560851E-07	650059	3.23247513733804E-05
2	409	107.177434729403	0.514984130859375	0.51507568359375	7.7789306640625E-07	4.00673798139906E-07	662142.0625	3.24030334013514E-05
2	410	107.278142729149	0.525054931640625	0.5250244140625	7.80029296875E-07	4.09534408163381E-07	673082.9375	3.24814791383687E-05
2	411	107.378850728894	0.535125732421875	0.535186767578125	7.82470703125E-07	4.18767967858003E-07	683970.375	3.25601577060297E-05
2	412	107.47955872864	0.545196533203125	0.545166015625	7.8582763671875E-07	4.28406508490298E-07	693747.5625	3.26391273119953E-05
2	413	107.580266728386	0.555267333984375	0.555206298828125	7.91015625E-07	4.3917685843553E-07	701890.4375	3.271852619946E-05
2	414	107.680974728132	0.565338134765625	0.56524658203125	7.97119140624999E-07	4.50568876431134E-07	709111.8125	3.27984962495975E-05
2	415	107.781682727877	0.575408935546875	0.575439453125	8.03527832031251E-07	4.62381620991437E-07	716141.3125	3.28790956700686E-05
2	416	107.882390727623	0.585479736328125	0.585479736328125	8.1298828125E-07	4.75988173320729E-07	720157.6875	3.29604954458773E-05
2	417	107.983098727369	0.595550537109375	0.595550537109375	8.23364257812501E-07	4.90355034798995E-07	723313.5625	3.30428920278791E-05
2	418	108.083806727115	0.605621337890625	0.6055908203125	8.3831787109375E-07	5.07677611949475E-07	722388.0625	3.31265619024634E-05
2	419	108.18451472686	0.615692138671875	0.61566162109375	8.5784912109375E-07	5.28144767031336E-07	717680.5625	3.32119707309175E-05
2	420	108.285222726606	0.625762939453125	0.625701904296875	8.82873535156251E-07	5.52415656329686E-07	708710.6875	3.32996241922956E-05
2	421	108.385930726352	0.635833740234375	0.635772705078125	9.14306640625E-07	5.81291203616274E-07	695360.5	3.3390118915122E-05
2	422	108.486638726098	0.645904541015625	0.6458740234375	9.503173828125E-07	6.13785289260704E-07	679640.3125	3.34840115101542E-05
2	423	108.587346725843	0.655975341796875	0.6558837890625	9.9151611328125E-07	6.5031935037041E-07	661495.8125	3.35817894665524E-05
2	424	108.688054725589	0.666046142578125	0.665985107421875	1.0333251953125E-06	6.88179170538206E-07	644506.8125	3.36837474606E-05
2	425	108.788762725335	0.676116943359375	0.675994873046875	1.07421875E-06	7.26166376807669E-07	629289.75	3.37898709403817E-05
2	426	108.889470725081	0.686187744140625	0.68609619140625	1.1114501953125E-06	7.62561739975354E-07	617298.1875	3.38999307132326E-05
2	427	108.990178724826	0.696258544921875	0.696197509765625	1.1431884765625E-06	7.95884943727287E-07	608996.25	3.40134574798867E-05
2	428	109.090886724572	0.706329345703125	0.706298828125	1.17034912109375E-06	8.26616144422587E-07	603494.1875	3.41299564752262E-05
2	429	109.191594724318	0.716400146484375	0.71636962890625	1.192626953125E-06	8.54361701385642E-07	600665.3125	3.4248940210091E-05
2	430	109.292302724063	0.726470947265625	0.72637939453125	1.214599609375E-06	8.82260110302013E-07	598040.1875	3.43701540259644E-05
2	431	109.393010723809	0.736541748046875	0.736419677734375	1.2359619140625E-06	9.10186656710721E-07	595827.1875	3.44935506291222E-05
2	432	109.493718723555	0.746612548828125	0.74652099609375	1.2615966796875E-06	9.41808366405894E-07	591727.1875	3.46193119185045E-05
2	433	109.594426723301	0.756683349609375	0.7568359375	1.2921142578125E-06	9.77918489297736E-07	585734.5625	3.474789991742E-05
2	434	109.695134723046	0.766754150390625	0.76690673828125	1.33270263671875E-06	1.02205865459837E-06	575452.25	3.48800713254604E-05
2	435	109.795842722792	0.776824951171875	0.77606201171875	1.38458251953125E-06	1.0745218332886E-06	560502.5625	3.50168957083952E-05
2	436	109.896550722538	0.786895751953125	0.7867431640625	1.45294189453125E-06	1.14309204946039E-06	541482.875	3.51597773260437E-05
2	437	109.997258722284	0.796966552734375	0.7977294921875	1.53778076171875E-06	1.22673304758791E-06	518753.75	3.53103714587633E-05
2	438	110.097966722029	0.807037353515625	0.8074951171875	1.6424560546875E-06	1.32627519633388E-06	491638.8125	3.54705116478726E-05
2	439	110.198674721775	0.817108154296875	0.8172607421875	1.76177978515625E-06	1.4398333405552E-06	463883.625	3.56419259333052E-05
2	440	110.299382721521	0.827178955078125	0.8270263671875	1.89178466796875E-06	1.56455575961445E-06	437167.3125	3.58258985215798E-05
2	441	110.400090721267	0.837249755859375	0.83709716796875	2.0184326171875E-06	1.68962412772089E-06	414726.375	3.60227932105772E-05
2	442	110.500798721012	0.847320556640625	0.84716796875	2.13226318359375E-06	1.80638494384766E-06	397309.3125	3.62317987310234E-05
2	443	110.601506720758	0.857391357421875	0.85693359375	2.22198486328125E-06	1.90409355127485E-06	385661.3125	3.64510524377692E-05
2	444	110.702214720504	0.867462158203125	0.86761474609375	2.28271484375E-06	1.98051702682278E-06	380080.21875	3.66778804163914E-05
2	445	110.80292272025	0.877532958984375	0.8770751953125	2.313232421875E-06	2.02887872546853E-06	379155.65625	3.69093068002257E-05
2	446	110.903630719995	0.887603759765625	0.88836669921875	2.32086181640625E-06	2.06177628570003E-06	382774.5	3.71426503988914E-05
2	447	111.004338719741	0.897674560546875	0.8978271484375	2.31353759765625E-06	2.07715697797539E-06	388075.4375	3.73760121874511E-05
2	448	111.105046719487	0.907745361328125	0.90789794921875	2.301025390625E-06	2.08909614229924E-06	394562.375	3.76083735318389E-05
2	449	111.205754719232	0.917816162109375	0.91766357421875	2.29156494140625E-06	2.10288567359385E-06	400452.8125	3.78396289306693E-05
2	450	111.306462718978	0.927886962890625	0.9283447265625	2.29278564453125E-06	2.12849545278004E-06	404898.1875	3.80704695999157E-05
2	451	111.407170718724	0.937957763671875	0.93780517578125	2.3101806640625E-06	2.16649937101465E-06	405944.53125	3.83022452297155E-05
2	452	111.50787871847	0.948028564453125	0.94818115234375	2.3480224609375E-06	2.2263507162279E-06	403821.15625	3.85368075512815E-05
2	453	111.608586718215	0.958099365234375	0.958251953125	2.40814208984375E-06	2.3076067918737E-06	397921.6875	3.87762993341312E-05
2	454	111.709294717961	0.968170166015625	0.9686279296875	2.4920654296875E-06	2.41388397625997E-06	388684.8125	3.90230416087434E-05
2	455	111.810002717707	0.978240966796875	0.97747802734375	2.59674072265625E-06	2.53825692198006E-06	376424.96875	3.92792862839997E-05
2	456	111.910710717453	0.988311767578125	0.9881591796875	2.71392822265625E-06	2.68179292106652E-06	364106.625	3.95466995541938E-05
2	457	112.011418717198	0.998382568359375	0.99853515625	2.83203125E-06	2.82788278127555E-06	352586.21875	3.98259580833837E-05
2	458	112.112126716944	1.00845336914063	1.00830078125	2.9376220703125E-06	2.96200641969335E-06	343237.09375	4.01164834329393E-05
2	459	112.21283471669	1.01852416992188	1.01898193359375	3.01788330078125E-06	3.07516847897205E-06	337647.90625	4.04163693019655E-05
2	460	112.313542716436	1.02859497070313	1.0284423828125	3.06427001953125E-06	3.1514250622422E-06	335623.9375	4.07226289098617E-05
2	461	112.414250716181	1.03866577148438	1.0382080078125	3.077392578125E-06	3.19497348755249E-06	337366.15625	4.10318862122949E-05
2	462	112.514958715927	1.04873657226563	1.04827880859375	3.06182861328125E-06	3.209650003555E-06	342370.1875	4.13410198234487E-05
2	463	112.615666715673	1.05880737304688	1.0589599609375	3.02642822265625E-06	3.20486628879735E-06	349904.21875	4.16475886595435E-05
2	464	112.716374715419	1.06887817382813	1.0687255859375	2.97882080078125E-06	3.18354182127223E-06	358774.71875	4.1949977457989E-05
2	465	112.817082715164	1.07894897460938	1.0784912109375	2.92694091796875E-06	3.15667989525537E-06	368470.4375	4.22473567596171E-05
2	466	112.91779071491	1.08901977539063	1.0888671875	2.87445068359375E-06	3.1298948215408E-06	378808.8125	4.2539479181869E-05
2	467	113.018498714656	1.09909057617188	1.09954833984375	2.82379150390625E-06	3.10489508592582E-06	389387.25	4.28264065703843E-05
2	468	113.119206714401	1.10916137695313	1.1090087890625	2.77557373046875E-06	3.0781354780629E-06	399560.21875	4.31083572038915E-05
2	469	113.219914714147	1.11923217773438	1.11968994140625	2.73162841796875E-06	3.05857679450128E-06	409898.34375	4.33856694144197E-05
2	470	113.320622713893	1.12930297851563	1.129150390625	2.69073486328125E-06	3.03824435832212E-06	419643.875	4.36587069998495E-05
2	471	113.421330713639	1.13937377929688	1.1395263671875	2.6544189453125E-06	3.02478042613075E-06	429294.09375	4.39278555859346E-05
2	472	113.522038713384	1.14944458007813	1.14959716796875	2.6214599609375E-06	3.01362297250307E-06	438533.15625	4.41935153503437E-05
2	473	113.62274671313	1.15951538085938	1.15936279296875	2.59307861328125E-06	3.00631882055313E-06	447099	4.44560901087243E-05
2	474	113.723454712876	1.16958618164063	1.16973876953125	2.56744384765625E-06	3.0032385893719E-06	455604.4375	4.47159436589573E-05
2	475	113.824162712622	1.17965698242188	1.17889404296875	2.54364013671875E-06	2.99868202091602E-06	463467.34375	4.49733051937073E-05
2	476	113.924870712367	1.18972778320313	1.18988037109375	2.52227783203125E-06	3.00120882457122E-06	471748.34375	4.52283966296818E-05
2	477	114.025578712113	1.19979858398438	1.19964599609375	2.5018310546875E-06	3.00131159747252E-06	479507.21875	4.54813780379482E-05
2	478	114.126286711859	1.20986938476563	1.209716796875	2.48291015625E-06	3.00361807603622E-06	487217.3125	4.57323803857435E-05
2	479	114.226994711605	1.21994018554688	1.21978759765625	2.467041015625E-06	3.00926603813423E-06	494433.46875	4.59816292277537E-05
2	480	114.32770271135	1.23001098632813	1.2298583984375	2.45330810546875E-06	3.01722161566431E-06	501306.125	4.62293901364319E-05
2	481	114.428410711096	1.24008178710938	1.240234375	2.44140625E-06	3.02791590911511E-06	508000	4.64758595626336E-05
2	482	114.529118710842	1.25015258789063	1.25030517578125	2.43011474609375E-06	3.03838487525354E-06	514504.625	4.67211575596593E-05
2	483	114.629826710588	1.26022338867188	1.26007080078125	2.42095947265625E-06	3.05058028970961E-06	520484.0625	4.69654296466615E-05
2	484	114.730534710333	1.27029418945313	1.2701416015625	2.41241455078125E-06	3.06410788653011E-06	526502.25	4.72088104288559E-05
2	485	114.831242710079	1.28036499023438	1.280517578125	2.40509033203125E-06	3.0797605177213E-06	532419.75	4.74513908557128E-05
2	486	114.931950709825	1.29043579101563	1.29058837890625	2.39959716796875E-06	3.09689221467124E-06	537835.4375	4.76933273603208E-05
2	487	115.03265870957	1.30050659179688	1.30035400390625	2.3956298828125E-06	3.11516669171397E-06	542802.5625	4.79347836517263E-05
2	488	115.133366709316	1.31057739257813	1.31103515625	2.39410400390625E-06	3.13875420943077E-06	547610	4.81759670947213E-05
2	489	115.234074709062	1.32064819335938	1.32080078125	2.39349365234375E-06	3.16132809530245E-06	551829.6875	4.8417041398352E-05
2	490	115.334782708808	1.33071899414063	1.33056640625	2.3944091796875E-06	3.18592037729104E-06	555697.1875	4.8658130253898E-05
2	491	115.435490708553	1.34078979492188	1.34033203125	2.39501953125E-06	3.21012134918419E-06	559633.0625	4.88992991449777E-05
2	492	115.536198708299	1.35086059570313	1.35101318359375	2.396240234375E-06	3.23735207530262E-06	563805.375	4.91405589855276E-05
2	493	115.636906708045	1.36093139648438	1.361083984375	2.398681640625E-06	3.26480699186504E-06	567430.0625	4.93820007250179E-05
2	494	115.737614707791	1.37100219726563	1.37115478515625	2.40142822265625E-06	3.29272984345153E-06	570974.6875	4.96237043989822E-05
2	495	115.838322707536	1.38107299804688	1.3812255859375	2.40692138671875E-06	3.32450144924223E-06	573855.75	4.98658264405094E-05
2	496	115.939030707282	1.39114379882813	1.39129638671875	2.41241455078125E-06	3.35638355863921E-06	576723.625	5.01084978168365E-05
2	497	116.039738707028	1.40121459960938	1.40106201171875	2.41912841796875E-06	3.38934887622599E-06	579159.875	5.03517876495607E-05
2	498	116.140446706774	1.41128540039063	1.4111328125	2.42645263671875E-06	3.42404678121966E-06	581562.125	5.05957796121947E-05
2	499	116.241154706519	1.42135620117188	1.42120361328125	2.43255615234375E-06	3.45715761795873E-06	584242.875	5.08404518768657E-05
2	500	116.341862706265	1.43142700195313	1.4312744140625	2.43865966796875E-06	3.49039100910886E-06	586910.3125	5.10857353219762E-05
2	501	116.442570706011	1.44149780273438	1.44134521484375	2.445068359375E-06	3.52418737747939E-06	589490.8125	5.13316517753992E-05
2	502	116.543278705757	1.45156860351563	1.45111083984375	2.4530029296875E-06	3.55957922693051E-06	591565.0625	5.1578288548626E-05
2	503	116.643986705502	1.46163940429688	1.46148681640625	2.46124267578125E-06	3.59707337338477E-06	593800.4375	5.18257402291056E-05
2	504	116.744694705248	1.47171020507813	1.4715576171875	2.47100830078125E-06	3.63623098564858E-06	595529.25	5.20740977663081E-05
2	505	116.845402704994	1.48178100585938	1.48193359375	2.4822998046875E-06	3.67860343430948E-06	597000.25	5.23235175933223E-05
2	506	116.946110704739	1.49185180664063	1.49200439453125	2.49481201171875E-06	3.72227032130468E-06	598042.8125	5.25741343153641E-05
2	507	117.046818704485	1.50192260742188	1.5020751953125	2.5091552734375E-06	3.7689396776841E-06	598637.8125	5.2826104365522E-05
2	508	117.147526704231	1.49185180664063	1.49169921875	2.3773193359375E-06	3.54624535248149E-06	627471.125	5.30721590621397E-05
2	509	117.248234703977	1.48178100585938	1.48223876953125	2.28271484375E-06	3.38352833750832E-06	649331.5625	5.33068086951971E-05
2	510	117.348942703722	1.47171020507813	1.4715576171875	2.2088623046875E-06	3.25046812577057E-06	666206.125	5.35329781996552E-05
2	511	117.449650703468	1.46163940429688	1.46240234375	2.1466064453125E-06	3.13920236294507E-06	681262.4375	5.37522937520407E-05
2	512	117.550358703214	1.45156860351563	1.45111083984375	2.093505859375E-06	3.03790898215084E-06	693148.6875	5.39657994522713E-05
2	513	117.65106670296	1.44149780273438	1.441650390625	2.04620361328125E-06	2.9499099127861E-06	704548.875	5.41742519999389E-05
2	514	117.751774702705	1.43142700195313	1.43157958984375	2.0037841796875E-06	2.86857653009065E-06	714438	5.4378186177928E-05
2	515	117.852482702451	1.42135620117188	1.42181396484375	1.96441650390625E-06	2.79303480965609E-06	723784.375	5.45779985259287E-05
2	516	117.953190702197	1.41128540039063	1.4111328125	1.9287109375E-06	2.72166721515532E-06	731645.625	5.47740346519276E-05
2	517	118.053898701943	1.40121459960938	1.40106201171875	1.89544677734375E-06	2.65563835455396E-06	739172.4375	5.49665965081658E-05
2	518	118.154606701688	1.39114379882813	1.3916015625	1.8658447265625E-06	2.59651233136537E-06	745829.25	5.51559933228418E-05
2	519	118.255314701434	1.38107299804688	1.3812255859375	1.8377685546875E-06	2.53837288255454E-06	751577.5625	5.5342483392451E-05
2	520	118.35602270118	1.37100219726563	1.37115478515625	1.8109130859375E-06	2.48304218075646E-06	757162.125	5.55262085981667E-05
2	521	118.456730700926	1.36093139648438	1.361083984375	1.7852783203125E-06	2.42991359300504E-06	762393.1875	5.57072926312685E-05
2	522	118.557438700671	1.35086059570313	1.3507080078125	1.759033203125E-06	2.37594008467568E-06	767869.5625	5.5885760957608E-05
2	523	118.658146700417	1.34078979492188	1.3409423828125	1.7340087890625E-06	2.32520574172668E-06	773319.3125	5.60616499569733E-05
2	524	118.758854700163	1.33071899414063	1.33056640625	1.71051025390625E-06	2.27594750867866E-06	777876.9375	5.6235097872559E-05
2	525	118.859562699908	1.32064819335938	1.32049560546875	1.68853759765625E-06	2.22970629693009E-06	782035.125	5.64062502235174E-05
2	526	118.960270699654	1.31057739257813	1.31072998046875	1.66839599609375E-06	2.18681657315756E-06	785622.875	5.65752852708101E-05
2	527	119.0609786994	1.30050659179688	1.3006591796875	1.64825439453125E-06	2.14381725527346E-06	789113.125	5.67422939639073E-05
2	528	119.161686699146	1.29043579101563	1.290283203125	1.62994384765625E-06	2.10308917303337E-06	791612.125	5.69073636143003E-05
2	529	119.262394698891	1.28036499023438	1.280517578125	1.61163330078125E-06	2.06372465072491E-06	794546.5	5.7070588809438E-05
2	530	119.363102698637	1.27029418945313	1.270751953125	1.5936279296875E-06	2.02510568669823E-06	797395.6875	5.72319877392147E-05
2	531	119.463810698383	1.26022338867188	1.26007080078125	1.57684326171875E-06	1.98693419406482E-06	799109.75	5.73916331632063E-05
2	532	119.564518698129	1.25015258789063	1.25	1.56097412109375E-06	1.95121765500517E-06	800782.0625	5.75496342207771E-05
2	533	119.665226697874	1.24008178710938	1.240234375	1.54693603515625E-06	1.91856315723271E-06	801736.0625	5.77061327931006E-05
2	534	119.76593469762	1.23001098632813	1.2298583984375	1.533203125E-06	1.88562273706339E-06	802149.6875	5.78612271056045E-05
2	535	119.866642697366	1.21994018554688	1.21978759765625	1.5203857421875E-06	1.85454757684056E-06	802288.25	5.8014989917865E-05
2	536	119.967350697112	1.20986938476563	1.2103271484375	1.5069580078125E-06	1.8239120436192E-06	803159.25	5.81674285058398E-05
2	537	120.068058696857	1.19979858398438	1.20025634765625	1.4935302734375E-06	1.79261917310214E-06	803637.125	5.83185137656983E-05
2	538	120.168766696603	1.18972778320313	1.1895751953125	1.4801025390625E-06	1.7606931805858E-06	803711.375	5.84682493354194E-05
2	539	120.269474696349	1.17965698242188	1.17919921875	1.46514892578125E-06	1.72770239714737E-06	804832.3125	5.86165551794693E-05
2	540	120.370182696095	1.16958618164063	1.16973876953125	1.45172119140625E-06	1.69813449701905E-06	805760	5.8763431297848E-05
2	541	120.47089069584	1.15951538085938	1.15936279296875	1.4385986328125E-06	1.66785764577071E-06	805897.375	5.89089686400257E-05
2	542	120.571598695586	1.14944458007813	1.1492919921875	1.4239501953125E-06	1.63653453455481E-06	807115.3125	5.90531089983415E-05
2	543	120.672306695332	1.13937377929688	1.13983154296875	1.40869140625E-06	1.60567083185015E-06	809142.1875	5.91957432334311E-05
2	544	120.773014695077	1.12930297851563	1.12945556640625	1.39068603515625E-06	1.57071804096631E-06	812157.1875	5.93367039982695E-05
2	545	120.873722694823	1.11923217773438	1.11968994140625	1.3702392578125E-06	1.53424309701222E-06	817149.25	5.94757293583825E-05
2	546	120.974430694569	1.10916137695313	1.1090087890625	1.3470458984375E-06	1.49388574754994E-06	823289.5625	5.96125537413172E-05
2	547	121.075138694315	1.09909057617188	1.0986328125	1.31988525390625E-06	1.45006913498946E-06	832370	5.97468460910022E-05
2	548	121.17584669406	1.08901977539063	1.0888671875	1.28692626953125E-06	1.401291797265E-06	846099.125	5.98781080043409E-05
2	549	121.276554693806	1.07894897460938	1.0791015625	1.24603271484375E-06	1.34459571654588E-06	866029.9375	6.00056519033387E-05
2	550	121.377262693552	1.06887817382813	1.06903076171875	1.1944580078125E-06	1.27691225770832E-06	894992.375	6.01285428274423E-05
2	551	121.477970693298	1.05880737304688	1.05926513671875	1.12762451171875E-06	1.19445337531943E-06	939377.5625	6.02454674663022E-05
2	552	121.578678693043	1.04873657226563	1.04827880859375	1.0406494140625E-06	1.09089069155743E-06	1007331.375	6.03546504862607E-05
2	553	121.679386692789	1.03866577148438	1.038818359375	9.31701660156251E-07	9.6786880021682E-07	1114968.875	6.04539636697154E-05
2	554	121.780094692535	1.02859497070313	1.0284423828125	8.0108642578125E-07	8.23871232569218E-07	1283809.625	6.05412169534247E-05
2	555	121.880802692281	1.01852416992188	1.0186767578125	6.512451171875E-07	6.63408229684137E-07	1564198.75	6.06143476034049E-05
2	556	121.981510692026	1.00845336914063	1.00830078125	4.91943359374999E-07	4.96026871132926E-07	2049627.875	6.06719113420695E-05
2	557	122.082218691772	0.998382568359375	0.9979248046875	3.38134765625001E-07	3.37433050390246E-07	2951263.75	6.0713711718563E-05
2	558	122.182926691518	0.988311767578125	0.98846435546875	2.00805664062501E-07	1.98489232161592E-07	4922492.5	6.07408474024851E-05
2	559	122.283634691264	0.978240966796875	0.97808837890625	9.307861328125E-08	9.1039105143409E-08	10508197	6.07556467002723E-05
2	560	122.384342691009	0.968170166015625	0.96832275390625	1.95312500000003E-08	1.89125533012202E-08	49578128	6.07613146712538E-05
2	561	122.485050690755	0.958099365234375	0.958251953125	-1.92260742187506E-08	-1.84234227873503E-08	-49841272	6.07613328611478E-05
2	562	122.585758690501	0.948028564453125	0.94818115234375	-2.899169921875E-08	-2.74893814378174E-08	-32705264	6.07589026913047E-05
2	563	122.686466690246	0.937957763671875	0.9381103515625	-1.80053710937503E-08	-1.68910254672028E-08	-52101692	6.07565380050801E-05
2	564	122.787174689992	0.927886962890625	0.92803955078125	3.35693359374972E-09	3.11536685337899E-09	276454560	6.07557994953822E-05
2	565	122.887882689738	0.917816162109375	0.91766357421875	2.31933593749997E-08	2.12837001356547E-08	39565792	6.07571382715832E-05
2	566	122.988590689484	0.907745361328125	0.90789794921875	3.08227539062497E-08	2.79839156291928E-08	29455446	6.07598558417521E-05
2	567	123.089298689229	0.897674560546875	0.8978271484375	1.86157226562497E-08	1.67137006457097E-08	48229508	6.07623442192562E-05
2	568	123.190006688975	0.887603759765625	0.887451171875	-1.64794921875003E-08	-1.46247440824254E-08	-53851852	6.07624533586204E-05
2	569	123.290714688721	0.877532958984375	0.877685546875	-7.9345703125E-08	-6.96405777489417E-08	-11061538	6.07576293987222E-05
2	570	123.391422688467	0.867462158203125	0.8673095703125	-1.68457031249999E-07	-1.4610438370255E-07	-5148551	6.07451511314139E-05
2	571	123.492130688212	0.857391357421875	0.85693359375	-2.82897949218749E-07	-2.42424732732616E-07	-3029126.5	6.0722424677806E-05
2	572	123.592838687958	0.847320556640625	0.84716796875	-4.12902832031251E-07	-3.4979805718649E-07	-2051736.875	6.06873873039149E-05
2	573	123.693546687704	0.837249755859375	0.83740234375	-5.46874999999999E-07	-4.57954371313463E-07	-1531250.125	6.06390567554627E-05
2	574	123.79425468745	0.827178955078125	0.82763671875	-6.70166015625E-07	-5.54653979634168E-07	-1234972.75	6.05777750024572E-05
2	575	123.894962687195	0.817108154296875	0.81756591796875	-7.69653320312499E-07	-6.29242322247592E-07	-1062252.25	6.05052737228107E-05
2	576	123.995670686941	0.807037353515625	0.80718994140625	-8.3465576171875E-07	-6.73725708111306E-07	-967093.25	6.04244924033992E-05
2	577	124.096378686687	0.796966552734375	0.797119140625	-8.648681640625E-07	-6.8940295250286E-07	-921665.5	6.03389125899412E-05
2	578	124.197086686432	0.786895751953125	0.787353515625	-8.642578125E-07	-6.80476432535215E-07	-911016.9375	6.0251844843151E-05
2	579	124.297794686178	0.776824951171875	0.77667236328125	-8.404541015625E-07	-6.52757478292187E-07	-924110.375	6.01660067331977E-05
2	580	124.398502685924	0.766754150390625	0.7672119140625	-8.0169677734375E-07	-6.15071314769011E-07	-956985.125	6.00833154749125E-05
2	581	124.49921068567	0.756683349609375	0.75714111328125	-7.58056640625E-07	-5.73955844629381E-07	-998792.3125	6.0004778788425E-05
2	582	124.599918685415	0.746612548828125	0.746490478515625	-7.14111328125E-07	-5.33077297859563E-07	-1045341.9375	5.99306476942729E-05
2	583	124.700626685161	0.736541748046875	0.736419677734375	-6.744384765625E-07	-4.96669770200242E-07	-1091900.5	5.98607293795794E-05
2	584	124.801334684907	0.726470947265625	0.72637939453125	-6.40258789062501E-07	-4.65070769450904E-07	-1134509.125	5.97945290792268E-05
2	585	124.902042684653	0.716400146484375	0.716339111328125	-6.1309814453125E-07	-4.39186152334514E-07	-1168392.25	5.97314174228813E-05
2	586	125.002750684398	0.706329345703125	0.706268310546875	-5.95703124999999E-07	-4.20726223637757E-07	-1185604.5	5.96705503994599E-05
2	587	125.103458684144	0.696258544921875	0.696197509765625	-5.85021972656249E-07	-4.07290826842654E-07	-1190036.5	5.96110949118156E-05
2	588	125.20416668389	0.686187744140625	0.686065673828125	-5.816650390625E-07	-3.9906038296067E-07	-1179485.875	5.95523488300387E-05
2	589	125.304874683636	0.676116943359375	0.67608642578125	-5.83801269531251E-07	-3.94700094830114E-07	-1158076.375	5.94936609559227E-05
2	590	125.405582683381	0.666046142578125	0.665985107421875	-5.88073730468749E-07	-3.91648342201734E-07	-1132485.75	5.94346529396717E-05
2	591	125.506290683127	0.655975341796875	0.655914306640625	-5.908203125E-07	-3.87527506973129E-07	-1110175.625	5.93752920394763E-05
2	592	125.606998682873	0.645904541015625	0.645843505859375	-5.88073730468749E-07	-3.79803594796613E-07	-1098235.625	5.93159275013022E-05
2	593	125.707706682619	0.635833740234375	0.6357421875	-5.78918457031249E-07	-3.68042890386278E-07	-1098155	5.92571668676101E-05
2	594	125.808414682364	0.625762939453125	0.625732421875	-5.6427001953125E-07	-3.53082043602626E-07	-1108923.75	5.91996031289455E-05
2	595	125.90912268211	0.615692138671875	0.615631103515625	-5.450439453125E-07	-3.35545990992614E-07	-1129507.375	5.91437419643626E-05
2	596	126.009830681856	0.605621337890625	0.6055908203125	-5.22766113281251E-07	-3.16582344339622E-07	-1158435.625	5.90899762755726E-05
2	597	126.110538681601	0.595550537109375	0.595550537109375	-4.99572753906249E-07	-2.97520841741061E-07	-1192119.75	5.90384952374734E-05
2	598	126.211246681347	0.585479736328125	0.585418701171875	-4.77294921875E-07	-2.79417378123981E-07	-1226534.5	5.89893061260227E-05
2	599	126.311954681093	0.575408935546875	0.575347900390625	-4.559326171875E-07	-2.6231987249048E-07	-1261914.375	5.89423143537715E-05
2	600	126.412662680839	0.565338134765625	0.565277099609375	-4.345703125E-07	-2.45652643116046E-07	-1300772.5	5.88974762649741E-05
2	601	126.513370680584	0.555267333984375	0.55523681640625	-4.1351318359375E-07	-2.2959773104958E-07	-1342730.75	5.88547700317577E-05
2	602	126.61407868033	0.545196533203125	0.54522705078125	-3.94592285156251E-07	-2.15142378579003E-07	-1381748	5.88140792388003E-05
2	603	126.714786680076	0.535125732421875	0.53509521484375	-3.765869140625E-07	-2.01509848807291E-07	-1420907.625	5.87752474530134E-05
2	604	126.815494679822	0.525054931640625	0.525054931640625	-3.6041259765625E-07	-1.89236416758831E-07	-1456816.25	5.87381364312023E-05
2	605	126.916202679567	0.514984130859375	0.5150146484375	-3.4637451171875E-07	-1.78387935534374E-07	-1486872.375	5.87025460845325E-05
2	606	127.016910679313	0.504913330078125	0.50494384765625	-3.3447265625E-07	-1.68889897622648E-07	-1509671.625	5.86682617722545E-05
2	607	127.117618679059	0.494842529296875	0.494781494140625	-3.2318115234375E-07	-1.59904061547422E-07	-1530972.625	5.86351488891523E-05
2	608	127.218326678805	0.484771728515625	0.48480224609375	-3.143310546875E-07	-1.52388409446758E-07	-1542330.125	5.86030473641586E-05
2	609	127.31903467855	0.474700927734375	0.474639892578125	-3.0487060546875E-07	-1.44703747650965E-07	-1556856.875	5.8571866247803E-05
2	610	127.419742678296	0.464630126953125	0.464630126953125	-2.978515625E-07	-1.38390802817412E-07	-1559938.5	5.85415182285942E-05
2	611	127.520450678042	0.454559326171875	0.45458984375	-2.9144287109375E-07	-1.324869600694E-07	-1559790.625	5.85118432354648E-05
2	612	127.621158677788	0.444488525390625	0.444488525390625	-2.86865234375E-07	-1.27508300806767E-07	-1549468.125	5.84827248530928E-05
2	613	127.721866677533	0.434417724609375	0.43438720703125	-2.84423828124999E-07	-1.23550080388668E-07	-1527253.25	5.84539557166863E-05
2	614	127.822574677279	0.424346923828125	0.424346923828125	-2.838134765625E-07	-1.20435373673899E-07	-1495161.25	5.84253430133685E-05
2	615	127.923282677025	0.414276123046875	0.4141845703125	-2.83203125000001E-07	-1.17298363022655E-07	-1462500	5.83967921556905E-05
2	616	128.02399067677	0.404205322265625	0.40423583984375	-2.83203125000001E-07	-1.14480855017973E-07	-1427370.75	5.83682704018429E-05
2	617	128.124698676516	0.394134521484375	0.3941650390625	-2.838134765625E-07	-1.11869347563243E-07	-1388817.25	5.83397195441648E-05
2	618	128.225406676262	0.384063720703125	0.384033203125	-2.83203125000001E-07	-1.08759401484804E-07	-1356034.5	5.83111686864868E-05
2	619	128.326114676008	0.373992919921875	0.373992919921875	-2.825927734375E-07	-1.05687696816403E-07	-1323434.125	5.82826796744484E-05
2	620	128.426822675753	0.363922119140625	0.363922119140625	-2.8228759765625E-07	-1.02730702167264E-07	-1289189.125	5.82542343181558E-05
2	621	128.527530675499	0.353851318359375	0.353851318359375	-2.81372070312499E-07	-9.95638700374002E-08	-1257592.25	5.82258508075029E-05
2	622	128.628238675245	0.343780517578125	0.343780517578125	-2.79541015625E-07	-9.6100755797579E-08	-1229803.5	5.81976091780234E-05
2	623	128.728946674991	0.333709716796875	0.333740234375	-2.7587890625E-07	-9.2071893220691E-08	-1209734.5	5.81696403969545E-05
2	624	128.829654674736	0.323638916015625	0.323699951171875	-2.72216796874999E-07	-8.81165647115267E-08	-1189125.625	5.81420426897239E-05
2	625	128.930362674482	0.313568115234375	0.313568115234375	-2.667236328125E-07	-8.36360243283707E-08	-1175629.375	5.8114903367823E-05
2	626	129.031070674228	0.303497314453125	0.30352783203125	-2.61535644531249E-07	-7.93833407897182E-08	-1160560.125	5.80883024667855E-05
2	627	129.131778673974	0.293426513671875	0.293365478515625	-2.55432128906249E-07	-7.493496667621E-08	-1148506.625	5.80622727284208E-05
2	628	129.232486673719	0.283355712890625	0.283294677734375	-2.4993896484375E-07	-7.08063723209307E-08	-1133455.5	5.80368250666652E-05
2	629	129.333194673465	0.273284912109375	0.273284912109375	-2.4383544921875E-07	-6.66365451706952E-08	-1120776	5.80119631194975E-05
2	630	129.433902673211	0.263214111328125	0.263214111328125	-2.38952636718751E-07	-6.28957010917475E-08	-1101532.625	5.79876505071297E-05
2	631	129.534610672957	0.253143310546875	0.253143310546875	-2.32849121093751E-07	-5.89441953025016E-08	-1087156	5.79638945055194E-05
2	632	129.635318672702	0.243072509765625	0.2431640625	-2.2705078125E-07	-5.52105881013176E-08	-1070967.75	5.79407351324335E-05
2	633	129.736026672448	0.233001708984375	0.233062744140625	-2.21862792968749E-07	-5.17079499218198E-08	-1050481.5	5.7918132370105E-05
2	634	129.836734672194	0.222930908203125	0.22296142578125	-2.178955078125E-07	-4.85822937434932E-08	-1023249.3125	5.78959879931062E-05
2	635	129.937442671939	0.212860107421875	0.212860107421875	-2.1484375E-07	-4.57316637891836E-08	-990767.0625	5.78741965000518E-05
2	636	130.038150671685	0.202789306640625	0.202850341796875	-2.1392822265625E-07	-4.33954134848591E-08	-948216.875	5.78526087338105E-05
2	637	130.138858671431	0.192718505859375	0.1927490234375	-2.14538574218751E-07	-4.13521021869201E-08	-898435.25	5.78310318815056E-05
2	638	130.239566671177	0.182647705078125	0.182708740234375	-2.154541015625E-07	-3.93653465380339E-08	-848017	5.78093822696246E-05
2	639	130.340274670922	0.172576904296875	0.172607421875	-2.17285156249999E-07	-3.75050284162626E-08	-794382.0625	5.77875907765701E-05
2	640	130.440982670668	0.162506103515625	0.162506103515625	-2.20642089843751E-07	-3.58556846435931E-08	-736514.5625	5.77655409870204E-05
2	641	130.541690670414	0.152435302734375	0.152496337890625	-2.24914550781249E-07	-3.42986439250126E-08	-678019	5.77431019337382E-05
2	642	130.64239867016	0.142364501953125	0.142425537109375	-2.32849121093751E-07	-3.31636620387599E-08	-611664.5	5.77200517000165E-05
2	643	130.743106669905	0.132293701171875	0.13238525390625	-2.44140625E-07	-3.23206172936352E-08	-542250.0625	5.76960337639321E-05
2	644	130.843814669651	0.122222900390625	0.122222900390625	-2.60009765624999E-07	-3.17791482018492E-08	-470070.4375	5.76706479478162E-05
2	645	130.944522669397	0.112152099609375	0.1121826171875	-2.825927734375E-07	-3.17019974716004E-08	-396976.25	5.76433267269749E-05
2	646	131.045230669143	0.102081298828125	0.102081298828125	-3.13415527343749E-07	-3.19938635584549E-08	-325705.96875	5.76133170397952E-05
2	647	131.145938668888	0.092010498046875	0.09197998046875	-3.5552978515625E-07	-3.27016209666908E-08	-258712.453125	5.75796329940204E-05
2	648	131.246646668634	0.081939697265625	0.08197021484375	-4.1229248046875E-07	-3.37957040130732E-08	-198815.6875	5.75409685552586E-05
2	649	131.34735466838	0.071868896484375	0.07196044921875	-4.92248535156251E-07	-3.54224276577497E-08	-146187.21875	5.74954210605938E-05
2	650	131.448062668126	0.061798095703125	0.061798095703125	-5.9844970703125E-07	-3.69830495117185E-08	-103263.6484375	5.74404984945431E-05
2	651	131.548770667871	0.051727294921875	0.051788330078125	-7.36389160156251E-07	-3.81363634005538E-08	-70327.390625	5.73732868360821E-05
2	652	131.649478667617	0.041656494140625	0.0417388916015625	-9.0606689453125E-07	-3.78182249960446E-08	-46066.015625	5.72905810258817E-05
2	653	131.750186667363	0.031585693359375	0.0316864013671875	-1.1029052734375E-06	-3.4947099436522E-08	-28729.94140625	5.71894233871717E-05
2	654	131.850894667108	0.021514892578125	0.021612548828125	-1.31317138671875E-06	-2.83809793444334E-08	-16458.287109375	5.70677620999049E-05
2	655	131.951602666854	0.011444091796875	0.0115234375	-1.52008056640625E-06	-1.7516553540986E-08	-7580.80712890625	5.69250987609848E-05
2	656	132.0523106666	0.001373291015625	0.00145568847656249	-1.70166015625E-06	-2.47708720202411E-09	-855.451965332031	5.67628703720402E-05
2	657	132.153018666346	-0.008697509765625	-0.0086090087890625	-1.8414306640625E-06	1.5852892332191E-08	4675.17431640625	5.65844602533616E-05
2	658	132.253726666091	-0.018768310546875	-0.0186798095703125	-1.93023681640625E-06	3.60564520462958E-08	9677.470703125	5.63945432077162E-05
2	659	132.354434665837	-0.028839111328125	-0.0287322998046875	-1.97021484375E-06	5.66088012021737E-08	14583.333984375	5.61981396458577E-05
2	660	132.455142665583	-0.038909912109375	-0.03878173828125	-1.96868896484375E-06	7.63491740940481E-08	19699.2734375	5.59998006792739E-05
2	661	132.555850665329	-0.048980712890625	-0.0488525390625	-1.93878173828125E-06	9.47144087604102E-08	25197.546875	5.58030442334712E-05
2	662	132.656558665074	-0.059051513671875	-0.058990478515625	-1.890869140625E-06	1.11543272396375E-07	31197.548828125	5.56102058908436E-05
2	663	132.75726666482	-0.069122314453125	-0.069000244140625	-1.83685302734375E-06	1.26743302075738E-07	37564.37890625	5.54224970983341E-05
2	664	132.857974664566	-0.079193115234375	-0.0791015625	-1.78314208984375E-06	1.41049312674113E-07	44360.77734375	5.52402161702048E-05
2	665	132.958682664312	-0.089263916015625	-0.089202880859375	-1.73126220703125E-06	1.54433578813951E-07	51524.76953125	5.50632539670914E-05
2	666	133.059390664057	-0.099334716796875	-0.0992431640625	-1.68670654296875E-06	1.67394091477036E-07	58838.43359375	5.48911448277067E-05
2	667	133.160098663803	-0.109405517578125	-0.109283447265625	-1.64794921875E-06	1.80093564949857E-07	66314.8203125	5.47232302778866E-05
2	668	133.260806663549	-0.119476318359375	-0.119354248046875	-1.61590576171875E-06	1.92865215353777E-07	73862.1328125	5.45588845852762E-05
2	669	133.361514663295	-0.129547119140625	-0.129425048828125	-1.58843994140625E-06	2.05583916113028E-07	81479.3515625	5.43975329492241E-05
2	670	133.46222266304	-0.139617919921875	-0.139495849609375	-1.5655517578125E-06	2.18387967265699E-07	89103.3125	5.42387169844005E-05
2	671	133.562930662786	-0.149688720703125	-0.149566650390625	-1.5472412109375E-06	2.31415668849877E-07	96666.671875	5.4081974667497E-05
2	672	133.663638662532	-0.159759521484375	-0.159637451171875	-1.534423828125E-06	2.44951507966107E-07	104037.3984375	5.39268003194593E-05
2	673	133.764346662277	-0.169830322265625	-0.169677734375	-1.52587890625E-06	2.58907647321394E-07	111200.0078125	5.37727028131485E-05
2	674	133.865054662023	-0.179901123046875	-0.179840087890625	-1.5228271484375E-06	2.73865367717008E-07	118096.1953125	5.36191873834468E-05
2	675	133.965762661769	-0.189971923828125	-0.189849853515625	-1.52435302734375E-06	2.89398201402946E-07	124544.546875	5.34657483513001E-05
2	676	134.066470661515	-0.200042724609375	-0.199951171875	-1.5301513671875E-06	3.05955552448722E-07	130674.1171875	5.33119418832939E-05
2	677	134.16717866126	-0.189971923828125	-0.1898193359375	-1.3323974609375E-06	2.52914787779446E-07	142464.5	5.31678015249781E-05
