Potential - Start -0.2 V, Upper Vertex 1.5 V, Lower Vertex -0.2 V, Stop -0.19 V; Scan - # end cross 5, Rate 0.1 Vps, Step 0.01 V 
Scan	Index	Time (s)	Potential applied (V)	WE(1).Potential (V)	WE(1).Current (A)	WE(1).Power (W)	WE(1).Resistance (Ω)	WE(1).Charge (C)
1	1	66.7725848314154	-0.189971923828125	-0.189849853515625	-2.40478515625001E-07	4.56548079341701E-08	789467.0625	0
1	2	66.8732928311612	-0.179901123046875	-0.1798095703125	-2.05078124999999E-07	3.68750079360325E-08	876785.75	-2.24355574118817E-08
1	3	66.9740008309069	-0.169830322265625	-0.169647216796875	-1.7730712890625E-07	3.00796614283172E-08	956798.625	-4.16901855260221E-08
1	4	67.0747088306526	-0.159759521484375	-0.15966796875	-1.53198242187499E-07	2.44608528987555E-08	1042231.0625	-5.8332453534149E-08
1	5	67.1754168303984	-0.149688720703125	-0.14959716796875	-1.3153076171875E-07	1.96766283266925E-08	1137355	-7.2669699591188E-08
1	6	67.2761248301441	-0.139617919921875	-0.139556884765625	-1.11083984375E-07	1.55025343673287E-08	1256318.625	-8.48863166424962E-08
1	7	67.3768328298898	-0.129547119140625	-0.129486083984375	-9.09423828125006E-08	1.17757723572254E-08	1423825.625	-9.50591569903736E-08
1	8	67.4775408296356	-0.119476318359375	-0.119415283203125	-6.92749023437495E-08	8.27248225476751E-09	1723788.5	-1.03126737371895E-07
1	9	67.5782488293813	-0.109405517578125	-0.10931396484375	-4.730224609375E-08	5.17079579154256E-09	2310967.75	-1.08996864867095E-07
1	10	67.6789568291271	-0.099334716796875	-0.0992431640625	-2.41088867187503E-08	2.39264208445888E-09	4116456	-1.12592694279101E-07
1	11	67.7796648288728	-0.089263916015625	-0.089141845703125	3.96728515625056E-09	-3.53651108397912E-10	-22469230	-1.1360690876927E-07
1	12	67.8803728286185	-0.079193115234375	-0.079132080078125	3.72314453124994E-08	-2.94620172702764E-09	-2125410	-1.11532386881663E-07
1	13	67.9810808283643	-0.069122314453125	-0.069061279296875	8.17871093750006E-08	-5.64832225435907E-09	-844403	-1.05539328387749E-07
1	14	68.08178882811	-0.059051513671875	-0.05902099609375	1.4007568359375E-07	-8.26740631509892E-09	-421350.75	-9.43676496945045E-08
1	15	68.1824968278557	-0.048980712890625	-0.0488006591796875	2.1820068359375E-07	-1.06483373230049E-08	-223650.34375	-7.6326998055265E-08
1	16	68.2832048276015	-0.038909912109375	-0.0388092041015625	3.21350097656251E-07	-1.24713404048293E-08	-120769.234375	-4.91584586370664E-08
1	17	68.3839128273472	-0.028839111328125	-0.028680419921875	4.55322265624999E-07	-1.30588340141458E-08	-62989.2734375	-1.00499004673793E-08
1	18	68.484620827093	-0.018768310546875	-0.01865234375	6.21948242187501E-07	-1.16007923267603E-08	-29990.1875	4.41949765672689E-08
1	19	68.5853288268387	-0.008697509765625	-0.0086029052734375	8.197021484375E-07	-7.05181957272316E-09	-10495.16015625	1.16787838067012E-07
1	20	68.6860368265844	0.001373291015625	0.001483154296875	1.0406494140625E-06	1.54344359515335E-09	1425.21984863281	2.10463980465647E-07
1	21	68.7867448263302	0.011444091796875	0.01158447265625	1.27044677734375E-06	1.47174565867658E-08	9118.4248046875	3.26836925523821E-07
1	22	68.8874528260759	0.021514892578125	0.02161865234375	1.48773193359375E-06	3.21627595667451E-08	14531.283203125	4.65722251874467E-07
1	23	68.9881608258216	0.031585693359375	0.0316864013671875	1.6705322265625E-06	5.29331529719457E-08	18967.849609375	6.24753454303573E-07
1	24	69.0888688255674	0.041656494140625	0.0417572021484375	1.8048095703125E-06	7.5363793428096E-08	23136.626953125	7.99750807800592E-07
1	25	69.1895768253131	0.051727294921875	0.0517578125	1.8817138671875E-06	9.73933893533285E-08	27505.67578125	9.8538203019416E-07
1	26	69.2902848250588	0.061798095703125	0.061920166015625	1.90521240234375E-06	1.17971062252309E-07	32500.40234375	1.17606884941779E-06
1	27	69.3909928248046	0.071868896484375	0.07183837890625	1.88690185546875E-06	1.3555197142523E-07	38072.1328125	1.36701703468134E-06
1	28	69.4917008245503	0.081939697265625	0.08203125	1.84112548828125E-06	1.51029823314275E-07	44554.94921875	1.55473810536932E-06
1	29	69.5924088242961	0.092010498046875	0.09210205078125	1.7803955078125E-06	1.63978072009741E-07	51731.23046875	1.73709611317463E-06
1	30	69.6931168240418	0.102081298828125	0.10211181640625	1.71356201171875E-06	1.74974914557424E-07	59590.38671875	1.9130309283355E-06
1	31	69.7938248237875	0.112152099609375	0.112091064453125	1.64642333984375E-06	1.84549335813244E-07	68081.5625	2.08221968023281E-06
1	32	69.8945328235333	0.122222900390625	0.122222900390625	1.58355712890625E-06	1.93546938476175E-07	77182.5078125	2.24486211664043E-06
1	33	69.995240823279	0.132293701171875	0.132354736328125	1.5252685546875E-06	2.01876517280652E-07	86774.7109375	2.40140388996224E-06
1	34	70.0959488230247	0.142364501953125	0.142364501953125	1.47186279296875E-06	2.09541013873604E-07	96724.03125	2.55232134804828E-06
1	35	70.1966568227705	0.152435302734375	0.1524658203125	1.4227294921875E-06	2.16917612760881E-07	107164.3046875	2.69807560471236E-06
1	36	70.2973648225162	0.162506103515625	0.16253662109375	1.37939453125E-06	2.24202111098748E-07	117831.8671875	2.83917393062438E-06
1	37	70.398072822262	0.172576904296875	0.17266845703125	1.34002685546875E-06	2.31380369086764E-07	128854.4765625	2.97610745292332E-06
1	38	70.4987808220077	0.182647705078125	0.1826171875	1.30584716796875E-06	2.38470136082469E-07	139845.765625	3.10933796754398E-06
1	39	70.5994888217534	0.192718505859375	0.1927490234375	1.275634765625E-06	2.45877345150802E-07	151100.484375	3.23932590617915E-06
1	40	70.7001968214992	0.202789306640625	0.202789306640625	1.248779296875E-06	2.53239079484047E-07	162390.03125	3.36644029630406E-06
1	41	70.8009048212449	0.212860107421875	0.212799072265625	1.22467041015625E-06	2.60608743474222E-07	173760.28125	3.49098831975425E-06
1	42	70.9016128209906	0.222930908203125	0.22296142578125	1.20269775390625E-06	2.68155190497055E-07	185384.421875	3.61321599484654E-06
1	43	71.0023208207364	0.233001708984375	0.2330322265625	1.18316650390625E-06	2.75715905218021E-07	196956.421875	3.73335387848783E-06
1	44	71.1030288204821	0.243072509765625	0.243133544921875	1.1651611328125E-06	2.83289750768745E-07	208669.46875	3.85160137739149E-06
1	45	71.2037368202278	0.253143310546875	0.253173828125	1.14959716796875E-06	2.91047911105125E-07	220228.3125	3.9681585803919E-06
1	46	71.3044448199736	0.263214111328125	0.263214111328125	1.1358642578125E-06	2.98975493251419E-07	231730.265625	4.08324103773339E-06
1	47	71.4051528197193	0.273284912109375	0.273284912109375	1.12396240234375E-06	3.07161968748915E-07	243144.171875	4.19703201259836E-06
1	48	71.5058608194651	0.283355712890625	0.2833251953125	1.11358642578125E-06	3.15507094228451E-07	254425.859375	4.30970158049604E-06
1	49	71.6065688192108	0.293426513671875	0.293365478515625	1.1041259765625E-06	3.2391244531027E-07	265699.28125	4.42137252321118E-06
1	50	71.7072768189565	0.303497314453125	0.303497314453125	1.09527587890625E-06	3.32413264914067E-07	277096.6875	4.53212123829871E-06
1	51	71.8079848187023	0.313568115234375	0.3135986328125	1.08734130859375E-06	3.40988748348536E-07	288408.65625	4.64202457806095E-06
1	52	71.908692818448	0.323638916015625	0.3236083984375	1.07940673828125E-06	3.4930508263642E-07	299802.09375	4.75112892672769E-06
1	53	72.0094008181937	0.333709716796875	0.333740234375	1.072998046875E-06	3.5810259646496E-07	311035.28125	4.85951113660121E-06
1	54	72.1101088179395	0.343780517578125	0.343780517578125	1.06719970703125E-06	3.66882460411944E-07	322133.25	4.96727852805634E-06
1	55	72.2108168176852	0.353851318359375	0.3538818359375	1.0626220703125E-06	3.76042635252816E-07	333027.03125	5.07452386955265E-06
1	56	72.3115248174309	0.363922119140625	0.364013671875	1.0589599609375E-06	3.85475885877895E-07	343746.40625	5.1813540267176E-06
1	57	72.4122328171767	0.373992919921875	0.373992919921875	1.0552978515625E-06	3.94673918435728E-07	354395.59375	5.28781538378098E-06
1	58	72.5129408169224	0.384063720703125	0.384063720703125	1.05194091796875E-06	4.04012325816439E-07	365100.09375	5.39392294740537E-06
1	59	72.6136488166682	0.394134521484375	0.3941650390625	1.0491943359375E-06	4.1355573898727E-07	375683.53125	5.49972355656791E-06
1	60	72.7143568164139	0.404205322265625	0.40423583984375	1.04644775390625E-06	4.23011698558184E-07	386293.375	5.60524767934112E-06
1	61	72.8150648161596	0.414276123046875	0.4141845703125	1.0443115234375E-06	4.32537717642845E-07	396610.1875	5.71052578379749E-06
1	62	72.9157728159054	0.424346923828125	0.42437744140625	1.0430908203125E-06	4.4266423060435E-07	406846.09375	5.81563472223934E-06
1	63	73.0164808156511	0.434417724609375	0.434417724609375	1.04339599609375E-06	4.53269706213177E-07	416349.8125	5.92069773119874E-06
1	64	73.1171888153968	0.444488525390625	0.44451904296875	1.0443115234375E-06	4.64216356022007E-07	425657.53125	6.02582213105052E-06
1	65	73.2178968151426	0.454559326171875	0.454559326171875	1.0455322265625E-06	4.75256399568025E-07	434763.59375	6.13105430602445E-06
1	66	73.3186048148883	0.464630126953125	0.464691162109375	1.04705810546875E-06	4.86558633383538E-07	443806.5	6.23642426944571E-06
1	67	73.4193128146341	0.474700927734375	0.4747314453125	1.05010986328125E-06	4.98520194014418E-07	452077.875	6.34202524452121E-06
1	68	73.5200208143798	0.484771728515625	0.48480224609375	1.053466796875E-06	5.10723054958362E-07	460196.96875	6.44794863546849E-06
1	69	73.6207288141255	0.494842529296875	0.49481201171875	1.05865478515625E-06	5.23835126386984E-07	467396.9375	6.55430267215706E-06
1	70	73.7214368138713	0.504913330078125	0.50482177734375	1.0662841796875E-06	5.38283472906187E-07	473440.1875	6.66130154058919E-06
1	71	73.822144813617	0.514984130859375	0.5150146484375	1.07666015625E-06	5.54495784399478E-07	478344.65625	6.76920762998634E-06
1	72	73.9228528133627	0.525054931640625	0.525054931640625	1.09039306640625E-06	5.72516285046731E-07	481528.125	6.878327440063E-06
1	73	74.0235608131085	0.535125732421875	0.535125732421875	1.107177734375E-06	5.92479295846715E-07	483324.15625	6.98898384143831E-06
1	74	74.1242688128542	0.545196533203125	0.54522705078125	1.129150390625E-06	6.15643330093008E-07	482864.84375	7.10159201844363E-06
1	75	74.2249768125999	0.555267333984375	0.5552978515625	1.15875244140625E-06	6.43452722215443E-07	479220.4375	7.2167968028225E-06
1	76	74.3256848123457	0.565338134765625	0.5653076171875	1.19964599609375E-06	6.78169044476817E-07	471228.6875	7.33555179976975E-06
1	77	74.4263928120914	0.575408935546875	0.575439453125	1.25732421875E-06	7.23513949196786E-07	457669.90625	7.45926990930457E-06
1	78	74.5271008118372	0.585479736328125	0.585418701171875	1.3397216796875E-06	7.84298094913538E-07	436970.40625	7.59004160499899E-06
1	79	74.6278088115829	0.595550537109375	0.595458984375	1.45751953125E-06	8.67893049871782E-07	408542.71875	7.73089413996786E-06
1	80	74.7285168113286	0.605621337890625	0.60552978515625	1.61895751953125E-06	9.80327058641706E-07	374024.5	7.88580655353144E-06
1	81	74.8292248110744	0.615692138671875	0.615692138671875	1.83746337890625E-06	1.13131170564884E-06	335077.25	8.05985109764151E-06
1	82	74.9299328108201	0.625762939453125	0.625732421875	2.12127685546875E-06	1.32735169700027E-06	294979.15625	8.25918959890259E-06
1	83	75.0306408105658	0.635833740234375	0.6357421875	2.47650146484375E-06	1.57441638748423E-06	256709.8125	8.4907060227124E-06
1	84	75.1313488103116	0.645904541015625	0.6458740234375	2.9022216796875E-06	1.87446960353554E-06	222544.6875	8.76154626894277E-06
1	85	75.2320568100573	0.655975341796875	0.65594482421875	3.38714599609375E-06	2.22178073272516E-06	193657.09375	9.07824141904712E-06
1	86	75.3327648098031	0.666046142578125	0.665924072265625	3.91082763671875E-06	2.60431420429086E-06	170277.015625	9.44572366279317E-06
1	87	75.4334728095488	0.676116943359375	0.67608642578125	4.4415283203125E-06	3.00285705634451E-06	152219.328125	9.86629856924992E-06
1	88	75.5341808092945	0.686187744140625	0.6861572265625	4.9468994140625E-06	3.39435086971207E-06	138704.5	1.03390430012951E-05
1	89	75.6348888090403	0.696258544921875	0.69610595703125	5.3802490234375E-06	3.74522323909332E-06	129381.7421875	1.08590566014755E-05
1	90	75.735596808786	0.706329345703125	0.706146240234375	5.7159423828125E-06	4.03629110223847E-06	123539.78125	1.14177937575732E-05
1	91	75.8363048085317	0.716400146484375	0.716278076171875	5.926513671875E-06	4.24503150497912E-06	120859.9453125	1.20040376714314E-05
1	92	75.9370128082775	0.726470947265625	0.726348876953125	6.0150146484375E-06	4.36899927080958E-06	120755.9609375	1.26053419080563E-05
1	93	76.0377208080232	0.736541748046875	0.736297607421875	5.999755859375E-06	4.41760585090378E-06	122721.265625	1.32103332362021E-05
1	94	76.1384288077689	0.746612548828125	0.7464599609375	5.92041015625E-06	4.41934889749973E-06	126082.4765625	1.38105615405948E-05
1	95	76.2391368075147	0.756683349609375	0.7568359375	5.816650390625E-06	4.40224994235905E-06	130115.4296875	1.44015693877009E-05
1	96	76.3398448072604	0.766754150390625	0.76690673828125	5.7220458984375E-06	4.38827555626631E-06	134026.671875	1.49825891639921E-05
1	97	76.4405528070062	0.776824951171875	0.77728271484375	5.6671142578125E-06	4.40494977738126E-06	137156.703125	1.55560792336473E-05
1	98	76.5412608067519	0.786895751953125	0.7867431640625	5.67626953125E-06	4.46576586909941E-06	138602.15625	1.61272637342336E-05
1	99	76.6419688064976	0.796966552734375	0.79681396484375	5.76171875E-06	4.59101784144877E-06	138294.5	1.67032121680677E-05
1	100	76.7426768062434	0.807037353515625	0.80718994140625	5.938720703125E-06	4.79367554362398E-06	135919.828125	1.72923755599186E-05
1	101	76.8433848059891	0.817108154296875	0.8172607421875	6.1981201171875E-06	5.06548030898557E-06	131856.234375	1.79035141627537E-05
1	102	76.9440928057348	0.827178955078125	0.8270263671875	6.5399169921875E-06	5.4086835916678E-06	126458.2421875	1.8544926206232E-05
1	103	77.0448008054806	0.837249755859375	0.83740234375	6.9305419921875E-06	5.80365212954348E-06	120827.828125	1.92232164408779E-05
1	104	77.1455088052263	0.847320556640625	0.84716796875	7.3394775390625E-06	6.21777007836499E-06	115426.203125	1.99417700059712E-05
1	105	77.2462168049721	0.857391357421875	0.8575439453125	7.733154296875E-06	6.63151968183229E-06	110891.875	2.07007360586431E-05
1	106	77.3469248047178	0.867462158203125	0.8673095703125	8.0657958984375E-06	6.99554175298545E-06	107529.328125	2.14962765312521E-05
1	107	77.4476328044635	0.877532958984375	0.87799072265625	8.3038330078125E-06	7.29068824512069E-06	105733.1875	2.23205533984583E-05
1	108	77.5483408042093	0.887603759765625	0.887451171875	8.4228515625E-06	7.47486910768203E-06	105362.3203125	2.31628091569291E-05
1	109	77.649048803955	0.897674560546875	0.89813232421875	8.4197998046875E-06	7.56209465180291E-06	106669.078125	2.40109038713854E-05
1	110	77.7497568037007	0.907745361328125	0.9075927734375	8.3160400390625E-06	7.54757729737321E-06	109137.625	2.48536198341753E-05
1	111	77.8504648034465	0.917816162109375	0.91827392578125	8.135986328125E-06	7.47106378184981E-06	112865.7265625	2.5682045816211E-05
1	112	77.9511728031922	0.927886962890625	0.927734375	7.916259765625E-06	7.34418563297368E-06	117193.53125	2.64903392235283E-05
1	113	78.0518808029379	0.937957763671875	0.93780517578125	7.6873779296875E-06	7.20926254871301E-06	121992.859375	2.72760462394217E-05
1	114	78.1525888026837	0.948028564453125	0.94757080078125	7.4615478515625E-06	7.07034496372216E-06	126993.8671875	2.80388539977139E-05
1	115	78.2532968024294	0.958099365234375	0.95855712890625	7.2479248046875E-06	6.94754999130964E-06	132252.640625	2.87795355689013E-05
1	116	78.3540048021752	0.968170166015625	0.96832275390625	7.0526123046875E-06	6.82920472172555E-06	137299.875	2.94996243610512E-05
1	117	78.4547128019209	0.978240966796875	0.97869873046875	6.8756103515625E-06	6.72915120958351E-06	142343.546875	3.02009666484082E-05
1	118	78.5554208016666	0.988311767578125	0.98785400390625	6.7169189453125E-06	6.63533546685358E-06	147069.515625	3.08854032482486E-05
1	119	78.6561288014124	0.998382568359375	0.99853515625	6.5765380859375E-06	6.56690417599748E-06	151832.953125	3.15547840727959E-05
1	120	78.7568368011581	1.00845336914063	1.00799560546875	6.4483642578125E-06	6.49992307444336E-06	156318.03125	3.22106388921384E-05
1	121	78.8575448009038	1.01852416992188	1.01898193359375	6.33544921875E-06	6.45570844426402E-06	160838.15625	3.28543537762016E-05
1	122	78.9582528006496	1.02859497070313	1.02874755859375	6.2286376953125E-06	6.40769576421008E-06	165164.140625	3.34870055667125E-05
1	123	79.0589608003953	1.03866577148438	1.038818359375	6.134033203125E-06	6.37214589005453E-06	169353.234375	3.4109518310288E-05
1	124	79.159668800141	1.04873657226563	1.04888916015625	6.0455322265625E-06	6.34109301245189E-06	173498.234375	3.47228087775875E-05
1	125	79.2603767998868	1.05880737304688	1.05865478515625	5.96923828125E-06	6.31936245554243E-06	177351.75	3.53277973772492E-05
1	126	79.3610847996325	1.06887817382813	1.0687255859375	5.89599609375E-06	6.30120166533743E-06	181262.953125	3.59252589987591E-05
1	127	79.4617927993783	1.07894897460938	1.07940673828125	5.8319091796875E-06	6.2950020947028E-06	185086.34375	3.65158084605355E-05
1	128	79.562500799124	1.08901977539063	1.08917236328125	5.77392578125E-06	6.28880025033141E-06	188636.359375	3.71002097381279E-05
1	129	79.6632087988697	1.09909057617188	1.099853515625	5.7220458984375E-06	6.2934122979641E-06	192213.328125	3.76790776499547E-05
1	130	79.7639167986155	1.10916137695313	1.10931396484375	5.6732177734375E-06	6.29338001090218E-06	195535.234375	3.82528742193244E-05
1	131	79.8646247983612	1.11923217773438	1.11907958984375	5.633544921875E-06	6.30438489679364E-06	198645.71875	3.88222142646555E-05
1	132	79.9653327981069	1.12930297851563	1.1297607421875	5.5999755859375E-06	6.32663250144105E-06	201743.875	3.93878653994761E-05
1	133	80.0660407978527	1.13937377929688	1.1395263671875	5.572509765625E-06	6.3500215219392E-06	204490.703125	3.99504460801836E-05
1	134	80.1667487975984	1.14944458007813	1.1492919921875	5.548095703125E-06	6.37638186162803E-06	207150.71875	4.05104110541288E-05
1	135	80.2674567973442	1.15951538085938	1.15966796875	5.5267333984375E-06	6.40917551208986E-06	209828.828125	4.10680731874891E-05
1	136	80.3681647970899	1.16958618164063	1.16973876953125	5.5084228515625E-06	6.44341571387486E-06	212354.5625	4.16237380704843E-05
1	137	80.4688727968356	1.17965698242188	1.1798095703125	5.487060546875E-06	6.47368597128661E-06	215016.703125	4.21774057031143E-05
1	138	80.5695807965814	1.18972778320313	1.18927001953125	5.46875E-06	6.50382025924046E-06	217466.53125	4.27290760853793E-05
1	139	80.6702887963271	1.19979858398438	1.199951171875	5.450439453125E-06	6.54026098345639E-06	220156.78125	4.32788983744103E-05
1	140	80.7709967960728	1.20986938476563	1.209716796875	5.4351806640625E-06	6.57502914691577E-06	222571.609375	4.38270326412749E-05
1	141	80.8717047958186	1.21994018554688	1.21978759765625	5.419921875E-06	6.61115336697549E-06	225056.3125	4.43736316810828E-05
1	142	80.9724127955643	1.23001098632813	1.2298583984375	5.4046630859375E-06	6.64697017782601E-06	227555.046875	4.49186918558553E-05
1	143	81.07312079531	1.24008178710938	1.2396240234375	5.389404296875E-06	6.68083475829917E-06	230011.328125	4.54622168035712E-05
1	144	81.1738287950558	1.25015258789063	1.25030517578125	5.3741455078125E-06	6.7193218455941E-06	232651.90625	4.60042065242305E-05
1	145	81.2745367948015	1.26022338867188	1.2603759765625	5.3619384765625E-06	6.75805813443731E-06	235059.765625	4.65448101749644E-05
1	146	81.3752447945473	1.27029418945313	1.27044677734375	5.3466796875E-06	6.79267213854473E-06	237614.15625	4.70840313937515E-05
1	147	81.475952794293	1.28036499023438	1.280517578125	5.3314208984375E-06	6.82697782394825E-06	240183.1875	4.7621717385482E-05
1	148	81.5766607940387	1.29043579101563	1.290283203125	5.3192138671875E-06	6.86329212840064E-06	242570.28125	4.81580173072871E-05
1	149	81.6773687937845	1.30050659179688	1.30096435546875	5.3070068359375E-06	6.90422666593804E-06	245140.890625	4.86930912302341E-05
1	150	81.7780767935302	1.31057739257813	1.31134033203125	5.2978515625E-06	6.94728578309878E-06	247523.0625	4.92270883114543E-05
1	151	81.8787847932759	1.32064819335938	1.32049560546875	5.2886962890625E-06	6.98370013196836E-06	249682.640625	4.97601649840362E-05
1	152	81.9794927930217	1.33071899414063	1.33026123046875	5.279541015625E-06	7.0231685640465E-06	251965.328125	5.02923176100012E-05
1	153	82.0802007927674	1.34078979492188	1.3409423828125	5.2734375E-06	7.07137542121927E-06	254282.421875	5.08237026224378E-05
1	154	82.1809087925132	1.35086059570313	1.3507080078125	5.267333984375E-06	7.11463007974089E-06	256431.046875	5.13544728164561E-05
1	155	82.2816167922589	1.36093139648438	1.361083984375	5.26123046875E-06	7.16097656550119E-06	258700.703125	5.18846245540772E-05
1	156	82.3823247920046	1.37100219726563	1.37054443359375	5.2581787109375E-06	7.20656726116431E-06	260650.03125	5.24143215443473E-05
1	157	82.4830327917504	1.38107299804688	1.38153076171875	5.2581787109375E-06	7.26433563613682E-06	262739.40625	5.29438621015288E-05
1	158	82.5837407914961	1.39114379882813	1.39068603515625	5.2581787109375E-06	7.31247564544901E-06	264480.5625	5.34734026587103E-05
1	159	82.6844487912418	1.40121459960938	1.4007568359375	5.2581787109375E-06	7.36542961021769E-06	266395.8125	5.40029432158917E-05
1	160	82.7851567909876	1.41128540039063	1.4111328125	5.2581787109375E-06	7.41998837838764E-06	268369.125	5.45324837730732E-05
1	161	82.8858647907333	1.42135620117188	1.4215087890625	5.26123046875E-06	7.47888543628505E-06	270185.625	5.50621771253645E-05
1	162	82.986572790479	1.43142700195313	1.43096923828125	5.267333984375E-06	7.53739277570276E-06	271668.59375	5.55923325009644E-05
1	163	83.0872807902248	1.44149780273438	1.44195556640625	5.2764892578125E-06	7.6084625106887E-06	273279.375	5.61232554900926E-05
1	164	83.1879887899705	1.45156860351563	1.45172119140625	5.28564453125E-06	7.67328219808405E-06	274653.59375	5.66551025258377E-05
1	165	83.2886967897163	1.46163940429688	1.46148681640625	5.3009033203125E-06	7.74719956098124E-06	275705.25	5.71881755604409E-05
1	166	83.389404789462	1.47171020507813	1.47186279296875	5.3192138671875E-06	7.8291532190633E-06	276706.8125	5.77229438931681E-05
1	167	83.4901127892077	1.48178100585938	1.48162841796875	5.3436279296875E-06	7.91727052273927E-06	277270.125	5.82598586333916E-05
1	168	83.5908207889535	1.49185180664063	1.49169921875	5.37109375E-06	8.01205624156864E-06	277727.28125	5.87993890803773E-05
1	169	83.6915287886992	1.50192260742188	1.50177001953125	5.4046630859375E-06	8.11656082078116E-06	277865.59375	5.93419899814762E-05
1	170	83.7922367884449	1.49185180664063	1.49139404296875	5.2093505859375E-06	7.76919478084892E-06	286291.75	5.98764490860049E-05
1	171	83.8929447881907	1.48178100585938	1.48193359375	5.0628662109375E-06	7.50283106754068E-06	292706.46875	6.03936969127972E-05
1	172	83.9936527879364	1.47171020507813	1.47186279296875	4.9468994140625E-06	7.28115719539346E-06	297532.375	6.08977279625833E-05
1	173	84.0943607876821	1.46163940429688	1.4617919921875	4.84954833984375E-06	7.08903053237009E-06	301428.5	6.13910160609521E-05
1	174	84.1950687874279	1.45156860351563	1.451416015625	4.76593017578125E-06	6.91734703650582E-06	304539.9375	6.18751946603879E-05
1	175	84.2957767871736	1.44149780273438	1.44134521484375	4.69085693359375E-06	6.76114404996042E-06	307266.9375	6.23513842583634E-05
1	176	84.3964847869194	1.43142700195313	1.4312744140625	4.62432861328125E-06	6.61868307361146E-06	309509.6875	6.2820443417877E-05
1	177	84.4971927866651	1.42135620117188	1.42120361328125	4.56268310546875E-06	6.4845016822801E-06	311484.1875	6.32830415270291E-05
1	178	84.5979007864108	1.41128540039063	1.4105224609375	4.508056640625E-06	6.35871492704609E-06	312889.25	6.37397897662595E-05
1	179	84.6986087861566	1.40121459960938	1.4019775390625	4.45709228515625E-06	6.24874292043387E-06	314549.84375	6.41912192804739E-05
1	180	84.7993167859023	1.39114379882813	1.3909912109375	4.41070556640625E-06	6.13525253356784E-06	315367.0625	6.46377520752139E-05
1	181	84.900024785648	1.38107299804688	1.38153076171875	4.36798095703125E-06	6.03449962000013E-06	316285.90625	6.5079795604106E-05
1	182	85.0007327853938	1.37100219726563	1.37054443359375	4.3267822265625E-06	5.93004688198562E-06	316758.375	6.55176118016243E-05
1	183	85.1014407851395	1.36093139648438	1.36077880859375	4.288330078125E-06	5.83546852794825E-06	317321.40625	6.59514116705395E-05
1	184	85.2021487848853	1.35086059570313	1.3507080078125	4.25048828125E-06	5.74116802454228E-06	317777.15625	6.63813771097921E-05
1	185	85.302856784631	1.34078979492188	1.34124755859375	4.21630859375E-06	5.65511300010257E-06	318109.46875	6.68077118461952E-05
1	186	85.4035647843767	1.33071899414063	1.33087158203125	4.18365478515625E-06	5.56790701011778E-06	318112.1875	6.72306850901805E-05
1	187	85.5042727841225	1.32064819335938	1.32049560546875	4.15313720703125E-06	5.48419939150335E-06	317951.375	6.76504787406884E-05
1	188	85.6049807838682	1.31057739257813	1.31072998046875	4.124755859375E-06	5.40644123248057E-06	317771.53125	6.80673038004898E-05
1	189	85.7056887836139	1.30050659179688	1.30096435546875	4.09759521484375E-06	5.33082538822782E-06	317494.59375	6.84813276166096E-05
1	190	85.8063967833597	1.29043579101563	1.2908935546875	4.07012939453125E-06	5.25410359841771E-06	317162.78125	6.8892608396709E-05
1	191	85.9071047831054	1.28036499023438	1.280517578125	4.04266357421875E-06	5.17670150657068E-06	316750.96875	6.93011170369573E-05
1	192	86.0078127828511	1.27029418945313	1.27044677734375	4.0167236328125E-06	5.10303334522177E-06	316289.34375	6.9706940848846E-05
1	193	86.1085207825969	1.26022338867188	1.26068115234375	3.990478515625E-06	5.03072124047321E-06	315922.3125	7.0110138040036E-05
1	194	86.2092287823426	1.25015258789063	1.25030517578125	3.966064453125E-06	4.9587911234994E-06	315250.84375	7.05107813701034E-05
1	195	86.3099367820884	1.24008178710938	1.24053955078125	3.9422607421875E-06	4.89053036289988E-06	314677.1875	7.09089945303276E-05
1	196	86.4106447818341	1.23001098632813	1.2298583984375	3.91937255859375E-06	4.82027280668262E-06	313789.625	7.13048575562425E-05
1	197	86.5113527815798	1.21994018554688	1.21978759765625	3.89617919921875E-06	4.75251090392703E-06	313072.78125	7.16984068276361E-05
1	198	86.6120607813256	1.20986938476563	1.21002197265625	3.873291015625E-06	4.68676716991467E-06	312401.5	7.20896277925931E-05
1	199	86.7127687810713	1.19979858398438	1.199951171875	3.85009765625E-06	4.61992885902873E-06	311667.71875	7.24785350030288E-05
1	200	86.813476780817	1.18972778320313	1.18896484375	3.82720947265625E-06	4.55041708846693E-06	310661.0625	7.2865113907028E-05
1	201	86.9141847805628	1.17965698242188	1.17919921875	3.804931640625E-06	4.48677246822626E-06	309913.375	7.32494227122515E-05
1	202	87.0148927803085	1.16958618164063	1.16943359375	3.7835693359375E-06	4.42463306171703E-06	309082.125	7.36315341782756E-05
1	203	87.1156007800543	1.15951538085938	1.15936279296875	3.76373291015625E-06	4.36353184340987E-06	308035.375	7.40115719963796E-05
1	204	87.2163087798	1.14944458007813	1.1492919921875	3.74420166015625E-06	4.30318095823168E-06	306952.46875	7.43896307540126E-05
1	205	87.3170167795457	1.13937377929688	1.1395263671875	3.72528076171875E-06	4.24505560658872E-06	305890.0625	7.47657468309626E-05
1	206	87.4177247792915	1.12930297851563	1.129150390625	3.7060546875E-06	4.1846928979794E-06	304677.21875	7.51399420551024E-05
1	207	87.5184327790372	1.11923217773438	1.119384765625	3.68804931640625E-06	4.12834606322576E-06	303516.75	7.55122673581354E-05
1	208	87.6191407787829	1.10916137695313	1.109619140625	3.67095947265625E-06	4.07336665375624E-06	302269.53125	7.58828246034682E-05
1	209	87.7198487785287	1.09909057617188	1.0992431640625	3.65386962890625E-06	4.01649094783352E-06	300843.5625	7.62516574468464E-05
1	210	87.8205567782744	1.08901977539063	1.08917236328125	3.638916015625E-06	3.96340647057514E-06	299312.3125	7.66188750276342E-05
1	211	87.9212647780201	1.07894897460938	1.07879638671875	3.62457275390625E-06	3.91017601941712E-06	297634.09375	7.6984622864984E-05
1	212	88.0219727777659	1.06887817382813	1.06903076171875	3.6102294921875E-06	3.85944622394163E-06	296111.59375	7.73489227867685E-05
1	213	88.1226807775116	1.05880737304688	1.0589599609375	3.59527587890625E-06	3.80725305149099E-06	294542.0625	7.7711752965115E-05
1	214	88.2233887772574	1.04873657226563	1.04888916015625	3.58001708984375E-06	3.75504100702528E-06	292984.40625	7.80730551923625E-05
1	215	88.3240967770031	1.03866577148438	1.038818359375	3.56353759765625E-06	3.70186830878083E-06	291513.21875	7.84327639848925E-05
1	216	88.4248047767488	1.02859497070313	1.0284423828125	3.5467529296875E-06	3.64763104698795E-06	289967.3125	7.87907920312136E-05
1	217	88.5255127764946	1.01852416992188	1.01837158203125	3.52935791015625E-06	3.59419777851144E-06	288543.03125	7.91471029515378E-05
1	218	88.6262207762403	1.00845336914063	1.00860595703125	3.50982666015625E-06	3.54003213942633E-06	287366.3125	7.95015512267128E-05
1	219	88.726928775986	0.998382568359375	0.99853515625	3.4893798828125E-06	3.4842685181502E-06	286164.0625	7.98539913375862E-05
1	220	88.8276367757318	0.988311767578125	0.98876953125	3.4649658203125E-06	3.42605244441074E-06	285362	8.02041686256416E-05
1	221	88.9283447754775	0.978240966796875	0.97808837890625	3.433837890625E-06	3.35859681399597E-06	284838.25	8.05515519459732E-05
1	222	89.0290527752232	0.968170166015625	0.9686279296875	3.39569091796875E-06	3.28916098624177E-06	285252.09375	8.08954500826076E-05
1	223	89.129760774969	0.958099365234375	0.958251953125	3.34716796875E-06	3.20743015436165E-06	286287.375	8.12349753687158E-05
1	224	89.2304687747147	0.948028564453125	0.948486328125	3.28369140625E-06	3.11453618451196E-06	288847.59375	8.15688690636307E-05
1	225	89.3311767744605	0.937957763671875	0.93780517578125	3.2012939453125E-06	3.00218994198076E-06	292945.6875	8.18954140413553E-05
1	226	89.4318847742062	0.927886962890625	0.92803955078125	3.09051513671875E-06	2.86812019112404E-06	300286.375	8.22122310637496E-05
1	227	89.5325927739519	0.917816162109375	0.91796875	2.94281005859375E-06	2.7014075385523E-06	311936.125	8.25160313979723E-05
1	228	89.6333007736977	0.907745361328125	0.9075927734375	2.7471923828125E-06	2.49333197643864E-06	330371.03125	8.28025440569036E-05
1	229	89.7340087734434	0.897674560546875	0.89752197265625	2.48992919921875E-06	2.23476604332973E-06	360460.84375	8.3066253864672E-05
1	230	89.8347167731891	0.887603759765625	0.88775634765625	2.16796875E-06	1.92462789527781E-06	409487.625	8.33008016343229E-05
1	231	89.9354247729349	0.877532958984375	0.87799072265625	1.77947998046875E-06	1.56236683324096E-06	493397.375	8.34995735203847E-05
1	232	90.0361327726806	0.867462158203125	0.86700439453125	1.3348388671875E-06	1.15731120331475E-06	649519.875	8.36563922348432E-05
1	233	90.1368407724264	0.857391357421875	0.8575439453125	8.5174560546875E-07	7.30409283278277E-07	1006807.625	8.3766492025461E-05
1	234	90.2375487721721	0.847320556640625	0.84747314453125	3.61022949218751E-07	3.05957229329579E-07	2347422	8.38275591377169E-05
1	235	90.3382567719178	0.837249755859375	0.83740234375	-1.080322265625E-07	-9.04664361200958E-08	-7751412.5	8.38402993394993E-05
1	236	90.4389647716636	0.827178955078125	0.8270263671875	-5.19409179687499E-07	-4.29565091053519E-07	-1592244.375	8.38087071315385E-05
1	237	90.5396727714093	0.817108154296875	0.8172607421875	-8.4716796875E-07	-6.92357104981056E-07	-964697.4375	8.37398911244236E-05
1	238	90.640380771155	0.807037353515625	0.806884765625	-1.06903076171875E-06	-8.62584613514628E-07	-754781.625	8.36434046505019E-05
1	239	90.7410887709008	0.796966552734375	0.79681396484375	-1.1859130859375E-06	-9.4495214852941E-07	-671899.125	8.3529856055975E-05
1	240	90.8417967706465	0.786895751953125	0.78704833984375	-1.21246337890625E-06	-9.54267193264968E-07	-649131.6875	8.34090897114947E-05
1	241	90.9425047703922	0.776824951171875	0.77728271484375	-1.17706298828125E-06	-9.14910685878567E-07	-660357.8125	8.3288767200429E-05
1	242	91.043212770138	0.766754150390625	0.7672119140625	-1.1138916015625E-06	-8.54590894050489E-07	-688767.125	8.31734068924561E-05
1	243	91.1439207698837	0.756683349609375	0.7568359375	-1.055908203125E-06	-7.99149290742207E-07	-716763	8.30641511129215E-05
1	244	91.2446287696295	0.746612548828125	0.746551513671875	-1.0260009765625E-06	-7.65962568038958E-07	-727632.375	8.29593191156164E-05
1	245	91.3453367693752	0.736541748046875	0.7364501953125	-1.0467529296875E-06	-7.7088139960324E-07	-703556.875	8.28549455036409E-05
1	246	91.4460447691209	0.726470947265625	0.72637939453125	-1.13372802734375E-06	-8.23516643322364E-07	-640699.875	8.27451513032429E-05
1	247	91.5467527688667	0.716400146484375	0.716339111328125	-1.2994384765625E-06	-9.30838552903879E-07	-551268.25	8.26226314529777E-05
1	248	91.6474607686124	0.706329345703125	0.70623779296875	-1.54754638671875E-06	-1.09293569039437E-06	-456359.6875	8.24792732601054E-05
1	249	91.7481687683581	0.696258544921875	0.696075439453125	-1.87286376953125E-06	-1.30365447148506E-06	-371663.6875	8.23070440674201E-05
1	250	91.8488767681039	0.686187744140625	0.686187744140625	-2.2552490234375E-06	-1.54752422076854E-06	-304262.53125	8.20991772343405E-05
1	251	91.9495847678496	0.676116943359375	0.676055908203125	-2.6666259765625E-06	-1.80278823336266E-06	-253524.828125	8.18513435660861E-05
1	252	92.0502927675954	0.666046142578125	0.66607666015625	-3.0706787109375E-06	-2.04530738301401E-06	-216915.140625	8.15624443930574E-05
1	253	92.1510007673411	0.655975341796875	0.655914306640625	-3.42803955078125E-06	-2.24850009544753E-06	-191338.03125	8.12352081993595E-05
1	254	92.2517087670868	0.645904541015625	0.645843505859375	-3.69964599609375E-06	-2.3893924208096E-06	-174569	8.0876299762167E-05
1	255	92.3524167668326	0.635833740234375	0.6358642578125	-3.8604736328125E-06	-2.45473711402155E-06	-164711.46875	8.0495621659793E-05
1	256	92.4531247665783	0.625762939453125	0.62567138671875	-3.90106201171875E-06	-2.44078296418593E-06	-160384.890625	8.01047935965471E-05
1	257	92.553832766324	0.615692138671875	0.61572265625	-3.834228515625E-06	-2.36082109950075E-06	-160585.8125	7.9715289757587E-05
1	258	92.6545407660698	0.605621337890625	0.605560302734375	-3.68865966796875E-06	-2.23370579988114E-06	-164168.125	7.93364815763198E-05
1	259	92.7552487658155	0.595550537109375	0.595550537109375	-3.4979248046875E-06	-2.0831910205743E-06	-170258.25	7.89746118243784E-05
1	260	92.8559567655612	0.585479736328125	0.58544921875	-3.28857421875E-06	-1.92529319065216E-06	-178025.25	7.8632881923113E-05
1	261	92.956664765307	0.575408935546875	0.575439453125	-3.0792236328125E-06	-1.77190668182448E-06	-186878.109375	7.83122377470136E-05
1	262	93.0573727650527	0.565338134765625	0.565338134765625	-2.8802490234375E-06	-1.62831463512703E-06	-196281	7.80121554271318E-05
1	263	93.1580807647985	0.555267333984375	0.55535888671875	-2.69561767578125E-06	-1.49703521401534E-06	-206022.875	7.77313907747157E-05
1	264	93.2587887645442	0.545196533203125	0.545196533203125	-2.52777099609375E-06	-1.37813196943171E-06	-215682.734375	7.74683721829206E-05
1	265	93.3594967642899	0.535125732421875	0.535186767578125	-2.37640380859375E-06	-1.27181976949942E-06	-225208.6875	7.72214261814952E-05
1	266	93.4602047640357	0.525054931640625	0.5250244140625	-2.24151611328125E-06	-1.1768506738008E-06	-234227.375	7.69888938521035E-05
1	267	93.5609127637814	0.514984130859375	0.5150146484375	-2.12127685546875E-06	-1.09248867374845E-06	-242785.21875	7.67692108638585E-05
1	268	93.6616207635271	0.504913330078125	0.504913330078125	-2.0135498046875E-06	-1.01666807950096E-06	-250757.828125	7.6561002060771E-05
1	269	93.7623287632729	0.494842529296875	0.494873046875	-1.9171142578125E-06	-9.48728086314077E-07	-258134.375	7.636308146175E-05
1	270	93.8630367630186	0.484771728515625	0.484710693359375	-1.829833984375E-06	-8.86940085820243E-07	-264893.25	7.61744086048566E-05
1	271	93.9637447627643	0.474700927734375	0.4747314453125	-1.749267578125E-06	-8.30432327347808E-07	-271388.6875	7.59941831347533E-05
1	272	94.0644527625101	0.464630126953125	0.46466064453125	-1.67633056640625E-06	-7.78924800215464E-07	-277189.15625	7.58216920075938E-05
1	273	94.1651607622558	0.454559326171875	0.454620361328125	-1.60858154296875E-06	-7.31293937406008E-07	-282621.90625	7.5656280387193E-05
1	274	94.2658687620016	0.444488525390625	0.444488525390625	-1.546630859375E-06	-6.87459646542266E-07	-287391.46875	7.54974025767297E-05
1	275	94.3665767617473	0.434417724609375	0.4344482421875	-1.49017333984375E-06	-6.47403169296012E-07	-291542.09375	7.534449105151E-05
1	276	94.467284761493	0.424346923828125	0.424346923828125	-1.43798828125E-06	-6.10205859175039E-07	-295097.625	7.51970437704585E-05
1	277	94.5679927612388	0.414276123046875	0.414276123046875	-1.3885498046875E-06	-5.75243007006065E-07	-298351.65625	7.50547187635675E-05
1	278	94.6687007609845	0.404205322265625	0.404266357421875	-1.34246826171875E-06	-5.42714701623481E-07	-301136.625	7.49172031646594E-05
1	279	94.7694087607302	0.394134521484375	0.394134521484375	-1.29852294921875E-06	-5.11792677571066E-07	-303525.28125	7.47842132113874E-05
1	280	94.870116760476	0.384063720703125	0.384124755859375	-1.25732421875E-06	-4.8296936938641E-07	-305509.6875	7.46555160731077E-05
1	281	94.9708247602217	0.373992919921875	0.37396240234375	-1.21826171875E-06	-4.55584057590386E-07	-306963.9375	7.45308643672615E-05
1	282	95.0715327599675	0.363922119140625	0.363922119140625	-1.18255615234375E-06	-4.30358340963721E-07	-307741.9375	7.44099743315019E-05
1	283	95.1722407597132	0.353851318359375	0.353912353515625	-1.1492919921875E-06	-4.06748625891851E-07	-307939.46875	7.42925549275242E-05
1	284	95.2729487594589	0.343780517578125	0.34381103515625	-1.1175537109375E-06	-3.84227291760908E-07	-307646.09375	7.41784097044729E-05
1	285	95.3736567592047	0.333709716796875	0.333740234375	-1.08856201171875E-06	-3.63296919658751E-07	-306588.1875	7.40673203836195E-05
1	286	95.4743647589504	0.323638916015625	0.323638916015625	-1.0601806640625E-06	-3.43115743817179E-07	-305267.6875	7.39591268938966E-05
1	287	95.5750727586961	0.313568115234375	0.313568115234375	-1.03302001953125E-06	-3.23922137113186E-07	-303545.0625	7.38537273718975E-05
1	288	95.6757807584419	0.303497314453125	0.303497314453125	-1.00830078125E-06	-3.06016573858869E-07	-300998.8125	7.37509326427244E-05
1	289	95.7764887581876	0.293426513671875	0.293426513671875	-9.85107421875001E-07	-2.89056629299012E-07	-297862.46875	7.36505608074367E-05
1	290	95.8771967579333	0.283355712890625	0.28338623046875	-9.6405029296875E-07	-2.73198565992061E-07	-293953.78125	7.3552415415179E-05
1	291	95.9779047576791	0.273284912109375	0.2733154296875	-9.4451904296875E-07	-2.58151629850545E-07	-289369.96875	7.34563072910532E-05
1	292	96.0786127574248	0.263214111328125	0.26318359375	-9.2742919921875E-07	-2.44084162659419E-07	-283777.5625	7.33620472601615E-05
1	293	96.1793207571706	0.253143310546875	0.25311279296875	-9.10034179687499E-07	-2.30341285600844E-07	-278135.5	7.32695261831395E-05
1	294	96.2800287569163	0.243072509765625	0.24310302734375	-8.9385986328125E-07	-2.17300041072122E-07	-271969.96875	7.31786931282841E-05
1	295	96.380736756662	0.233001708984375	0.2330322265625	-8.79821777343751E-07	-2.05026822186483E-07	-264863	7.308938074857E-05
1	296	96.4814447564078	0.222930908203125	0.222991943359375	-8.66088867187501E-07	-1.93130830439259E-07	-257470.0625	7.30014653527178E-05
1	297	96.5821527561535	0.212860107421875	0.212921142578125	-8.544921875E-07	-1.81939441290524E-07	-249178.578125	7.29148305254057E-05
1	298	96.6828607558992	0.202789306640625	0.202880859375	-8.453369140625E-07	-1.71502676948876E-07	-240000	7.28292361600325E-05
1	299	96.783568755645	0.192718505859375	0.19268798828125	-8.38623046875001E-07	-1.61592581093828E-07	-229767.109375	7.27444421499968E-05
1	300	96.8842767553907	0.182647705078125	0.182647705078125	-8.32519531250001E-07	-1.52057779700954E-07	-219391.5	7.26602884242311E-05
1	301	96.9849847551365	0.172576904296875	0.172607421875	-8.29467773437501E-07	-1.43172286470872E-07	-208094.1875	7.25766003597528E-05
1	302	97.0856927548822	0.162506103515625	0.162567138671875	-8.2855224609375E-07	-1.34695369524707E-07	-196206.265625	7.24931160220876E-05
1	303	97.1864007546279	0.152435302734375	0.15252685546875	-8.3038330078125E-07	-1.26655748999838E-07	-183682.46875	7.24095807527192E-05
1	304	97.2871087543737	0.142364501953125	0.1424560546875	-8.37097167968751E-07	-1.19249563113044E-07	-170178.640625	7.23256162018515E-05
1	305	97.3878167541194	0.132293701171875	0.13232421875	-8.4991455078125E-07	-1.12464277890467E-07	-155691.203125	7.22406693967059E-05
1	306	97.4885247538651	0.122222900390625	0.122283935546875	-8.70666503906251E-07	-1.06468526439585E-07	-140448.65625	7.21540345693938E-05
1	307	97.5892327536109	0.112152099609375	0.11224365234375	-9.0057373046875E-07	-1.01083678316627E-07	-124635.71875	7.20648458809592E-05
1	308	97.6899407533566	0.102081298828125	0.1021728515625	-9.41162109375E-07	-9.61612158789649E-08	-108560.3125	7.19721065252088E-05
1	309	97.7906487531023	0.092010498046875	0.0921630859375	-9.9517822265625E-07	-9.17186966375994E-08	-92609.6328125	7.18746014172211E-05
1	310	97.8913567528481	0.081939697265625	0.08203125	-1.06475830078125E-06	-8.73434515824556E-08	-77042.1328125	7.17708753654733E-05
1	311	97.9920647525938	0.071868896484375	0.07196044921875	-1.1553955078125E-06	-8.31427797720607E-08	-62282.09375	7.16590802767314E-05
1	312	98.0927727523396	0.061798095703125	0.06182861328125	-1.2713623046875E-06	-7.86065683655579E-08	-48631.78125	7.15368878445588E-05
1	313	98.1934807520853	0.051727294921875	0.051788330078125	-1.41693115234375E-06	-7.33804981223329E-08	-36549.64453125	7.14015186531469E-05
1	314	98.294188751831	0.041656494140625	0.041802978515625	-1.593017578125E-06	-6.65928752141554E-08	-26241.380859375	7.12499531800859E-05
1	315	98.3948967515768	0.031585693359375	0.0316680908203125	-1.79473876953125E-06	-5.68359475039415E-08	-17644.95703125	7.10793683538213E-05
1	316	98.4956047513225	0.021514892578125	0.0216339111328125	-2.00897216796875E-06	-4.34619273903536E-08	-10768.646484375	7.08878360455856E-05
1	317	98.5963127510682	0.011444091796875	0.0115325927734375	-2.21832275390625E-06	-2.55830112649846E-08	-5198.78955078125	7.06749779055826E-05
1	318	98.697020750814	0.001373291015625	0.0014617919921875	-2.40234375E-06	-3.51172668722199E-09	-608.48583984375	7.04423073329963E-05
1	319	98.7977287505597	-0.008697509765625	-0.0086090087890625	-2.5421142578125E-06	2.188508219092E-08	3386.55493164063	7.01933313393965E-05
1	320	98.8984367503055	-0.018768310546875	-0.0186248779296875	-2.62908935546875E-06	4.89664664371503E-08	7084.15576171875	6.99329393683001E-05
1	321	98.9991447500512	-0.028839111328125	-0.0287139892578125	-2.66357421875E-06	7.64818395282418E-08	10780.248046875	6.96664355928078E-05
1	322	99.0998527497969	-0.038909912109375	-0.0387603759765625	-2.6531982421875E-06	1.02838960458485E-07	14608.92578125	6.9398716732394E-05
1	323	99.2005607495427	-0.048980712890625	-0.0488189697265625	-2.6104736328125E-06	1.27440628716613E-07	18701.193359375	6.91336681484245E-05
1	324	99.3012687492884	-0.059051513671875	-0.05889892578125	-2.54852294921875E-06	1.50105250895649E-07	23111.005859375	6.88738946337253E-05
1	325	99.4019767490341	-0.069122314453125	-0.069061279296875	-2.4774169921875E-06	1.71093589074189E-07	27876.32421875	6.86208150000311E-05
1	326	99.5026847487799	-0.079193115234375	-0.079132080078125	-2.40478515625E-06	1.90295651236738E-07	32906.08984375	6.83749749441631E-05
1	327	99.6033927485256	-0.089263916015625	-0.08917236328125	-2.33428955078125E-06	2.08154119718529E-07	38201.0703125	6.81363453622907E-05
1	328	99.7041007482713	-0.099334716796875	-0.0992431640625	-2.2698974609375E-06	2.25271790554871E-07	43721.43359375	6.79045042488724E-05
1	329	99.8048087480171	-0.109405517578125	-0.109375	-2.2119140625E-06	2.41928091782029E-07	49448.125	6.76788258715533E-05
1	330	99.9055167477628	-0.119476318359375	-0.119354248046875	-2.16064453125E-06	2.57882106780016E-07	55240.11328125	6.74586553941481E-05
1	331	100.006224747509	-0.129547119140625	-0.12945556640625	-2.1160888671875E-06	2.73939463113493E-07	61176.8125	6.72433016006835E-05
1	332	100.106932747254	-0.139617919921875	-0.139556884765625	-2.0770263671875E-06	2.89863322677775E-07	67190.71875	6.70321605866775E-05
1	333	100.207640747	-0.149688720703125	-0.149566650390625	-2.04315185546875E-06	3.05587377624761E-07	73203.8828125	6.68246939312667E-05
1	334	100.308348746746	-0.159759521484375	-0.159637451171875	-2.01507568359375E-06	3.2168151165024E-07	79221.5703125	6.66203486616723E-05
1	335	100.409056746492	-0.169830322265625	-0.16973876953125	-1.9921875E-06	3.38151437517809E-07	85202.2109375	6.64185645291582E-05
1	336	100.509764746237	-0.179901123046875	-0.17974853515625	-1.97418212890625E-06	3.54856354078947E-07	91049.6171875	6.62188394926488E-05
1	337	100.610472745983	-0.189971923828125	-0.189788818359375	-1.96136474609375E-06	3.72245068547272E-07	96763.65625	6.60206715110689E-05
1	338	100.711180745729	-0.200042724609375	-0.19989013671875	-1.95343017578125E-06	3.9047142763593E-07	102327.7578125	6.58235439914279E-05
1	339	100.811888745474	-0.189971923828125	-0.189849853515625	-1.737060546875E-06	3.29780675656366E-07	109293.75	6.56377160339616E-05
2	340	100.91259674522	-0.179901123046875	-0.179656982421875	-1.58203125E-06	2.84222949176183E-07	113560.9609375	6.54705872875638E-05
2	341	101.013304744966	-0.169830322265625	-0.169647216796875	-1.455078125E-06	2.46849936047511E-07	116589.7734375	6.53176539344713E-05
2	342	101.114012744712	-0.159759521484375	-0.15966796875	-1.3458251953125E-06	2.14885162108658E-07	118639.4609375	6.5176616772078E-05
2	343	101.214720744457	-0.149688720703125	-0.14959716796875	-1.25E-06	1.86996459206057E-07	119677.734375	6.50459114694968E-05
2	344	101.315428744203	-0.139617919921875	-0.139495849609375	-1.16363525390625E-06	1.62322294272599E-07	119879.359375	6.49243738735095E-05
2	345	101.416136743949	-0.129547119140625	-0.129486083984375	-1.085205078125E-06	1.40518963576142E-07	119319.4609375	6.48111381451599E-05
2	346	101.516844743695	-0.119476318359375	-0.119354248046875	-1.0113525390625E-06	1.20709216844261E-07	118014.484375	6.47055640001781E-05
2	347	101.61755274344	-0.109405517578125	-0.109283447265625	-9.3994140625E-07	1.027200369208E-07	116266.234375	6.46073094685562E-05
2	348	101.718260743186	-0.099334716796875	-0.09930419921875	-8.6883544921875E-07	8.62790017208681E-08	114295.7578125	6.45162290311418E-05
2	349	101.818968742932	-0.089263916015625	-0.0892333984375	-7.95898437500001E-07	7.10207217480274E-08	112116.5703125	6.44324027234688E-05
2	350	101.919676742678	-0.079193115234375	-0.07916259765625	-7.18994140625E-07	5.69174396503058E-08	110101.875	6.43561215838417E-05
2	351	102.020384742423	-0.069122314453125	-0.06903076171875	-6.3446044921875E-07	4.3797285798064E-08	108802.3125	6.42879676888697E-05
2	352	102.121092742169	-0.059051513671875	-0.0589599609375	-5.3863525390625E-07	3.17579100794774E-08	109461.765625	6.42289014649577E-05
2	353	102.221800741915	-0.048980712890625	-0.0488372802734375	-4.25109863281251E-07	2.07612096403409E-08	114881.5625	6.41803708276711E-05
2	354	102.32250874166	-0.038909912109375	-0.0387420654296875	-2.8839111328125E-07	1.11728670759703E-08	134338.625	6.41444421489723E-05
2	355	102.423216741406	-0.028839111328125	-0.02872314453125	-1.22680664062499E-07	3.52377438339602E-09	234129.359375	6.41237493255176E-05
2	356	102.523924741152	-0.018768310546875	-0.018646240234375	7.476806640625E-08	-1.39414335631471E-09	-249387.75	6.41213337075897E-05
2	357	102.624632740898	-0.008697509765625	-0.00861511230468751	3.0029296875E-07	-2.58705745714849E-09	-28689.025390625	6.41402220935561E-05
2	358	102.725340740643	0.001373291015625	0.001483154296875	5.44128417968751E-07	8.07026334648242E-10	2725.7431640625	6.41827355138958E-05
2	359	102.826048740389	0.011444091796875	0.011505126953125	7.9010009765625E-07	9.09020236861124E-09	14561.6064453125	6.42499217065051E-05
2	360	102.926756740135	0.021514892578125	0.0216644287109375	1.01654052734375E-06	2.20227711622556E-08	21311.919921875	6.43408930045553E-05
2	361	103.027464739881	0.031585693359375	0.0316375732421875	1.20269775390625E-06	3.80504339148047E-08	26305.505859375	6.44526444375515E-05
2	362	103.128172739626	0.041656494140625	0.0417633056640625	1.337890625E-06	5.58747323964326E-08	31215.78515625	6.45805703243241E-05
2	363	103.228880739372	0.051727294921875	0.05181884765625	1.414794921875E-06	7.33130391949999E-08	36626.40234375	6.47191773168743E-05
2	364	103.329588739118	0.061798095703125	0.061920166015625	1.441650390625E-06	8.92672318286714E-08	42950.890625	6.48630157229491E-05
2	365	103.430296738864	0.071868896484375	0.071929931640625	1.42913818359375E-06	1.02797805823229E-07	50330.984375	6.500756717287E-05
2	366	103.531004738609	0.081939697265625	0.082061767578125	1.39312744140625E-06	1.14322496358454E-07	58904.7109375	6.51496811769903E-05
2	367	103.631712738355	0.092010498046875	0.092010498046875	1.34185791015625E-06	1.23465014212343E-07	68569.4765625	6.52874005027115E-05
2	368	103.732420738101	0.102081298828125	0.10211181640625	1.28662109375E-06	1.3137922394435E-07	79364.328125	6.54197501717135E-05
2	369	103.833128737847	0.112152099609375	0.1121826171875	1.23138427734375E-06	1.3813989596656E-07	91102.859375	6.55465410090983E-05
2	370	103.933836737592	0.122222900390625	0.12225341796875	1.18011474609375E-06	1.44273059277111E-07	103594.515625	6.5667976741679E-05
2	371	104.034544737338	0.132293701171875	0.13238525390625	1.13494873046875E-06	1.50250471619984E-07	116644.265625	6.57845448586158E-05
2	372	104.135252737084	0.142364501953125	0.14239501953125	1.09466552734375E-06	1.55874928964295E-07	130080.84375	6.58968128846027E-05
2	373	104.235960736829	0.152435302734375	0.1524658203125	1.05987548828125E-06	1.61594783776309E-07	143852.578125	6.60053046885878E-05
2	374	104.336668736575	0.162506103515625	0.16259765625	1.0296630859375E-06	1.67420793673045E-07	157913.453125	6.61105223116465E-05
2	375	104.437376736321	0.172576904296875	0.17254638671875	1.0028076171875E-06	1.7303082699982E-07	172063.296875	6.62128659314476E-05
2	376	104.538084736067	0.182647705078125	0.18267822265625	9.79003906250001E-07	1.78842682885261E-07	186596.015625	6.63126556901261E-05
2	377	104.638792735812	0.192718505859375	0.192779541015625	9.5855712890625E-07	1.84790195589812E-07	201114.3125	6.64102190057747E-05
2	378	104.739500735558	0.202789306640625	0.2027587890625	9.4146728515625E-07	1.90890759199647E-07	215364.671875	6.65058978484012E-05
2	379	104.840208735304	0.212860107421875	0.212860107421875	9.259033203125E-07	1.97087871356416E-07	229894.53125	6.65999250486493E-05
2	380	104.94091673505	0.222930908203125	0.222900390625	9.136962890625E-07	2.0366326225485E-07	243954.578125	6.66925552650355E-05
2	381	105.041624734795	0.233001708984375	0.233001708984375	9.02404785156249E-07	2.10261845268178E-07	258200.890625	6.67840067762882E-05
2	382	105.142332734541	0.243072509765625	0.2430419921875	8.92028808593751E-07	2.16800444263754E-07	272459.8125	6.68743596179411E-05
2	383	105.243040734287	0.253143310546875	0.253143310546875	8.82568359375E-07	2.23416265043852E-07	286825.75	6.69637156534009E-05
2	384	105.343748734033	0.263214111328125	0.263214111328125	8.73718261718751E-07	2.2997497239885E-07	301257.4375	6.70521549182013E-05
2	385	105.444456733778	0.273284912109375	0.2733154296875	8.66088867187501E-07	2.36715436585655E-07	315574.34375	6.71397647238337E-05
2	386	105.545164733524	0.283355712890625	0.283355712890625	8.59985351562501E-07	2.43681768097304E-07	329489	6.72266760375351E-05
2	387	105.64587273327	0.293426513671875	0.29345703125	8.55407714843751E-07	2.51025397801641E-07	343061.03125	6.73130562063307E-05
2	388	105.746580733016	0.303497314453125	0.303558349609375	8.5113525390625E-07	2.58369198036235E-07	356651.15625	6.73989852657542E-05
2	389	105.847288732761	0.313568115234375	0.31353759765625	8.4808349609375E-07	2.6590603852128E-07	369701.34375	6.74845432513393E-05
2	390	105.947996732507	0.323638916015625	0.3236083984375	8.453369140625E-07	2.73558129038065E-07	382815.90625	6.75698174745776E-05
2	391	106.048704732253	0.333709716796875	0.333648681640625	8.4228515625E-07	2.81027325854666E-07	396123.1875	6.76547933835536E-05
2	392	106.149412731998	0.343780517578125	0.34375	8.4075927734375E-07	2.89010984033666E-07	408856.65625	6.77395437378436E-05
2	393	106.250120731744	0.353851318359375	0.353851318359375	8.39843749999999E-07	2.97179809649606E-07	421329.96875	6.78241704008542E-05
2	394	106.35082873149	0.363922119140625	0.36395263671875	8.39843749999999E-07	3.05663348854068E-07	433357.5625	6.79087461321615E-05
2	395	106.451536731236	0.373992919921875	0.37396240234375	8.41064453125E-07	3.14526488409683E-07	444629.90625	6.79933873470873E-05
2	396	106.552244730981	0.384063720703125	0.384063720703125	8.428955078125E-07	3.23725572570766E-07	455648.09375	6.8078181357123E-05
2	397	106.652952730727	0.394134521484375	0.394195556640625	8.4503173828125E-07	3.33107749383998E-07	466486.125	6.81631790939718E-05
2	398	106.753660730473	0.404205322265625	0.404205322265625	8.46252441406251E-07	3.42059735203293E-07	477641.5625	6.82483369018883E-05
2	399	106.854368730219	0.414276123046875	0.414276123046875	8.49609375E-07	3.51972886392105E-07	487607.75	6.83337348164059E-05
2	400	106.955076729964	0.424346923828125	0.42437744140625	8.514404296875E-07	3.61332098464118E-07	498422.96875	6.84193873894401E-05
2	401	107.05578472971	0.434417724609375	0.434356689453125	8.5418701171875E-07	3.71021826595097E-07	508503.0625	6.85052727931179E-05
2	402	107.156492729456	0.444488525390625	0.44451904296875	8.58459472656251E-07	3.8160155213518E-07	517810.1875	6.85915074427612E-05
2	403	107.257200729202	0.454559326171875	0.454559326171875	8.63037109375001E-07	3.92301558349573E-07	526697.3125	6.86781932017766E-05
2	404	107.357908728947	0.464630126953125	0.464630126953125	8.6669921875E-07	4.02694581680407E-07	536091.5625	6.8765293690376E-05
2	405	107.458616728693	0.474700927734375	0.474700927734375	8.709716796875E-07	4.13451033409729E-07	545024.5625	6.88527943566442E-05
2	406	107.559324728439	0.484771728515625	0.4847412109375	8.758544921875E-07	4.2456275650693E-07	553449.5	6.8940753408242E-05
2	407	107.660032728185	0.494842529296875	0.494873046875	8.81347656250001E-07	4.36155204397437E-07	561495.8125	6.90292363287881E-05
2	408	107.76074072793	0.504913330078125	0.504852294921875	8.87451171875001E-07	4.48031755695411E-07	568878.9375	6.91183013259433E-05
2	409	107.861448727676	0.514984130859375	0.51495361328125	8.9691162109375E-07	4.61867870171773E-07	574140.875	6.92081521265209E-05
2	410	107.962156727422	0.525054931640625	0.524993896484375	9.09423828125E-07	4.77441972179804E-07	577281.875	6.92991088726558E-05
2	411	108.062864727167	0.535125732421875	0.535125732421875	9.25292968749999E-07	4.95148071877338E-07	578331.125	6.93914917064831E-05
2	412	108.163572726913	0.545196533203125	0.545166015625	9.46655273437499E-07	5.16084242008219E-07	575886.5625	6.94857517373748E-05
2	413	108.264280726659	0.555267333984375	0.555206298828125	9.7625732421875E-07	5.42024224614579E-07	568709	6.95825801813044E-05
2	414	108.364988726405	0.565338134765625	0.5653076171875	1.01654052734375E-06	5.74658088225988E-07	556109.25	6.96829229127616E-05
2	415	108.46569672615	0.575408935546875	0.5753173828125	1.0748291015625E-06	6.18367892002425E-07	535264.0625	6.97882351232693E-05
2	416	108.566404725896	0.585479736328125	0.585479736328125	1.1578369140625E-06	6.77890056977049E-07	505666.84375	6.9900655944366E-05
2	417	108.667112725642	0.595550537109375	0.5955810546875	1.27655029296875E-06	7.60289140089299E-07	466555.09375	7.00232340022922E-05
2	418	108.767820725388	0.605621337890625	0.605560302734375	1.44012451171875E-06	8.72082239311567E-07	420491.625	7.0160036557354E-05
2	419	108.868528725133	0.615692138671875	0.615631103515625	1.66107177734375E-06	1.02260742096405E-06	370622.8125	7.03161931596696E-05
2	420	108.969236724879	0.625762939453125	0.625762939453125	1.9482421875E-06	1.21913774364657E-06	321193.59375	7.04979320289567E-05
2	421	109.069944724625	0.635833740234375	0.6358642578125	2.30804443359375E-06	1.46760294228443E-06	275499.125	7.07122526364401E-05
2	422	109.170652724371	0.645904541015625	0.645782470703125	2.73651123046875E-06	1.76719083810895E-06	235987.515625	7.09662708686665E-05
2	423	109.271360724116	0.655975341796875	0.6558837890625	3.22265625E-06	2.11368796954048E-06	203522.734375	7.1266338636633E-05
2	424	109.372068723862	0.666046142578125	0.665985107421875	3.7451171875E-06	2.49419213105284E-06	177827.578125	7.16171925887465E-05
2	425	109.472776723608	0.676116943359375	0.676025390625	4.27093505859375E-06	2.88726027974917E-06	158285.109375	7.2020833613351E-05
2	426	109.573484723354	0.686187744140625	0.686065673828125	4.76531982421875E-06	3.26932240568567E-06	143970.546875	7.24758428987116E-05
2	427	109.674192723099	0.696258544921875	0.696136474609375	5.1910400390625E-06	3.61367210643948E-06	134103.484375	7.29771854821593E-05
2	428	109.774900722845	0.706329345703125	0.7061767578125	5.517578125E-06	3.89638535125414E-06	127986.734375	7.35164067009464E-05
2	429	109.875608722591	0.716400146484375	0.71624755859375	5.7159423828125E-06	4.09402991863317E-06	125307	7.40820614737459E-05
2	430	109.976316722336	0.726470947265625	0.72637939453125	5.7952880859375E-06	4.20957758251461E-06	125339.65625	7.46616933611222E-05
2	431	110.077024722082	0.736541748046875	0.736328125	5.77392578125E-06	4.25150392402429E-06	127526.4296875	7.52442501834594E-05
2	432	110.177732721828	0.746612548828125	0.7464599609375	5.694580078125E-06	4.25077587351552E-06	131082.53125	7.58217356633395E-05
2	433	110.278440721574	0.756683349609375	0.7574462890625	5.5938720703125E-06	4.23705751018133E-06	135406.453125	7.63901553000323E-05
2	434	110.379148721319	0.766754150390625	0.76751708984375	5.50537109375E-06	4.22546645495459E-06	139412.421875	7.69490507082082E-05
2	435	110.479856721065	0.776824951171875	0.7769775390625	5.4595947265625E-06	4.24198242399143E-06	142314.15625	7.75011794758029E-05
2	436	110.580564720811	0.786895751953125	0.7867431640625	5.474853515625E-06	4.30730369771481E-06	143701.234375	7.8051773016341E-05
2	437	110.681272720557	0.796966552734375	0.79681396484375	5.56640625E-06	4.43539011030225E-06	143146.9375	7.8607743489556E-05
2	438	110.781980720302	0.807037353515625	0.8074951171875	5.7464599609375E-06	4.64023833046667E-06	140520.453125	7.91773927630857E-05
2	439	110.882688720048	0.817108154296875	0.81695556640625	6.0089111328125E-06	4.90901311422931E-06	135957.34375	7.97693210188299E-05
2	440	110.983396719794	0.827178955078125	0.82763671875	6.34765625E-06	5.25355289937579E-06	130384.625	8.03915245342068E-05
2	441	111.08410471954	0.837249755859375	0.83740234375	6.732177734375E-06	5.63754110771697E-06	124388.0390625	8.10501442174427E-05
2	442	111.184812719285	0.847320556640625	0.84747314453125	7.135009765625E-06	6.04672914050752E-06	118776.734375	8.17484105937183E-05
2	443	111.285520719031	0.857391357421875	0.85784912109375	7.513427734375E-06	6.44538704364095E-06	114175.46875	8.24860180728137E-05
2	444	111.386228718777	0.867462158203125	0.8673095703125	7.8338623046875E-06	6.79438335282612E-06	110712.90625	8.3258819358889E-05
2	445	111.486936718523	0.877532958984375	0.877685546875	8.0596923828125E-06	7.0738751674071E-06	108898.1484375	8.40591237647459E-05
2	446	111.587644718268	0.887603759765625	0.88775634765625	8.172607421875E-06	7.25528434486478E-06	108625.8359375	8.48764830152504E-05
2	447	111.688352718014	0.897674560546875	0.89752197265625	8.16650390625E-06	7.32961689209333E-06	109902.84375	8.56992264743894E-05
2	448	111.78906071776	0.907745361328125	0.9075927734375	8.06884765625E-06	7.32322814656072E-06	112481.0859375	8.65167385200039E-05
2	449	111.889768717505	0.917816162109375	0.91796875	7.9010009765625E-06	7.25287145542097E-06	116183.859375	8.7320884631481E-05
2	450	111.990476717251	0.927886962890625	0.92803955078125	7.6995849609375E-06	7.14551924829721E-06	120531.1171875	8.81064333952963E-05
2	451	112.091184716997	0.937957763671875	0.9381103515625	7.489013671875E-06	7.02552097209264E-06	125264.875	8.88712456799112E-05
2	452	112.191892716743	0.948028564453125	0.94757080078125	7.281494140625E-06	6.89973103362718E-06	130134.1171875	8.96149940672331E-05
2	453	112.292600716488	0.958099365234375	0.95794677734375	7.0831298828125E-06	6.78526112096733E-06	135243.4375	9.03383115655743E-05
2	454	112.393308716234	0.968170166015625	0.968017578125	6.903076171875E-06	6.68229904476902E-06	140229.890625	9.10425733309239E-05
2	455	112.49401671598	0.978240966796875	0.97808837890625	6.73828125E-06	6.59063471175614E-06	145153.984375	9.17294746614061E-05
2	456	112.594724715726	0.988311767578125	0.98846435546875	6.591796875E-06	6.51575601295917E-06	149953.703125	9.24006963032298E-05
2	457	112.695432715471	0.998382568359375	0.99884033203125	6.45751953125E-06	6.45003046884085E-06	154678.640625	9.30577807594091E-05
2	458	112.796140715217	1.00845336914063	1.00860595703125	6.3385009765625E-06	6.39304971628007E-06	159123.734375	9.37021104618907E-05
2	459	112.896848714963	1.01852416992188	1.0186767578125	6.231689453125E-06	6.34807702226681E-06	163467.1875	9.43350678426214E-05
2	460	112.997556714709	1.02859497070313	1.029052734375	6.134033203125E-06	6.3122433857643E-06	167761.203125	9.49577297433279E-05
2	461	113.098264714454	1.03866577148438	1.038818359375	6.0455322265625E-06	6.28021007287316E-06	171832.40625	9.55710202106275E-05
2	462	113.1989727142	1.04873657226563	1.04888916015625	5.963134765625E-06	6.25466736892122E-06	175895.59375	9.6175710496027E-05
2	463	113.299680713946	1.05880737304688	1.058349609375	5.8929443359375E-06	6.23679488853668E-06	179596.078125	9.67727100942284E-05
2	464	113.400388713692	1.06887817382813	1.0687255859375	5.8258056640625E-06	6.2261874518299E-06	183446.828125	9.73627975326963E-05
2	465	113.501096713437	1.07894897460938	1.07879638671875	5.767822265625E-06	6.22230572844273E-06	187037.046875	9.79465767159127E-05
2	466	113.601804713183	1.08901977539063	1.08917236328125	5.712890625E-06	6.22232255409472E-06	190651.71875	9.852468065219E-05
2	467	113.702512712929	1.09909057617188	1.09893798828125	5.6610107421875E-06	6.22109973846818E-06	194124	9.90974003798328E-05
2	468	113.803220712674	1.10916137695313	1.10870361328125	5.6121826171875E-06	6.22224706603447E-06	197553.015625	9.96650487650186E-05
2	469	113.90392871242	1.11923217773438	1.1187744140625	5.56640625E-06	6.22755260337726E-06	200986.859375	0.000100227938673925
2	470	114.004636712166	1.12930297851563	1.12945556640625	5.523681640625E-06	6.23875257588224E-06	204475.140625	0.000100786368420813
2	471	114.105344711912	1.13937377929688	1.13983154296875	5.4840087890625E-06	6.25084612693172E-06	207846.40625	0.000101340650871862
2	472	114.206052711657	1.14944458007813	1.1492919921875	5.4473876953125E-06	6.26063911113306E-06	210980.390625	0.00010189109161729
2	473	114.306760711403	1.15951538085938	1.15966796875	5.413818359375E-06	6.27823146714945E-06	214205.1875	0.000102437996247318
2	474	114.407468711149	1.16958618164063	1.16912841796875	5.3802490234375E-06	6.29020178166684E-06	217300.0625	0.000102981517557055
2	475	114.508176710895	1.17965698242188	1.17919921875	5.3466796875E-06	6.30480053587235E-06	220547.9375	0.000103521662822459
2	476	114.60888471064	1.18972778320313	1.1895751953125	5.316162109375E-06	6.32397450317512E-06	223765.78125	0.000104058577562682
2	477	114.709592710386	1.19979858398438	1.19964599609375	5.2886962890625E-06	6.34456318948651E-06	226832.078125	0.000104592574643902
2	478	114.810300710132	1.20986938476563	1.21002197265625	5.2581787109375E-06	6.36251161267865E-06	230121.890625	0.000105123654066119
2	479	114.911008709878	1.21994018554688	1.22039794921875	5.2337646484375E-06	6.38727533441852E-06	233177.84375	0.000105651961348485
2	480	115.011716709623	1.23001098632813	1.23016357421875	5.21240234375E-06	6.41210772300838E-06	236007.03125	0.000106177969428245
2	481	115.112424709369	1.24008178710938	1.23992919921875	5.1910400390625E-06	6.43652174403542E-06	238859.515625	0.000106701823824551
2	482	115.213132709115	1.25015258789063	1.25	5.1727294921875E-06	6.46591161057586E-06	241651.921875	0.000107223684608471
2	483	115.313840708861	1.26022338867188	1.259765625	5.1544189453125E-06	6.49335970592801E-06	244404.96875	0.000107743697299156
2	484	115.414548708606	1.27029418945313	1.27044677734375	5.1361083984375E-06	6.52515245747054E-06	247355.90625	0.000108261869172566
2	485	115.515256708352	1.28036499023438	1.2799072265625	5.120849609375E-06	6.55421217743424E-06	249940.40625	0.000108778345747851
2	486	115.615964708098	1.29043579101563	1.29058837890625	5.108642578125E-06	6.59315492157475E-06	252628.4375	0.000109293439891189
2	487	115.716672707843	1.30050659179688	1.3006591796875	5.0994873046875E-06	6.63269474898698E-06	255056.859375	0.000109807457192801
2	488	115.817380707589	1.31057739257813	1.31072998046875	5.09033203125E-06	6.6720504037221E-06	257494.015625	0.000110320557723753
2	489	115.918088707335	1.32064819335938	1.32110595703125	5.0811767578125E-06	6.71277302899398E-06	260000	0.000110832734208088
2	490	116.018796707081	1.33071899414063	1.33056640625	5.0750732421875E-06	6.752722129022E-06	262176.78125	0.000111344139440916
2	491	116.119504706826	1.34078979492188	1.34063720703125	5.06591796875E-06	6.79155800753506E-06	264638.5625	0.000111854780698195
2	492	116.220212706572	1.35086059570313	1.35101318359375	5.059814453125E-06	6.8358754106157E-06	267008.46875	0.000112364650703967
2	493	116.320920706318	1.36093139648438	1.361083984375	5.0567626953125E-06	6.88267846271629E-06	269161.15625	0.000112874062324408
2	494	116.421628706064	1.37100219726563	1.3714599609375	5.0506591796875E-06	6.9267766775738E-06	271540.78125	0.000113383015559521
2	495	116.522336705809	1.38107299804688	1.3812255859375	5.0506591796875E-06	6.97609948474565E-06	273474.3125	0.000113891655928455
2	496	116.623044705555	1.39114379882813	1.3909912109375	5.047607421875E-06	7.02117768014432E-06	275574.375	0.00011440014350228
2	497	116.723752705301	1.40121459960938	1.40106201171875	5.047607421875E-06	7.07201115801581E-06	277569.53125	0.000114908478280995
2	498	116.824460705047	1.41128540039063	1.4117431640625	5.047607421875E-06	7.12592509444221E-06	279685.625	0.00011541681305971
2	499	116.925168704792	1.42135620117188	1.4215087890625	5.047607421875E-06	7.17521834303625E-06	281620.3125	0.000115925147838425
2	500	117.025876704538	1.43142700195313	1.4312744140625	5.0506591796875E-06	7.22887943993555E-06	283383.6875	0.00011643363541225
2	501	117.126584704284	1.44149780273438	1.44195556640625	5.0537109375E-06	7.28722670828574E-06	285326.09375	0.000116942428576294
2	502	117.22729270403	1.45156860351563	1.45172119140625	5.059814453125E-06	7.34543937142007E-06	286911.96875	0.000117451687401626
2	503	117.328000703775	1.46163940429688	1.46148681640625	5.0689697265625E-06	7.40823224987253E-06	288320.3125	0.000117961710202508
2	504	117.428708703521	1.47171020507813	1.47186279296875	5.0811767578125E-06	7.47879494156223E-06	289669.65625	0.000118472809845116
2	505	117.529416703267	1.48178100585938	1.48162841796875	5.0933837890625E-06	7.54650181988836E-06	290892.75	0.000118985139124561
2	506	117.630124703012	1.49185180664063	1.49169921875	5.1116943359375E-06	7.62510990170995E-06	291820.90625	0.000119499003631063
2	507	117.730832702758	1.50192260742188	1.50146484375	5.133056640625E-06	7.70710448705358E-06	292508.90625	0.000120014869025908
2	508	117.831540702504	1.49185180664063	1.49200439453125	4.9713134765625E-06	7.41722169550485E-06	300122.78125	0.000120523669465911
2	509	117.93224870225	1.48178100585938	1.48193359375	4.854736328125E-06	7.19439685781254E-06	305255.21875	0.00012101844913559
2	510	118.032956701995	1.47171020507813	1.47186279296875	4.7613525390625E-06	7.00805776432389E-06	309127.03125	0.000121502656838857
2	511	118.133664701741	1.46163940429688	1.4617919921875	4.6826171875E-06	6.84501219438971E-06	312174.15625	0.000121978198876604
2	512	118.234372701487	1.45156860351563	1.45111083984375	4.6148681640625E-06	6.69668497721432E-06	314442.5625	0.000122446363093331
2	513	118.335080701233	1.44149780273438	1.4410400390625	4.554443359375E-06	6.56313522995333E-06	316403.09375	0.000122908080811612
2	514	118.435788700978	1.43142700195313	1.4312744140625	4.49981689453125E-06	6.44047258901992E-06	318073.9375	0.000123363992315717
2	515	118.536496700724	1.42135620117188	1.4215087890625	4.4500732421875E-06	6.32581804893562E-06	319434.9375	0.000123814650578424
2	516	118.63720470047	1.41128540039063	1.41143798828125	4.40399169921875E-06	6.21596109340317E-06	320490.625	0.000124260492157191
2	517	118.737912700216	1.40121459960938	1.40167236328125	4.36187744140625E-06	6.11392306382186E-06	321346.125	0.000124701895401813
2	518	118.838620699961	1.39114379882813	1.39129638671875	4.32220458984375E-06	6.01346755502163E-06	321895.09375	0.00012513916590251
2	519	118.939328699707	1.38107299804688	1.38092041015625	4.285888671875E-06	5.9184712881688E-06	322201.65625	0.000125572623801418
2	520	119.040036699453	1.37100219726563	1.37115478515625	4.25048828125E-06	5.82807706450694E-06	322587.625	0.000126002458273433
2	521	119.140744699199	1.36093139648438	1.36077880859375	4.21630859375E-06	5.7374631978746E-06	322741.78125	0.000126428800285794
2	522	119.241452698944	1.35086059570313	1.351318359375	4.18243408203125E-06	5.65180016565137E-06	323093.75	0.000126851708046161
2	523	119.34216069869	1.34078979492188	1.34033203125	4.15008544921875E-06	5.56249233341077E-06	322964.9375	0.00012727128341794
2	524	119.442868698436	1.33071899414063	1.33056640625	4.11895751953125E-06	5.48054640603368E-06	323034.75	0.000127687657368369
2	525	119.543576698181	1.32064819335938	1.32080078125	4.08966064453125E-06	5.40162727702409E-06	322960.96875	0.000128101004520431
2	526	119.644284697927	1.31057739257813	1.3104248046875	4.0618896484375E-06	5.32280091647408E-06	322614.5625	0.000128511470393278
2	527	119.744992697673	1.30050659179688	1.3006591796875	4.0350341796875E-06	5.24820416103466E-06	322341.5625	0.000128919171402231
2	528	119.845700697419	1.29043579101563	1.2908935546875	4.0093994140625E-06	5.17570742886164E-06	321966.84375	0.000129324238514528
2	529	119.946408697164	1.28036499023438	1.28082275390625	3.98406982421875E-06	5.10288737132214E-06	321486.03125	0.000129726744489744
2	530	120.04711669691	1.27029418945313	1.27044677734375	3.95904541015625E-06	5.02975672134198E-06	320897.25	0.000130126718431711
2	531	120.147824696656	1.26022338867188	1.26007080078125	3.935546875E-06	4.95906760988873E-06	320176.8125	0.000130524233100004
2	532	120.248532696402	1.25015258789063	1.24969482421875	3.91357421875E-06	4.89077365273261E-06	319323.125	0.000130919477669522
2	533	120.349240696147	1.24008178710938	1.2396240234375	3.89312744140625E-06	4.82601444673492E-06	318413.40625	0.000131312568555586
2	534	120.449948695893	1.23001098632813	1.2298583984375	3.87420654296875E-06	4.76472541777184E-06	317447.8125	0.000131703694933094
2	535	120.550656695639	1.21994018554688	1.2200927734375	3.856201171875E-06	4.70492295789882E-06	316397.59375	0.000132092944113538
2	536	120.651364695385	1.20986938476563	1.20941162109375	3.83819580078125E-06	4.64195863969508E-06	315098.96875	0.000132480388856493
2	537	120.75207269513	1.19979858398438	1.19903564453125	3.81927490234375E-06	4.57944634035812E-06	313943.28125	0.000132865970954299
2	538	120.852780694876	1.18972778320313	1.18988037109375	3.80126953125E-06	4.52305584985879E-06	313021.84375	0.000133249704958871
2	539	120.953488694622	1.17965698242188	1.18011474609375	3.78326416015625E-06	4.46468584414106E-06	311930.3125	0.000133631605422124
2	540	121.054196694368	1.16958618164063	1.16943359375	3.76617431640625E-06	4.40429039372248E-06	310509.6875	0.00013401175965555
2	541	121.154904694113	1.15951538085938	1.15966796875	3.75E-06	4.34875482824282E-06	309244.8125	0.000134390225866809
2	542	121.255612693859	1.14944458007813	1.14990234375	3.734130859375E-06	4.29388592237956E-06	307943.78125	0.000134767076815479
2	543	121.356320693605	1.13937377929688	1.1395263671875	3.71795654296875E-06	4.23670917371055E-06	306492.65625	0.000135142327053472
2	544	121.45702869335	1.12930297851563	1.129150390625	3.7005615234375E-06	4.17849014411331E-06	305129.5	0.000135515874717385
2	545	121.557736693096	1.11923217773438	1.1187744140625	3.6834716796875E-06	4.12097369917319E-06	303728.28125	0.000135887690703385
2	546	121.658444692842	1.10916137695313	1.1090087890625	3.66607666015625E-06	4.06571098210406E-06	302505.625	0.000136257775011472
2	547	121.759152692588	1.09909057617188	1.09954833984375	3.6492919921875E-06	4.01257284465828E-06	301304.5625	0.000136626127641648
2	548	121.859860692333	1.08901977539063	1.08917236328125	3.6334228515625E-06	3.95742335967952E-06	299764.84375	0.000136992835905403
2	549	121.960568692079	1.07894897460938	1.07879638671875	3.61846923828125E-06	3.90359173252364E-06	298136.125	0.000137358001666144
2	550	122.061276691825	1.06887817382813	1.06903076171875	3.60321044921875E-06	3.851942892652E-06	296688.40625	0.000137721639475785
2	551	122.161984691571	1.05880737304688	1.058349609375	3.58795166015625E-06	3.79730727217975E-06	294973.21875	0.000138083749334328
2	552	122.262692691316	1.04873657226563	1.04888916015625	3.57177734375E-06	3.74639830624801E-06	293660.3125	0.000138444273034111
2	553	122.363400691062	1.03866577148438	1.038818359375	3.5552978515625E-06	3.6933085993951E-06	292188.84375	0.000138803152367473
2	554	122.464108690808	1.02859497070313	1.02935791015625	3.53973388671875E-06	3.6436529171624E-06	290800.9375	0.000139160401886329
2	555	122.564816690554	1.01852416992188	1.0186767578125	3.52264404296875E-06	3.58843544745469E-06	289179.59375	0.00013951602159068
2	556	122.665524690299	1.00845336914063	1.00830078125	3.5052490234375E-06	3.53434529642982E-06	287654.53125	0.000139869909617119
2	557	122.766232690045	0.998382568359375	0.99853515625	3.487548828125E-06	3.48244020642596E-06	286314.3125	0.000140222022309899
2	558	122.866940689791	0.988311767578125	0.98846435546875	3.465576171875E-06	3.42559837918088E-06	285223.6875	0.000140572141390294
2	559	122.967648689537	0.978240966796875	0.97808837890625	3.438720703125E-06	3.36337257067498E-06	284433.8125	0.000140919801197015
2	560	123.068356689282	0.968170166015625	0.968017578125	3.40484619140625E-06	3.29595104631153E-06	284305.8125	0.000141264405101538
2	561	123.169064689028	0.958099365234375	0.95794677734375	3.360595703125E-06	3.21927177537873E-06	285052.6875	0.000141605065437034
2	562	123.269772688774	0.948028564453125	0.948486328125	3.30230712890625E-06	3.13219311465218E-06	287219.3125	0.000141940574394539
2	563	123.370480688519	0.937957763671875	0.9381103515625	3.2244873046875E-06	3.02492480841465E-06	290933.1875	0.000142269229399972
2	564	123.471188688265	0.927886962890625	0.927734375	3.11920166015625E-06	2.89379067908158E-06	297426.875	0.00014258865849115
2	565	123.571896688011	0.917816162109375	0.91796875	2.978515625E-06	2.73418413598847E-06	308196.71875	0.000142895703902468
2	566	123.672604687757	0.907745361328125	0.90789794921875	2.79052734375E-06	2.53351413448399E-06	325349.96875	0.000143186189234257
2	567	123.773312687502	0.897674560546875	0.89752197265625	2.5439453125E-06	2.28324688578141E-06	352807.09375	0.000143454803037457
2	568	123.874020687248	0.887603759765625	0.88775634765625	2.232666015625E-06	1.98206339518947E-06	397621.65625	0.000143695331644267
2	569	123.974728686994	0.877532958984375	0.87799072265625	1.854248046875E-06	1.6280125691992E-06	473502.3125	0.000143901124829426
2	570	124.07543668674	0.867462158203125	0.86761474609375	1.417236328125E-06	1.22961512261099E-06	612187.8125	0.000144065852509812
2	571	124.176144686485	0.857391357421875	0.8575439453125	9.38720703125E-07	8.0499421528657E-07	913524.0625	0.000144184479722753
2	572	124.276852686231	0.847320556640625	0.8477783203125	4.4830322265625E-07	3.80061749183369E-07	1891082.375	0.000144254328915849
2	573	124.377560685977	0.837249755859375	0.83740234375	-2.34985351562494E-08	-1.96777278915761E-08	-35636364	0.000144275720231235
2	574	124.478268685723	0.827178955078125	0.82763671875	-4.4219970703125E-07	-3.65980724836845E-07	-1871635.625	0.000144252262543887
2	575	124.578976685468	0.817108154296875	0.8172607421875	-7.80334472656249E-07	-6.37736718545057E-07	-1047321.125	0.000144190707942471
2	576	124.679684685214	0.807037353515625	0.80780029296875	-1.014404296875E-06	-8.19436024812603E-07	-796329.75	0.000144100340548903
2	577	124.78039268496	0.796966552734375	0.797119140625	-1.143798828125E-06	-9.11743939013832E-07	-696905	0.000143991666845977
2	578	124.881100684706	0.786895751953125	0.7867431640625	-1.17950439453125E-06	-9.27966993913287E-07	-667011.6875	0.000143874669447541
2	579	124.981808684451	0.776824951171875	0.7769775390625	-1.15081787109375E-06	-8.94159654762916E-07	-675152.5	0.000143757337355055
2	580	125.082516684197	0.766754150390625	0.7672119140625	-1.0894775390625E-06	-8.35860191727988E-07	-704201.6875	0.000143644530908205
2	581	125.183224683943	0.756683349609375	0.7568359375	-1.02752685546875E-06	-7.77669242779666E-07	-736560.75	0.000143537923577242
2	582	125.283932683688	0.746612548828125	0.74652099609375	-9.9090576171875E-07	-7.39731945031963E-07	-753372.375	0.000143436293001287
2	583	125.384640683434	0.736541748046875	0.7364501953125	-1.002197265625E-06	-7.38068365535582E-07	-734835.625	0.000143335928441957
2	584	125.48534868318	0.726470947265625	0.72637939453125	-1.07818603515625E-06	-7.83172083629324E-07	-673705.125	0.000143231169204228
2	585	125.586056682926	0.716400146484375	0.71636962890625	-1.231689453125E-06	-8.82344920682954E-07	-581615.4375	0.000143114855745807
2	586	125.686764682671	0.706329345703125	0.706298828125	-1.468505859375E-06	-1.0372039014328E-06	-480964.25	0.000142978897201829
2	587	125.787472682417	0.696258544921875	0.696197509765625	-1.78314208984375E-06	-1.24141899959795E-06	-390433	0.000142815159051679
2	588	125.888180682163	0.686187744140625	0.68609619140625	-2.1539306640625E-06	-1.47780360748584E-06	-318532.15625	0.000142616918310523
2	589	125.988888681909	0.676116943359375	0.676055908203125	-2.55706787109375E-06	-1.72872080383968E-06	-264387.15625	0.00014237969298847
2	590	126.089596681654	0.666046142578125	0.666015625	-2.95623779296875E-06	-1.96890050574439E-06	-225291.640625	0.000142102086101659
2	591	126.1903046814	0.655975341796875	0.655914306640625	-3.31390380859375E-06	-2.17363685806049E-06	-197927.984375	0.000141786353196949
2	592	126.291012681146	0.645904541015625	0.645904541015625	-3.58856201171875E-06	-2.31786839322012E-06	-179989.796875	0.000141438780701719
2	593	126.391720680892	0.635833740234375	0.63580322265625	-3.758544921875E-06	-2.38969482779794E-06	-169162.0625	0.000141068827360868
2	594	126.492428680637	0.625762939453125	0.625732421875	-3.81072998046875E-06	-2.38449729295098E-06	-164202.78125	0.000140687683597207
2	595	126.593136680383	0.615692138671875	0.61572265625	-3.7567138671875E-06	-2.31309377340949E-06	-163899.265625	0.000140306641696952
2	596	126.693844680129	0.605621337890625	0.60552978515625	-3.623046875E-06	-2.19386265598587E-06	-167132.75	0.000139935029437765
2	597	126.794552679875	0.595550537109375	0.59552001953125	-3.44085693359375E-06	-2.0490990664257E-06	-173073.1875	0.000139579336973839
2	598	126.89526067962	0.585479736328125	0.58544921875	-3.2391357421875E-06	-1.89634943126293E-06	-180742.421875	0.000139242969453335
2	599	126.995968679366	0.575408935546875	0.575408935546875	-3.03314208984375E-06	-1.74529702690052E-06	-189707.21875	0.000138927134685218
2	600	127.096676679112	0.565338134765625	0.565338134765625	-2.83782958984375E-06	-1.60433319251752E-06	-199214.984375	0.000138631512527354
2	601	127.197384678857	0.555267333984375	0.555267333984375	-2.65533447265625E-06	-1.47442040088208E-06	-209113.90625	0.000138354909722693
2	602	127.298092678603	0.545196533203125	0.545166015625	-2.4884033203125E-06	-1.35659286115697E-06	-219082.671875	0.000138095900183544
2	603	127.398800678349	0.535125732421875	0.535064697265625	-2.33612060546875E-06	-1.24997563943907E-06	-229039.84375	0.000137852970510721
2	604	127.499508678095	0.525054931640625	0.525115966796875	-2.19970703125E-06	-1.15510135856312E-06	-238720.859375	0.000137624578201212
2	605	127.60021667784	0.514984130859375	0.51495361328125	-2.07672119140625E-06	-1.06941502053814E-06	-247964.75	0.000137409238959663
2	606	127.700924677586	0.504913330078125	0.50482177734375	-1.96685791015625E-06	-9.92912646324839E-07	-256664.09375	0.000137205628561787
2	607	127.801632677332	0.494842529296875	0.494842529296875	-1.8682861328125E-06	-9.24507389754581E-07	-264864.4375	0.000137012510094792
2	608	127.902340677078	0.484771728515625	0.4847412109375	-1.77947998046875E-06	-8.62587228311895E-07	-272406.125	0.000136828835820779
2	609	128.003048676823	0.474700927734375	0.474700927734375	-1.69830322265625E-06	-8.06186108093243E-07	-279514.8125	0.000136653718072921
2	610	128.103756676569	0.464630126953125	0.464630126953125	-1.624755859375E-06	-7.54910502109851E-07	-285969.21875	0.00013648638559971
2	611	128.204464676315	0.454559326171875	0.45458984375	-1.5570068359375E-06	-7.07799472365878E-07	-291963.9375	0.000136326169013046
2	612	128.305172676061	0.444488525390625	0.44451904296875	-1.49505615234375E-06	-6.64580909415236E-07	-297326	0.000136172486236319
2	613	128.405880675806	0.434417724609375	0.434417724609375	-1.43829345703125E-06	-6.24820188477315E-07	-302036.90625	0.000136024784296751
2	614	128.506588675552	0.424346923828125	0.42431640625	-1.38702392578125E-06	-5.88536977375043E-07	-305918.59375	0.000135882510221563
2	615	128.607296675298	0.414276123046875	0.414276123046875	-1.3397216796875E-06	-5.55014651126839E-07	-309225.53125	0.000135745212901384
2	616	128.708004675044	0.404205322265625	0.40423583984375	-1.29608154296875E-06	-5.23922608408611E-07	-311890.75	0.000135612484882586
2	617	128.808712674789	0.394134521484375	0.3941650390625	-1.2554931640625E-06	-4.94871471801162E-07	-313952.375	0.000135484006023034
2	618	128.909420674535	0.384063720703125	0.384063720703125	-1.217041015625E-06	-4.67421301664217E-07	-315571.71875	0.000135359499836341
2	619	129.010128674281	0.373992919921875	0.37396240234375	-1.1810302734375E-06	-4.41660915839748E-07	-316640.84375	0.000135238748043776
2	620	129.110836674026	0.363922119140625	0.3638916015625	-1.14715576171875E-06	-4.17440361388799E-07	-317212.03125	0.000135121517814696
2	621	129.211544673772	0.353851318359375	0.353851318359375	-1.11541748046875E-06	-3.94691937799507E-07	-317236.65625	0.000135007590870373
2	622	129.312252673518	0.343780517578125	0.34381103515625	-1.08642578125E-06	-3.73525153918308E-07	-316460.6875	0.000134896719828248
2	623	129.412960673264	0.333709716796875	0.333709716796875	-1.058349609375E-06	-3.53181519585632E-07	-315311.4375	0.000134788715513423
2	624	129.513668673009	0.323638916015625	0.323699951171875	-1.0321044921875E-06	-3.3409216371183E-07	-313631	0.000134683461510576
2	625	129.614376672755	0.313568115234375	0.3135986328125	-1.007080078125E-06	-3.15818937224321E-07	-311393.9375	0.00013458076864481
2	626	129.715084672501	0.303497314453125	0.303497314453125	-9.82055664062501E-07	-2.98051247682452E-07	-309042.875	0.000134480607812293
2	627	129.815792672247	0.293426513671875	0.29345703125	-9.5855712890625E-07	-2.81295314152885E-07	-306144.5625	0.000134382891701534
2	628	129.916500671992	0.283355712890625	0.28338623046875	-9.3719482421875E-07	-2.65588084857882E-07	-302377.09375	0.000134287431137636
2	629	130.017208671738	0.273284912109375	0.273223876953125	-9.173583984375E-07	-2.5064420583476E-07	-297837.65625	0.000134194051497616
2	630	130.117916671484	0.263214111328125	0.26324462890625	-8.99353027343749E-07	-2.3674984106492E-07	-292704.46875	0.00013410257815849
2	631	130.21862467123	0.253143310546875	0.253173828125	-8.8348388671875E-07	-2.23675002075652E-07	-286563.03125	0.000134012807393447
2	632	130.319332670975	0.243072509765625	0.243072509765625	-8.6883544921875E-07	-2.11189998822192E-07	-279768.1875	0.000133924564579502
2	633	130.420040670721	0.233001708984375	0.23297119140625	-8.55712890625E-07	-1.99356449570587E-07	-272253.9375	0.000133837733301334
2	634	130.520748670467	0.222930908203125	0.22296142578125	-8.441162109375E-07	-1.8820534819497E-07	-264135.9375	0.000133752138935961
2	635	130.621456670213	0.212860107421875	0.212860107421875	-8.34045410156251E-07	-1.77535000034368E-07	-255214.046875	0.00013366763596423
2	636	130.722164669958	0.202789306640625	0.2027587890625	-8.2733154296875E-07	-1.67748737567308E-07	-245075.625	0.000133583977003582
2	637	130.822872669704	0.192718505859375	0.1927490234375	-8.23364257812501E-07	-1.5870264746809E-07	-234099.34375	0.000133500856463797
2	638	130.92358066945	0.182647705078125	0.1827392578125	-8.2275390625E-07	-1.5034943601222E-07	-222106.84375	0.000133417968754657
2	639	131.024288669195	0.172576904296875	0.172637939453125	-8.24584960937499E-07	-1.42354650733978E-07	-209363.4375	0.000133335022837855
2	640	131.124996668941	0.162506103515625	0.162567138671875	-8.2977294921875E-07	-1.3489380989995E-07	-195917.625	0.000133251713123173
2	641	131.225704668687	0.152435302734375	0.1524658203125	-8.3831787109375E-07	-1.27814828942974E-07	-181871.125	0.000133167719468474
2	642	131.326412668433	0.142364501953125	0.1424560546875	-8.526611328125E-07	-1.2146674066571E-07	-167072.296875	0.000133082576212473
2	643	131.427120668178	0.132293701171875	0.132354736328125	-8.72192382812501E-07	-1.15438787418043E-07	-151749.484375	0.000132995715830475
2	644	131.527828667924	0.122222900390625	0.122314453125	-9.0087890625E-07	-1.10190505608898E-07	-135772.359375	0.000132906439830549
2	645	131.62853666767	0.112152099609375	0.1121826171875	-9.38720703125E-07	-1.05308146203242E-07	-119505.8515625	0.000132813802338205
2	646	131.729244667416	0.102081298828125	0.10211181640625	-9.8602294921875E-07	-1.00684587778233E-07	-103559.2734375	0.000132716886582784
2	647	131.829952667161	0.092010498046875	0.09210205078125	-1.04705810546875E-06	-9.6436195917704E-08	-87962.6953125	0.000132614513859153
2	648	131.930660666907	0.081939697265625	0.08197021484375	-1.12152099609375E-06	-9.19313194458482E-08	-73088.4375	0.000132505316287279
2	649	132.031368666653	0.071868896484375	0.071929931640625	-1.2139892578125E-06	-8.73221637220922E-08	-59250.8828125	0.000132387707708403
2	650	132.132076666399	0.061798095703125	0.06182861328125	-1.3287353515625E-06	-8.21538606032846E-08	-46531.92578125	0.000132259679958224
2	651	132.232784666144	0.051727294921875	0.051788330078125	-1.47003173828125E-06	-7.61304903562632E-08	-35229.39453125	0.000132118744659238
2	652	132.33349266589	0.041656494140625	0.04178466796875	-1.6400146484375E-06	-6.8527462815382E-08	-25478.228515625	0.000131962151499465
2	653	132.434200665636	0.031585693359375	0.0316741943359375	-1.8353271484375E-06	-5.81325103610197E-08	-17258.064453125	0.000131787150166929
2	654	132.534908665382	0.021514892578125	0.0215728759765625	-2.044677734375E-06	-4.41095835412852E-08	-10550.74609375	0.000131591776153073
2	655	132.635616665127	0.011444091796875	0.0115814208984375	-2.2509765625E-06	-2.60695056653049E-08	-5145.0654296875	0.000131375476485118
2	656	132.736324664873	0.001373291015625	0.001513671875	-2.43438720703125E-06	-3.68486330337703E-09	-621.787658691406	0.000131139546283521
2	657	132.837032664619	-0.008697509765625	-0.008544921875	-2.57537841796875E-06	2.2006407363051E-08	3317.9287109375	0.000130887274281122
2	658	132.937740664364	-0.018768310546875	-0.018658447265625	-2.66448974609375E-06	4.97152434775217E-08	7002.63427734375	0.000130623433506116
2	659	133.03844866411	-0.028839111328125	-0.0286895751953125	-2.70233154296875E-06	7.75287460896834E-08	10616.6005859375	0.00013035318988841
2	660	133.139156663856	-0.038909912109375	-0.0387420654296875	-2.696533203125E-06	1.04469265238549E-07	14367.361328125	0.000130081331008114
2	661	133.239864663602	-0.048980712890625	-0.048846435546875	-2.6580810546875E-06	1.29837786744247E-07	18376.578125	0.000129811713122763
2	662	133.340572663347	-0.059051513671875	-0.058990478515625	-2.6007080078125E-06	1.53417005321899E-07	22682.470703125	0.000129546911921352
2	663	133.441280663093	-0.069122314453125	-0.06903076171875	-2.532958984375E-06	1.74852075929266E-07	27253.013671875	0.000129288411699235
2	664	133.541988662839	-0.079193115234375	-0.079132080078125	-2.46307373046875E-06	1.9490815361678E-07	32127.369140625	0.000129036838188767
2	665	133.642696662585	-0.089263916015625	-0.089202880859375	-2.3956298828125E-06	2.13697077811048E-07	37235.671875	0.000128792191389948
2	666	133.74340466233	-0.099334716796875	-0.09918212890625	-2.3321533203125E-06	2.31307936360281E-07	42528.1328125	0.000128554122056812
2	667	133.844112662076	-0.109405517578125	-0.10931396484375	-2.2747802734375E-06	2.48665230628831E-07	48054.73828125	0.000128322149976157
2	668	133.944820661822	-0.119476318359375	-0.11932373046875	-2.22412109375E-06	2.65390411868793E-07	53649.8359375	0.000128095605759881
2	669	134.045528661568	-0.129547119140625	-0.12939453125	-2.178955078125E-06	2.81944863900208E-07	59383.75390625	0.000127873892779462
2	670	134.146236661313	-0.139617919921875	-0.1395263671875	-2.13958740234375E-06	2.98528874509429E-07	65211.80859375	0.000127656443510205
2	671	134.246944661059	-0.149688720703125	-0.149566650390625	-2.1051025390625E-06	3.14853139116167E-07	71049.578125	0.00012744270497933
2	672	134.347652660805	-0.159759521484375	-0.1595458984375	-2.07427978515625E-06	3.30942839354975E-07	76916.2890625	0.000127232255181298
2	673	134.448360660551	-0.169830322265625	-0.169647216796875	-2.04803466796875E-06	3.4744334698189E-07	82834.15625	0.000127024672110565
2	674	134.549068660296	-0.179901123046875	-0.179779052734375	-2.0257568359375E-06	3.6418865079213E-07	88746.609375	0.000126819548313506
2	675	134.649776660042	-0.189971923828125	-0.1898193359375	-2.00897216796875E-06	3.81341749289277E-07	94485.796875	0.000126616374473087
2	676	134.750484659788	-0.200042724609375	-0.199859619140625	-1.99676513671875E-06	3.99072717982563E-07	100091.703125	0.000126414670376107
2	677	134.851192659533	-0.189971923828125	-0.1898193359375	-1.7645263671875E-06	3.34941233859354E-07	107575.234375	0.00012622527719941
