Potential - Start -0.2 V, Upper Vertex 1.5 V, Lower Vertex -0.2 V, Stop -0.19 V; Scan - # end cross 5, Rate 0.1 Vps, Step 0.01 V 
Scan	Index	Time (s)	Potential applied (V)	WE(1).Potential (V)	WE(1).Current (A)	WE(1).Power (W)	WE(1).Resistance (Ω)	WE(1).Charge (C)
1	1	56.4513958574739	-0.189971923828125	-0.1898193359375	-2.8411865234375E-07	5.39312132730174E-08	668098.875	0
1	2	56.5521038572197	-0.179901123046875	-0.17974853515625	-2.45361328125E-07	4.41033378706379E-08	732587.0625	-2.66614339494708E-08
1	3	56.6528118569654	-0.169830322265625	-0.169647216796875	-2.13623046875E-07	3.62405536691313E-08	794142.875	-4.9773131394204E-08
1	4	56.7535198567111	-0.159759521484375	-0.159637451171875	-1.87072753906251E-07	2.98638163087617E-08	853344.25	-6.99497704204077E-08
1	5	56.8542278564569	-0.149688720703125	-0.149566650390625	-1.629638671875E-07	2.43739588512426E-08	917790.3125	-8.75755077345275E-08
1	6	56.9549358562026	-0.139617919921875	-0.1395263671875	-1.40991210937499E-07	1.96719902589848E-08	989610.4375	-1.02880861163612E-07
1	7	57.0556438559483	-0.129547119140625	-0.129486083984375	-1.190185546875E-07	1.54112456129951E-08	1087948.75	-1.15973392667001E-07
1	8	57.1563518556941	-0.119476318359375	-0.119415283203125	-9.70458984375006E-08	1.15887637264223E-08	1230503.125	-1.26853109350122E-07
1	9	57.2570598554398	-0.109405517578125	-0.10931396484375	-7.35473632812497E-08	8.03975375163191E-09	1486307.125	-1.35443158910675E-07
1	10	57.3577678551856	-0.099334716796875	-0.099212646484375	-4.730224609375E-08	4.69298067073964E-09	2097419.5	-1.41528417429981E-07
1	11	57.4584758549313	-0.089263916015625	-0.08917236328125	-1.678466796875E-08	1.49672851890159E-09	5312727.5	-1.44755446740419E-07
1	12	57.559183854677	-0.079193115234375	-0.079071044921875	2.10571289062503E-08	-1.66500913056922E-09	-3755072.75	-1.44540308610885E-07
1	13	57.6598918544228	-0.069122314453125	-0.069061279296875	6.89697265624997E-08	-4.76313744002255E-09	-1001327.4375	-1.40007102800155E-07
1	14	57.7605998541685	-0.059051513671875	-0.058990478515625	1.30310058593749E-07	-7.68705277209847E-09	-452693.21875	-1.29972562490366E-07
1	15	57.8613078539142	-0.048980712890625	-0.0488128662109375	2.117919921875E-07	-1.03381738725261E-08	-230475.515625	-1.12746363356564E-07
1	16	57.96201585366	-0.038909912109375	-0.038787841796875	3.1768798828125E-07	-1.23224310755177E-08	-122094.140625	-8.608493118345E-08
1	17	58.0627238534057	-0.028839111328125	-0.0287078857421875	4.5318603515625E-07	-1.30100126227717E-08	-63346.80078125	-4.72683403529572E-08
1	18	58.1634318531515	-0.018768310546875	-0.0186676025390625	6.1798095703125E-07	-1.15362235320049E-08	-30207.408203125	6.66920341174659E-09
1	19	58.2641398528972	-0.008697509765625	-0.0085601806640625	8.0841064453125E-07	-6.92014090475368E-09	-10588.9013671875	7.84937270736918E-08
1	20	58.3648478526429	0.001373291015625	0.001507568359375	1.01348876953125E-06	1.52790358143307E-09	1487.50390625	1.70233647622808E-07
1	21	58.4655558523887	0.011444091796875	0.01156005859375	1.2152099609375E-06	1.40478979560044E-08	9512.8076171875	2.82457534694913E-07
1	22	58.5662638521344	0.021514892578125	0.021624755859375	1.3970947265625E-06	3.02118294825959E-08	15478.375	4.13997526038656E-07
1	23	58.6669718518801	0.031585693359375	0.0316558837890625	1.5399169921875E-06	4.87474345334249E-08	20556.876953125	5.61887816274975E-07
1	24	58.7676798516259	0.041656494140625	0.0417877197265625	1.63360595703125E-06	6.82646685845612E-08	25580.048828125	7.21687399618531E-07
1	25	58.8683878513716	0.051727294921875	0.05181884765625	1.6778564453125E-06	8.69445884177367E-08	30883.958984375	8.88432737156108E-07
1	26	58.9690958511173	0.061798095703125	0.06182861328125	1.67877197265625E-06	1.03796139683254E-07	36829.66796875	1.05745243672573E-06
1	27	59.0698038508631	0.071868896484375	0.07196044921875	1.64947509765625E-06	1.18696966922016E-07	43626.2734375	1.22504297905834E-06
1	28	59.1705118506088	0.081939697265625	0.082000732421875	1.60125732421875E-06	1.31304275896582E-07	51210.21484375	1.38873031119147E-06
1	29	59.2712198503546	0.092010498046875	0.092010498046875	1.54327392578125E-06	1.41997404057292E-07	59620.328125	1.54707004185184E-06
1	30	59.3719278501003	0.102081298828125	0.10211181640625	1.48284912109375E-06	1.51416401195092E-07	68861.90625	1.6994474663079E-06
1	31	59.472635849846	0.112152099609375	0.112213134765625	1.4239501953125E-06	1.5978591250132E-07	78804.1171875	1.84581642770354E-06
1	32	59.5733438495918	0.122222900390625	0.122314453125	1.36871337890625E-06	1.67413432450303E-07	89364.546875	1.98643829207867E-06
1	33	59.6740518493375	0.132293701171875	0.13226318359375	1.3189697265625E-06	1.74451130874331E-07	100277.65625	2.12177383218659E-06
1	34	59.7747598490832	0.142364501953125	0.142425537109375	1.2738037109375E-06	1.81422180389745E-07	111811.2109375	2.25233020501037E-06
1	35	59.875467848829	0.152435302734375	0.1524658203125	1.23382568359375E-06	1.88116231925051E-07	123571.609375	2.37859944718366E-06
1	36	59.9761758485747	0.162506103515625	0.16253662109375	1.1981201171875E-06	1.94738390746352E-07	135659.703125	2.50105767918285E-06
1	37	60.0768838483204	0.172576904296875	0.172576904296875	1.16607666015625E-06	2.01237909891461E-07	147997.90625	2.62010439655569E-06
1	38	60.1775918480662	0.182647705078125	0.18267822265625	1.13677978515625E-06	2.07664896834103E-07	160698	2.73606246992131E-06
1	39	60.2782998478119	0.192718505859375	0.192718505859375	1.10992431640625E-06	2.13902950463307E-07	173632.125	2.84919292425911E-06
1	40	60.3790078475577	0.202789306640625	0.20281982421875	1.08612060546875E-06	2.20286793251034E-07	186737.84375	2.9597727007058E-06
1	41	60.4797158473034	0.212860107421875	0.21295166015625	1.06475830078125E-06	2.26742045583705E-07	200000	3.06807805827702E-06
1	42	60.5804238470491	0.222930908203125	0.222930908203125	1.04522705078125E-06	2.33013409456362E-07	213284.6875	3.17432431984344E-06
1	43	60.6811318467949	0.233001708984375	0.233062744140625	1.02813720703125E-06	2.39620476349955E-07	226684.484375	3.27872635352833E-06
1	44	60.7818398465406	0.243072509765625	0.243072509765625	1.01318359375E-06	2.46277068072231E-07	239909.640625	3.38151494361227E-06
1	45	60.8825478462863	0.253143310546875	0.253173828125	9.991455078125E-07	2.5295750560872E-07	253390.34375	3.48284379469987E-06
1	46	60.9832558460321	0.263214111328125	0.263153076171875	9.86633300781251E-07	2.59635584143325E-07	266718.21875	3.58283568857587E-06
1	47	61.0839638457778	0.273284912109375	0.273284912109375	9.74426269531251E-07	2.66295984374665E-07	280457.25	3.68158293895249E-06
1	48	61.1846718455236	0.283355712890625	0.283355712890625	9.63134765625E-07	2.72909744580829E-07	294201.53125	3.7791469367221E-06
1	49	61.2853798452693	0.293426513671875	0.293426513671875	9.5367431640625E-07	2.79833329841495E-07	307680	3.8756656977057E-06
1	50	61.386087845015	0.303497314453125	0.30352783203125	9.4482421875E-07	2.86780448277568E-07	321253.25	3.9712631405564E-06
1	51	61.4867958447608	0.313568115234375	0.313568115234375	9.381103515625E-07	2.94161480951516E-07	334255.0625	4.06607614422683E-06
1	52	61.5875038445065	0.323638916015625	0.32366943359375	9.31701660156251E-07	3.01563346738476E-07	347396	4.16022885474376E-06
1	53	61.6882118442522	0.333709716796875	0.333648681640625	9.2681884765625E-07	3.09231865003312E-07	359993.4375	4.25381267632474E-06
1	54	61.788919843998	0.343780517578125	0.343719482421875	9.2132568359375E-07	3.16677557066214E-07	373070.5625	4.34687399319955E-06
1	55	61.8896278437437	0.353851318359375	0.3538818359375	9.16748046875E-07	3.24420483366339E-07	386018.65625	4.43942826677812E-06
1	56	61.9903358434894	0.363922119140625	0.363922119140625	9.124755859375E-07	3.32070044350985E-07	398829.4375	4.53153734270018E-06
1	57	62.0910438432352	0.373992919921875	0.3740234375	9.0911865234375E-07	3.40031675705177E-07	411413.25	4.62326170236338E-06
1	58	62.1917518429809	0.384063720703125	0.384033203125	9.063720703125E-07	3.48076980571932E-07	423703.71875	4.71467910756473E-06
1	59	62.2924598427267	0.394134521484375	0.394134521484375	9.051513671875E-07	3.56751399976929E-07	435434.9375	4.8058964239317E-06
1	60	62.3931678424724	0.404205322265625	0.404205322265625	9.03930664062499E-07	3.65373580279993E-07	447164.09375	4.89699095851392E-06
1	61	62.4938758422181	0.414276123046875	0.414276123046875	9.02709960937501E-07	3.739711758044E-07	458924.96875	4.98796271131141E-06
1	62	62.5945838419639	0.424346923828125	0.42437744140625	9.014892578125E-07	3.82571698764878E-07	470751.53125	5.07881122757681E-06
1	63	62.6952918417096	0.434417724609375	0.43438720703125	9.0087890625E-07	3.91330274851498E-07	482181.59375	5.16956743012997E-06
1	64	62.7959998414553	0.444488525390625	0.444549560546875	8.99658203125001E-07	3.99942649664808E-07	494131.625	5.26023177371826E-06
1	65	62.8967078412011	0.454559326171875	0.45458984375	8.984375E-07	4.08420532949094E-07	505978.28125	5.35077333552181E-06
1	66	62.9974158409468	0.464630126953125	0.464630126953125	8.984375E-07	4.17441100353244E-07	517153.5625	5.44125305168564E-06
1	67	63.0981238406926	0.474700927734375	0.47467041015625	8.9996337890625E-07	4.27185995022228E-07	527433.0625	5.53180962015176E-06
1	68	63.1988318404383	0.484771728515625	0.484771728515625	9.01184082031251E-07	4.36868560882431E-07	537927.5625	5.62250443181256E-06
1	69	63.299539840184	0.494842529296875	0.494842529296875	9.04235839843751E-07	4.47454340246622E-07	547249.4375	5.71341479371767E-06
1	70	63.4002478399298	0.504913330078125	0.504791259765625	9.0850830078125E-07	4.58607047448822E-07	555626.5	5.80469350097701E-06
1	71	63.5009558396755	0.514984130859375	0.5150146484375	9.136962890625E-07	4.70566959620555E-07	563660.6875	5.89644878346007E-06
1	72	63.6016638394212	0.525054931640625	0.525054931640625	9.2010498046875E-07	4.83105679904838E-07	570646.75	5.98878841628903E-06
1	73	63.702371839167	0.535125732421875	0.53509521484375	9.28649902343751E-07	4.96916072734166E-07	576207.75	6.08188020123634E-06
1	74	63.8030798389127	0.545196533203125	0.545166015625	9.40856933593751E-07	5.12923236328788E-07	579435.625	6.17601745034335E-06
1	75	63.9037878386584	0.555267333984375	0.55523681640625	9.57336425781249E-07	5.31548437265883E-07	579980.875	6.27159897703677E-06
1	76	64.0044958384042	0.565338134765625	0.5653076171875	9.7930908203125E-07	5.53610902898072E-07	577251.4375	6.36911681795027E-06
1	77	64.1052038381499	0.575408935546875	0.575439453125	1.0113525390625E-06	5.81972130930808E-07	568980.0625	6.46935495751677E-06
1	78	64.2059118378957	0.585479736328125	0.58544921875	1.055908203125E-06	6.18180649780697E-07	554450.875	6.57344980936614E-06
1	79	64.3066198376414	0.595550537109375	0.59552001953125	1.1175537109375E-06	6.65525590193283E-07	532878.25	6.68289203531458E-06
1	80	64.4073278373871	0.605621337890625	0.6055908203125	1.20208740234375E-06	7.27973031189322E-07	503782.71875	6.79969525663182E-06
1	81	64.5080358371329	0.615692138671875	0.6156005859375	1.31378173828125E-06	8.08764752946445E-07	468571.4375	6.92637922838912E-06
1	82	64.6087438368786	0.625762939453125	0.625732421875	1.45751953125E-06	9.12017185328295E-07	429313.25	7.06592572896625E-06
1	83	64.7094518366243	0.635833740234375	0.635833740234375	1.63543701171875E-06	1.03986599242489E-06	388785.21875	7.2216680564452E-06
1	84	64.8101598363701	0.645904541015625	0.645904541015625	1.8438720703125E-06	1.19096534945129E-06	350297.90625	7.39686538508977E-06
1	85	64.9108678361158	0.655975341796875	0.6558837890625	2.07427978515625E-06	1.3604865216621E-06	316198.3125	7.59415979700861E-06
1	86	65.0115758358615	0.666046142578125	0.665985107421875	2.31201171875E-06	1.53976532146771E-06	288054.375	7.81502694735536E-06
1	87	65.1122838356073	0.676116943359375	0.67608642578125	2.53662109375E-06	1.7149750419776E-06	266530.34375	8.0591753430781E-06
1	88	65.212991835353	0.686187744140625	0.686126708984375	2.7301025390625E-06	1.87319631095306E-06	251319.03125	8.32437581266277E-06
1	89	65.3136998350988	0.696258544921875	0.696197509765625	2.87628173828125E-06	2.00246017811878E-06	242047.75	8.60668023960898E-06
1	90	65.4144078348445	0.706329345703125	0.706298828125	2.969970703125E-06	2.09768677450484E-06	237813.40625	8.90106184670003E-06
1	91	65.5151158345902	0.716400146484375	0.71630859375	3.0145263671875E-06	2.15933118852263E-06	237618.953125	9.20240563573316E-06
1	92	65.615823834336	0.726470947265625	0.72637939453125	3.0224609375E-06	2.19545313484559E-06	240327.15625	9.50639150687493E-06
1	93	65.7165318340817	0.736541748046875	0.736480712890625	3.00994873046875E-06	2.21676918954472E-06	244682.15625	9.81014818535186E-06
1	94	65.8172398338274	0.746612548828125	0.74652099609375	2.99163818359375E-06	2.23332062887494E-06	249535.859375	1.01123514468782E-05
1	95	65.9179478335732	0.756683349609375	0.7568359375	2.98095703125E-06	2.25609528570203E-06	253890.265625	1.04130958789028E-05
1	96	66.0186558333189	0.766754150390625	0.76690673828125	2.989501953125E-06	2.2926690235181E-06	256533.296875	1.0713732081058E-05
1	97	66.1193638330647	0.776824951171875	0.7769775390625	3.0267333984375E-06	2.35170386986283E-06	256704.984375	1.10166738522821E-05
1	98	66.2200718328104	0.786895751953125	0.78643798828125	3.10089111328125E-06	2.43865861193626E-06	253616.78125	1.13252244773321E-05
1	99	66.3207798325561	0.796966552734375	0.7965087890625	3.218994140625E-06	2.56395719588909E-06	247440.265625	1.16434557639877E-05
1	100	66.4214878323019	0.807037353515625	0.806884765625	3.3843994140625E-06	2.73082036983396E-06	238412.984375	1.19759624794824E-05
1	101	66.5221958320476	0.817108154296875	0.81695556640625	3.59161376953125E-06	2.9341888421186E-06	227461.984375	1.23272329801694E-05
1	102	66.6229038317933	0.827178955078125	0.82733154296875	3.8287353515625E-06	3.16763339469617E-06	216084.8125	1.27008770505199E-05
1	103	66.7236118315391	0.837249755859375	0.83709716796875	4.07501220703125E-06	3.4111808417947E-06	205422.015625	1.30988628370687E-05
1	104	66.8243198312848	0.847320556640625	0.84747314453125	4.30877685546875E-06	3.65157256965176E-06	196685.328125	1.35210202643066E-05
1	105	66.9250278310305	0.857391357421875	0.8575439453125	4.5062255859375E-06	3.86428655474447E-06	190302.046875	1.39648909680545E-05
1	106	67.0257358307763	0.867462158203125	0.8673095703125	4.65179443359375E-06	4.03454578190576E-06	186446.234375	1.44260338856839E-05
1	107	67.126443830522	0.877532958984375	0.87799072265625	4.73480224609375E-06	4.15711247114814E-06	185433.453125	1.48986864587641E-05
1	108	67.2271518302678	0.887603759765625	0.88775634765625	4.764404296875E-06	4.2296301216993E-06	186331.03125	1.53770088218153E-05
1	109	67.3278598300135	0.897674560546875	0.8978271484375	4.7552490234375E-06	4.26939141107141E-06	188807.609375	1.58563616423635E-05
1	110	67.4285678297592	0.907745361328125	0.9075927734375	4.7296142578125E-06	4.29256351708318E-06	191895.734375	1.63339627761161E-05
1	111	67.529275829505	0.917816162109375	0.91796875	4.708251953125E-06	4.32202796218917E-06	194970.1875	1.68091974046547E-05
1	112	67.6299838292507	0.927886962890625	0.92803955078125	4.71343994140625E-06	4.37425887866993E-06	196892.203125	1.72836171259405E-05
1	113	67.7306918289964	0.937957763671875	0.93841552734375	4.76318359375E-06	4.46984540758422E-06	197014.359375	1.77608035301091E-05
1	114	67.8313998287422	0.948028564453125	0.94818115234375	4.87091064453125E-06	4.61850595456781E-06	194661.984375	1.82459170900984E-05
1	115	67.9321078284879	0.958099365234375	0.95855712890625	5.0506591796875E-06	4.84134534417535E-06	189788.515625	1.87455079867505E-05
1	116	68.0328158282337	0.968170166015625	0.968017578125	5.3009033203125E-06	5.13136728841346E-06	182613.71875	1.92667503142729E-05
1	117	68.1335238279794	0.978240966796875	0.97808837890625	5.6182861328125E-06	5.49518063053256E-06	174090.171875	1.98165762412827E-05
1	118	68.2342318277251	0.988311767578125	0.9893798828125	5.99365234375E-06	5.92999913351377E-06	165071.28125	2.04012831090949E-05
1	119	68.3349398274709	0.998382568359375	0.99853515625	6.396484375E-06	6.3871143538563E-06	156106.875	2.10251764656277E-05
1	120	68.4356478272166	1.00845336914063	1.00860595703125	6.805419921875E-06	6.8639869823528E-06	148206.28125	2.16899443330476E-05
1	121	68.5363558269623	1.01852416992188	1.0186767578125	7.1807861328125E-06	7.31489944882924E-06	141861.453125	2.23942060983973E-05
1	122	68.6370638267081	1.02859497070313	1.0284423828125	7.4951171875E-06	7.70829592511291E-06	137214.984375	2.31331978284288E-05
1	123	68.7377718264538	1.03866577148438	1.03851318359375	7.7178955078125E-06	8.01513670012355E-06	134559.109375	2.38992324739229E-05
1	124	68.8384798261995	1.04873657226563	1.048583984375	7.8277587890625E-06	8.20806235424243E-06	133957.109375	2.46820181928342E-05
1	125	68.9391878259453	1.05880737304688	1.05804443359375	7.8277587890625E-06	8.28211705083959E-06	135165.6875	2.54703372775111E-05
1	126	69.039895825691	1.06887817382813	1.06842041015625	7.733154296875E-06	8.26226005301578E-06	138161.015625	2.62538906099508E-05
1	127	69.1406038254368	1.07894897460938	1.0791015625	7.574462890625E-06	8.17361433291808E-06	142465.75	2.70246910076821E-05
1	128	69.2413118251825	1.08901977539063	1.0888671875	7.3822021484375E-06	8.03823786554858E-06	147498.96875	2.77778181043686E-05
1	129	69.3420198249282	1.09909057617188	1.0992431640625	7.1807861328125E-06	7.8934299381217E-06	153081.1875	2.85111236735247E-05
1	130	69.442727824674	1.10916137695313	1.1090087890625	6.988525390625E-06	7.75033549871296E-06	158689.96875	2.92246040771715E-05
1	131	69.5434358244197	1.11923217773438	1.11907958984375	6.805419921875E-06	7.61580622565816E-06	164439.46875	2.99191851809155E-05
1	132	69.6441438241654	1.12930297851563	1.129150390625	6.640625E-06	7.49826403989573E-06	170036.78125	3.05962457787246E-05
1	133	69.7448518239112	1.13937377929688	1.1395263671875	6.4910888671875E-06	7.39676670491463E-06	175552.421875	3.12574811687227E-05
1	134	69.8455598236569	1.14944458007813	1.14990234375	6.3568115234375E-06	7.30971214579768E-06	180892.953125	3.19044229399879E-05
1	135	69.9462678234026	1.15951538085938	1.1590576171875	6.2347412109375E-06	7.22642425898812E-06	185903.078125	3.25384608004242E-05
1	136	70.0469758231484	1.16958618164063	1.1700439453125	6.1279296875E-06	7.16994691174477E-06	190936.25	3.31609699060209E-05
1	137	70.1476838228941	1.17965698242188	1.17950439453125	6.0333251953125E-06	7.11633356331731E-06	195498.234375	3.37733363267034E-05
1	138	70.2483918226399	1.18972778320313	1.1895751953125	5.9478759765625E-06	7.07544541000971E-06	200000.015625	3.43766405421775E-05
1	139	70.3490998223856	1.19979858398438	1.19903564453125	5.8685302734375E-06	7.03657678968739E-06	204316.1875	3.49716428900138E-05
1	140	70.4498078221313	1.20986938476563	1.2103271484375	5.79833984375E-06	7.01788803780801E-06	208736.84375	3.55591146217193E-05
1	141	70.5505158218771	1.21994018554688	1.21978759765625	5.7373046875E-06	6.99829297445831E-06	212606.390625	3.61399797839113E-05
1	142	70.6512238216228	1.23001098632813	1.2298583984375	5.6793212890625E-06	6.98476060279063E-06	216550.25	3.67148531950079E-05
1	143	70.7519318213685	1.24008178710938	1.2396240234375	5.62744140625E-06	6.97591121934238E-06	220282	3.72841932403389E-05
1	144	70.8526398211143	1.25015258789063	1.25030517578125	5.584716796875E-06	6.98260009812657E-06	223879.78125	3.78487711714115E-05
1	145	70.95334782086	1.26022338867188	1.2603759765625	5.5419921875E-06	6.98499343343428E-06	227422.921875	3.84090453735553E-05
1	146	71.0540558206058	1.27029418945313	1.2701416015625	5.50537109375E-06	6.99260090186726E-06	230709.53125	3.89653250749689E-05
1	147	71.1547638203515	1.28036499023438	1.280517578125	5.474853515625E-06	7.01064618624514E-06	233890.75	3.95182250940707E-05
1	148	71.2554718200972	1.29043579101563	1.290283203125	5.4443359375E-06	7.0247351686703E-06	236995.515625	4.00680473831017E-05
1	149	71.356179819843	1.30050659179688	1.30035400390625	5.4168701171875E-06	7.04384865457541E-06	240056.34375	4.06149520131294E-05
1	150	71.4568878195887	1.31057739257813	1.31072998046875	5.389404296875E-06	7.06405353412265E-06	243204.984375	4.11590917792637E-05
1	151	71.5575958193344	1.32064819335938	1.32080078125	5.3680419921875E-06	7.0901137405599E-06	246048.890625	4.17007722717244E-05
1	152	71.6583038190802	1.33071899414063	1.33056640625	5.3466796875E-06	7.11411257725558E-06	248858.453125	4.22403027187102E-05
1	153	71.7590118188259	1.34078979492188	1.3409423828125	5.328369140625E-06	7.14503539711586E-06	251660.953125	4.2777832277352E-05
1	154	71.8597198185716	1.35086059570313	1.35040283203125	5.31005859375E-06	7.17071816325188E-06	254310.359375	4.33135210187174E-05
1	155	71.9604278183174	1.36093139648438	1.361083984375	5.2947998046875E-06	7.2066673055815E-06	257060.515625	4.38475180999376E-05
1	156	72.0611358180631	1.37100219726563	1.370849609375	5.2825927734375E-06	7.24164010534878E-06	259503.1875	4.4380132749211E-05
1	157	72.1618438178089	1.38107299804688	1.3818359375	5.267333984375E-06	7.27859151083976E-06	262340.65625	4.4911361328559E-05
1	158	72.2625518175546	1.39114379882813	1.39129638671875	5.255126953125E-06	7.31143882148899E-06	264750.3125	4.54412111139391E-05
1	159	72.3632598173003	1.40121459960938	1.40167236328125	5.242919921875E-06	7.34885588826728E-06	267345.75	4.59698312624823E-05
1	160	72.4639678170461	1.41128540039063	1.4111328125	5.2337646484375E-06	7.38553671908448E-06	269621	4.64973709313199E-05
1	161	72.5646758167918	1.42135620117188	1.4215087890625	5.224609375E-06	7.42682777854498E-06	272079.4375	4.70239938294981E-05
1	162	72.6653838165375	1.43142700195313	1.43096923828125	5.2154541015625E-06	7.46315436117584E-06	274370.96875	4.75496926810592E-05
1	163	72.7660918162833	1.44149780273438	1.441650390625	5.206298828125E-06	7.50566277929465E-06	276905.03125	4.80744711239822E-05
1	164	72.866799816029	1.45156860351563	1.451416015625	5.2001953125E-06	7.54764641897054E-06	279108	4.85984783153981E-05
1	165	72.9675078157748	1.46163940429688	1.46148681640625	5.1910400390625E-06	7.5866360020882E-06	281540.28125	4.91217178932857E-05
1	166	73.0682158155205	1.47171020507813	1.47186279296875	5.1849365234375E-06	7.63151547289453E-06	283872.875	4.9644189857645E-05
1	167	73.1689238152662	1.48178100585938	1.48193359375	5.1788330078125E-06	7.67468645790359E-06	286152.03125	5.01660470035858E-05
1	168	73.269631815012	1.49185180664063	1.49169921875	5.1788330078125E-06	7.72526072978508E-06	288037.71875	5.06875985593069E-05
1	169	73.3703398147577	1.50192260742188	1.5020751953125	5.181884765625E-06	7.78358025854686E-06	289870.4375	5.12092992721591E-05
1	170	73.4710478145034	1.49185180664063	1.49169921875	5.0201416015625E-06	7.48854108678643E-06	297142.875	5.17230146215297E-05
1	171	73.5717558142492	1.48178100585938	1.48193359375	4.90020751953125E-06	7.26178177501424E-06	302422.625	5.22225418535527E-05
1	172	73.6724638139949	1.47171020507813	1.4715576171875	4.8028564453125E-06	7.06768014424597E-06	306392.1875	5.27111296833027E-05
1	173	73.7731718137406	1.46163940429688	1.46148681640625	4.72015380859375E-06	6.89844273438212E-06	309626.9375	5.31906516698655E-05
1	174	73.8738798134864	1.45156860351563	1.451416015625	4.647216796875E-06	6.74504508424434E-06	312319.40625	5.36623374500778E-05
1	175	73.9745878132321	1.44149780273438	1.44195556640625	4.58221435546875E-06	6.60734940538532E-06	314685.3125	5.41270746907685E-05
1	176	74.0752958129779	1.43142700195313	1.43157958984375	4.5233154296875E-06	6.47548631604877E-06	316489	5.45855764357839E-05
1	177	74.1760038127236	1.42135620117188	1.4215087890625	4.47021484375E-06	6.35444939689478E-06	317995.65625	5.50384356756695E-05
1	178	74.2767118124693	1.41128540039063	1.4117431640625	4.4219970703125E-06	6.24272388449754E-06	319254.65625	5.54861944692675E-05
1	179	74.3774198122151	1.40121459960938	1.4007568359375	4.37774658203125E-06	6.13215797784505E-06	319972.125	5.59292966499925E-05
1	180	74.4781278119608	1.39114379882813	1.3909912109375	4.3365478515625E-06	6.03209946348215E-06	320760.0625	5.63680951017886E-05
1	181	74.5788358117065	1.38107299804688	1.38092041015625	4.298095703125E-06	5.93532786297146E-06	321286.59375	5.68028845009394E-05
1	182	74.6795438114523	1.37100219726563	1.370849609375	4.261474609375E-06	5.84184090257622E-06	321684.3125	5.72338940401096E-05
1	183	74.780251811198	1.36093139648438	1.36077880859375	4.22607421875E-06	5.75075182496221E-06	321995.96875	5.76612765144091E-05
1	184	74.8809598109438	1.35086059570313	1.35040283203125	4.1925048828125E-06	5.66157041248516E-06	322099.28125	5.80851847189479E-05
1	185	74.9816678106895	1.34078979492188	1.34124755859375	4.16046142578125E-06	5.58020838070661E-06	322379.53125	5.85057896387298E-05
1	186	75.0823758104352	1.33071899414063	1.33026123046875	4.1302490234375E-06	5.49430978935561E-06	322077.75	5.89232622587588E-05
1	187	75.183083810181	1.32064819335938	1.32049560546875	4.1009521484375E-06	5.41528925168677E-06	321997.3125	5.93377335462719E-05
1	188	75.2837918099267	1.31057739257813	1.31072998046875	4.073486328125E-06	5.33924048795598E-06	321771.0625	5.97493490204215E-05
1	189	75.3844998096724	1.30050659179688	1.3006591796875	4.0460205078125E-06	5.26249368704157E-06	321466.28125	6.01581996306777E-05
1	190	75.4852078094182	1.29043579101563	1.290283203125	4.019775390625E-06	5.18664819537662E-06	320983.9375	6.05643435847014E-05
1	191	75.5859158091639	1.28036499023438	1.28021240234375	3.99322509765625E-06	5.1121764954587E-06	320596.09375	6.0967831814196E-05
1	192	75.6866238089096	1.27029418945313	1.26983642578125	3.96759033203125E-06	5.03819046571152E-06	320052.3125	6.13686934229918E-05
1	193	75.7873318086554	1.26022338867188	1.26007080078125	3.94287109375E-06	4.96829670737498E-06	319582.0625	6.17670157225803E-05
1	194	75.8880398084011	1.25015258789063	1.25	3.9190673828125E-06	4.89883404952707E-06	318953.4375	6.21628933004104E-05
1	195	75.9887478081469	1.24008178710938	1.23992919921875	3.896484375E-06	4.83136500406545E-06	318217.40625	6.25564352958463E-05
1	196	76.0894558078926	1.23001098632813	1.22955322265625	3.87481689453125E-06	4.7642934077885E-06	317319.0625	6.29477508482523E-05
1	197	76.1901638076383	1.21994018554688	1.21978759765625	3.853759765625E-06	4.70076838610112E-06	316518.875	6.33369199931622E-05
1	198	76.2908718073841	1.20986938476563	1.209716796875	3.8330078125E-06	4.63685364593402E-06	315605.09375	6.37239791103639E-05
1	199	76.3915798071298	1.19979858398438	1.1993408203125	3.81195068359375E-06	4.57182795798872E-06	314626.53125	6.41089354758151E-05
1	200	76.4922878068755	1.18972778320313	1.1895751953125	3.790283203125E-06	4.50882680524956E-06	313848.65625	6.44917381578125E-05
1	201	76.5929958066213	1.17965698242188	1.1798095703125	3.7689208984375E-06	4.44660872744862E-06	313036.4375	6.48723726044409E-05
1	202	76.693703806367	1.16958618164063	1.16973876953125	3.74664306640625E-06	4.38259348811698E-06	312209.84375	6.52508097118698E-05
1	203	76.7944118061127	1.15951538085938	1.15997314453125	3.72314453125E-06	4.31874741479987E-06	311557.40625	6.56269476166926E-05
1	204	76.8951198058585	1.14944458007813	1.14959716796875	3.69720458984375E-06	4.25029566031299E-06	310936.875	6.60005898680538E-05
1	205	76.9958278056042	1.13937377929688	1.1395263671875	3.6676025390625E-06	4.17932960772305E-06	310700.625	6.63714381516911E-05
1	206	77.09653580535	1.12930297851563	1.129150390625	3.631591796875E-06	4.10061329603195E-06	310924.375	6.6738975874614E-05
1	207	77.1972438050957	1.11923217773438	1.1187744140625	3.58612060546875E-06	4.01205988964648E-06	311973.46875	6.71024172334E-05
1	208	77.2979518048414	1.10916137695313	1.10870361328125	3.526611328125E-06	3.90996638088836E-06	314382.15625	6.74605762469582E-05
1	209	77.3986598045872	1.09909057617188	1.09893798828125	3.44879150390625E-06	3.790007895077E-06	318644.375	6.78118158248253E-05
1	210	77.4993678043329	1.08901977539063	1.08917236328125	3.3447265625E-06	3.64298375643557E-06	325638.6875	6.81538949720562E-05
1	211	77.6000758040786	1.07894897460938	1.0791015625	3.20648193359375E-06	3.46011938745505E-06	336537.5625	6.8483772338368E-05
1	212	77.7007838038244	1.06887817382813	1.06903076171875	3.02459716796875E-06	3.23338736052392E-06	353445.65625	6.87975334585644E-05
1	213	77.8014918035701	1.05880737304688	1.05865478515625	2.7880859375E-06	2.95162044494646E-06	379706.6875	6.90902234055102E-05
1	214	77.9021998033159	1.04873657226563	1.04888916015625	2.490234375E-06	2.61197965301108E-06	421201	6.93560068611987E-05
1	215	78.0029078030616	1.03866577148438	1.0382080078125	2.13134765625E-06	2.21278219214582E-06	487113.40625	6.95887283654884E-05
1	216	78.1036158028073	1.02859497070313	1.0284423828125	1.71630859375E-06	1.76512446614652E-06	599217.625	6.97824725648388E-05
1	217	78.2043238025531	1.01852416992188	1.0186767578125	1.26129150390625E-06	1.28484828110231E-06	807645.8125	6.99324009474367E-05
1	218	78.3050318022988	1.00845336914063	1.00860595703125	7.89794921875001E-07	7.9659184848424E-07	1277047.875	7.003568316577E-05
1	219	78.4057398020445	0.998382568359375	0.99822998046875	3.314208984375E-07	3.30834268424951E-07	3011970.5	7.00921445968561E-05
1	220	78.5064478017903	0.988311767578125	0.9881591796875	-8.33129882812506E-08	-8.23264869609375E-08	-11860807	7.01046374160796E-05
1	221	78.607155801536	0.978240966796875	0.9783935546875	-4.229736328125E-07	-4.1383466964362E-07	-2313131.5	7.00791424605995E-05
1	222	78.7078638012817	0.968170166015625	0.968017578125	-6.67724609375001E-07	-6.46369130663516E-07	-1449725.875	7.00242235325277E-05
1	223	78.8085718010275	0.958099365234375	0.958251953125	-8.0413818359375E-07	-7.70566941810102E-07	-1191650.875	6.99501106282696E-05
1	224	78.9092798007732	0.948028564453125	0.94818115234375	-8.428955078125E-07	-7.99217616531678E-07	-1124909.5	6.98671719874255E-05
1	225	79.009987800519	0.937957763671875	0.9381103515625	-8.026123046875E-07	-7.52938888126664E-07	-1168821.25	6.97843133821152E-05
1	226	79.1106958002647	0.927886962890625	0.927734375	-7.1746826171875E-07	-6.65619950268592E-07	-1293066.75	6.9707770308014E-05
1	227	79.2114038000104	0.917816162109375	0.91796875	-6.1309814453125E-07	-5.62804927994875E-07	-1497262.375	6.96407732903026E-05
1	228	79.3121117997562	0.907745361328125	0.9075927734375	-5.1727294921875E-07	-4.69473178554836E-07	-1754572.25	6.95838534738868E-05
1	229	79.4128197995019	0.897674560546875	0.8978271484375	-4.49218749999999E-07	-4.03320768782578E-07	-1998641.375	6.95351845934056E-05
1	230	79.5135277992476	0.887603759765625	0.88775634765625	-4.21142578125E-07	-3.73871984038487E-07	-2107971	6.94913615006953E-05
1	231	79.6142357989934	0.877532958984375	0.87799072265625	-4.44641113281249E-07	-3.90390766824567E-07	-1974605.375	6.94477639626712E-05
1	232	79.7149437987391	0.867462158203125	0.86761474609375	-5.2337646484375E-07	-4.54089132517765E-07	-1657726	6.93990223226137E-05
1	233	79.8156517984849	0.857391357421875	0.85693359375	-6.52465820312501E-07	-5.59119882836967E-07	-1313377	6.93398105795495E-05
1	234	79.9163597982306	0.847320556640625	0.84716796875	-8.1695556640625E-07	-6.92098581112077E-07	-1036981.6875	6.92658213665709E-05
1	235	80.0170677979763	0.837249755859375	0.83770751953125	-9.97314453125001E-07	-8.35457740322454E-07	-839963.375	6.91744644427672E-05
1	236	80.1177757977221	0.827178955078125	0.82733154296875	-1.16943359375E-06	-9.67509208749107E-07	-707463.5	6.90653614583425E-05
1	237	80.2184837974678	0.817108154296875	0.8172607421875	-1.3128662109375E-06	-1.07295397810958E-06	-622501.1875	6.89403677824885E-05
1	238	80.3191917972135	0.807037353515625	0.80657958984375	-1.4093017578125E-06	-1.13671399049053E-06	-572325.6875	6.88032960169949E-05
1	239	80.4198997969593	0.796966552734375	0.7965087890625	-1.4569091796875E-06	-1.16044088827039E-06	-546711.375	6.86589701217599E-05
1	240	80.520607796705	0.786895751953125	0.787353515625	-1.4581298828125E-06	-1.1480636885608E-06	-539974.875	6.85121849528514E-05
1	241	80.6213157964507	0.776824951171875	0.7769775390625	-1.42578125E-06	-1.1078000170528E-06	-544948.625	6.83669713907875E-05
1	242	80.7220237961965	0.766754150390625	0.76690673828125	-1.37481689453125E-06	-1.05435628938721E-06	-557824.625	6.82259487803094E-05
1	243	80.8227317959422	0.756683349609375	0.7568359375	-1.31927490234375E-06	-9.98474547486694E-07	-573675.75	6.8090288550593E-05
1	244	80.923439795688	0.746612548828125	0.746551513671875	-1.2713623046875E-06	-9.49137472616712E-07	-587205.9375	6.79598451824859E-05
1	245	81.0241477954337	0.736541748046875	0.736419677734375	-1.241455078125E-06	-9.1423191861395E-07	-593190.75	6.78333090036176E-05
1	246	81.1248557951794	0.726470947265625	0.726348876953125	-1.2384033203125E-06	-8.99512883734133E-07	-586520.4375	6.7708439019043E-05
1	247	81.2255637949252	0.716400146484375	0.716278076171875	-1.26861572265625E-06	-9.08681613509543E-07	-564613.875	6.75822011544369E-05
1	248	81.3262717946709	0.706329345703125	0.706207275390625	-1.3348388671875E-06	-9.42672954806767E-07	-529058.0625	6.74511102261022E-05
1	249	81.4269797944166	0.696258544921875	0.696197509765625	-1.43798828125E-06	-1.00112379186612E-06	-484146.875	6.7311484599486E-05
1	250	81.5276877941624	0.686187744140625	0.686126708984375	-1.56982421875E-06	-1.07709831809188E-06	-437072.3125	6.71600282657892E-05
1	251	81.6283957939081	0.676116943359375	0.676055908203125	-1.71905517578125E-06	-1.16217734102975E-06	-393271.8125	6.69944201945327E-05
1	252	81.7291037936538	0.666046142578125	0.666015625	-1.86920166015625E-06	-1.24491748465516E-06	-356310.21875	6.68137363390997E-05
1	253	81.8298117933996	0.655975341796875	0.65594482421875	-2.0001220703125E-06	-1.3119697541697E-06	-327952.40625	6.66189007461071E-05
1	254	81.9305197931453	0.645904541015625	0.645843505859375	-2.09197998046875E-06	-1.35109166876646E-06	-308723.5625	6.6412852902431E-05
1	255	82.0312277928911	0.635833740234375	0.635772705078125	-2.13836669921875E-06	-1.3595151813206E-06	-297316.96875	6.61998346913606E-05
1	256	82.1319357926368	0.625762939453125	0.625701904296875	-2.13714599609375E-06	-1.33721630390937E-06	-292774.53125	6.59845463815145E-05
1	257	82.2326437923825	0.615692138671875	0.615692138671875	-2.095947265625E-06	-1.29045815810969E-06	-293753.65625	6.57713899272494E-05
1	258	82.3333517921283	0.605621337890625	0.60565185546875	-2.02606201171875E-06	-1.22708820526896E-06	-298930.5625	6.55638359603472E-05
1	259	82.434059791874	0.595550537109375	0.59552001953125	-1.9403076171875E-06	-1.15549198653753E-06	-306920.40625	6.53641109238379E-05
1	260	82.5347677916197	0.585479736328125	0.585418701171875	-1.8475341796875E-06	-1.08158099010325E-06	-316864.90625	6.51733789709397E-05
1	261	82.6354757913655	0.575408935546875	0.575347900390625	-1.754150390625E-06	-1.00924671642133E-06	-327992.34375	6.49920184514485E-05
1	262	82.7361837911112	0.565338134765625	0.5653076171875	-1.66412353515625E-06	-9.40741699650971E-07	-339702.9375	6.48198911221698E-05
1	263	82.836891790857	0.555267333984375	0.55523681640625	-1.57989501953125E-06	-8.77215825312305E-07	-351439.0625	6.46565458737314E-05
1	264	82.9375997906027	0.545196533203125	0.545166015625	-1.5032958984375E-06	-8.19545789454423E-07	-362647.1875	6.45012914901599E-05
1	265	83.0383077903484	0.535125732421875	0.53509521484375	-1.43341064453125E-06	-7.67011158586683E-07	-373302.125	6.43534222035669E-05
1	266	83.1390157900942	0.525054931640625	0.524993896484375	-1.37054443359375E-06	-7.19527463388658E-07	-383055	6.4212224970106E-05
1	267	83.2397237898399	0.514984130859375	0.515045166015625	-1.314697265625E-06	-6.77128468851151E-07	-391759.53125	6.40770158497617E-05
1	268	83.3404317895856	0.504913330078125	0.504913330078125	-1.26373291015625E-06	-6.38075562164886E-07	-399541.1875	6.39471836620942E-05
1	269	83.4411397893314	0.494842529296875	0.494842529296875	-1.21795654296875E-06	-6.0269667301327E-07	-406289.15625	6.38222190900706E-05
1	270	83.5418477890771	0.484771728515625	0.48480224609375	-1.17584228515625E-06	-5.70050985970738E-07	-412302.09375	6.37016783002764E-05
1	271	83.6425557888228	0.474700927734375	0.4747314453125	-1.1370849609375E-06	-5.39810002919694E-07	-417498.65625	6.35852193227038E-05
1	272	83.7432637885686	0.464630126953125	0.464599609375	-1.10137939453125E-06	-5.11700420702255E-07	-421834.34375	6.34725001873448E-05
1	273	83.8439717883143	0.454559326171875	0.454559326171875	-1.06842041015625E-06	-4.85660450522118E-07	-425449.875	6.33632444078103E-05
1	274	83.9446797880601	0.444488525390625	0.444488525390625	-1.03851318359375E-06	-4.61607157831168E-07	-428004.71875	6.32571463938802E-05
1	275	84.0453877878058	0.434417724609375	0.43438720703125	-1.0113525390625E-06	-4.3931859750046E-07	-429511.15625	6.31539296591654E-05
1	276	84.1460957875515	0.424346923828125	0.424407958984375	-9.857177734375E-07	-4.1834644548544E-07	-430557.28125	6.30533686489798E-05
1	277	84.2468037872973	0.414276123046875	0.414276123046875	-9.6221923828125E-07	-3.98624450781426E-07	-430542.34375	6.2955281464383E-05
1	278	84.347511787043	0.404205322265625	0.404266357421875	-9.39331054687501E-07	-3.79739930167489E-07	-430376.875	6.28595298621804E-05
1	279	84.4482197867887	0.394134521484375	0.3941650390625	-9.1827392578125E-07	-3.61951464356025E-07	-429245.625	6.276599742705E-05
1	280	84.5489277865345	0.384063720703125	0.384002685546875	-8.98132324218751E-07	-3.44885222602898E-07	-427556.90625	6.26745313638821E-05
1	281	84.6496357862802	0.373992919921875	0.373992919921875	-8.7860107421875E-07	-3.28590573417387E-07	-425668.65625	6.25850661890581E-05
1	282	84.750343786026	0.363922119140625	0.363922119140625	-8.6090087890625E-07	-3.13300859033916E-07	-422722.4375	6.24974782112986E-05
1	283	84.8510517857717	0.353851318359375	0.353851318359375	-8.44421386718749E-07	-2.98799619713463E-07	-419045.90625	6.2411607359536E-05
1	284	84.9517597855174	0.343780517578125	0.343780517578125	-8.28857421875E-07	-2.84945031125972E-07	-414764.34375	6.23273517703637E-05
1	285	85.0524677852632	0.333709716796875	0.33367919921875	-8.13903808593749E-07	-2.71582763389233E-07	-409973.75	6.22446314082481E-05
1	286	85.1531757850089	0.323638916015625	0.3236083984375	-7.9925537109375E-07	-2.58645741268992E-07	-404887.375	6.21634026174434E-05
1	287	85.2538837847546	0.313568115234375	0.313568115234375	-7.855224609375E-07	-2.46314783680646E-07	-399184.15625	6.2083599914331E-05
1	288	85.3545917845004	0.303497314453125	0.303466796875	-7.733154296875E-07	-2.34675553656416E-07	-392423.03125	6.20051068835892E-05
1	289	85.4552997842461	0.293426513671875	0.29339599609375	-7.60498046875E-07	-2.23127074150398E-07	-385794.53125	6.19278725935146E-05
1	290	85.5560077839918	0.283355712890625	0.28338623046875	-7.4920654296875E-07	-2.1231481639461E-07	-378248.46875	6.18518533883616E-05
1	291	85.6567157837376	0.273284912109375	0.273284912109375	-7.39440917968751E-07	-2.02078041411369E-07	-369583.15625	6.17768964730203E-05
1	292	85.7574237834833	0.263214111328125	0.263153076171875	-7.30285644531251E-07	-1.92176912605646E-07	-360342.65625	6.17028854321688E-05
1	293	85.8581317832291	0.253143310546875	0.253173828125	-7.220458984375E-07	-1.8280310598584E-07	-350634	6.16297547821887E-05
1	294	85.9588397829748	0.243072509765625	0.2430419921875	-7.14721679687499E-07	-1.73707377371102E-07	-340051.25	6.15574099356309E-05
1	295	86.0595477827205	0.233001708984375	0.2330322265625	-7.0831298828125E-07	-1.65059759638098E-07	-328996.125	6.14857563050464E-05
1	296	86.1602557824663	0.222930908203125	0.222991943359375	-7.01904296875E-07	-1.56519007532552E-07	-317695.65625	6.14147429587319E-05
1	297	86.260963782212	0.212860107421875	0.212860107421875	-6.96716308593751E-07	-1.48303115565795E-07	-305519.0625	6.13443189649843E-05
1	298	86.3616717819577	0.202789306640625	0.202880859375	-6.91833496093749E-07	-1.40359773581622E-07	-293251	6.1274397012312E-05
1	299	86.4623797817035	0.192718505859375	0.192718505859375	-6.8939208984375E-07	-1.32858616552767E-07	-279548.46875	6.1204846133478E-05
1	300	86.5630877814492	0.182647705078125	0.1826171875	-6.88781738281249E-07	-1.25783373050581E-07	-265130.71875	6.11354553257115E-05
1	301	86.6637957811949	0.172576904296875	0.172637939453125	-6.903076171875E-07	-1.1917328635036E-07	-250088.421875	6.10660135862418E-05
1	302	86.7645037809407	0.162506103515625	0.16253662109375	-6.9305419921875E-07	-1.12646681316164E-07	-234522.25	6.09963535680436E-05
1	303	86.8652117806864	0.152435302734375	0.152496337890625	-6.988525390625E-07	-1.06572450420117E-07	-218209.609375	6.09262642683461E-05
1	304	86.9659197804322	0.142364501953125	0.1424560546875	-7.0648193359375E-07	-1.00642623124259E-07	-201641.484375	6.08554983045906E-05
1	305	87.0666277801779	0.132293701171875	0.13232421875	-7.19604492187501E-07	-9.5221103890708E-08	-183884.65625	6.07836918788962E-05
1	306	87.1673357799236	0.122222900390625	0.12225341796875	-7.3822021484375E-07	-9.0249940853937E-08	-165605.625	6.07102847425267E-05
1	307	87.2680437796694	0.112152099609375	0.11224365234375	-7.6416015625E-07	-8.57721218494589E-08	-146884.984375	6.06346329732332E-05
1	308	87.3687517794151	0.102081298828125	0.10211181640625	-7.9925537109375E-07	-8.16134146930381E-08	-127758.6875	6.05559071118478E-05
1	309	87.4694597791608	0.092010498046875	0.092071533203125	-8.47473144531249E-07	-7.80281510515124E-08	-108642.421875	6.04729902988765E-05
1	310	87.5701677789066	0.081939697265625	0.08203125	-9.0972900390625E-07	-7.46262003303855E-08	-90171.0859375	6.03845073783305E-05
1	311	87.6708757786523	0.071868896484375	0.07183837890625	-9.89990234375E-07	-7.11192953417594E-08	-72564.734375	6.0288846725598E-05
1	312	87.7715837783981	0.061798095703125	0.061798095703125	-1.0919189453125E-06	-6.74785098908615E-08	-56595.8671875	6.01840147282928E-05
1	313	87.8722917781438	0.051727294921875	0.051788330078125	-1.219482421875E-06	-6.31549568197443E-08	-42467.46484375	6.00676285102963E-05
1	314	87.9729997778895	0.041656494140625	0.04173583984375	-1.37359619140625E-06	-5.7328190194994E-08	-30384.357421875	5.99370541749522E-05
1	315	88.0737077776353	0.031585693359375	0.0316680908203125	-1.55364990234375E-06	-4.92011231756351E-08	-20383.02734375	5.97896578256041E-05
1	316	88.174415777381	0.021514892578125	0.021612548828125	-1.749267578125E-06	-3.7806131558682E-08	-12355.19921875	5.96233439864591E-05
1	317	88.2751237771267	0.011444091796875	0.0115631103515625	-1.9476318359375E-06	-2.25206804316258E-08	-5937.0107421875	5.94371886109002E-05
1	318	88.3758317768725	0.001373291015625	0.00147094726562499	-2.1319580078125E-06	-3.13599768375639E-09	-689.951354980469	5.9231766499579E-05
1	319	88.4765397766182	-0.008697509765625	-0.0085906982421875	-2.281494140625E-06	1.95996268104182E-08	3765.38256835938	5.90095296502113E-05
1	320	88.5772477763639	-0.018768310546875	-0.018609619140625	-2.38555908203125E-06	4.43943442007821E-08	7800.9462890625	5.87745234952308E-05
1	321	88.6779557761097	-0.028839111328125	-0.028704833984375	-2.43988037109375E-06	7.00363571581875E-08	11764.853515625	5.8531546528684E-05
1	322	88.7786637758554	-0.038909912109375	-0.0387786865234375	-2.44873046875E-06	9.495854413899E-08	15836.2412109375	5.82853826927021E-05
1	323	88.8793717756012	-0.048980712890625	-0.048822021484375	-2.423095703125E-06	1.18300427232043E-07	20148.6171875	5.80400665057823E-05
1	324	88.9800797753469	-0.059051513671875	-0.05902099609375	-2.37640380859375E-06	1.40257711223057E-07	24836.267578125	5.77983955736272E-05
1	325	89.0807877750926	-0.069122314453125	-0.06903076171875	-2.31689453125E-06	1.59937002308652E-07	29794.51953125	5.75620688323397E-05
1	326	89.1814957748384	-0.079193115234375	-0.079132080078125	-2.25494384765625E-06	1.78438398279468E-07	35092.70703125	5.7331857533427E-05
1	327	89.2822037745841	-0.089263916015625	-0.089111328125	-2.193603515625E-06	1.95474910924531E-07	40623.26171875	5.71078562643379E-05
1	328	89.3829117743298	-0.099334716796875	-0.099212646484375	-2.13623046875E-06	2.11941085126455E-07	46442.85546875	5.68898321944289E-05
1	329	89.4836197740756	-0.109405517578125	-0.109283447265625	-2.08251953125E-06	2.27584919798574E-07	52476.55078125	5.66773996979464E-05
1	330	89.5843277738213	-0.119476318359375	-0.119293212890625	-2.03521728515625E-06	2.42787592696914E-07	58614.48828125	5.6470056733815E-05
1	331	89.6850357735671	-0.129547119140625	-0.129425048828125	-1.9940185546875E-06	2.58075942838332E-07	64906.64453125	5.62671666557435E-05
1	332	89.7857437733128	-0.139617919921875	-0.1395263671875	-1.959228515625E-06	2.73364037184365E-07	71214.953125	5.60681037313771E-05
1	333	89.8864517730585	-0.149688720703125	-0.149566650390625	-1.93023681640625E-06	2.88699055772668E-07	77486.171875	5.58722567802761E-05
1	334	89.9871597728043	-0.159759521484375	-0.15960693359375	-1.90765380859375E-06	3.04474781387398E-07	83666.6171875	5.56790037080646E-05
1	335	90.08786777255	-0.169830322265625	-0.169708251953125	-1.88934326171875E-06	3.20637127515511E-07	89823.9375	5.54878097318579E-05
1	336	90.1885757722957	-0.179901123046875	-0.17974853515625	-1.876220703125E-06	3.37247911375016E-07	95803.515625	5.52981982764322E-05
1	337	90.2892837720415	-0.189971923828125	-0.189788818359375	-1.86798095703125E-06	3.5452188740237E-07	101601.046875	5.51096600247547E-05
1	338	90.3899917717872	-0.200042724609375	-0.1998291015625	-1.86431884765625E-06	3.72545173377148E-07	107186.1171875	5.49217256775592E-05
1	339	90.4906997715329	-0.189971923828125	-0.1898193359375	-1.64825439453125E-06	3.1287055435314E-07	115163.859375	5.4744854423916E-05
2	340	90.5914077712787	-0.179901123046875	-0.17974853515625	-1.4947509765625E-06	2.68679286818951E-07	120253.171875	5.45865914318711E-05
2	341	90.6921157710244	-0.169830322265625	-0.169647216796875	-1.37054443359375E-06	2.3250903780081E-07	123780.8984375	5.44423091923818E-05
2	342	90.7928237707702	-0.159759521484375	-0.15960693359375	-1.2652587890625E-06	2.01944075683969E-07	126145.6796875	5.43095884495415E-05
2	343	90.8935317705159	-0.149688720703125	-0.149566650390625	-1.173095703125E-06	1.75455994622098E-07	127497.3984375	5.41868066648021E-05
2	344	90.9942397702616	-0.139617919921875	-0.1395263671875	-1.0906982421875E-06	1.52181158341591E-07	127923.8984375	5.40728142368607E-05
2	345	91.0949477700074	-0.129547119140625	-0.129425048828125	-1.0150146484375E-06	1.31368310007929E-07	127510.5234375	5.3966785344528E-05
2	346	91.1956557697531	-0.119476318359375	-0.119384765625	-9.43908691406251E-07	1.1268831912048E-07	126479.1484375	5.38681451871525E-05
2	347	91.2963637694988	-0.109405517578125	-0.109283447265625	-8.758544921875E-07	9.5716394810097E-08	124773.5234375	5.37765117769595E-05
2	348	91.3970717692446	-0.099334716796875	-0.09930419921875	-8.08105468750001E-07	8.02482631456769E-08	122885.203125	5.36917177669238E-05
2	349	91.4977797689903	-0.089263916015625	-0.089141845703125	-7.38525390625E-07	6.58335181924485E-08	120702.4765625	5.36138395546004E-05
2	350	91.598487768736	-0.079193115234375	-0.079132080078125	-6.6558837890625E-07	5.26693888502905E-08	118890.421875	5.35431354364846E-05
2	351	91.6991957684818	-0.069122314453125	-0.069000244140625	-5.8349609375E-07	4.02613729022505E-08	118253.1328125	5.34802420588676E-05
2	352	91.7999037682275	-0.059051513671875	-0.0589599609375	-4.89196777343751E-07	2.88430239692161E-08	120524.015625	5.34262253495399E-05
2	353	91.9006117679733	-0.048980712890625	-0.0488128662109375	-3.753662109375E-07	1.83226998018426E-08	130040.65625	5.33826932951342E-05
2	354	92.001319767719	-0.038909912109375	-0.038751220703125	-2.38647460937499E-07	9.24788068346061E-09	162378.53125	5.33517741132528E-05
2	355	92.1020277674647	-0.028839111328125	-0.0287139892578125	-7.44628906250003E-08	2.13812656468804E-09	385614.78125	5.33360071131028E-05
2	356	92.2027357672105	-0.018768310546875	-0.018646240234375	1.18408203125001E-07	-2.20786788851512E-09	-157474.234375	5.33382190042175E-05
2	357	92.3034437669562	-0.008697509765625	-0.00859680175781249	3.314208984375E-07	-2.84915979698042E-09	-25939.228515625	5.33608726982493E-05
2	358	92.4041517667019	0.001373291015625	0.001483154296875	5.56640625E-07	8.25583879038305E-10	2664.4736328125	5.34055870957673E-05
2	359	92.5048597664477	0.011444091796875	0.0115386962890625	7.76062011718751E-07	8.95474361328752E-09	14868.2666015625	5.34726968908217E-05
2	360	92.6055677661934	0.021514892578125	0.0216064453125	9.7076416015625E-07	2.09747632595736E-08	22257.15234375	5.35606559424195E-05
2	361	92.7062757659392	0.031585693359375	0.03165283203125	1.12396240234375E-06	3.55765905624139E-08	28161.822265625	5.36661318619736E-05
2	362	92.8069837656849	0.041656494140625	0.0417510986328125	1.2286376953125E-06	5.12969720034562E-08	33981.62109375	5.37845953658689E-05
2	363	92.9076917654306	0.051727294921875	0.051727294921875	1.28143310546875E-06	6.62850681010241E-08	40366.75390625	5.39109860255849E-05
2	364	93.0083997651764	0.061798095703125	0.061798095703125	1.29180908203125E-06	7.98313450900423E-08	47838.41015625	5.4040559916757E-05
2	365	93.1091077649221	0.071868896484375	0.071929931640625	1.27105712890625E-06	9.14270472662793E-08	56590.640625	5.4169609938981E-05
2	366	93.2098157646678	0.081939697265625	0.081939697265625	1.23199462890625E-06	1.00949264947303E-07	66509.7890625	5.42956513527315E-05
2	367	93.3105237644136	0.092010498046875	0.092041015625	1.182861328125E-06	1.08871752502182E-07	77812.1796875	5.44172471563797E-05
2	368	93.4112317641593	0.102081298828125	0.10211181640625	1.131591796875E-06	1.15548886014949E-07	90237.328125	5.45337898074649E-05
2	369	93.511939763905	0.112152099609375	0.112213134765625	1.08184814453125E-06	1.21397576435811E-07	103723.5546875	5.46452465641778E-05
2	370	93.6126477636508	0.122222900390625	0.122344970703125	1.036376953125E-06	1.26795512755962E-07	118050.6484375	5.47519048268441E-05
2	371	93.7133557633965	0.132293701171875	0.132354736328125	9.95788574218751E-07	1.31797335711781E-07	132914.5	5.485423389473E-05
2	372	93.8140637631423	0.142364501953125	0.142364501953125	9.6038818359375E-07	1.36725191168807E-07	148236.40625	5.49527358089108E-05
2	373	93.914771762888	0.152435302734375	0.1524658203125	9.2926025390625E-07	1.4168043094287E-07	164072.25	5.50478871446103E-05
2	374	94.0154797626337	0.162506103515625	0.16253662109375	9.02709960937501E-07	1.46723422744799E-07	180054.09375	5.51401353732217E-05
2	375	94.1161877623795	0.172576904296875	0.172607421875	8.7860107421875E-07	1.51653054558665E-07	196457.109375	5.52298297407106E-05
2	376	94.2168957621252	0.182647705078125	0.18267822265625	8.575439453125E-07	1.5665459329739E-07	213024.921875	5.5317250371445E-05
2	377	94.3176037618709	0.192718505859375	0.1927490234375	8.39843749999999E-07	1.61879057714032E-07	229505.828125	5.54027210455388E-05
2	378	94.4183117616167	0.202789306640625	0.20281982421875	8.24890136718751E-07	1.67304065712415E-07	245874.96875	5.54865473532118E-05
2	379	94.5190197613624	0.212860107421875	0.212921142578125	8.1207275390625E-07	1.72907462570038E-07	262194.65625	5.55689766770229E-05
2	380	94.6197277611082	0.222930908203125	0.22296142578125	8.02001953125001E-07	1.78815497520191E-07	278006.09375	5.56502491235733E-05
2	381	94.7204357608539	0.233001708984375	0.23297119140625	7.9315185546875E-07	1.84781526968436E-07	293728.34375	5.57305720576551E-05
2	382	94.8211437605996	0.243072509765625	0.24310302734375	7.855224609375E-07	1.90962879287326E-07	309479.40625	5.58100655325688E-05
2	383	94.9218517603454	0.253143310546875	0.253143310546875	7.7850341796875E-07	1.9707293574811E-07	325166.59375	5.58888204977848E-05
2	384	95.0225597600911	0.263214111328125	0.263214111328125	7.7178955078125E-07	2.03145901878088E-07	341043.90625	5.59668842470273E-05
2	385	95.1232677598368	0.273284912109375	0.2733154296875	7.66601562499999E-07	2.0952403190222E-07	356528.65625	5.60443477297667E-05
2	386	95.2239757595826	0.283355712890625	0.283294677734375	7.6171875E-07	2.15790862512222E-07	371915.0625	5.6121305533452E-05
2	387	95.3246837593283	0.293426513671875	0.293426513671875	7.57751464843751E-07	2.22344354483539E-07	387233.21875	5.61978158657439E-05
2	388	95.425391759074	0.303497314453125	0.303466796875	7.54699707031251E-07	2.29026298370627E-07	402102.71875	5.62739733140916E-05
2	389	95.5260997588198	0.313568115234375	0.3135986328125	7.5225830078125E-07	2.35907180012873E-07	416876.28125	5.63498542760499E-05
2	390	95.6268077585655	0.323638916015625	0.323638916015625	7.4951171875E-07	2.42571161379601E-07	431799.6875	5.64254769415129E-05
2	391	95.7275157583113	0.333709716796875	0.333770751953125	7.476806640625E-07	2.495539206393E-07	446408.1875	5.65008667763323E-05
2	392	95.828223758057	0.343780517578125	0.343780517578125	7.45239257812499E-07	2.56198717352163E-07	461302.25	5.65760383324232E-05
2	393	95.9289317578027	0.353851318359375	0.353912353515625	7.4310302734375E-07	2.62993324895433E-07	476262.875	5.66509843338281E-05
2	394	96.0296397575485	0.363922119140625	0.363922119140625	7.4188232421875E-07	2.69987395995486E-07	490538.875	5.67257593502291E-05
2	395	96.1303477572942	0.373992919921875	0.373992919921875	7.415771484375E-07	2.77344611276931E-07	504321	5.68004579690751E-05
2	396	96.2310557570399	0.384063720703125	0.38409423828125	7.4127197265625E-07	2.84718282728136E-07	518155.625	5.68751238461118E-05
2	397	96.3317637567857	0.394134521484375	0.3941650390625	7.421875E-07	2.92544342528345E-07	531085.5625	5.69498224649578E-05
2	398	96.4324717565314	0.404205322265625	0.4041748046875	7.4310302734375E-07	3.00343515391432E-07	543901.4375	5.7024612033274E-05
2	399	96.5331797562771	0.414276123046875	0.414276123046875	7.44018554687501E-07	3.08229118672898E-07	556808.875	5.70994961890392E-05
2	400	96.6338877560229	0.424346923828125	0.42437744140625	7.45239257812499E-07	3.16262713795368E-07	569451.3125	5.71744858461898E-05
2	401	96.7345957557686	0.434417724609375	0.43438720703125	7.47070312500001E-07	3.24517799299429E-07	581454.25	5.72496282984503E-05
2	402	96.8353037555144	0.444488525390625	0.4444580078125	7.48291015624999E-07	3.32583908857487E-07	593964.125	5.73249271837994E-05
2	403	96.9360117552601	0.454559326171875	0.454559326171875	7.5042724609375E-07	3.41113690183192E-07	605734.0625	5.74003934161738E-05
2	404	97.0367197550058	0.464630126953125	0.464630126953125	7.5408935546875E-07	3.50372630464335E-07	616147.3125	5.74761506868526E-05
2	405	97.1374277547516	0.474700927734375	0.474700927734375	7.57751464843751E-07	3.5970529665974E-07	626459.9375	5.75522790313698E-05
2	406	97.2381357544973	0.484771728515625	0.48480224609375	7.62023925781249E-07	3.69430892988021E-07	636203.5	5.7628803915577E-05
2	407	97.338843754243	0.494842529296875	0.494842529296875	7.66601562499999E-07	3.79347056878032E-07	645501.625	5.77057762711775E-05
2	408	97.4395517539888	0.504913330078125	0.504913330078125	7.72705078124999E-07	3.9014906860757E-07	653436.0625	5.77832870476414E-05
2	409	97.5402597537345	0.514984130859375	0.51495361328125	7.79113769531251E-07	4.01207444156171E-07	660947.9375	5.78614271944389E-05
2	410	97.6409677534803	0.525054931640625	0.524993896484375	7.8704833984375E-07	4.13195550663659E-07	667041.5	5.7940291299019E-05
2	411	97.741675753226	0.535125732421875	0.535064697265625	7.9681396484375E-07	4.26347014581552E-07	671505.1875	5.80200430704281E-05
2	412	97.8423837529717	0.545196533203125	0.545074462890625	8.10546875E-07	4.41808396089982E-07	672477.4375	5.81009808229282E-05
2	413	97.9430917527175	0.555267333984375	0.5552978515625	8.2763671875E-07	4.59584896361775E-07	670943.9375	5.81834719923791E-05
2	414	98.0437997524632	0.565338134765625	0.56536865234375	8.50830078125001E-07	4.81032657262404E-07	664490.6875	5.82679895160254E-05
2	415	98.1445077522089	0.575408935546875	0.57537841796875	8.8348388671875E-07	5.08337564042449E-07	651260.8125	5.83553191972896E-05
2	416	98.2452157519547	0.585479736328125	0.585418701171875	9.2742919921875E-07	5.42934401437378E-07	631227.375	5.84465051360894E-05
2	417	98.3459237517004	0.595550537109375	0.595550537109375	9.8907470703125E-07	5.89043963827862E-07	602129	5.85430097999051E-05
2	418	98.4466317514461	0.605621337890625	0.605560302734375	1.07330322265625E-06	6.49949811304396E-07	564202.4375	5.86468559049536E-05
2	419	98.5473397511919	0.615692138671875	0.615570068359375	1.185302734375E-06	7.29636894902796E-07	519335.75	5.87605863984209E-05
2	420	98.6480477509376	0.625762939453125	0.625701904296875	1.33087158203125E-06	8.32728858313203E-07	470144.46875	5.88872862863354E-05
2	421	98.7487557506834	0.635833740234375	0.635711669921875	1.5106201171875E-06	9.60318857323728E-07	420828.28125	5.90303679928184E-05
2	422	98.8494637504291	0.645904541015625	0.6458740234375	1.72027587890625E-06	1.11108147393679E-06	375447.9375	5.91930547670927E-05
2	423	98.9501717501748	0.655975341796875	0.655914306640625	1.95159912109375E-06	1.28008173305716E-06	336090.71875	5.93779477640055E-05
2	424	99.0508797499206	0.666046142578125	0.66595458984375	2.18841552734375E-06	1.4573853377442E-06	304309.03125	5.95864148635883E-05
2	425	99.1515877496663	0.676116943359375	0.676025390625	2.4102783203125E-06	1.62940932568745E-06	280476.0625	5.98179794906173E-05
2	426	99.252295749412	0.686187744140625	0.686126708984375	2.60009765625E-06	1.78399636752147E-06	263885	6.00702696829103E-05
2	427	99.3530037491578	0.696258544921875	0.6961669921875	2.742919921875E-06	1.90953028322838E-06	253805.078125	6.033931276761E-05
2	428	99.4537117489035	0.706329345703125	0.706329345703125	2.83538818359375E-06	2.00271779249306E-06	249112.046875	6.06202047492843E-05
2	429	99.5544197486493	0.716400146484375	0.71630859375	2.880859375E-06	2.06358413379348E-06	248644.078125	6.09080379945226E-05
2	430	99.655127748395	0.726470947265625	0.72637939453125	2.8936767578125E-06	2.10190728466841E-06	251022.984375	6.11988070886582E-05
2	431	99.7558357481407	0.736541748046875	0.736480712890625	2.8863525390625E-06	2.12574286706513E-06	255159.671875	6.14898599451408E-05
2	432	99.8565437478865	0.746612548828125	0.74652099609375	2.8765869140625E-06	2.14743249671301E-06	259516.234375	6.17800469626673E-05
2	433	99.9572517476322	0.756683349609375	0.75714111328125	2.874755859375E-06	2.17659589907271E-06	263375.78125	6.2069644627627E-05
2	434	100.057959747378	0.766754150390625	0.7666015625	2.8924560546875E-06	2.21736127059557E-06	265034.8125	6.23600499238819E-05
2	435	100.158667747124	0.776824951171875	0.77728271484375	2.938232421875E-06	2.28383737521654E-06	264540.90625	6.26536493655294E-05
2	436	100.259375746869	0.786895751953125	0.78704833984375	3.0206298828125E-06	2.37738163377799E-06	260557.703125	6.29537025815807E-05
2	437	100.360083746615	0.796966552734375	0.79742431640625	3.145751953125E-06	2.50849893745908E-06	253492.4375	6.3264204072766E-05
2	438	100.460791746361	0.807037353515625	0.80718994140625	3.31512451171875E-06	2.67593509306607E-06	243487.078125	6.3589533965569E-05
2	439	100.561499746107	0.817108154296875	0.8172607421875	3.5211181640625E-06	2.87767147710838E-06	232102.625	6.39337667962536E-05
2	440	100.662207745852	0.827178955078125	0.82763671875	3.75396728515625E-06	3.10692098537402E-06	220469.890625	6.43000967102125E-05
2	441	100.762915745598	0.837249755859375	0.83740234375	3.99139404296875E-06	3.34240257870988E-06	209801.984375	6.4690102590248E-05
2	442	100.863623745344	0.847320556640625	0.84747314453125	4.2120361328125E-06	3.56958730662882E-06	201202.734375	6.5103180531878E-05
2	443	100.96433174509	0.857391357421875	0.85723876953125	4.3939208984375E-06	3.76663933820964E-06	195096.546875	6.55365220154636E-05
2	444	101.065039744835	0.867462158203125	0.86761474609375	4.52362060546875E-06	3.92475976696005E-06	191796.53125	6.59855577396229E-05
2	445	101.165747744581	0.877532958984375	0.877685546875	4.59503173828125E-06	4.03299281970249E-06	191007.515625	6.64447215967812E-05
2	446	101.266455744327	0.887603759765625	0.887451171875	4.61669921875E-06	4.09709537052549E-06	192226.328125	6.69085638946854E-05
2	447	101.367163744073	0.897674560546875	0.8978271484375	4.605712890625E-06	4.13513362218509E-06	194937.734375	6.73729518894106E-05
2	448	101.467871743818	0.907745361328125	0.9075927734375	4.58282470703125E-06	4.15933845943073E-06	198042.21875	6.78356300340965E-05
2	449	101.568579743564	0.917816162109375	0.91827392578125	4.56817626953125E-06	4.19483740188298E-06	201015.421875	6.82964237057604E-05
2	450	101.66928774331	0.927886962890625	0.92742919921875	4.58282470703125E-06	4.25024518335704E-06	202370.65625	6.87572101014666E-05
2	451	101.769995743055	0.937957763671875	0.9381103515625	4.64508056640625E-06	4.35759829997551E-06	201957.828125	6.92218745825812E-05
2	452	101.870703742801	0.948028564453125	0.94818115234375	4.76898193359375E-06	4.52185850008391E-06	198822.546875	6.96959104971029E-05
2	453	101.971411742547	0.958099365234375	0.95855712890625	4.9652099609375E-06	4.75943716082838E-06	193054.703125	7.018606265774E-05
2	454	102.072119742293	0.968170166015625	0.9686279296875	5.23681640625E-06	5.07252661918756E-06	184965.03125	7.06997743691318E-05
2	455	102.172827742038	0.978240966796875	0.97869873046875	5.5755615234375E-06	5.45679495189688E-06	175533.671875	7.12442270014435E-05
2	456	102.273535741784	0.988311767578125	0.98876953125	5.963134765625E-06	5.89616593060782E-06	165813.71875	7.18252413207665E-05
2	457	102.37424374153	0.998382568359375	0.99853515625	6.3812255859375E-06	6.37187804386485E-06	156480.15625	7.24468336557038E-05
2	458	102.474951741276	1.00845336914063	1.00830078125	6.7962646484375E-06	6.85267877997831E-06	148361.03125	7.31103718862869E-05
2	459	102.575659741021	1.01852416992188	1.0186767578125	7.1807861328125E-06	7.31489944882924E-06	141861.453125	7.38141679903492E-05
2	460	102.676367740767	1.02859497070313	1.02813720703125	7.4951171875E-06	7.70600854593795E-06	137174.265625	7.45531579013914E-05
2	461	102.777075740513	1.03866577148438	1.03851318359375	7.71484375E-06	8.01196620159317E-06	134612.34375	7.53190470277332E-05
2	462	102.877783740259	1.04873657226563	1.0491943359375	7.8277587890625E-06	8.21283992991084E-06	134035.078125	7.61016781325452E-05
2	463	102.978491740004	1.05880737304688	1.0589599609375	7.82470703125E-06	8.28605152491946E-06	135335.421875	7.6889838965144E-05
2	464	103.07919973975	1.06887817382813	1.06842041015625	7.7301025390625E-06	8.25899860501522E-06	138215.5625	7.76730885263532E-05
2	465	103.179907739496	1.07894897460938	1.0784912109375	7.568359375E-06	8.16240935819224E-06	142500	7.84434232627973E-05
2	466	103.280615739242	1.08901977539063	1.08917236328125	7.373046875E-06	8.03051898401463E-06	147723.515625	7.91957863839343E-05
2	467	103.381323738987	1.09909057617188	1.09954833984375	7.16552734375E-06	7.87884346209466E-06	153449.75	7.9927864135243E-05
2	468	103.482031738733	1.10916137695313	1.1090087890625	6.964111328125E-06	7.72325984144118E-06	159246.28125	8.06393436505459E-05
2	469	103.582739738479	1.11923217773438	1.119384765625	6.77490234375E-06	7.58372198106372E-06	165225.234375	8.13311562524177E-05
2	470	103.683447738224	1.12930297851563	1.129150390625	6.60400390625E-06	7.45691340853227E-06	170979.671875	8.2004837167915E-05
2	471	103.78415573797	1.13937377929688	1.138916015625	6.4483642578125E-06	7.34414516045945E-06	176620.921875	8.26620816951618E-05
2	472	103.884863737716	1.14944458007813	1.1492919921875	6.3079833984375E-06	7.24971459931112E-06	182196.421875	8.33044105092995E-05
2	473	103.985571737462	1.15951538085938	1.15936279296875	6.182861328125E-06	7.16817930879188E-06	187512.34375	8.39333733893E-05
2	474	104.086279737207	1.16958618164063	1.1700439453125	6.072998046875E-06	7.10567474015988E-06	192663.3125	8.45505055622198E-05
2	475	104.186987736953	1.17965698242188	1.17950439453125	5.9722900390625E-06	7.04434205545112E-06	197496.171875	8.51570366648957E-05
2	476	104.287695736699	1.18972778320313	1.18927001953125	5.8837890625E-06	6.99741394782905E-06	202126.5625	8.57540362630971E-05
2	477	104.388403736445	1.19979858398438	1.199951171875	5.804443359375E-06	6.96504866937175E-06	206729.75	8.63425884745084E-05
2	478	104.48911173619	1.20986938476563	1.209716796875	5.731201171875E-06	6.93312995281303E-06	211075.625	8.69234499987215E-05
2	479	104.589819735936	1.21994018554688	1.2200927734375	5.6671142578125E-06	6.91440527589293E-06	215293.484375	8.74974066391587E-05
2	480	104.690527735682	1.23001098632813	1.23046875	5.6121826171875E-06	6.90561546434765E-06	219249.59375	8.80653606145643E-05
2	481	104.791235735428	1.24008178710938	1.240234375	5.560302734375E-06	6.89607850290486E-06	223051.59375	8.86279376572929E-05
2	482	104.891943735173	1.25015258789063	1.25030517578125	5.5145263671875E-06	6.89484022586839E-06	226729.40625	8.9185603428632E-05
2	483	104.992651734919	1.26022338867188	1.2603759765625	5.4718017578125E-06	6.89652733854018E-06	230340.21875	8.97388090379536E-05
2	484	105.093359734665	1.27029418945313	1.27044677734375	5.4351806640625E-06	6.90510751155671E-06	233745.09375	9.0288020146545E-05
2	485	105.194067734411	1.28036499023438	1.28021240234375	5.401611328125E-06	6.91520972395665E-06	237005.640625	9.08336951397359E-05
2	486	105.294775734156	1.29043579101563	1.2908935546875	5.3680419921875E-06	6.92957064529764E-06	240477.546875	9.13759868126363E-05
2	487	105.395483733902	1.30050659179688	1.3006591796875	5.340576171875E-06	6.94626942276955E-06	243542.859375	9.19152080314234E-05
2	488	105.496191733648	1.31057739257813	1.31103515625	5.3131103515625E-06	6.96567440172657E-06	246754.75	9.24516643863171E-05
2	489	105.596899733393	1.32064819335938	1.32080078125	5.2886962890625E-06	6.98531403031666E-06	249740.34375	9.29855086724274E-05
2	490	105.697607733139	1.33071899414063	1.33087158203125	5.267333984375E-06	7.01014505466446E-06	252665.125	9.35170464799739E-05
2	491	105.798315732885	1.34078979492188	1.34063720703125	5.2459716796875E-06	7.03294426784851E-06	255555.578125	9.40464378800243E-05
2	492	105.899023732631	1.35086059570313	1.35101318359375	5.2276611328125E-06	7.06263881511404E-06	258435.5	9.45738211157732E-05
2	493	105.999731732376	1.36093139648438	1.361083984375	5.206298828125E-06	7.08620973455254E-06	261430.25	9.50992180150934E-05
2	494	106.100439732122	1.37100219726563	1.37115478515625	5.1910400390625E-06	7.11771872374811E-06	264138.75	9.56227668211795E-05
2	495	106.201147731868	1.38107299804688	1.38092041015625	5.1727294921875E-06	7.14312727723154E-06	266961.65625	9.61446203291416E-05
2	496	106.301855731614	1.39114379882813	1.3909912109375	5.1605224609375E-06	7.17824150342494E-06	269544.65625	9.66649386100471E-05
2	497	106.402563731359	1.40121459960938	1.40106201171875	5.1483154296875E-06	7.21310880180681E-06	272139.90625	9.71840345300734E-05
2	498	106.503271731105	1.41128540039063	1.41082763671875	5.1361083984375E-06	7.2461639319954E-06	274688.0625	9.77018935373053E-05
2	499	106.603979730851	1.42135620117188	1.4215087890625	5.126953125E-06	7.28800887372927E-06	277261.90625	9.82186829787679E-05
2	500	106.704687730597	1.43142700195313	1.4312744140625	5.11474609375E-06	7.32060470909346E-06	279832.9375	9.8734388302546E-05
2	501	106.805395730342	1.44149780273438	1.44134521484375	5.1055908203125E-06	7.35891899239505E-06	282307.21875	9.92490240605548E-05
2	502	106.906103730088	1.45156860351563	1.4520263671875	5.096435546875E-06	7.40015866540489E-06	284910.1875	9.97627357719466E-05
2	503	107.006811729834	1.46163940429688	1.46148681640625	5.09033203125E-06	7.43945292924764E-06	287110.3125	0.000100275683507789
2	504	107.10751972958	1.47171020507813	1.47216796875	5.084228515625E-06	7.48483807910816E-06	289555.84375	0.000100788012787234
2	505	107.208227729325	1.48178100585938	1.48193359375	5.078125E-06	7.52544383431086E-06	291826.9375	0.00010129973088624
2	506	107.308935729071	1.49185180664063	1.49139404296875	5.0750732421875E-06	7.56893405196024E-06	293866.5	0.000101810983323958
2	507	107.409643728817	1.50192260742188	1.5020751953125	5.078125E-06	7.62772560847225E-06	295793.28125	0.000102322235761676
2	508	107.510351728562	1.49185180664063	1.49169921875	4.9407958984375E-06	7.3701812652871E-06	301914.75	0.000102826728834771
2	509	107.611059728308	1.48178100585938	1.48193359375	4.84039306640625E-06	7.1731410571374E-06	306159.75	0.00010331925295759
2	510	107.711767728054	1.47171020507813	1.47216796875	4.75738525390625E-06	7.00367036188254E-06	309448.96875	0.000103802536614239
2	511	107.8124757278	1.46163940429688	1.46148681640625	4.68536376953125E-06	6.8475974330795E-06	311926	0.000104278020444326
2	512	107.913183727545	1.45156860351563	1.451416015625	4.62158203125E-06	6.70783811074216E-06	314051.78125	0.000104746657598298
2	513	108.013891727291	1.44149780273438	1.4410400390625	4.5648193359375E-06	6.57808732285048E-06	315683.90625	0.000105209233879577
2	514	108.114599727037	1.43142700195313	1.43157958984375	4.5123291015625E-06	6.45975796942366E-06	317259.59375	0.000105666302260943
2	515	108.215307726783	1.42135620117188	1.42120361328125	4.46441650390625E-06	6.34484422334936E-06	318340.3125	0.000106118313851766
2	516	108.316015726528	1.41128540039063	1.41143798828125	4.41925048828125E-06	6.2374974731938E-06	319384.03125	0.000106565647001844
2	517	108.416723726274	1.40121459960938	1.4007568359375	4.37530517578125E-06	6.12873873251374E-06	320150.65625	0.000107008483610116
2	518	108.51743172602	1.39114379882813	1.3909912109375	4.33441162109375E-06	6.02912859903881E-06	320918.125	0.000107447056507226
2	519	108.618139725766	1.38107299804688	1.3812255859375	4.2950439453125E-06	5.93242430113605E-06	321585.90625	0.000107881583971903
2	520	108.718847725511	1.37100219726563	1.37054443359375	4.2584228515625E-06	5.83635801376658E-06	321843.1875	0.000108312284282874
2	521	108.819555725257	1.36093139648438	1.361083984375	4.22332763671875E-06	5.74830301047768E-06	322277.65625	0.000108739375718869
2	522	108.920263725003	1.35086059570313	1.3507080078125	4.19036865234375E-06	5.65996424484183E-06	322336.3125	0.000109163040178828
2	523	109.020971724749	1.34078979492188	1.34063720703125	4.15985107421875E-06	5.57685098101501E-06	322280.09375	0.000109583503217436
2	524	109.121679724494	1.33071899414063	1.33026123046875	4.129638671875E-06	5.49349806533428E-06	322125.34375	0.000110000910353847
2	525	109.22238772424	1.32064819335938	1.32049560546875	4.1009521484375E-06	5.41528925168677E-06	321997.3125	0.000110415356175508
2	526	109.323095723986	1.31057739257813	1.31072998046875	4.0728759765625E-06	5.33844058736577E-06	321819.28125	0.000110826942545827
2	527	109.423803723731	1.30050659179688	1.300048828125	4.046630859375E-06	5.2608174883062E-06	321266.96875	0.000111235793156084
2	528	109.524511723477	1.29043579101563	1.29058837890625	4.02130126953125E-06	5.189844614506E-06	320938	0.000111642046249472
2	529	109.625219723223	1.28036499023438	1.280517578125	3.997802734375E-06	5.11925645696465E-06	320305.34375	0.000112045840069186
2	530	109.725927722969	1.27029418945313	1.27044677734375	3.975830078125E-06	5.05108073411975E-06	319542.53125	0.000112447341962252
2	531	109.826635722714	1.26022338867188	1.26007080078125	3.95477294921875E-06	4.98329336551251E-06	318620.28125	0.000112846682895906
2	532	109.92734372246	1.25015258789063	1.2506103515625	3.93463134765625E-06	4.92069057145272E-06	317846.875	0.000113243942905683
2	533	110.028051722206	1.24008178710938	1.2396240234375	3.9141845703125E-06	4.85211739942315E-06	316700.4375	0.000113639165647328
2	534	110.128759721952	1.23001098632813	1.2298583984375	3.89373779296875E-06	4.78874608234037E-06	315855.46875	0.00011403232201701
2	535	110.229467721697	1.21994018554688	1.21917724609375	3.873291015625E-06	4.7222283683368E-06	314765.21875	0.000114423426566646
2	536	110.330175721443	1.20986938476563	1.20941162109375	3.853759765625E-06	4.66078154204297E-06	313826.4375	0.000114812508400064
2	537	110.430883721189	1.19979858398438	1.19964599609375	3.83331298828125E-06	4.59861848867149E-06	312952.8125	0.000115199589345139
2	538	110.531591720935	1.18972778320313	1.1895751953125	3.8128662109375E-06	4.53569100500317E-06	311989.75	0.000115584603918251
2	539	110.63229972068	1.17965698242188	1.17919921875	3.7921142578125E-06	4.47165803052485E-06	310960.90625	0.000115967544843443
2	540	110.733007720426	1.16958618164063	1.16943359375	3.76953125E-06	4.40821622760268E-06	310233.1875	0.000116348302981351
2	541	110.833715720172	1.15951538085938	1.15966796875	3.7445068359375E-06	4.3423847273516E-06	309698.46875	0.000116726667329203
2	542	110.934423719918	1.14944458007813	1.1492919921875	3.7164306640625E-06	4.27126406066236E-06	309246.1875	0.000117102354124654
2	543	111.035131719663	1.13937377929688	1.1395263671875	3.68255615234375E-06	4.19636990045547E-06	309438.96875	0.000117474919534288
2	544	111.135839719409	1.12930297851563	1.129150390625	3.64227294921875E-06	4.11267365052481E-06	310012.59375	0.000117843752377667
2	545	111.236547719155	1.11923217773438	1.11907958984375	3.59405517578125E-06	4.02203340854612E-06	311369.625	0.000118208132334985
2	546	111.3372557189	1.10916137695313	1.10931396484375	3.5321044921875E-06	3.91821276934934E-06	314066.03125	0.000118566960736644
2	547	111.437963718646	1.09909057617188	1.09954833984375	3.45245361328125E-06	3.79613948098267E-06	318483.1875	0.000118918665975798
2	548	111.538671718392	1.08901977539063	1.08917236328125	3.34747314453125E-06	3.6459750845097E-06	325371.5	0.000119261065265164
2	549	111.639379718138	1.07894897460938	1.0791015625	3.2073974609375E-06	3.46110755344853E-06	336441.5	0.000119591131806374
2	550	111.740087717883	1.06887817382813	1.0687255859375	3.0230712890625E-06	3.23083349940134E-06	353523.125	0.00011990486382274
2	551	111.840795717629	1.05880737304688	1.05865478515625	2.7850341796875E-06	2.94838969239208E-06	380122.71875	0.000120197320939042
2	552	111.941503717375	1.04873657226563	1.048583984375	2.4847412109375E-06	2.60545971286774E-06	422009.34375	0.000120462675113231
2	553	112.042211717121	1.03866577148438	1.038818359375	2.12310791015625E-06	2.2055232875573E-06	489291.375	0.00012069469812559
2	554	112.142919716866	1.02859497070313	1.02813720703125	1.70623779296875E-06	1.7542465684528E-06	602575.5625	0.000120887525554281
2	555	112.243627716612	1.01852416992188	1.0186767578125	1.24847412109375E-06	1.27179146147682E-06	815937.4375	0.000121036304335576
2	556	112.344335716358	1.00845336914063	1.0089111328125	7.71484375000001E-07	7.7835915135438E-07	1307753.25	0.000121138014947064
2	557	112.445043716104	0.998382568359375	0.99884033203125	3.06091308593751E-07	3.05736335803886E-07	3263210.5	0.000121192279038951
2	558	112.545751715849	0.988311767578125	0.9881591796875	-1.202392578125E-07	-1.18815520977478E-07	-8218274.5	0.000121201635920443
2	559	112.646459715595	0.978240966796875	0.97808837890625	-4.75463867187501E-07	-4.65045673081477E-07	-2057124.625	0.000121171637147199
2	560	112.747167715341	0.968170166015625	0.96832275390625	-7.366943359375E-07	-7.13357849235763E-07	-1314416	0.000121110606414732
2	561	112.847875715087	0.958099365234375	0.9576416015625	-8.9080810546875E-07	-8.53074880069471E-07	-1075025.75	0.000121028650028165
2	562	112.948583714832	0.948028564453125	0.94818115234375	-9.42382812500001E-07	-8.93549554348283E-07	-1006152.875	0.000120936339953914
2	563	113.049291714578	0.937957763671875	0.93780517578125	-9.124755859375E-07	-8.55724294979154E-07	-1027759.1875	0.000120842945761979
2	564	113.149999714324	0.927886962890625	0.927734375	-8.31298828125E-07	-7.71224449636065E-07	-1116005.875	0.000120755139505491
2	565	113.250707714069	0.917816162109375	0.91766357421875	-7.28454589843749E-07	-6.6847621837951E-07	-1259740.375	0.000120676595543046
2	566	113.351415713815	0.907745361328125	0.9075927734375	-6.30798339843749E-07	-5.72507985907578E-07	-1438800.25	0.000120608150609769
2	567	113.452123713561	0.897674560546875	0.897216796875	-5.5999755859375E-07	-5.02439206684357E-07	-1602179.875	0.00012054818944307
2	568	113.552831713307	0.887603759765625	0.88775634765625	-5.2764892578125E-07	-4.68423678512409E-07	-1682475.375	0.000120493423310108
2	569	113.653539713052	0.877532958984375	0.8770751953125	-5.46874999999999E-07	-4.79650452689384E-07	-1603794.75	0.000120439319289289
2	570	113.754247712798	0.867462158203125	0.86761474609375	-6.2103271484375E-07	-5.38817118922452E-07	-1397051.625	0.000120380507723894
2	571	113.854955712544	0.857391357421875	0.8575439453125	-7.48291015624999E-07	-6.41692395220161E-07	-1146003.375	0.000120311560749542
2	572	113.95566371229	0.847320556640625	0.84747314453125	-9.130859375E-07	-7.73815770571673E-07	-928141.75	0.000120227901788894
2	573	114.056371712035	0.837249755859375	0.8380126953125	-1.0968017578125E-06	-9.19133753995993E-07	-764051.25	0.000120126693218481
2	574	114.157079711781	0.827178955078125	0.82733154296875	-1.27716064453125E-06	-1.05663525573618E-06	-647789.6875	0.000120007156510837
2	575	114.257787711527	0.817108154296875	0.81695556640625	-1.4312744140625E-06	-1.16928765692137E-06	-570788.9375	0.000119870775961317
2	576	114.358495711273	0.807037353515625	0.80718994140625	-1.54144287109375E-06	-1.24423718261824E-06	-523658.6875	0.000119721087685321
2	577	114.459203711018	0.796966552734375	0.797119140625	-1.60125732421875E-06	-1.27639282254677E-06	-497808.28125	0.00011956284288317
2	578	114.559911710764	0.786895751953125	0.78704833984375	-1.612548828125E-06	-1.26915381315484E-06	-488077.21875	0.000119401011033915
2	579	114.66061971051	0.776824951171875	0.7769775390625	-1.5869140625E-06	-1.23299651022535E-06	-489615.40625	0.000119239906780422
2	580	114.761327710256	0.766754150390625	0.76690673828125	-1.5374755859375E-06	-1.17910030894564E-06	-498809.0625	0.00011908257874893
2	581	114.862035710001	0.756683349609375	0.7574462890625	-1.48223876953125E-06	-1.12271629859606E-06	-511015.03125	0.000118930525786709
2	582	114.962743709747	0.746612548828125	0.74658203125	-1.43310546875E-06	-1.06993081772089E-06	-520954	0.000118783726065885
2	583	115.063451709493	0.736541748046875	0.7364501953125	-1.40106201171875E-06	-1.03181230315386E-06	-525637.125	0.000118641015433241
2	584	115.164159709238	0.726470947265625	0.72637939453125	-1.39495849609375E-06	-1.01326907042676E-06	-520717.59375	0.000118500225653406
2	585	115.264867708984	0.716400146484375	0.716278076171875	-1.42242431640625E-06	-1.01885132153257E-06	-503561.5	0.000118358359031845
2	586	115.36557570873	0.706329345703125	0.706268310546875	-1.485595703125E-06	-1.04922912669281E-06	-475410.84375	0.000118211930384859
2	587	115.466283708476	0.696258544921875	0.6961669921875	-1.58416748046875E-06	-1.10284508991754E-06	-439452.90625	0.000118057352665346
2	588	115.566991708221	0.686187744140625	0.686187744140625	-1.71295166015625E-06	-1.17540639621438E-06	-400587.9375	0.000117891329864506
2	589	115.667699707967	0.676116943359375	0.676055908203125	-1.8597412109375E-06	-1.25728900002287E-06	-363521.5	0.000117711431812495
2	590	115.768407707713	0.666046142578125	0.666015625	-2.01019287109375E-06	-1.33881985675544E-06	-331319.25	0.000117516567115672
2	591	115.869115707459	0.655975341796875	0.6558837890625	-2.14508056640625E-06	-1.40692350214522E-06	-305761.84375	0.000117307332402561
2	592	115.969823707204	0.645904541015625	0.645904541015625	-2.2442626953125E-06	-1.44957937209256E-06	-287802.5625	0.000117086310638115
2	593	116.07053170695	0.635833740234375	0.63580322265625	-2.30072021484375E-06	-1.46280524404574E-06	-276349.65625	0.000116857452667318
2	594	116.171239706696	0.625762939453125	0.625732421875	-2.30926513671875E-06	-1.44498199006193E-06	-270966.0625	0.000116625320515595
2	595	116.271947706442	0.615692138671875	0.61566162109375	-2.2760009765625E-06	-1.40124643621675E-06	-270501.46875	0.000116394432552624
2	596	116.372655706187	0.605621337890625	0.605621337890625	-2.21282958984375E-06	-1.3401368050836E-06	-273686.40625	0.00011616840492934
2	597	116.473363705933	0.595550537109375	0.595550537109375	-2.13104248046875E-06	-1.26914346765261E-06	-279464.40625	0.000115949667815585
2	598	116.574071705679	0.585479736328125	0.585479736328125	-2.039794921875E-06	-1.19425862976641E-06	-287028.71875	0.000115739654575009
2	599	116.674779705424	0.575408935546875	0.575408935546875	-1.9476318359375E-06	-1.12068471480598E-06	-295440.3125	0.000115538867248688
2	600	116.77548770517	0.565338134765625	0.565338134765625	-1.85821533203125E-06	-1.05052004073514E-06	-304237.15625	0.000115347233077046
2	601	116.876195704916	0.555267333984375	0.555267333984375	-1.77459716796875E-06	-9.85375777418085E-07	-312897.6875	0.00011516430095071
2	602	116.976903704662	0.545196533203125	0.54522705078125	-1.69677734375E-06	-9.25128858852986E-07	-321330.9375	0.000114989503344987
2	603	117.077611704407	0.535125732421875	0.535125732421875	-1.6253662109375E-06	-8.69775249157101E-07	-329233.96875	0.000114822221803479
2	604	117.178319704153	0.525054931640625	0.5250244140625	-1.5594482421875E-06	-8.18748333131225E-07	-336673.21875	0.000114661852421705
2	605	117.279027703899	0.514984130859375	0.514984130859375	-1.4990234375E-06	-7.71973247992719E-07	-343546.4375	0.000114507849502843
2	606	117.379735703645	0.504913330078125	0.5048828125	-1.444091796875E-06	-7.29097109797294E-07	-349619.625	0.000114359652798157
2	607	117.48044370339	0.494842529296875	0.494781494140625	-1.39434814453125E-06	-6.89897660777206E-07	-354847.875	0.000114216723886784
2	608	117.581151703136	0.484771728515625	0.484771728515625	-1.34918212890625E-06	-6.54045322789898E-07	-359307.875	0.000114078575279564
2	609	117.681859702882	0.474700927734375	0.474700927734375	-1.30767822265625E-06	-6.20756054559024E-07	-363010.5	0.000113944792246912
2	610	117.782567702628	0.464630126953125	0.464691162109375	-1.270751953125E-06	-5.90507170272758E-07	-365682.0625	0.000113814960059244
2	611	117.883275702373	0.454559326171875	0.454559326171875	-1.23565673828125E-06	-5.61679257771175E-07	-367868.625	0.000113688751298469
2	612	117.983983702119	0.444488525390625	0.4444580078125	-1.20361328125E-06	-5.34955518105562E-07	-369269.78125	0.000113565925857984
2	613	118.084691701865	0.434417724609375	0.434356689453125	-1.1737060546875E-06	-5.0980702326342E-07	-370072.8125	0.000113446214527357
2	614	118.185399701611	0.424346923828125	0.42437744140625	-1.14654541015625E-06	-4.8656801254765E-07	-370135.75	0.000113329384475946
2	615	118.286107701356	0.414276123046875	0.41424560546875	-1.1212158203125E-06	-4.6445870793832E-07	-369461.09375	0.000113215188321192
2	616	118.386815701102	0.404205322265625	0.4041748046875	-1.09832763671875E-06	-4.43916349013307E-07	-367991.125	0.000113103429612238
2	617	118.487523700848	0.394134521484375	0.394134521484375	-1.077880859375E-06	-4.24830034262413E-07	-365656.875	0.000112993846414611
2	618	118.588231700593	0.384063720703125	0.38409423828125	-1.0595703125E-06	-4.06974862698917E-07	-362500	0.000112886220449582
2	619	118.688939700339	0.373992919921875	0.37396240234375	-1.04278564453125E-06	-3.89962593771997E-07	-358618.6875	0.000112780355266295
2	620	118.789647700085	0.363922119140625	0.36395263671875	-1.026611328125E-06	-3.73637902839619E-07	-354518.40625	0.000112676156277303
2	621	118.890355699831	0.353851318359375	0.353912353515625	-1.0107421875E-06	-3.57714128540465E-07	-350150.96875	0.000112573565274943
2	622	118.991063699576	0.343780517578125	0.343780517578125	-9.9609375E-07	-3.4243760183017E-07	-345128.6875	0.000112472516775597
2	623	119.091771699322	0.333709716796875	0.333770751953125	-9.814453125E-07	-3.27577737380125E-07	-340080.84375	0.000112372938019689
2	624	119.192479699068	0.323638916015625	0.323699951171875	-9.68322753906251E-07	-3.13446037125686E-07	-334289.3125	0.000112274756247643
2	625	119.293187698814	0.313568115234375	0.313690185546875	-9.564208984375E-07	-3.00019848964439E-07	-327983.40625	0.000112177840492222
2	626	119.393895698559	0.303497314453125	0.303436279296875	-9.442138671875E-07	-2.86508736735414E-07	-321363.9375	0.000112082132545765
2	627	119.494603698305	0.293426513671875	0.29339599609375	-9.32922363281249E-07	-2.73715670573438E-07	-314491.34375	0.0001119876105804
2	628	119.595311698051	0.283355712890625	0.283355712890625	-9.21630859375E-07	-2.61149352809298E-07	-307450.34375	0.000111894230940379
2	629	119.696019697797	0.273284912109375	0.273284912109375	-9.112548828125E-07	-2.49032211740996E-07	-299899.53125	0.000111801935418043
2	630	119.796727697542	0.263214111328125	0.26318359375	-9.002685546875E-07	-2.36935917996561E-07	-292338.96875	0.000111710716737434
2	631	119.897435697288	0.253143310546875	0.253143310546875	-8.9080810546875E-07	-2.25502120088095E-07	-284172.65625	0.000111620531242806
2	632	119.998143697034	0.243072509765625	0.243072509765625	-8.819580078125E-07	-2.14379738849857E-07	-275605.53125	0.000111531262518838
2	633	120.09885169678	0.233001708984375	0.2330322265625	-8.7432861328125E-07	-2.03746736815447E-07	-266527.0625	0.000111442830529995
2	634	120.199559696525	0.222930908203125	0.22308349609375	-8.685302734375E-07	-1.93754772226384E-07	-256851.71875	0.000111355067929253
2	635	120.300267696271	0.212860107421875	0.212921142578125	-8.6395263671875E-07	-1.83953773102985E-07	-246450.03125	0.000111267829197459
2	636	120.400975696017	0.202789306640625	0.202880859375	-8.6090087890625E-07	-1.74660300444884E-07	-235661.125	0.000111180976091418
2	637	120.501683695762	0.192718505859375	0.1927490234375	-8.59375E-07	-1.65643683658345E-07	-224289.78125	0.000111094355816022
2	638	120.602391695508	0.182647705078125	0.18267822265625	-8.5906982421875E-07	-1.56933353423483E-07	-212646.53125	0.000111007822852116
2	639	120.703099695254	0.172576904296875	0.172607421875	-8.61511230468751E-07	-1.48703222180302E-07	-200354.25	0.000110921188024804
2	640	120.803807695	0.162506103515625	0.16253662109375	-8.6700439453125E-07	-1.40919965474495E-07	-187469.203125	0.000110834145743866
2	641	120.904515694745	0.152435302734375	0.152435302734375	-8.7554931640625E-07	-1.33464624241242E-07	-174102.484375	0.000110746404970996
2	642	121.005223694491	0.142364501953125	0.142364501953125	-8.892822265625E-07	-1.26602216710126E-07	-160089.234375	0.000110657536424696
2	643	121.105931694237	0.132293701171875	0.132354736328125	-9.08203125E-07	-1.20204987297257E-07	-145732.53125	0.000110567030787934
2	644	121.206639693983	0.122222900390625	0.12225341796875	-9.3353271484375E-07	-1.14127566064326E-07	-130957.828125	0.000110474291432183
2	645	121.307347693728	0.112152099609375	0.1121826171875	-9.674072265625E-07	-1.08526272413201E-07	-115962.140625	0.000110378568933811
2	646	121.408055693474	0.102081298828125	0.102142333984375	-1.0113525390625E-06	-1.03301907472542E-07	-100995.7734375	0.000110278931970242
2	647	121.50876369322	0.092010498046875	0.09210205078125	-1.06719970703125E-06	-9.82912808922265E-08	-86302.546875	0.000110174267319962
2	648	121.609471692966	0.081939697265625	0.082061767578125	-1.13800048828125E-06	-9.33863333330009E-08	-72110.484375	0.000110063228930812
2	649	121.710179692711	0.071868896484375	0.07196044921875	-1.22528076171875E-06	-8.81717525658132E-08	-58729.765625	0.000109944223368075
2	650	121.810887692457	0.061798095703125	0.061859130859375	-1.334228515625E-06	-8.25342141297369E-08	-46363.22265625	0.000109815344330855
2	651	121.911595692203	0.051727294921875	0.0517578125	-1.46636962890625E-06	-7.58960823077359E-08	-35296.56640625	0.000109674321720377
2	652	122.012303691949	0.041656494140625	0.041748046875	-1.62322998046875E-06	-6.77666847082037E-08	-25719.119140625	0.00010951874719467
2	653	122.113011691694	0.031585693359375	0.0316741943359375	-1.8035888671875E-06	-5.71272238403253E-08	-17561.759765625	0.00010934619785985
2	654	122.21371969144	0.021514892578125	0.0216461181640625	-1.99920654296875E-06	-4.32750582035624E-08	-10827.3544921875	0.00010915470920736
2	655	122.314427691186	0.011444091796875	0.0115325927734375	-2.1978759765625E-06	-2.53472087763384E-08	-5247.1533203125	0.000108943371742498
2	656	122.415135690931	0.001373291015625	0.0014801025390625	-2.3822021484375E-06	-3.52590356911264E-09	-621.316955566406	0.000108712745714001
2	657	122.515843690677	-0.008697509765625	-0.00861206054687499	-2.53570556640625E-06	2.18376499105943E-08	3396.3173828125	0.000108465108496603
2	658	122.616551690423	-0.018768310546875	-0.0186492919921875	-2.64434814453125E-06	4.93152185754298E-08	7052.509765625	0.000108204272692092
2	659	122.717259690169	-0.028839111328125	-0.0287078857421875	-2.703857421875E-06	7.7622026140034E-08	10617.3818359375	0.000107934967672918
2	660	122.817967689914	-0.038909912109375	-0.0387664794921875	-2.71759033203125E-06	1.05351411150423E-07	14265.021484375	0.000107661973743234
2	661	122.91867568966	-0.048980712890625	-0.048846435546875	-2.69439697265625E-06	1.31611685105781E-07	18128.892578125	0.000107389460026752
2	662	123.019383689406	-0.059051513671875	-0.058929443359375	-2.645263671875E-06	1.55883910224475E-07	22277.34375	0.000107120584289078
2	663	123.120091689152	-0.069122314453125	-0.069091796875	-2.58209228515625E-06	1.7840139321379E-07	26758.06640625	0.000106857369246427
2	664	123.220799688897	-0.079193115234375	-0.079132080078125	-2.5140380859375E-06	1.98941052076407E-07	31476.087890625	0.00010660076077329
2	665	123.321507688643	-0.089263916015625	-0.089111328125	-2.44659423828125E-06	2.18019252429258E-07	36422.6015625	0.000106350969872437
2	666	123.422215688389	-0.099334716796875	-0.09930419921875	-2.38311767578125E-06	2.36653590945934E-07	41669.87109375	0.000106107778265141
2	667	123.522923688135	-0.109405517578125	-0.109283447265625	-2.32574462890625E-06	2.54165399837802E-07	46988.5859375	0.00010587066935841
2	668	123.62363168788	-0.119476318359375	-0.119384765625	-2.275390625E-06	2.71646968030836E-07	52467.80859375	0.000105638981040101
2	669	123.724339687626	-0.129547119140625	-0.1295166015625	-2.22991943359375E-06	2.88811577320303E-07	58081.29296875	0.000105412116681691
2	670	123.825047687372	-0.139617919921875	-0.13946533203125	-2.19085693359375E-06	3.05548553569679E-07	63657.89453125	0.000105189516034443
2	671	123.925755687118	-0.149688720703125	-0.149566650390625	-2.15728759765625E-06	3.22658280538235E-07	69330.8828125	0.000104970567917917
2	672	124.026463686863	-0.159759521484375	-0.15960693359375	-2.130126953125E-06	3.39983017738632E-07	74928.3671875	0.000104754682979546
2	673	124.127171686609	-0.169830322265625	-0.169677734375	-2.10723876953125E-06	3.57551499519104E-07	80521.359375	0.000104541315522511
2	674	124.227879686355	-0.179901123046875	-0.179718017578125	-2.09075927734375E-06	3.75747077896449E-07	85958.2578125	0.000104329927125946
2	675	124.3285876861	-0.189971923828125	-0.189788818359375	-2.078857421875E-06	3.94543860693375E-07	91294.78125	0.000104119972093031
2	676	124.429295685846	-0.200042724609375	-0.19989013671875	-2.07244873046875E-06	4.14262075310035E-07	96451.1875	0.000103910933830775
2	677	124.530003685592	-0.189971923828125	-0.189788818359375	-1.8389892578125E-06	3.49019586565191E-07	103202.7890625	0.000103713980934117
