Potential - Start -0.2 V, Upper Vertex 1.5 V, Lower Vertex -0.2 V, Stop -0.19 V; Scan - # end cross 5, Rate 0.1 Vps, Step 0.01 V 
Scan	Index	Time (s)	Potential applied (V)	WE(1).Potential (V)	WE(1).Current (A)	WE(1).Power (W)	WE(1).Resistance (Ω)	WE(1).Charge (C)
1	1	42.2201338934044	-0.189971923828125	-0.189788818359375	-1.97753906250001E-07	3.75314783696012E-08	959722.25	0
1	2	42.3208418931501	-0.179901123046875	-0.1798095703125	-1.6815185546875E-07	3.02353129200128E-08	1069328.5	-1.84248190038261E-08
1	3	42.4215498928959	-0.169830322265625	-0.16973876953125	-1.44348144531251E-07	2.4501474626959E-08	1175898.625	-3.41604433629072E-08
1	4	42.5222578926416	-0.159759521484375	-0.15966796875	-1.24206542968749E-07	1.9831805531112E-08	1285503.75	-4.7683244019936E-08
1	5	42.6229658923874	-0.149688720703125	-0.149566650390625	-1.068115234375E-07	1.59754414141844E-08	1400285.75	-5.93159299455692E-08
1	6	42.7236738921331	-0.139617919921875	-0.1395263671875	-9.06372070312494E-08	1.26462804672656E-08	1539393.875	-6.92582631245386E-08
1	7	42.8243818918788	-0.129547119140625	-0.129486083984375	-7.56835937500006E-08	9.79997238914621E-09	1710887.125	-7.76331816609854E-08
1	8	42.9250898916246	-0.119476318359375	-0.119384765625	-6.01196289062494E-08	7.17736714506145E-09	1985786.875	-8.44714165282312E-08
1	9	43.0257978913703	-0.109405517578125	-0.10931396484375	-4.39453125000003E-08	4.80383643974847E-09	2487500	-8.97114986742054E-08
1	10	43.126505891116	-0.099334716796875	-0.0992431640625	-2.77709960937497E-08	2.75608158517571E-09	3573626.25	-9.33227042310136E-08
1	11	43.2272138908618	-0.089263916015625	-0.0892333984375	-9.1552734375E-09	8.16956113869338E-10	9746667	-9.51820879890874E-08
1	12	43.3279218906075	-0.079193115234375	-0.079132080078125	1.40380859374997E-08	-1.11086284615425E-09	-5636957	-9.49362188862324E-08
1	13	43.4286298903532	-0.069122314453125	-0.06903076171875	4.18090820312494E-08	-2.88611268217664E-09	-1651095	-9.21240896900599E-08
1	14	43.529337890099	-0.059051513671875	-0.058990478515625	7.72094726562506E-08	-4.55462378923244E-09	-764031.625	-8.61310311961461E-08
1	15	43.6300458898447	-0.048980712890625	-0.0488433837890625	1.24206542968749E-07	-6.06666761271413E-09	-393243.25	-7.59889289270177E-08
1	16	43.7307538895905	-0.038909912109375	-0.038775634765625	1.873779296875E-07	-7.26569782116826E-09	-206938.109375	-6.02994063569895E-08
1	17	43.8314618893362	-0.028839111328125	-0.02869873046875	2.7191162109375E-07	-7.80351783191691E-09	-105544.34375	-3.71723416492387E-08
1	18	43.9321698890819	-0.018768310546875	-0.01865234375	3.8421630859375E-07	-7.16653447696558E-09	-48546.46875	-4.13367740037529E-09
1	19	44.0328778888277	-0.008697509765625	-0.0086090087890625	5.3070068359375E-07	-4.56880666632742E-09	-16221.966796875	4.19360510761635E-08
1	20	44.1335858885734	0.001373291015625	0.00144348144531251	7.12890625E-07	1.02904429422068E-09	2024.82885742188	1.04555844870902E-07
1	21	44.2342938883191	0.011444091796875	0.0115509033203125	9.2742919921875E-07	1.07126449933048E-08	12454.7548828125	1.87152508601685E-07
1	22	44.3350018880649	0.021514892578125	0.0216278076171875	1.16455078125E-06	2.51866811851187E-08	18571.802734375	2.92492075004702E-07
1	23	44.4357098878106	0.031585693359375	0.0316558837890625	1.40350341796875E-06	4.44291394785523E-08	22554.90625	4.21803861172521E-07
1	24	44.5364178875564	0.041656494140625	0.0417572021484375	1.62200927734375E-06	6.7730567820945E-08	25744.123046875	5.7415053333898E-07
1	25	44.6371258873021	0.051727294921875	0.051727294921875	1.7962646484375E-06	9.29159114093636E-08	28797.146484375	7.46274281482329E-07
1	26	44.7378338870478	0.061798095703125	0.061859130859375	1.91375732421875E-06	1.18383368885588E-07	32323.392578125	9.33088756482903E-07
1	27	44.8385418867936	0.071868896484375	0.0718994140625	1.97052001953125E-06	1.41679223020219E-07	36487.53515625	1.12867758161883E-06
1	28	44.9392498865393	0.081939697265625	0.08203125	1.97662353515625E-06	1.62144900173189E-07	41500.6953125	1.32743207359454E-06
1	29	45.039957886285	0.092010498046875	0.09210205078125	1.94427490234375E-06	1.79071690808996E-07	47370.90234375	1.52486495608173E-06
1	30	45.1406658860308	0.102081298828125	0.102142333984375	1.8890380859375E-06	1.92950750488308E-07	54071.0859375	1.71788758507319E-06
1	31	45.2413738857765	0.112152099609375	0.1121826171875	1.82098388671875E-06	2.0428272762274E-07	61605.5	1.90470211691718E-06
1	32	45.3420818855222	0.122222900390625	0.12225341796875	1.74957275390625E-06	2.13891240719022E-07	69876.15625	2.08449387173459E-06
1	33	45.442789885268	0.132293701171875	0.132354736328125	1.68060302734375E-06	2.22435758701067E-07	78754.3125	2.25721692004299E-06
1	34	45.5434978850137	0.142364501953125	0.1424560546875	1.614990234375E-06	2.30065126061163E-07	88208.6171875	2.42316332332848E-06
1	35	45.6442058847595	0.152435302734375	0.1524658203125	1.5545654296875E-06	2.37018085158525E-07	98076.171875	2.58276304521132E-06
1	36	45.7449138845052	0.162506103515625	0.16253662109375	1.5008544921875E-06	2.43943816258252E-07	108296.0625	2.73661567007366E-06
1	37	45.8456218842509	0.172576904296875	0.17254638671875	1.45233154296875E-06	2.50594553108385E-07	118806.4765625	2.88532032755029E-06
1	38	45.9463298839967	0.182647705078125	0.182647705078125	1.40899658203125E-06	2.5734999553606E-07	129629.6328125	3.02939974972105E-06
1	39	46.0470378837424	0.192718505859375	0.192779541015625	1.3714599609375E-06	2.64389399262654E-07	140565.203125	3.16940690936462E-06
1	40	46.1477458834881	0.202789306640625	0.202789306640625	1.336669921875E-06	2.71062361889562E-07	151712.328125	3.30577199747495E-06
1	41	46.2484538832339	0.212860107421875	0.21282958984375	1.30645751953125E-06	2.78052823432517E-07	162905.859375	3.43886404152727E-06
1	42	46.3491618829796	0.222930908203125	0.222930908203125	1.27960205078125E-06	2.85262842680822E-07	174218.953125	3.56908253706933E-06
1	43	46.4498698827254	0.233001708984375	0.2330322265625	1.25518798828125E-06	2.92499237275479E-07	185655.25	3.69671920452674E-06
1	44	46.5505778824711	0.243072509765625	0.243072509765625	1.23291015625E-06	2.99686547577949E-07	197153.46875	3.82200505555375E-06
1	45	46.6512858822168	0.253143310546875	0.253173828125	1.21307373046875E-06	3.07118511955196E-07	208704.40625	3.94517019230989E-06
1	46	46.7519938819626	0.263214111328125	0.263214111328125	1.19598388671875E-06	3.14799819989275E-07	220081.671875	4.06647586714826E-06
1	47	46.8527018817083	0.273284912109375	0.27325439453125	1.1798095703125E-06	3.22388132190099E-07	231608.921875	4.18610625274596E-06
1	48	46.953409881454	0.283355712890625	0.2833251953125	1.16546630859375E-06	3.30205978116282E-07	243100.296875	4.30420050179237E-06
1	49	47.0541178811998	0.293426513671875	0.293426513671875	1.15264892578125E-06	3.3821774536591E-07	254567.125	4.42092687080731E-06
1	50	47.1548258809455	0.303497314453125	0.303466796875	1.14105224609375E-06	3.46271434636947E-07	265953.46875	4.53642360298545E-06
1	51	47.2555338806912	0.313568115234375	0.313629150390625	1.13037109375E-06	3.54517311507152E-07	277456.8125	4.65079892819631E-06
1	52	47.356241880437	0.323638916015625	0.323577880859375	1.12152099609375E-06	3.62899385208948E-07	288517	4.7641906348872E-06
1	53	47.4569498801827	0.333709716796875	0.333709716796875	1.1126708984375E-06	3.71309056390601E-07	299917.75	4.8766914915177E-06
1	54	47.5576578799285	0.343780517578125	0.343780517578125	1.10595703125E-06	3.80206472527789E-07	310844.375	4.98840790896793E-06
1	55	47.6583658796742	0.353851318359375	0.353851318359375	1.09954833984375E-06	3.89076603823924E-07	321815.15625	5.09946403326467E-06
1	56	47.7590738794199	0.363922119140625	0.36395263671875	1.0943603515625E-06	3.98295327386222E-07	332571.125	5.20993626196287E-06
1	57	47.8597818791657	0.373992919921875	0.3740234375	1.090087890625E-06	4.07718403039325E-07	343113.125	5.31993191543734E-06
1	58	47.9604898789114	0.384063720703125	0.384063720703125	1.08612060546875E-06	4.17139517594478E-07	353610.5625	5.4295128393278E-06
1	59	48.0611978786571	0.394134521484375	0.39410400390625	1.083984375E-06	4.27202564878826E-07	363569.84375	5.53878635400906E-06
1	60	48.1619058784029	0.404205322265625	0.40423583984375	1.082763671875E-06	4.37691880961211E-07	373337.09375	5.6478907026758E-06
1	61	48.2626138781486	0.414276123046875	0.414306640625	1.08184814453125E-06	4.48216866288931E-07	382961.90625	5.75688727622037E-06
1	62	48.3633218778944	0.424346923828125	0.424346923828125	1.08154296875E-06	4.58949415360621E-07	392353.28125	5.86582291361992E-06
1	63	48.4640298776401	0.434417724609375	0.434356689453125	1.08154296875E-06	4.69775386591209E-07	401608.375	5.97474308960955E-06
1	64	48.5647378773858	0.444488525390625	0.44451904296875	1.08306884765625E-06	4.81444715205726E-07	410425.5	6.08373966315412E-06
1	65	48.6654458771316	0.454559326171875	0.45458984375	1.083984375E-06	4.92768265303312E-07	419369.375	6.19285947323078E-06
1	66	48.7661538768773	0.464630126953125	0.464630126953125	1.08642578125E-06	5.04786157762283E-07	427668.5625	6.30214844932198E-06
1	67	48.866861876623	0.474700927734375	0.474761962890625	1.08856201171875E-06	5.16807801886898E-07	436136.84375	6.41166752757272E-06
1	68	48.9675698763688	0.484771728515625	0.4847412109375	1.09130859375E-06	5.29002250004851E-07	444183.4375	6.52143307888764E-06
1	69	49.0682778761145	0.494842529296875	0.494781494140625	1.094970703125E-06	5.4177121455723E-07	451867.34375	6.63152059132699E-06
1	70	49.1689858758602	0.504913330078125	0.504913330078125	1.0986328125E-06	5.54714347344998E-07	459583.34375	6.74197735861526E-06
1	71	49.269693875606	0.514984130859375	0.5150146484375	1.10382080078125E-06	5.68483869756164E-07	466574.53125	6.8528797783074E-06
1	72	49.3704018753517	0.525054931640625	0.5250244140625	1.1083984375E-06	5.81936262733507E-07	473678.40625	6.96427377988584E-06
1	73	49.4711098750975	0.535125732421875	0.535064697265625	1.11541748046875E-06	5.96820541431953E-07	479699.03125	7.07625213181018E-06
1	74	49.5718178748432	0.545196533203125	0.545166015625	1.121826171875E-06	6.11581469911471E-07	485963.03125	7.18890623829793E-06
1	75	49.6725258745889	0.555267333984375	0.555206298828125	1.1297607421875E-06	6.27250244633615E-07	491437.09375	7.30228248357889E-06
1	76	49.7732338743347	0.565338134765625	0.5653076171875	1.13861083984375E-06	6.43665373445401E-07	496488.875	7.41650410418515E-06
1	77	49.8739418740804	0.575408935546875	0.575408935546875	1.14898681640625E-06	6.61137278257229E-07	500796.8125	7.53169388190145E-06
1	78	49.9746498738261	0.585479736328125	0.58544921875	1.1614990234375E-06	6.7999866359969E-07	504046.25	7.64803644415224E-06
1	79	50.0753578735719	0.595550537109375	0.595550537109375	1.17645263671875E-06	7.00637031059159E-07	506225.6875	7.76576143834973E-06
1	80	50.1760658733176	0.605621337890625	0.605560302734375	1.1944580078125E-06	7.23316304629407E-07	506975	7.88514626037795E-06
1	81	50.2767738730633	0.615692138671875	0.615631103515625	1.21734619140625E-06	7.49436139813042E-07	505715.71875	8.00659017841099E-06
1	82	50.3774818728091	0.625762939453125	0.625701904296875	1.246337890625E-06	7.79836000219802E-07	502032.3125	8.13064616522752E-06
1	83	50.4781898725548	0.635833740234375	0.635833740234375	1.2841796875E-06	8.16524789115647E-07	495128.3125	8.25806819193531E-06
1	84	50.5788978723006	0.645904541015625	0.645843505859375	1.3323974609375E-06	8.6052023107186E-07	484722.84375	8.38982305140235E-06
1	85	50.6796058720463	0.655975341796875	0.65594482421875	1.392822265625E-06	9.13614542241703E-07	470946.53125	8.52704852150055E-06
1	86	50.780313871792	0.666046142578125	0.66595458984375	1.46575927734375E-06	9.76129172158835E-07	454341.03125	8.67098970047664E-06
1	87	50.8810218715378	0.676116943359375	0.675994873046875	1.54754638671875E-06	1.04613343410165E-06	436817.1875	8.82272161106812E-06
1	88	50.9817298712835	0.686187744140625	0.686065673828125	1.63330078125E-06	1.120551587519E-06	420048.59375	8.98288999451324E-06
1	89	51.0824378710292	0.696258544921875	0.69622802734375	1.7144775390625E-06	1.19366734452342E-06	406087.5625	9.15146392799215E-06
1	90	51.183145870775	0.706329345703125	0.706329345703125	1.783447265625E-06	1.2597010936588E-06	396047.21875	9.3275984909269E-06
1	91	51.2838538705207	0.716400146484375	0.71636962890625	1.83441162109375E-06	1.31411673010007E-06	390517.40625	9.50977209868142E-06
1	92	51.3845618702665	0.726470947265625	0.72637939453125	1.86614990234375E-06	1.35553284508205E-06	389239.5625	9.69611028267536E-06
1	93	51.4852698700122	0.736541748046875	0.7364501953125	1.88018798828125E-06	1.3846647561877E-06	391689.65625	9.8847540357383E-06
1	94	51.5859778697579	0.746612548828125	0.74652099609375	1.8817138671875E-06	1.40473889587156E-06	396723.96875	1.00741808637395E-05
1	95	51.6866858695037	0.756683349609375	0.7562255859375	1.87591552734375E-06	1.41861528391019E-06	403123.5	1.02633921414963E-05
1	96	51.7873938692494	0.766754150390625	0.7666015625	1.86737060546875E-06	1.43152919918066E-06	410524.59375	1.04518812804599E-05
1	97	51.8881018689951	0.776824951171875	0.77667236328125	1.86126708984375E-06	1.44559464843041E-06	417281.53125	1.06396337287151E-05
1	98	51.9888098687409	0.786895751953125	0.7867431640625	1.86248779296875E-06	1.46529941957851E-06	422415.21875	1.08271397039061E-05
1	99	52.0895178684866	0.796966552734375	0.79681396484375	1.8731689453125E-06	1.49256709391921E-06	425382.875	1.10152441266109E-05
1	100	52.1902258682323	0.807037353515625	0.806884765625	1.8988037109375E-06	1.53211578890478E-06	424943.75	1.12051784526557E-05
1	101	52.2909338679781	0.817108154296875	0.81695556640625	1.9390869140625E-06	1.58414775341953E-06	421309.4375	1.13984315248672E-05
1	102	52.3916418677238	0.827178955078125	0.82763671875	1.99676513671875E-06	1.65259621098812E-06	414488.75	1.15966176963411E-05
1	103	52.4923498674696	0.837249755859375	0.83709716796875	2.0697021484375E-06	1.73254170476866E-06	404452.96875	1.18013804240036E-05
1	104	52.5930578672153	0.847320556640625	0.84686279296875	2.154541015625E-06	1.82460053110844E-06	393059.5	1.2014087587886E-05
1	105	52.693765866961	0.857391357421875	0.85784912109375	2.24090576171875E-06	1.92235916074424E-06	382813.5625	1.22354158520466E-05
1	106	52.7944738667068	0.867462158203125	0.86761474609375	2.32147216796875E-06	2.01414331968408E-06	373734.75	1.24651505757356E-05
1	107	52.8951818664525	0.877532958984375	0.877685546875	2.38494873046875E-06	2.09323502531333E-06	368010.25	1.27021376101766E-05
1	108	52.9958898661982	0.887603759765625	0.8880615234375	2.4273681640625E-06	2.15565228245396E-06	365853.65625	1.2944457012054E-05
1	109	53.096597865944	0.897674560546875	0.89752197265625	2.447509765625E-06	2.19669391299249E-06	366708.21875	1.31899259940838E-05
1	110	53.1973058656897	0.907745361328125	0.90850830078125	2.44842529296875E-06	2.2244146293815E-06	371058.21875	1.34364563564304E-05
1	111	53.2980138654355	0.917816162109375	0.91766357421875	2.43499755859375E-06	2.23450842895545E-06	376864.28125	1.36823564389488E-05
1	112	53.3987218651812	0.927886962890625	0.92864990234375	2.41180419921875E-06	2.23972165258601E-06	385043.65625	1.39264120662119E-05
1	113	53.4994298649269	0.937957763671875	0.9381103515625	2.38494873046875E-06	2.2373449155566E-06	393346.15625	1.41679474836565E-05
1	114	53.6001378646727	0.948028564453125	0.94818115234375	2.35565185546875E-06	2.23358460971212E-06	402513.28125	1.44066561915679E-05
1	115	53.7008458644184	0.958099365234375	0.958251953125	2.32696533203125E-06	2.22981907427311E-06	411803.28125	1.46424445119919E-05
1	116	53.8015538641641	0.968170166015625	0.9686279296875	2.2998046875E-06	2.22765515900392E-06	421178.34375	1.48754206747981E-05
1	117	53.9022618639099	0.978240966796875	0.9783935546875	2.27508544921875E-06	2.22592871068628E-06	430046.96875	1.51057847688207E-05
1	118	54.0029698636556	0.988311767578125	0.9881591796875	2.25311279296875E-06	2.22643416236679E-06	438575.09375	1.53337969095446E-05
1	119	54.1036778634013	0.998382568359375	0.99884033203125	2.23358154296875E-06	2.23099118557002E-06	447192.25	1.55597208504332E-05
1	120	54.2043858631471	1.00845336914063	1.00830078125	2.2161865234375E-06	2.23458255277365E-06	454971.09375	1.5783783965162E-05
1	121	54.3050938628928	1.01852416992188	1.01837158203125	2.20123291015625E-06	2.24167297346867E-06	462636.9375	1.60062190843746E-05
1	122	54.4058018626386	1.02859497070313	1.029052734375	2.1881103515625E-06	2.2516808257933E-06	470292.90625	1.62272390298313E-05
1	123	54.5065098623843	1.03866577148438	1.03912353515625	2.17681884765625E-06	2.26198358177498E-06	477358.78125	1.64470311574405E-05
1	124	54.60721786213	1.04873657226563	1.0491943359375	2.166748046875E-06	2.27333953262132E-06	484225.375	1.66657482623123E-05
1	125	54.7079258618758	1.05880737304688	1.0589599609375	2.1588134765625E-06	2.28609701480309E-06	490528.6875	1.68835576914717E-05
1	126	54.8086338616215	1.06887817382813	1.06842041015625	2.15118408203125E-06	2.29836882681411E-06	496666.21875	1.71005831361981E-05
1	127	54.9093418613672	1.07894897460938	1.0791015625	2.1453857421875E-06	2.31508897741151E-06	502987.21875	1.73169319168665E-05
1	128	55.010049861113	1.08901977539063	1.0888671875	2.1405029296875E-06	2.33072319133498E-06	508696.90625	1.75327440956607E-05
1	129	55.1107578608587	1.09909057617188	1.0992431640625	2.13623046875E-06	2.348236648686E-06	514571.4375	1.77480942511465E-05
1	130	55.2114658606044	1.10916137695313	1.10931396484375	2.1331787109375E-06	2.36636492445541E-06	520028.625	1.79630751517834E-05
1	131	55.3121738603502	1.11923217773438	1.11968994140625	2.1307373046875E-06	2.38576512856525E-06	525494.125	1.81777813850204E-05
1	132	55.4128818600959	1.12930297851563	1.129150390625	2.12982177734375E-06	2.40488907365943E-06	530161.9375	1.83923166332534E-05
1	133	55.5135898598417	1.13937377929688	1.13922119140625	2.12860107421875E-06	2.42494729718601E-06	535197.1875	1.8606746380101E-05
1	134	55.6142978595874	1.14944458007813	1.14990234375	2.12890625E-06	2.44803413806949E-06	540137.625	1.88211288332241E-05
1	135	55.7150058593331	1.15951538085938	1.1602783203125	2.12982177734375E-06	2.47118600782414E-06	544777.1875	1.90355731319869E-05
1	136	55.8157138590789	1.16958618164063	1.1700439453125	2.13134765625E-06	2.49377035288489E-06	548969.0625	1.92501393030398E-05
1	137	55.9164218588246	1.17965698242188	1.1798095703125	2.1337890625E-06	2.51746450885548E-06	552917.625	1.9464905562927E-05
1	138	56.0171298585703	1.18972778320313	1.18988037109375	2.13714599609375E-06	2.54294786827813E-06	556761.4375	1.96799646801082E-05
1	139	56.1178378583161	1.19979858398438	1.19964599609375	2.14141845703125E-06	2.56894418271258E-06	560210.9375	1.98954076040536E-05
1	140	56.2185458580618	1.20986938476563	1.209716796875	2.14599609375E-06	2.59604735219909E-06	563708.8125	2.01112961804029E-05
1	141	56.3192538578076	1.21994018554688	1.22039794921875	2.15240478515625E-06	2.6267903194821E-06	566992.8125	2.03277377295308E-05
1	142	56.4199618575533	1.23001098632813	1.23016357421875	2.1588134765625E-06	2.65569360635709E-06	569833.1875	2.0544825019897E-05
1	143	56.520669857299	1.24008178710938	1.240234375	2.166748046875E-06	2.68727512775513E-06	572394.4375	2.07626344490563E-05
1	144	56.6213778570448	1.25015258789063	1.25030517578125	2.17529296875E-06	2.71977978627547E-06	574775.5625	2.09812733373838E-05
1	145	56.7220858567905	1.26022338867188	1.26007080078125	2.18475341796875E-06	2.75294405582827E-06	576756.5625	2.12008199014235E-05
1	146	56.8227938565362	1.27029418945313	1.27044677734375	2.19512939453125E-06	2.7887949727301E-06	578757.125	2.14213632716564E-05
1	147	56.923501856282	1.28036499023438	1.280517578125	2.205810546875E-06	2.82457904177136E-06	580520.25	2.1642968931701E-05
1	148	57.0242098560277	1.29043579101563	1.29058837890625	2.21771240234375E-06	2.86215367850673E-06	581945.8125	2.18657114601228E-05
1	149	57.1249178557734	1.30050659179688	1.3006591796875	2.23052978515625E-06	2.90115872303431E-06	583116.75	2.20896981772967E-05
1	150	57.2256258555192	1.31057739257813	1.31072998046875	2.24456787109375E-06	2.94202231998497E-06	583956.5	2.23150364035973E-05
1	151	57.3263338552649	1.32064819335938	1.32080078125	2.25921630859375E-06	2.98397458209365E-06	584627.875	2.25418207264738E-05
1	152	57.4270418550107	1.33071899414063	1.33056640625	2.2747802734375E-06	3.02674607155495E-06	584920.875	2.27701257244917E-05
1	153	57.5277498547564	1.34078979492188	1.34063720703125	2.291259765625E-06	3.07174809677235E-06	585109.1875	2.30000423471211E-05
1	154	57.6284578545021	1.35086059570313	1.3507080078125	2.308349609375E-06	3.11790631712938E-06	585140.125	2.32316524488851E-05
1	155	57.7291658542479	1.36093139648438	1.361083984375	2.325439453125E-06	3.16511841447209E-06	585301.8125	2.34649814956356E-05
1	156	57.8298738539936	1.37100219726563	1.370849609375	2.342529296875E-06	3.2112554890773E-06	585200.625	2.37000331253512E-05
1	157	57.9305818537393	1.38107299804688	1.38092041015625	2.36053466796875E-06	3.25971041092998E-06	585003.25	2.39368509937776E-05
1	158	58.0312898534851	1.39114379882813	1.3909912109375	2.37884521484375E-06	3.30895272782072E-06	584733.8125	2.41754969465546E-05
1	159	58.1319978532308	1.40121459960938	1.4013671875	2.3980712890625E-06	3.36057837557746E-06	584372.625	2.44160346483113E-05
1	160	58.2327058529766	1.41128540039063	1.4111328125	2.4200439453125E-06	3.41500344802625E-06	583102.125	2.46586459979881E-05
1	161	58.3334138527223	1.42135620117188	1.42181396484375	2.4444580078125E-06	3.47556442648056E-06	581647.9375	2.49035929300589E-05
1	162	58.434121852468	1.43142700195313	1.4312744140625	2.47406005859375E-06	3.54105873157096E-06	578512.4375	2.51512592512881E-05
1	163	58.5348298522138	1.44149780273438	1.44134521484375	2.5091552734375E-06	3.61655884262291E-06	574434.5	2.54021852015285E-05
1	164	58.6355378519595	1.45156860351563	1.451416015625	2.552490234375E-06	3.7047250316391E-06	568627.5	2.56570583587745E-05
1	165	58.7362458517052	1.46163940429688	1.46148681640625	2.60589599609375E-06	3.80848268832779E-06	560838.5	2.59168045886327E-05
1	166	58.836953851451	1.47171020507813	1.4715576171875	2.6715087890625E-06	3.93127902498236E-06	550833.875	2.61825425695861E-05
1	167	58.9376618511967	1.48178100585938	1.48162841796875	2.75177001953125E-06	4.07710058425437E-06	538427.4375	2.6455625629751E-05
1	168	59.0383698509424	1.49185180664063	1.49169921875	2.8472900390625E-06	4.2473002395127E-06	523901.40625	2.6737561711343E-05
1	169	59.1390778506882	1.50192260742188	1.5020751953125	2.95623779296875E-06	4.4404914660845E-06	508103.65625	2.70297914539697E-05
1	170	59.2397858504339	1.49185180664063	1.49200439453125	2.67333984375E-06	3.98863494410762E-06	558105	2.73132645816077E-05
1	171	59.3404938501797	1.48178100585938	1.48162841796875	2.4700927734375E-06	3.65975961358345E-06	599827	2.75722559308633E-05
1	172	59.4412018499254	1.47171020507813	1.4715576171875	2.3126220703125E-06	3.40315637004096E-06	636315.6875	2.78130846709246E-05
1	173	59.5419098496711	1.46163940429688	1.46148681640625	2.18475341796875E-06	3.19298828799219E-06	668948.1875	2.80395470326766E-05
1	174	59.6426178494169	1.45156860351563	1.45172119140625	2.08038330078125E-06	3.02013631880982E-06	697814.3125	2.82543132925639E-05
1	175	59.7433258491626	1.44149780273438	1.44134521484375	1.99371337890625E-06	2.87362922790635E-06	722945.0625	2.84594607364852E-05
1	176	59.8440338489083	1.43142700195313	1.43157958984375	1.92138671875E-06	2.75061802312848E-06	745076.25	2.86566009890521E-05
1	177	59.9447418486541	1.42135620117188	1.4215087890625	1.86126708984375E-06	2.64580739894882E-06	763731.75	2.88470728264656E-05
1	178	60.0454498483998	1.41128540039063	1.41143798828125	1.80877685546875E-06	2.55297618423356E-06	780327.3125	2.90318730549188E-05
1	179	60.1461578481455	1.40121459960938	1.40167236328125	1.76513671875E-06	2.47414322984696E-06	794087.1875	2.92118347715586E-05
1	180	60.2468658478913	1.39114379882813	1.3909912109375	1.727294921875E-06	2.40265194406675E-06	805300.375	2.93876928481041E-05
1	181	60.347573847637	1.38107299804688	1.38092041015625	1.69464111328125E-06	2.34016442846041E-06	814874.875	2.95600002573337E-05
1	182	60.4482818473828	1.37100219726563	1.37115478515625	1.666259765625E-06	2.28470003094117E-06	822893.75	2.97292353934608E-05
1	183	60.5489898471285	1.36093139648438	1.36077880859375	1.64093017578125E-06	2.23294296120002E-06	829272.875	2.98957656923449E-05
1	184	60.6496978468742	1.35086059570313	1.3507080078125	1.61895751953125E-06	2.18673881136056E-06	834307.25	3.00599149340997E-05
1	185	60.75040584662	1.34078979492188	1.3409423828125	1.597900390625E-06	2.14269221032737E-06	839190.25	3.02218959404854E-05
1	186	60.8511138463657	1.33071899414063	1.3311767578125	1.57958984375E-06	2.10271332434786E-06	842735.6875	3.03818960674107E-05
1	187	60.9518218461114	1.32064819335938	1.3201904296875	1.5631103515625E-06	2.06360323318222E-06	844591.9375	3.05401445075404E-05
1	188	61.0525298458572	1.31057739257813	1.31103515625	1.5472412109375E-06	2.02848764274677E-06	847337.3125	3.06967631331645E-05
1	189	61.1532378456029	1.30050659179688	1.3006591796875	1.5325927734375E-06	1.99338069251098E-06	848665.9375	3.08518428937532E-05
1	190	61.2539458453487	1.29043579101563	1.29058837890625	1.519775390625E-06	1.96140445041237E-06	849196.8125	3.1005543860374E-05
1	191	61.3546538450944	1.28036499023438	1.280517578125	1.5069580078125E-06	1.92968605006172E-06	849736.8125	3.11579497065395E-05
1	192	61.4553618448401	1.27029418945313	1.2701416015625	1.49444580078125E-06	1.89815773410373E-06	849908.125	3.13090822601225E-05
1	193	61.5560698445859	1.26022338867188	1.2603759765625	1.483154296875E-06	1.86933198165207E-06	849794.25	3.1459017918678E-05
1	194	61.6567778443316	1.25015258789063	1.25030517578125	1.47247314453125E-06	1.84104067102453E-06	849119.25	3.16078439936973E-05
1	195	61.7574858440773	1.24008178710938	1.23992919921875	1.4617919921875E-06	1.81251857611642E-06	848225.5	3.17555968649685E-05
1	196	61.8581938438231	1.23001098632813	1.23016357421875	1.451416015625E-06	1.78547907125903E-06	847561	3.19022874464281E-05
1	197	61.9589018435688	1.21994018554688	1.2200927734375	1.441650390625E-06	1.75894717813208E-06	846316.6875	3.20479666697793E-05
1	198	62.0596098433145	1.20986938476563	1.21002197265625	1.43218994140625E-06	1.73298133177013E-06	844875.3125	3.2192674552789E-05
1	199	62.1603178430603	1.19979858398438	1.20025634765625	1.42303466796875E-06	1.70800637988577E-06	843448.4375	3.23364474752452E-05
1	200	62.261025842806	1.18972778320313	1.18988037109375	1.41326904296875E-06	1.68162114277948E-06	841934.8125	3.2479267247254E-05
1	201	62.3617338425518	1.17965698242188	1.18011474609375	1.40411376953125E-06	1.6570153320572E-06	840469.5	3.26211338688154E-05
1	202	62.4624418422975	1.16958618164063	1.16943359375	1.395263671875E-06	1.63166816946614E-06	838145.25	3.27620946336538E-05
1	203	62.5631498420432	1.15951538085938	1.15936279296875	1.38671875E-06	1.6077101463452E-06	836047.5625	3.29021786455996E-05
1	204	62.663857841789	1.14944458007813	1.14959716796875	1.37725830078125E-06	1.58329225996567E-06	834699.75	3.30413531628437E-05
1	205	62.7645658415347	1.13937377929688	1.13922119140625	1.368408203125E-06	1.55891962094756E-06	832515.625	3.31796109094284E-05
1	206	62.8652738412804	1.12930297851563	1.12945556640625	1.35955810546875E-06	1.5355603864009E-06	830752	3.33169737132266E-05
1	207	62.9659818410262	1.11923217773438	1.1187744140625	1.35040283203125E-06	1.51079609622684E-06	828474.5625	3.34534306603018E-05
1	208	63.0666898407719	1.10916137695313	1.1090087890625	1.34124755859375E-06	1.48745527894789E-06	826848.6875	3.35889671987388E-05
1	209	63.1673978405177	1.09909057617188	1.09893798828125	1.33270263671875E-06	1.46455749927554E-06	824593.5625	3.37236087943893E-05
1	210	63.2681058402634	1.08901977539063	1.08917236328125	1.32354736328125E-06	1.44157115755661E-06	822919.125	3.38573627232108E-05
1	211	63.3688138400091	1.07894897460938	1.0791015625	1.3140869140625E-06	1.41803320730105E-06	821179.8125	3.39901780535001E-05
1	212	63.4695218397549	1.06887817382813	1.06903076171875	1.304931640625E-06	1.39501207740977E-06	819223.5625	3.41220547852572E-05
1	213	63.5702298395006	1.05880737304688	1.05865478515625	1.29608154296875E-06	1.37210292905365E-06	816811.875	3.42530292982701E-05
1	214	63.6709378392463	1.04873657226563	1.04827880859375	1.2860107421875E-06	1.3480978395819E-06	815140	3.43830470228568E-05
1	215	63.7716458389921	1.03866577148438	1.038818359375	1.27716064453125E-06	1.32673790176341E-06	813381.125	3.4512111596996E-05
1	216	63.8723538387378	1.02859497070313	1.0284423828125	1.26678466796875E-06	1.30281500787532E-06	811852.625	3.46402121067513E-05
1	217	63.9730618384835	1.01852416992188	1.01837158203125	1.25732421875E-06	1.28042324831767E-06	809951.4375	3.47673085343558E-05
1	218	64.0737698382293	1.00845336914063	1.00830078125	1.24603271484375E-06	1.25637563996861E-06	809208.9375	3.48933645000216E-05
1	219	64.174477837975	0.998382568359375	0.99853515625	1.23443603515625E-06	1.23262771012378E-06	808899.875	3.50182635884266E-05
1	220	64.2751858377208	0.988311767578125	0.98846435546875	1.221923828125E-06	1.20782806334319E-06	808941.125	3.51419512298889E-05
1	221	64.3758938374665	0.978240966796875	0.97808837890625	1.20819091796875E-06	1.18171737994999E-06	809547.9375	3.52643182850443E-05
1	222	64.4766018372122	0.968170166015625	0.96832275390625	1.19171142578125E-06	1.15396119326761E-06	812548.0625	3.53851646650583E-05
1	223	64.577309836958	0.958099365234375	0.95794677734375	1.17279052734375E-06	1.12347083813802E-06	816809.8125	3.55042247974779E-05
1	224	64.6780178367037	0.948028564453125	0.948486328125	1.14990234375E-06	1.09066661480028E-06	824840.75	3.56211821781471E-05
1	225	64.7787258364494	0.937957763671875	0.9381103515625	1.12060546875E-06	1.05125161553588E-06	837145.9375	3.57355129381176E-05
1	226	64.8794338361952	0.927886962890625	0.9283447265625	1.083984375E-06	1.00631109489768E-06	856418.9375	3.58465222234372E-05
1	227	64.9801418359409	0.917816162109375	0.91766357421875	1.0369873046875E-06	9.51605500176811E-07	884932.3125	3.5953322367277E-05
1	228	65.0808498356866	0.907745361328125	0.9075927734375	9.78698730468749E-07	8.88259876319353E-07	927346.4375	3.6054818338016E-05
1	229	65.1815578354324	0.897674560546875	0.89752197265625	9.051513671875E-07	8.12393238902587E-07	991571.125	3.6149678635411E-05
1	230	65.2822658351781	0.887603759765625	0.88775634765625	8.1817626953125E-07	7.26341170320666E-07	1085042.875	3.62364553438965E-05
1	231	65.3829738349239	0.877532958984375	0.8770751953125	7.18994140625E-07	6.30611907581624E-07	1219864.25	3.63138569809962E-05
1	232	65.4836818346696	0.867462158203125	0.8673095703125	6.1492919921875E-07	5.33334002739139E-07	1410421.875	3.63810249837115E-05
1	233	65.5843898344153	0.857391357421875	0.85723876953125	5.145263671875E-07	4.41071932755221E-07	1666073.625	3.64378975064028E-05
1	234	65.6850978341611	0.847320556640625	0.8477783203125	4.2724609375E-07	3.62209959803295E-07	1984285.75	3.64853185601532E-05
1	235	65.7858058339068	0.837249755859375	0.83770751953125	3.60717773437499E-07	3.02175976685248E-07	2322335	3.65249979950022E-05
1	236	65.8865138336525	0.827178955078125	0.82733154296875	3.18298339843751E-07	2.6333825076108E-07	2599233	3.65591877198312E-05
1	237	65.9872218333983	0.817108154296875	0.81695556640625	2.98156738281249E-07	2.43580785763697E-07	2740020.75	3.65902305929922E-05
1	238	66.087929833144	0.807037353515625	0.806884765625	2.9632568359375E-07	2.39100671706183E-07	2722966	3.66201638826169E-05
1	239	66.1886378328898	0.796966552734375	0.797119140625	3.06091308593751E-07	2.43991223669582E-07	2604187.5	3.66504973499104E-05
1	240	66.2893458326355	0.786895751953125	0.78704833984375	3.2012939453125E-07	2.51957288810445E-07	2458532	3.66820313502103E-05
1	241	66.3900538323812	0.776824951171875	0.77667236328125	3.314208984375E-07	2.57405446291159E-07	2343462.25	3.67148386430927E-05
1	242	66.490761832127	0.766754150390625	0.7666015625	3.369140625E-07	2.58278817000246E-07	2275362.5	3.67484935850371E-05
1	243	66.5914698318727	0.756683349609375	0.75653076171875	3.32031250000001E-07	2.51191863753775E-07	2278492.75	3.67821776308119E-05
1	244	66.6921778316184	0.746612548828125	0.746551513671875	3.14941406249999E-07	2.35119969715925E-07	2370445.75	3.68147520930506E-05
1	245	66.7928858313642	0.736541748046875	0.736419677734375	2.8350830078125E-07	2.08781074206854E-07	2597524.25	3.68448891094886E-05
1	246	66.8935938311099	0.726470947265625	0.7264404296875	2.3681640625E-07	1.72033011835993E-07	3067525.75	3.68710898328573E-05
1	247	66.9943018308556	0.716400146484375	0.71630859375	1.74865722656251E-07	1.25257813010649E-07	4096335.25	3.68918190361001E-05
1	248	67.0950098306014	0.706329345703125	0.706298828125	1.02844238281249E-07	7.2638762560473E-08	6867656	3.69058034266345E-05
1	249	67.1957178303471	0.696258544921875	0.696197509765625	2.62451171874997E-08	1.82717840857549E-08	26526746	3.6912300856784E-05
1	250	67.2964258300929	0.686187744140625	0.686126708984375	-4.60815429687497E-08	-3.16177768411308E-08	-14889404	3.69113040505908E-05
1	251	67.3971338298386	0.676116943359375	0.67608642578125	-1.04370117187499E-07	-7.05632174913262E-08	-6477778	3.69037261407357E-05
1	252	67.4978418295843	0.666046142578125	0.666046142578125	-1.4373779296875E-07	-9.5736005789604E-08	-4633758	3.68912333215121E-05
1	253	67.5985498293301	0.655975341796875	0.65594482421875	-1.629638671875E-07	-1.06895299722964E-07	-4025093.75	3.6875790101476E-05
1	254	67.6992578290758	0.645904541015625	0.645904541015625	-1.617431640625E-07	-1.04470643691457E-07	-3993396.25	3.68594410247169E-05
1	255	67.7999658288215	0.635833740234375	0.63580322265625	-1.45263671875E-07	-9.23591088053399E-08	-4376891	3.68439832527656E-05
1	256	67.9006738285673	0.625762939453125	0.625762939453125	-1.18103027343749E-07	-7.39044949682466E-08	-5298450	3.6830719182035E-05
1	257	68.001381828313	0.615692138671875	0.61566162109375	-8.33129882812506E-08	-5.12926057183449E-08	-7389744	3.68205764971208E-05
1	258	68.1020898280588	0.605621337890625	0.6055908203125	-4.39453125000003E-08	-2.66128790116227E-08	-13780555	3.68141700164415E-05
1	259	68.2027978278045	0.595550537109375	0.595550537109375	-1.22070312500028E-09	-7.26990356803014E-10	-487875008	3.68118962796871E-05
1	260	68.3035058275502	0.585479736328125	0.58544921875	3.84521484374997E-08	2.25117791075036E-08	15225398	3.68137698387727E-05
1	261	68.404213827296	0.575408935546875	0.57537841796875	7.171630859375E-08	4.12640162039679E-08	8022979	3.68193177564535E-05
1	262	68.5049218270417	0.565338134765625	0.565338134765625	9.88769531250003E-08	5.58989121657305E-08	5717592.5	3.68279070244171E-05
1	263	68.6056298267874	0.555267333984375	0.555267333984375	1.2176513671875E-07	6.76122056120221E-08	4560150	3.68390174116939E-05
1	264	68.7063378265332	0.545196533203125	0.545166015625	1.40991210937499E-07	7.68636141401657E-08	3866666.75	3.68522487406153E-05
1	265	68.8070458262789	0.535125732421875	0.535064697265625	1.5716552734375E-07	8.40937275370379E-08	3404466	3.68672626791522E-05
1	266	68.9077538260246	0.525054931640625	0.524993896484375	1.72119140625E-07	9.03614960634513E-08	3050177.5	3.68838445865549E-05
1	267	69.0084618257704	0.514984130859375	0.514984130859375	1.849365234375E-07	9.52393719444444E-08	2784653.5	3.69018234778196E-05
1	268	69.1091698255161	0.504913330078125	0.504913330078125	1.953125E-07	9.86158852356311E-08	2585156.25	3.69209701602813E-05
1	269	69.2098778252619	0.494842529296875	0.494842529296875	2.044677734375E-07	1.0117934579057E-07	2420149.25	3.69410990970209E-05
1	270	69.3105858250076	0.484771728515625	0.484771728515625	2.13012695312501E-07	1.03262529194126E-07	2275788	3.69621229765471E-05
1	271	69.4112938247533	0.474700927734375	0.47467041015625	2.20336914062499E-07	1.04587414284651E-07	2154293.5	3.6983943573432E-05
1	272	69.5120018244991	0.464630126953125	0.464599609375	2.26440429687499E-07	1.05204129852154E-07	2051752.125	3.70064408343751E-05
1	273	69.6127098242448	0.454559326171875	0.454559326171875	2.3162841796875E-07	1.05288854967966E-07	1962450.75	3.70295056200121E-05
1	274	69.7134178239905	0.444488525390625	0.444488525390625	2.35900878906251E-07	1.04855232052614E-07	1884217.375	3.70530469808728E-05
1	275	69.8141258237363	0.434417724609375	0.434417724609375	2.392578125E-07	1.0393783611562E-07	1815688.75	3.7076973967487E-05
1	276	69.914833823482	0.424346923828125	0.424346923828125	2.4261474609375E-07	1.02952817826463E-07	1749056.75	3.71012392861303E-05
1	277	70.0155418232277	0.414276123046875	0.414337158203125	2.45361328125E-07	1.01662308793493E-07	1688681.625	3.71258101949934E-05
1	278	70.1162498229735	0.404205322265625	0.404205322265625	2.4749755859375E-07	1.00039827088949E-07	1633169	3.71506248484366E-05
1	279	70.2169578227192	0.394134521484375	0.3941650390625	2.4993896484375E-07	9.85171979550614E-08	1577045.25	3.71756759705022E-05
1	280	70.317665822465	0.384063720703125	0.384033203125	2.5146484375E-07	9.65708437661306E-08	1527184.625	3.72009235434234E-05
1	281	70.4183738222107	0.373992919921875	0.373992919921875	2.532958984375E-07	9.47308720355977E-08	1476506	3.72263384633698E-05
1	282	70.5190818219564	0.363922119140625	0.363861083984375	2.545166015625E-07	9.26086869412757E-08	1429616.25	3.72519098164048E-05
1	283	70.6197898217022	0.353851318359375	0.353851318359375	2.55737304687501E-07	9.04929748912764E-08	1383651.625	3.72776012227405E-05
1	284	70.7204978214479	0.343780517578125	0.34381103515625	2.5665283203125E-07	8.82400783552839E-08	1339595.625	3.73034017684404E-05
1	285	70.8212058211936	0.333709716796875	0.333740234375	2.57568359375E-07	8.59609272652051E-08	1295734.625	3.73292969015893E-05
1	286	70.9219138209394	0.323638916015625	0.3236083984375	2.5787353515625E-07	8.34500397672855E-08	1254911.25	3.73552502423991E-05
1	287	71.0226218206851	0.313568115234375	0.313629150390625	2.5787353515625E-07	8.08766529303284E-08	1216213.125	3.73812217731029E-05
1	288	71.1233298204309	0.303497314453125	0.30352783203125	2.57263183593751E-07	7.80865292426824E-08	1179834	3.74071605619974E-05
1	289	71.2240378201766	0.293426513671875	0.29339599609375	2.5665283203125E-07	7.53009175014085E-08	1143162.875	3.74330375052523E-05
1	290	71.3247458199223	0.283355712890625	0.28338623046875	2.55737304687501E-07	7.24724245060315E-08	1108114.625	3.74588380509522E-05
1	291	71.4254538196681	0.273284912109375	0.273284912109375	2.5482177734375E-07	6.96389435006495E-08	1072455.125	3.74845476471819E-05
1	292	71.5261618194138	0.263214111328125	0.26324462890625	2.532958984375E-07	6.66787869363361E-08	1039277.125	3.75101335521322E-05
1	293	71.6268698191595	0.253143310546875	0.253173828125	2.5177001953125E-07	6.37415809023878E-08	1005575.75	3.75355666619726E-05
1	294	71.7275778189053	0.243072509765625	0.24310302734375	2.490234375E-07	6.05383476681709E-08	976225.5	3.75607814930845E-05
1	295	71.828285818651	0.233001708984375	0.2330322265625	2.46276855468749E-07	5.7390440844074E-08	946220.625	3.75857234757859E-05
1	296	71.9289938183967	0.222930908203125	0.222930908203125	2.43225097656249E-07	5.42223901334182E-08	916562.125	3.7610370782204E-05
1	297	72.0297018181425	0.212860107421875	0.212860107421875	2.38952636718751E-07	5.086348053851E-08	890804.625	3.76346506527625E-05
1	298	72.1304098178882	0.202789306640625	0.20281982421875	2.34375000000001E-07	4.75358952201077E-08	865364.625	3.76584830519278E-05
1	299	72.231117817634	0.192718505859375	0.1927490234375	2.28271484375001E-07	4.39991048040156E-08	844385.0625	3.76817806682084E-05
1	300	72.3318258173797	0.182647705078125	0.182647705078125	2.2125244140625E-07	4.04112512342181E-08	825517.25	3.77044161723461E-05
1	301	72.4325338171254	0.172576904296875	0.17266845703125	2.1209716796875E-07	3.66224881531707E-08	814100.75	3.7726236769231E-05
1	302	72.5332418168712	0.162506103515625	0.16259765625	2.001953125E-07	3.25512878873724E-08	812195.1875	3.77469987142831E-05
1	303	72.6339498166169	0.152435302734375	0.152496337890625	1.85241699218749E-07	2.82486798397485E-08	823229.0625	3.77664073312189E-05
1	304	72.7346578163626	0.142364501953125	0.142425537109375	1.6448974609375E-07	2.34275407962059E-08	865862.6875	3.77840151486453E-05
1	305	72.8353658161084	0.132293701171875	0.13232421875	1.35498046875E-07	1.79296719693411E-08	976576.625	3.77991200366523E-05
1	306	72.9360738158541	0.122222900390625	0.122283935546875	9.67407226562494E-08	1.18298357776325E-08	1264037.875	3.78108161385171E-05
1	307	73.0367818155999	0.112152099609375	0.1121826171875	4.18090820312494E-08	4.69025218663432E-09	2683211.75	3.78177937818691E-05
1	308	73.1374898153456	0.102081298828125	0.102081298828125	-3.26538085937494E-08	-3.33334315705258E-09	-3126168.25	3.78182521671988E-05
1	309	73.2381978150913	0.092010498046875	0.09210205078125	-1.3275146484375E-07	-1.22266818891603E-08	-693793.0625	3.78099248337094E-05
1	310	73.3389058148371	0.081939697265625	0.082000732421875	-2.6519775390625E-07	-2.17464091178954E-08	-309206	3.77898868464399E-05
1	311	73.4396138145828	0.071868896484375	0.071929931640625	-4.34265136718751E-07	-3.12366630339511E-08	-165635.984375	3.77546639356297E-05
1	312	73.5403218143285	0.061798095703125	0.061859130859375	-6.4056396484375E-07	-3.96247301637231E-08	-96569.796875	3.77005417249165E-05
1	313	73.6410298140743	0.051727294921875	0.051788330078125	-8.7615966796875E-07	-4.53748434381396E-08	-59108.328125	3.76241696358193E-05
1	314	73.74173781382	0.041656494140625	0.0417449951171875	-1.1248779296875E-06	-4.69580250239687E-08	-37110.6875	3.75234085367993E-05
1	315	73.8424458135657	0.031585693359375	0.0316925048828125	-1.36627197265625E-06	-4.33005808986309E-08	-23196.337890625	3.73979710275307E-05
1	316	73.9431538133115	0.021514892578125	0.0216033935546875	-1.5716552734375E-06	-3.39530892290441E-08	-13745.6318359375	3.72500326193403E-05
1	317	74.0438618130572	0.011444091796875	0.0115264892578125	-1.7230224609375E-06	-1.98603995471558E-08	-6689.6923828125	3.70841335097793E-05
1	318	74.144569812803	0.001373291015625	0.00145874023437501	-1.81121826171875E-06	-2.64209676359428E-09	-805.391723632813	3.6906170862494E-05
1	319	74.2452778125487	-0.008697509765625	-0.008587646484375	-1.83990478515625E-06	1.58004507255782E-08	4667.44091796875	3.67223219654988E-05
1	320	74.3459858122944	-0.018768310546875	-0.0186614990234375	-1.82037353515625E-06	3.39708989827159E-08	10251.466796875	3.65380110451952E-05
1	321	74.4466938120402	-0.028839111328125	-0.0287322998046875	-1.77001953125E-06	5.08567303825203E-08	16232.7587890625	3.63572216883767E-05
1	322	74.5474018117859	-0.038909912109375	-0.0387786865234375	-1.7010498046875E-06	6.59644712186491E-08	22796.9140625	3.61824386345688E-05
1	323	74.6481098115316	-0.048980712890625	-0.0488372802734375	-1.6253662109375E-06	7.93784664665509E-08	30046.94140625	3.60149424523115E-05
1	324	74.7488178112774	-0.059051513671875	-0.0589599609375	-1.55029296875E-06	9.14052122880094E-08	38031.49609375	3.58550350938458E-05
1	325	74.8495258110231	-0.069122314453125	-0.069091796875	-1.47857666015625E-06	1.02157521553181E-07	46728.5859375	3.57025201083161E-05
1	326	74.9502338107689	-0.079193115234375	-0.07916259765625	-1.4141845703125E-06	1.11950527070803E-07	55977.55859375	3.55568554368801E-05
1	327	75.0509418105146	-0.089263916015625	-0.0892333984375	-1.3555908203125E-06	1.20963974836741E-07	65826.203125	3.54173862433527E-05
1	328	75.1516498102603	-0.099334716796875	-0.099273681640625	-1.30401611328125E-06	1.29454477360014E-07	76129.1796875	3.5283464967506E-05
1	329	75.2523578100061	-0.109405517578125	-0.109344482421875	-1.258544921875E-06	1.37614946993381E-07	86881.671875	3.51544294971973E-05
1	330	75.3530658097518	-0.119476318359375	-0.119384765625	-1.2188720703125E-06	1.45514761129562E-07	97946.921875	3.50296832039021E-05
1	331	75.4537738094975	-0.129547119140625	-0.1295166015625	-1.18499755859375E-06	1.53476847231104E-07	109296.9453125	3.49086367350537E-05
1	332	75.5544818092433	-0.139617919921875	-0.13946533203125	-1.15570068359375E-06	1.61180167879138E-07	120676.0078125	3.47907734976616E-05
1	333	75.655189808989	-0.149688720703125	-0.1495361328125	-1.13037109375E-06	1.69031324048774E-07	132289.421875	3.46756605722476E-05
1	334	75.7558978087347	-0.159759521484375	-0.15966796875	-1.10870361328125E-06	1.77024446657015E-07	144013.21875	3.4562915971037E-05
1	335	75.8566058084805	-0.169830322265625	-0.169677734375	-1.090087890625E-06	1.84963639071611E-07	155655.109375	3.4452197724022E-05
1	336	75.9573138082262	-0.179901123046875	-0.17974853515625	-1.0748291015625E-06	1.93198957276763E-07	167234.515625	3.43431856890675E-05
1	337	76.058021807972	-0.189971923828125	-0.1898193359375	-1.06231689453125E-06	2.01648276743072E-07	178684.296875	3.42355706379749E-05
1	338	76.1587298077177	-0.200042724609375	-0.19989013671875	-1.05194091796875E-06	2.10272617096052E-07	190020.3125	3.41291088261642E-05
1	339	76.2594378074634	-0.189971923828125	-0.189788818359375	-9.1522216796875E-07	1.73698921912546E-07	207369.125	3.40300539392047E-05
2	340	76.3601458072092	-0.179901123046875	-0.179718017578125	-8.2275390625E-07	1.47863687516292E-07	218434.734375	3.39425423590001E-05
2	341	76.4608538069549	-0.169830322265625	-0.169677734375	-7.489013671875E-07	1.27071885458463E-07	226568.875	3.38634017680306E-05
2	342	76.5615618067006	-0.159759521484375	-0.159637451171875	-6.878662109375E-07	1.09809207060607E-07	232076.3125	3.37910569214728E-05
2	343	76.6622698064464	-0.149688720703125	-0.14959716796875	-6.34155273437501E-07	9.48678291479155E-08	235899.921875	3.37244855472818E-05
2	344	76.7629778061921	-0.139617919921875	-0.13946533203125	-5.86853027343751E-07	8.18456484807939E-08	237649.515625	3.3663003705442E-05
2	345	76.8636858059378	-0.129547119140625	-0.12939453125	-5.43212890625E-07	7.02887774650662E-08	238202.25	3.36060984409414E-05
2	346	76.9643938056836	-0.119476318359375	-0.119415283203125	-5.0323486328125E-07	6.00939316086624E-08	237295.34375	3.35534059558995E-05
2	347	77.0651018054293	-0.109405517578125	-0.10931396484375	-4.6417236328125E-07	5.07405211180867E-08	235502.953125	3.35046934196725E-05
2	348	77.1658098051751	-0.099334716796875	-0.0992431640625	-4.2694091796875E-07	4.23709671792949E-08	232451.75	3.34598225890659E-05
2	349	77.2665178049208	-0.089263916015625	-0.08917236328125	-3.88183593749999E-07	3.46152475572126E-08	229716.984375	3.34187789121643E-05
2	350	77.3672258046665	-0.079193115234375	-0.079132080078125	-3.47900390625E-07	2.75300795493649E-08	227456.15625	3.33817151840776E-05
2	351	77.4679338044123	-0.069122314453125	-0.069061279296875	-3.033447265625E-07	2.0949373791268E-08	227666.015625	3.33489224431105E-05
2	352	77.568641804158	-0.059051513671875	-0.05902099609375	-2.520751953125E-07	1.48777283826007E-08	234140.453125	3.33209536620416E-05
2	353	77.6693498039037	-0.048980712890625	-0.048834228515625	-1.88598632812501E-07	9.21006826359871E-09	258932.03125	3.32987619913183E-05
2	354	77.7700578036495	-0.038909912109375	-0.03876953125	-1.0986328125E-07	4.25934798542471E-09	352888.90625	3.32837335008662E-05
2	355	77.8707658033952	-0.028839111328125	-0.02869873046875	-9.1552734375E-09	2.62744714873975E-10	3134667	3.32777417497709E-05
2	356	77.971473803141	-0.018768310546875	-0.0186370849609375	1.202392578125E-07	-2.24090923595099E-09	-155000.015625	3.32833369611762E-05
2	357	78.0721818028867	-0.008697509765625	-0.0085906982421875	2.825927734375E-07	-2.4276691767966E-09	-30399.568359375	3.33036186930258E-05
2	358	78.1728898026324	0.001373291015625	0.00145874023437501	4.8248291015625E-07	7.03817226721526E-10	3023.40283203125	3.33421448885929E-05
2	359	78.2735978023782	0.011444091796875	0.011529541015625	7.14721679687499E-07	8.24041190838898E-09	16131.51171875	3.34024298354052E-05
2	360	78.3743058021239	0.021514892578125	0.021624755859375	9.68322753906251E-07	2.09397423844848E-08	22332.177734375	3.34871765517164E-05
2	361	78.4750138018696	0.031585693359375	0.0316619873046875	1.22344970703125E-06	3.87368466192584E-08	25879.2734375	3.35975419147871E-05
2	362	78.5757218016154	0.041656494140625	0.0417449951171875	1.45599365234375E-06	6.07804437890991E-08	28671.140625	3.37324599968269E-05
2	363	78.6764298013611	0.051727294921875	0.051727294921875	1.640625E-06	8.48650927309791E-08	31529.017578125	3.38883874064777E-05
2	364	78.7771378011068	0.061798095703125	0.06182861328125	1.76544189453125E-06	1.09154825622682E-07	35021.609375	3.40598962793592E-05
2	365	78.8778458008526	0.071868896484375	0.071868896484375	1.8292236328125E-06	1.31464275909821E-07	39289.2890625	3.42409039149061E-05
2	366	78.9785538005983	0.081939697265625	0.08197021484375	1.839599609375E-06	1.50792374142839E-07	44558.7265625	3.4425644116709E-05
2	367	79.0792618003441	0.092010498046875	0.092041015625	1.80999755859375E-06	1.66594006145715E-07	50851.4609375	3.46094166161492E-05
2	368	79.1799698000898	0.102081298828125	0.10211181640625	1.75750732421875E-06	1.79462261939989E-07	58100.36328125	3.47890527336858E-05
2	369	79.2806777998355	0.112152099609375	0.1121826171875	1.69219970703125E-06	1.89835390074222E-07	66293.9609375	3.49627589457668E-05
2	370	79.3813857995813	0.122222900390625	0.122283935546875	1.6241455078125E-06	1.98606898038634E-07	75291.2421875	3.512974944897E-05
2	371	79.482093799327	0.132293701171875	0.13232421875	1.556396484375E-06	2.05948950338097E-07	85019.609375	3.52899041899946E-05
2	372	79.5828017990727	0.142364501953125	0.142333984375	1.494140625E-06	2.12666989796162E-07	95261.4375	3.54435105691664E-05
2	373	79.6835097988185	0.152435302734375	0.152496337890625	1.43768310546875E-06	2.1924140014562E-07	106070.8984375	3.55911397491582E-05
2	374	79.7842177985642	0.162506103515625	0.16253662109375	1.38580322265625E-06	2.25243766749372E-07	117286.9453125	3.57333155989181E-05
2	375	79.88492579831	0.172576904296875	0.172637939453125	1.34063720703125E-06	2.31444829523753E-07	128773.0546875	3.58706020051613E-05
2	376	79.9856337980557	0.182647705078125	0.18267822265625	1.3006591796875E-06	2.37602108654755E-07	140450.5	3.6003599234391E-05
2	377	80.0863417978014	0.192718505859375	0.1927490234375	1.2652587890625E-06	2.43877394723313E-07	152339.609375	3.61328056897037E-05
2	378	80.1870497975472	0.202789306640625	0.2027587890625	1.23443603515625E-06	2.50292742975944E-07	164252.171875	3.62586761184502E-05
2	379	80.2877577972929	0.212860107421875	0.212921142578125	1.20697021484375E-06	2.56989466151936E-07	176409.609375	3.63816106982995E-05
2	380	80.3884657970386	0.222930908203125	0.22296142578125	1.1822509765625E-06	2.63596348304418E-07	188590.609375	3.65019150194712E-05
2	381	80.4891737967844	0.233001708984375	0.23297119140625	1.160888671875E-06	2.70453597295273E-07	200683.5	3.66199019481428E-05
2	382	80.5898817965301	0.243072509765625	0.24310302734375	1.14166259765625E-06	2.77541630566702E-07	212937.71875	3.67358443327248E-05
2	383	80.6905897962758	0.253143310546875	0.253082275390625	1.12457275390625E-06	2.84609427581017E-07	225047.5	3.68499604519457E-05
2	384	80.7912977960216	0.263214111328125	0.26318359375	1.1090087890625E-06	2.91872908064761E-07	237314.265625	3.69624285667669E-05
2	385	80.8920057957673	0.273284912109375	0.273284912109375	1.094970703125E-06	2.99238962497839E-07	249581.9375	3.7073408748256E-05
2	386	80.9927137955131	0.283355712890625	0.28338623046875	1.082763671875E-06	3.06840320263291E-07	261724.921875	3.71830647054594E-05
2	387	81.0934217952588	0.293426513671875	0.29339599609375	1.07208251953125E-06	3.14544706725428E-07	273669.25	3.72915710613597E-05
2	388	81.1941297950045	0.303497314453125	0.303497314453125	1.06292724609375E-06	3.22595553825522E-07	285529.71875	3.73990769730881E-05
2	389	81.2948377947503	0.313568115234375	0.3135986328125	1.05438232421875E-06	3.30652852653657E-07	297424.03125	3.75056915800087E-05
2	390	81.395545794496	0.323638916015625	0.323699951171875	1.0467529296875E-06	3.38833871182942E-07	309242	3.76114912796766E-05
2	391	81.4962537942417	0.333709716796875	0.333709716796875	1.04095458984375E-06	3.47376641229857E-07	320580.5	3.77166179532651E-05
2	392	81.5969617939875	0.343780517578125	0.34381103515625	1.03515625E-06	3.55898123416409E-07	332134.46875	3.78211589122657E-05
2	393	81.6976697937332	0.353851318359375	0.353912353515625	1.02996826171875E-06	3.6451845630836E-07	343614.84375	3.79251432605088E-05
2	394	81.7983777934789	0.363922119140625	0.3638916015625	1.02630615234375E-06	3.73464160929871E-07	354564.40625	3.80286874133162E-05
2	395	81.8990857932247	0.373992919921875	0.373992919921875	1.0235595703125E-06	3.82804017817762E-07	365384.625	3.8131904148031E-05
2	396	81.9997937929704	0.384063720703125	0.384033203125	1.021728515625E-06	3.92377671687427E-07	375866.1875	3.82348953280598E-05
2	397	82.1005017927162	0.394134521484375	0.3941650390625	1.0205078125E-06	4.02248474529188E-07	386244.0625	3.83377300749999E-05
2	398	82.2012097924619	0.404205322265625	0.4041748046875	1.0198974609375E-06	4.12216849099423E-07	396289.65625	3.84404702344909E-05
2	399	82.3019177922076	0.414276123046875	0.414276123046875	1.01959228515625E-06	4.223927021485E-07	406315.5	3.85431667382363E-05
2	400	82.4026257919534	0.424346923828125	0.424346923828125	1.02020263671875E-06	4.32919847526136E-07	415943.78125	3.86458777938969E-05
2	401	82.5033337916991	0.434417724609375	0.4344482421875	1.021728515625E-06	4.43888154677552E-07	425209.09375	3.87486979889218E-05
2	402	82.6040417914448	0.444488525390625	0.444549560546875	1.02294921875E-06	4.54751614142879E-07	434576.40625	3.88516564271413E-05
2	403	82.7047497911906	0.454559326171875	0.45452880859375	1.02447509765625E-06	4.65653442915936E-07	443669.96875	3.89547531085555E-05
2	404	82.8054577909363	0.464630126953125	0.464630126953125	1.0272216796875E-06	4.77278092603228E-07	452317.3125	3.90580644307192E-05
2	405	82.9061657906821	0.474700927734375	0.474700927734375	1.0296630859375E-06	4.8878200686886E-07	461025.5	3.91616376873571E-05
2	406	83.0068737904278	0.484771728515625	0.484710693359375	1.03240966796875E-06	5.00419957916165E-07	469494.5625	3.92654692404903E-05
2	407	83.1075817901735	0.494842529296875	0.494781494140625	1.0357666015625E-06	5.12478152359108E-07	477695.96875	3.93696100218222E-05
2	408	83.2082897899193	0.504913330078125	0.504913330078125	1.03973388671875E-06	5.2497551905617E-07	485617.84375	3.94741218769923E-05
2	409	83.308997789665	0.514984130859375	0.514984130859375	1.0443115234375E-06	5.37803828137839E-07	493132.6875	3.95790593756828E-05
2	410	83.4097057894107	0.525054931640625	0.524993896484375	1.0498046875E-06	5.51140999505151E-07	500087.25	3.96845061914064E-05
2	411	83.5104137891565	0.535125732421875	0.535064697265625	1.05560302734375E-06	5.64815877623914E-07	506880.625	3.97905241698027E-05
2	412	83.6111217889022	0.545196533203125	0.54510498046875	1.06231689453125E-06	5.79074196593865E-07	513128.4375	3.98971678805538E-05
2	413	83.7118297886479	0.555267333984375	0.555267333984375	1.070556640625E-06	5.94445168644597E-07	518671.59375	4.00045682908967E-05
2	414	83.8125377883937	0.565338134765625	0.565277099609375	1.0797119140625E-06	6.10336371664744E-07	523544.40625	4.01128418161534E-05
2	415	83.9132457881394	0.575408935546875	0.575408935546875	1.09100341796875E-06	6.27773090400296E-07	527412.625	4.02221448894124E-05
2	416	84.0139537878852	0.585479736328125	0.58544921875	1.1041259765625E-06	6.46409716864582E-07	530237.6875	4.03326812374871E-05
2	417	84.1146617876309	0.595550537109375	0.595550537109375	1.12060546875E-06	6.67377207719255E-07	531454.25	4.04447055188939E-05
2	418	84.2153697873766	0.605621337890625	0.605682373046875	1.14105224609375E-06	6.91115189965785E-07	530810.4375	4.05585888074711E-05
2	419	84.3160777871224	0.615692138671875	0.61566162109375	1.16729736328125E-06	7.1866014650368E-07	527424.875	4.06748222303577E-05
2	420	84.4167857868681	0.625762939453125	0.625762939453125	1.2005615234375E-06	7.51266895804292E-07	521225.21875	4.07940533477813E-05
2	421	84.5174937866138	0.635833740234375	0.635772705078125	1.24420166015625E-06	7.91029435731616E-07	510988.5	4.09171589126345E-05
2	422	84.6182017863596	0.645904541015625	0.6458740234375	1.29852294921875E-06	8.38682183257333E-07	497391.34375	4.10451939387713E-05
2	423	84.7189097861053	0.655975341796875	0.656005859375	1.3653564453125E-06	8.95681807833171E-07	480464.90625	4.11793298553675E-05
2	424	84.8196177858511	0.666046142578125	0.666046142578125	1.44378662109375E-06	9.61628529694281E-07	461318.96875	4.13207817473449E-05
2	425	84.9203257855968	0.676116943359375	0.676116943359375	1.53076171875E-06	1.03497393411089E-06	441686.625	4.14705609728117E-05
2	426	85.0210337853425	0.686187744140625	0.686126708984375	1.6192626953125E-06	1.1110194009234E-06	423727.875	4.16291804867797E-05
2	427	85.1217417850883	0.696258544921875	0.69622802734375	1.70135498046875E-06	1.18453101549676E-06	409219.75	4.17963856307324E-05
2	428	85.222449784834	0.706329345703125	0.706268310546875	1.77154541015625E-06	1.25118640426081E-06	398673.5625	4.19712596340105E-05
2	429	85.3231577845797	0.716400146484375	0.71630859375	1.8231201171875E-06	1.30591661218205E-06	392902.59375	4.21522636315785E-05
2	430	85.4238657843255	0.726470947265625	0.72637939453125	1.85577392578125E-06	1.3479959761753E-06	391415.875	4.23375131504145E-05
2	431	85.5245737840712	0.736541748046875	0.7364501953125	1.87225341796875E-06	1.37882136641565E-06	393349.625	4.25252328568604E-05
2	432	85.6252817838169	0.746612548828125	0.746551513671875	1.87744140625E-06	1.40160670980549E-06	397643.0625	4.27140439569484E-05
2	433	85.7259897835627	0.756683349609375	0.75714111328125	1.8756103515625E-06	1.4201017393134E-06	403677.1875	4.29030260420404E-05
2	434	85.8266977833084	0.766754150390625	0.7666015625	1.87255859375E-06	1.43550630582467E-06	409387.25	4.30917607445735E-05
2	435	85.9274057830542	0.776824951171875	0.77667236328125	1.8707275390625E-06	1.4529423424392E-06	415171.3125	4.32802517025266E-05
2	436	86.0281137827999	0.786895751953125	0.7867431640625	1.875E-06	1.47514344916999E-06	419596.375	4.34688627137803E-05
2	437	86.1288217825456	0.796966552734375	0.79742431640625	1.88751220703125E-06	1.50514813412883E-06	422473.71875	4.3658321374096E-05
2	438	86.2295297822914	0.807037353515625	0.80718994140625	1.91192626953125E-06	1.543287567074E-06	422186.78125	4.38496390415821E-05
2	439	86.3302377820371	0.817108154296875	0.8172607421875	1.9476318359375E-06	1.5917229347906E-06	419617.6875	4.40439835074358E-05
2	440	86.4309457817828	0.827178955078125	0.82763671875	1.99920654296875E-06	1.65461665346811E-06	413982.625	4.42427226516884E-05
2	441	86.5316537815286	0.837249755859375	0.83740234375	2.06298828125E-06	1.7275511936532E-06	405917.1875	4.44472680101171E-05
2	442	86.6323617812743	0.847320556640625	0.84747314453125	2.13623046875E-06	1.8103979755324E-06	396714.28125	4.46587182523217E-05
2	443	86.73306978102	0.857391357421875	0.8575439453125	2.2113037109375E-06	1.89628997304681E-06	387800.1875	4.48776336270384E-05
2	444	86.8337777807658	0.867462158203125	0.86761474609375	2.27935791015625E-06	1.97760459741403E-06	380639.96875	4.5103755837772E-05
2	445	86.9344857805115	0.877532958984375	0.87738037109375	2.33245849609375E-06	2.04645334633824E-06	376161.1875	4.53359789389651E-05
2	446	87.0351937802573	0.887603759765625	0.88775634765625	2.36663818359375E-06	2.10099801734032E-06	375112.8125	4.55725967185572E-05
2	447	87.135901780003	0.897674560546875	0.89752197265625	2.381591796875E-06	2.13753082789481E-06	376858.03125	4.58116883237381E-05
2	448	87.2366097797487	0.907745361328125	0.9075927734375	2.3809814453125E-06	2.16096145777556E-06	381184.3125	4.60515038867015E-05
2	449	87.3373177794945	0.917816162109375	0.91827392578125	2.3675537109375E-06	2.1740627289546E-06	387857.71875	4.62906100437976E-05
2	450	87.4380257792402	0.927886962890625	0.92803955078125	2.3468017578125E-06	2.17792489820567E-06	395448.65625	4.65279990748968E-05
2	451	87.5387337789859	0.937957763671875	0.93780517578125	2.32269287109375E-06	2.17823344428325E-06	403757.71875	4.67631252831779E-05
2	452	87.6394417787317	0.948028564453125	0.948486328125	2.29705810546875E-06	2.17872820940102E-06	412913.53125	4.69957485620398E-05
2	453	87.7401497784774	0.958099365234375	0.95794677734375	2.2723388671875E-06	2.17677961700247E-06	421568.625	4.72258361696731E-05
2	454	87.8408577782232	0.968170166015625	0.96771240234375	2.2479248046875E-06	2.17534466173674E-06	430491.4375	4.74534499517176E-05
2	455	87.9415657779689	0.978240966796875	0.977783203125	2.2265625E-06	2.17709521166398E-06	439144.75	4.76787572551984E-05
2	456	88.0422737777146	0.988311767578125	0.98876953125	2.20703125E-06	2.18224522541277E-06	448008.84375	4.79020091006532E-05
2	457	88.1429817774604	0.998382568359375	0.99822998046875	2.18902587890625E-06	2.18515106098494E-06	456015.65625	4.81233655591495E-05
2	458	88.2436897772061	1.00845336914063	1.00860595703125	2.17376708984375E-06	2.19247453969729E-06	463989.875	4.83430521853734E-05
2	459	88.3443977769518	1.01852416992188	1.01806640625	2.1600341796875E-06	2.19905837184342E-06	471319.5625	4.85612763441168E-05
2	460	88.4451057766976	1.02859497070313	1.02874755859375	2.147216796875E-06	2.20894389713067E-06	479107.46875	4.87781617266592E-05
2	461	88.5458137764433	1.03866577148438	1.03851318359375	2.13592529296875E-06	2.21818663703743E-06	486212.3125	4.89938356622588E-05
2	462	88.646521776189	1.04873657226563	1.0491943359375	2.12554931640625E-06	2.23011443267751E-06	493610.90625	4.92084182042163E-05
2	463	88.7472297759348	1.05880737304688	1.05926513671875	2.11669921875E-06	2.24214545596624E-06	500432.5625	4.94220330438111E-05
2	464	88.8479377756805	1.06887817382813	1.06842041015625	2.10968017578125E-06	2.2540252757608E-06	506437.1875	4.96348475280683E-05
2	465	88.9486457754263	1.07894897460938	1.0791015625	2.10174560546875E-06	2.26799693336943E-06	513431.09375	4.98469089507125E-05
2	466	89.049353775172	1.08901977539063	1.08856201171875	2.09503173828125E-06	2.2805720618635E-06	519592.125	5.00582318636589E-05
2	467	89.1500617749177	1.09909057617188	1.09893798828125	2.08953857421875E-06	2.29627335102123E-06	525923.75	5.02689435961656E-05
2	468	89.2507697746635	1.10916137695313	1.10870361328125	2.0843505859375E-06	2.31092712965619E-06	531918	5.04791169078089E-05
2	469	89.3514777744092	1.11923217773438	1.11968994140625	2.07977294921875E-06	2.32870070249191E-06	538371.25	5.06887954543345E-05
2	470	89.4521857741549	1.12930297851563	1.129150390625	2.07611083984375E-06	2.34424146583478E-06	543877.6875	5.0898059271276E-05
2	471	89.5528937739007	1.13937377929688	1.1395263671875	2.07305908203125E-06	2.36230539485405E-06	549683.5	5.11069883941673E-05
2	472	89.6536017736464	1.14944458007813	1.1492919921875	2.07061767578125E-06	2.37974427363952E-06	555047.875	5.13156373926904E-05
2	473	89.7543097733922	1.15951538085938	1.15997314453125	2.0697021484375E-06	2.40079884861188E-06	560454.1875	5.15241190441884E-05
2	474	89.8550177731379	1.16958618164063	1.16943359375	2.06787109375E-06	2.41823795477103E-06	565525.375	5.17324624524917E-05
2	475	89.9557257728836	1.17965698242188	1.17950439453125	2.06787109375E-06	2.4390628823312E-06	570395.5	5.19407149113249E-05
2	476	90.0564337726294	1.18972778320313	1.1895751953125	2.0684814453125E-06	2.46061404141074E-06	575095.9375	5.21489964739885E-05
2	477	90.1571417723751	1.19979858398438	1.199951171875	2.07000732421875E-06	2.48390756496519E-06	579684.5625	5.23573871760163E-05
2	478	90.2578497721208	1.20986938476563	1.2103271484375	2.0721435546875E-06	2.50797165790573E-06	584094.25	5.25659597769845E-05
2	479	90.3585577718666	1.21994018554688	1.2200927734375	2.0751953125E-06	2.53193070420821E-06	587941.1875	5.27747943124268E-05
2	480	90.4592657716123	1.23001098632813	1.2298583984375	2.078857421875E-06	2.55670011028997E-06	591603.125	5.29839671798982E-05
2	481	90.559973771358	1.24008178710938	1.2396240234375	2.0843505859375E-06	2.58381101048144E-06	594729.125	5.3193602070678E-05
2	482	90.6606817711038	1.25015258789063	1.25030517578125	2.09014892578125E-06	2.6133238861803E-06	598189.5	5.34038044861518E-05
2	483	90.7613897708495	1.26022338867188	1.2603759765625	2.09808349609375E-06	2.64437403529882E-06	600727.25	5.36146981175989E-05
2	484	90.8620977705953	1.27029418945313	1.27044677734375	2.10662841796875E-06	2.67635937234445E-06	603071.125	5.38264248461928E-05
2	485	90.962805770341	1.28036499023438	1.280517578125	2.11639404296875E-06	2.71007957053371E-06	605046.875	5.40390683454461E-05
2	486	91.0635137700867	1.29043579101563	1.2908935546875	2.1282958984375E-06	2.74740341410507E-06	606538.625	5.42528068763204E-05
2	487	91.1642217698325	1.30050659179688	1.30035400390625	2.1417236328125E-06	2.78499896921858E-06	607153.0625	5.44678186997771E-05
2	488	91.2649297695782	1.31057739257813	1.3104248046875	2.15667724609375E-06	2.82616338154185E-06	607612.8125	5.4684260248905E-05
2	489	91.3656377693239	1.32064819335938	1.32080078125	2.1734619140625E-06	2.87070997728733E-06	607694.5	5.49023025087081E-05
2	490	91.4663457690697	1.33071899414063	1.33056640625	2.19207763671875E-06	2.91670471597172E-06	606988.75	5.51221237401478E-05
2	491	91.5670537688154	1.34078979492188	1.34033203125	2.21160888671875E-06	2.96429038826318E-06	606043.875	5.53438658243977E-05
2	492	91.6677617685611	1.35086059570313	1.35040283203125	2.23175048828125E-06	3.01376212519244E-06	605086.875	5.55676087969914E-05
2	493	91.7684697683069	1.36093139648438	1.36138916015625	2.25311279296875E-06	3.06736342281511E-06	604225.9375	5.57934399694204E-05
2	494	91.8691777680526	1.37100219726563	1.37115478515625	2.2760009765625E-06	3.1207496249408E-06	602440.3125	5.60214975848794E-05
2	495	91.9698857677984	1.38107299804688	1.3812255859375	2.29827880859375E-06	3.17444141728629E-06	600982.625	5.62518325750716E-05
2	496	92.0705937675441	1.39114379882813	1.39129638671875	2.32086181640625E-06	3.22900655191916E-06	599474.0625	5.64844231121242E-05
2	497	92.1713017672898	1.40121459960938	1.4013671875	2.342529296875E-06	3.28274381899973E-06	598228.25	5.67192437301856E-05
2	498	92.2720097670356	1.41128540039063	1.4117431640625	2.36541748046875E-06	3.33936191054818E-06	596826.25	5.69563089811709E-05
2	499	92.3727177667813	1.42135620117188	1.4208984375	2.39044189453125E-06	3.39657503900526E-06	594408.3125	5.71957825741265E-05
2	500	92.473425766527	1.43142700195313	1.43157958984375	2.4188232421875E-06	3.46273805007513E-06	591849.625	5.74379482713994E-05
2	501	92.5741337662728	1.44149780273438	1.44134521484375	2.452392578125E-06	3.53474410985655E-06	587730.25	5.76832353544887E-05
2	502	92.6748417660185	1.45156860351563	1.4520263671875	2.49359130859375E-06	3.62076025339775E-06	582303.3125	5.79322841076646E-05
2	503	92.7755497657643	1.46163940429688	1.46148681640625	2.5433349609375E-06	3.71705027646385E-06	574634.0625	5.81859130761586E-05
2	504	92.87625776551	1.47171020507813	1.4715576171875	2.6043701171875E-06	3.83248061552877E-06	565034	5.84451227041427E-05
2	505	92.9769657652557	1.48178100585938	1.48101806640625	2.67822265625E-06	3.96649602407706E-06	552985.375	5.87111208005808E-05
2	506	93.0776737650015	1.49185180664063	1.49200439453125	2.767333984375E-06	4.12887447964749E-06	539148.6875	5.89853261772078E-05
2	507	93.1783817647472	1.50192260742188	1.5020751953125	2.87078857421875E-06	4.31213993579149E-06	523227.40625	5.92692304053344E-05
2	508	93.2790897644929	1.49185180664063	1.49200439453125	2.59979248046875E-06	3.87890167985461E-06	573893.6875	5.95446945226286E-05
2	509	93.3797977642387	1.48178100585938	1.48162841796875	2.4072265625E-06	3.56661507794342E-06	615491.9375	5.97968173678964E-05
2	510	93.4805057639844	1.47171020507813	1.4715576171875	2.25799560546875E-06	3.32277045345108E-06	651709.75	6.0031728935428E-05
2	511	93.5812137637301	1.46163940429688	1.4617919921875	2.138671875E-06	3.12629322252178E-06	683504.5625	6.02531217737123E-05
2	512	93.6819217634759	1.45156860351563	1.451416015625	2.041015625E-06	2.9623624868691E-06	711124.4375	6.04635861236602E-05
2	513	93.7826297632216	1.44149780273438	1.441650390625	1.96044921875E-06	2.82628252534778E-06	735367.375	6.0665075579891E-05
2	514	93.8833377629674	1.43142700195313	1.4312744140625	1.89361572265625E-06	2.71028375209426E-06	755842.0625	6.08591399213765E-05
2	515	93.9840457627131	1.42135620117188	1.4208984375	1.83685302734375E-06	2.60998149315128E-06	773550.4375	6.10469869570807E-05
2	516	94.0847537624588	1.41128540039063	1.4111328125	1.788330078125E-06	2.52357108365686E-06	789078.5625	6.12295261817053E-05
2	517	94.1854617622046	1.40121459960938	1.4013671875	1.74774169921875E-06	2.44922784986557E-06	801816	6.14075834164396E-05
2	518	94.2861697619503	1.39114379882813	1.3916015625	1.7120361328125E-06	2.38247207562381E-06	812834.25	6.15817989455536E-05
2	519	94.386877761696	1.38107299804688	1.3812255859375	1.6802978515625E-06	2.320870407857E-06	822012.375	6.17526166024618E-05
2	520	94.4875857614418	1.37100219726563	1.370849609375	1.6522216796875E-06	2.26494739763439E-06	829700.8125	6.19204220129177E-05
2	521	94.5882937611875	1.36093139648438	1.361083984375	1.627197265625E-06	2.21475215766986E-06	836459.125	6.20855498709716E-05
2	522	94.6890017609333	1.35086059570313	1.35101318359375	1.60430908203125E-06	2.16744274439407E-06	842115.25	6.22482693870552E-05
2	523	94.789709760679	1.34078979492188	1.3409423828125	1.58294677734375E-06	2.12264035326371E-06	847117.8125	6.24087624601088E-05
2	524	94.8904177604247	1.33071899414063	1.33087158203125	1.563720703125E-06	2.08111123356503E-06	851092.9375	6.25672109890729E-05
2	525	94.9911257601705	1.32064819335938	1.32110595703125	1.54510498046875E-06	2.04124739866529E-06	855026.6875	6.27237532171421E-05
2	526	95.0918337599162	1.31057739257813	1.31072998046875	1.52801513671875E-06	2.00281510842615E-06	857799.125	6.28784982836805E-05
2	527	95.1925417596619	1.30050659179688	1.30035400390625	1.51214599609375E-06	1.96632504412264E-06	859939.4375	6.30315771559253E-05
2	528	95.2932497594077	1.29043579101563	1.29058837890625	1.49627685546875E-06	1.93107734958176E-06	862533.1875	6.31830625934526E-05
2	529	95.3939577591534	1.28036499023438	1.28021240234375	1.48162841796875E-06	1.89679906270612E-06	864057.6875	6.33330128039233E-05
2	530	95.4946657588991	1.27029418945313	1.2701416015625	1.46728515625E-06	1.86365980425762E-06	865640.625	6.34815078228712E-05
2	531	95.5953737586449	1.26022338867188	1.26007080078125	1.45263671875E-06	1.83042504886544E-06	867437	6.3628533098381E-05
2	532	95.6960817583906	1.25015258789063	1.25030517578125	1.43890380859375E-06	1.79906874109292E-06	868929	6.37741322861984E-05
2	533	95.7967897581364	1.24008178710938	1.240234375	1.42578125E-06	1.7683028090687E-06	869863.0625	6.39183854218572E-05
2	534	95.8974977578821	1.23001098632813	1.2298583984375	1.4129638671875E-06	1.73774537870486E-06	870410.4375	6.40613288851455E-05
2	535	95.9982057576278	1.21994018554688	1.21978759765625	1.4007568359375E-06	1.70862574577768E-06	870806.125	6.42030063318089E-05
2	536	96.0989137573736	1.20986938476563	1.21002197265625	1.387939453125E-06	1.67943710494001E-06	871811.8125	6.43434323137626E-05
2	537	96.1996217571193	1.19979858398438	1.19964599609375	1.3751220703125E-06	1.64965956628293E-06	872392.4375	6.4482563175261E-05
2	538	96.300329756865	1.18972778320313	1.1895751953125	1.36260986328125E-06	1.62092692335136E-06	873012.3125	6.46204134682193E-05
2	539	96.4010377566108	1.17965698242188	1.17919921875	1.35009765625E-06	1.5920339819786E-06	873417.75	6.4757012296468E-05
2	540	96.5017457563565	1.16958618164063	1.16973876953125	1.337890625E-06	1.56498242631642E-06	874315.75	6.48923669359647E-05
2	541	96.6024537561022	1.15951538085938	1.15936279296875	1.3262939453125E-06	1.53765586219379E-06	874137.125	6.50265137664974E-05
2	542	96.703161755848	1.14944458007813	1.1492919921875	1.31378173828125E-06	1.50991877490014E-06	874796.75	6.51594527880661E-05
2	543	96.8038697555937	1.13937377929688	1.138916015625	1.3006591796875E-06	1.48134154187574E-06	875645.25	6.52911039651372E-05
2	544	96.9045777553395	1.12930297851563	1.129150390625	1.2890625E-06	1.45554531627567E-06	875947	6.54215036774985E-05
2	545	97.0052857550852	1.11923217773438	1.11907958984375	1.2762451171875E-06	1.42821977533458E-06	876853.25	6.55506810289808E-05
2	546	97.1059937548309	1.10916137695313	1.1090087890625	1.26373291015625E-06	1.40149086291785E-06	877565.8125	6.56785778119229E-05
2	547	97.2067017545767	1.09909057617188	1.09954833984375	1.251220703125E-06	1.37577751502249E-06	878780.5625	6.58052158541977E-05
2	548	97.3074097543224	1.08901977539063	1.08917236328125	1.23809814453125E-06	1.34850222366367E-06	879714.125	6.59305587760173E-05
2	549	97.4081177540681	1.07894897460938	1.0791015625	1.2255859375E-06	1.32253171614138E-06	880478.0625	6.60546211292967E-05
2	550	97.5088257538139	1.06887817382813	1.0687255859375	1.2127685546875E-06	1.29611680677044E-06	881228	6.61773956380785E-05
2	551	97.6095337535596	1.05880737304688	1.0589599609375	1.199951171875E-06	1.27070018152153E-06	882502.5625	6.62988895783201E-05
2	552	97.7102417533054	1.04873657226563	1.0491943359375	1.18682861328125E-06	1.2452138662411E-06	884031.875	6.64190738461912E-05
2	553	97.8109497530511	1.03866577148438	1.038818359375	1.1737060546875E-06	1.21926734664157E-06	885075.4375	6.65379338897765E-05
2	554	97.9116577527968	1.02859497070313	1.029052734375	1.1602783203125E-06	1.19398760034528E-06	886901.625	6.66554624331184E-05
2	555	98.0123657525426	1.01852416992188	1.01837158203125	1.1474609375E-06	1.16854164389224E-06	887500	6.67716667521745E-05
2	556	98.1130737522883	1.00845336914063	1.00830078125	1.13433837890625E-06	1.14375427529012E-06	888888.875	6.68865613988601E-05
2	557	98.213781752034	0.998382568359375	0.99853515625	1.12060546875E-06	1.11896395083022E-06	891067.5625	6.7000109993387E-05
2	558	98.3144897517798	0.988311767578125	0.98846435546875	1.10565185546875E-06	1.09289737793006E-06	894010.5625	6.71122106723487E-05
2	559	98.4151977515255	0.978240966796875	0.97808837890625	1.0906982421875E-06	1.06679920008901E-06	896754.375	6.72228052280843E-05
2	560	98.5159057512712	0.968170166015625	0.96832275390625	1.0736083984375E-06	1.03959939679044E-06	901932.9375	6.73317845212296E-05
2	561	98.616613751017	0.958099365234375	0.95794677734375	1.0540771484375E-06	1.00974978067825E-06	908801.4375	6.74389229970984E-05
2	562	98.7173217507627	0.948028564453125	0.94818115234375	1.031494140625E-06	9.78043203758716E-07	919230.8125	6.75439368933439E-05
2	563	98.8180297505085	0.937957763671875	0.9381103515625	1.0040283203125E-06	9.41889311434352E-07	934346.5625	6.76464333082549E-05
2	564	98.9187377502542	0.927886962890625	0.927734375	9.6954345703125E-07	8.99478720839397E-07	956877.625	6.77458156133071E-05
2	565	99.0194457499999	0.917816162109375	0.91796875	9.26513671875E-07	8.50510559757822E-07	990777.375	6.78412907291204E-05
2	566	99.1201537497457	0.907745361328125	0.90789794921875	8.7249755859375E-07	7.92138735050685E-07	1040573.625	6.7931876401417E-05
2	567	99.2208617494914	0.897674560546875	0.8978271484375	8.0596923828125E-07	7.23621042197919E-07	1113972	6.80163939250633E-05
2	568	99.3215697492371	0.887603759765625	0.887451171875	7.2601318359375E-07	6.44301223928778E-07	1222362.375	6.80935336276889E-05
2	569	99.4222777489829	0.877532958984375	0.8770751953125	6.353759765625E-07	5.57272471723991E-07	1380403.5	6.81620877003297E-05
2	570	99.5229857487286	0.867462158203125	0.86700439453125	5.389404296875E-07	4.67263703285425E-07	1608720.375	6.82212194078602E-05
2	571	99.6236937484744	0.857391357421875	0.8575439453125	4.443359375E-07	3.81037580154953E-07	1929945	6.82707250234671E-05
2	572	99.7244017482201	0.847320556640625	0.84747314453125	3.60107421875E-07	3.05181345083838E-07	2353390	6.83112375554629E-05
2	573	99.8251097479658	0.837249755859375	0.83770751953125	2.93579101562499E-07	2.45933421183508E-07	2853430.5	6.83441539877094E-05
2	574	99.9258177477116	0.827178955078125	0.82672119140625	2.48107910156251E-07	2.05116066354094E-07	3332103.25	6.83714242768474E-05
2	575	100.026525747457	0.817108154296875	0.8172607421875	2.21862792968749E-07	1.81319748548958E-07	3683631.5	6.83950929669663E-05
2	576	100.127233747203	0.807037353515625	0.8074951171875	2.12707519531249E-07	1.71760277112298E-07	3796269.75	6.84169717715122E-05
2	577	100.227941746949	0.796966552734375	0.797119140625	2.13623046875E-07	1.70283016132089E-07	3731428.75	6.84384431224316E-05
2	578	100.328649746695	0.786895751953125	0.78704833984375	2.18811035156249E-07	1.72214853932928E-07	3596931.75	6.84602200635709E-05
2	579	100.42935774644	0.776824951171875	0.77728271484375	2.2308349609375E-07	1.73398944980363E-07	3484268.25	6.84824699419551E-05
2	580	100.530065746186	0.766754150390625	0.76690673828125	2.215576171875E-07	1.69914031289409E-07	3461432.5	6.85048580635339E-05
2	581	100.630773745932	0.756683349609375	0.7568359375	2.1209716796875E-07	1.60522759529158E-07	3568345.5	6.85266932123341E-05
2	582	100.731481745677	0.746612548828125	0.74652099609375	1.922607421875E-07	1.43526676765759E-07	3882857.25	6.85470513417386E-05
2	583	100.832189745423	0.736541748046875	0.73651123046875	1.59606933593751E-07	1.17552296785561E-07	4614531.5	6.85647755744867E-05
2	584	100.932897745169	0.726470947265625	0.726409912109375	1.13525390624999E-07	8.24659664999672E-08	6398656	6.85785271343775E-05
2	585	101.033605744915	0.716400146484375	0.71630859375	5.340576171875E-08	3.82550062738574E-08	13412572	6.85869308654219E-05
2	586	101.13431374466	0.706329345703125	0.706298828125	-1.80053710937503E-08	-1.27171730923692E-08	-39227116	6.85887134750374E-05
2	587	101.235021744406	0.696258544921875	0.69622802734375	-9.49096679687497E-08	-6.60787691231235E-08	-7335691.5	6.85830309521407E-05
2	588	101.335729744152	0.686187744140625	0.68609619140625	-1.67236328125001E-07	-1.14740203116526E-07	-4102555	6.85698250890709E-05
2	589	101.436437743898	0.676116943359375	0.676025390625	-2.276611328125E-07	-1.5390470764487E-07	-2969437	6.8549947172869E-05
2	590	101.537145743643	0.666046142578125	0.665985107421875	-2.70690917968749E-07	-1.80276117589528E-07	-2460315.75	6.85248523950577E-05
2	591	101.637853743389	0.655975341796875	0.655914306640625	-2.92358398437501E-07	-1.9176204091309E-07	-2243528.25	6.84964979882352E-05
2	592	101.738561743135	0.645904541015625	0.645904541015625	-2.95104980468749E-07	-1.90609640071671E-07	-2188728	6.84669139445759E-05
2	593	101.839269742881	0.635833740234375	0.63580322265625	-2.81677246093751E-07	-1.79091301788503E-07	-2257204.75	6.84378755977377E-05
2	594	101.939977742626	0.625762939453125	0.625762939453125	-2.5634765625E-07	-1.60412852778791E-07	-2441071.5	6.84107799315825E-05
2	595	102.040685742372	0.615692138671875	0.61566162109375	-2.2308349609375E-07	-1.37343945993962E-07	-2759781.25	6.83866383042186E-05
2	596	102.141393742118	0.605621337890625	0.6055908203125	-1.8310546875E-07	-1.10886993809345E-07	-3307333.25	6.83661855873652E-05
2	597	102.242101741864	0.595550537109375	0.595489501953125	-1.3885498046875E-07	-8.2686675284549E-08	-4288571.5	6.83499747538008E-05
2	598	102.342809741609	0.585479736328125	0.58544921875	-9.55200195312506E-08	-5.59221184914804E-08	-6129074	6.83381731505506E-05
2	599	102.443517741355	0.575408935546875	0.575408935546875	-5.67626953124997E-08	-3.26617630719284E-08	-10137097	6.83305042912252E-05
2	600	102.544225741101	0.565338134765625	0.565338134765625	-2.50244140624994E-08	-1.41472549231025E-08	-22591464	6.83263860992156E-05
2	601	102.644933740846	0.555267333984375	0.555328369140625	2.13623046874945E-09	1.18630927303798E-09	259957168	6.83252364979126E-05
2	602	102.745641740592	0.545196533203125	0.545166015625	2.50244140624994E-08	1.36424596064444E-08	21785366	6.8326604377944E-05
2	603	102.846349740338	0.535125732421875	0.53509521484375	4.54711914062503E-08	2.4331415104939E-08	11767786	6.83301550452597E-05
2	604	102.947057740084	0.525054931640625	0.525054931640625	6.31713867187495E-08	3.31684475440852E-08	8311594.5	6.8335619289428E-05
2	605	103.047765739829	0.514984130859375	0.514984130859375	7.87353515625006E-08	4.05474551712359E-08	6540698	6.83427715557627E-05
2	606	103.148473739575	0.504913330078125	0.50482177734375	9.27734375000003E-08	4.68340495274333E-08	5441447.5	6.83514008414932E-05
2	607	103.249181739321	0.494842529296875	0.494842529296875	1.0498046875E-07	5.19487990402467E-08	4713663	6.8361361627467E-05
2	608	103.349889739067	0.484771728515625	0.484771728515625	1.1566162109375E-07	5.60694850548771E-08	4191293	6.83724720147438E-05
2	609	103.450597738812	0.474700927734375	0.474700927734375	1.26037597656251E-07	5.98301639342935E-08	3766344	6.83846446918324E-05
2	610	103.551305738558	0.464630126953125	0.464630126953125	1.3458251953125E-07	6.25310931923195E-08	3452381	6.83977632434107E-05
2	611	103.652013738304	0.454559326171875	0.45458984375	1.42822265625001E-07	6.49255511575575E-08	3182906.25	6.841173308203E-05
2	612	103.75272173805	0.444488525390625	0.444488525390625	1.495361328125E-07	6.64670949390711E-08	2972449	6.84264523442835E-05
2	613	103.853429737795	0.434417724609375	0.4344482421875	1.556396484375E-07	6.76173712577111E-08	2791372.75	6.84418191667646E-05
2	614	103.954137737541	0.424346923828125	0.424407958984375	1.61132812500001E-07	6.83860434946837E-08	2633901.75	6.84577753418125E-05
2	615	104.054845737287	0.414276123046875	0.41424560546875	1.66015625E-07	6.8771242922594E-08	2495220.5	6.8474248109851E-05
2	616	104.155553737033	0.404205322265625	0.40423583984375	1.70288085937501E-07	6.88365418000103E-08	2373835.25	6.84911792632192E-05
2	617	104.256261736778	0.394134521484375	0.394134521484375	1.74865722656251E-07	6.89206132165054E-08	2253926.75	6.85085615259595E-05
2	618	104.356969736524	0.384063720703125	0.384124755859375	1.7822265625E-07	6.84597338818094E-08	2155308.25	6.8526336690411E-05
2	619	104.45767773627	0.373992919921875	0.3740234375	1.82189941406249E-07	6.81433078852933E-08	2052931.375	6.85444902046584E-05
2	620	104.558385736015	0.363922119140625	0.363983154296875	1.8585205078125E-07	6.7647015100647E-08	1958456.5	6.85630220687017E-05
2	621	104.659093735761	0.353851318359375	0.353851318359375	1.89208984375E-07	6.69518485096887E-08	1870161.375	6.85819031787105E-05
2	622	104.759801735507	0.343780517578125	0.343780517578125	1.922607421875E-07	6.60954952991233E-08	1788095.25	6.86011117068119E-05
2	623	104.860509735253	0.333709716796875	0.333740234375	1.94396972656249E-07	6.48780869028087E-08	1716797.625	6.86205821693875E-05
2	624	104.961217734998	0.323638916015625	0.323638916015625	1.96533203125E-07	6.36057890801567E-08	1646739.25	6.86402709106915E-05
2	625	105.061925734744	0.313568115234375	0.313629150390625	1.983642578125E-07	6.22128126792632E-08	1581077	6.8660156102851E-05
2	626	105.16263373449	0.303497314453125	0.303436279296875	2.00500488281249E-07	6.08391204082182E-08	1513394.25	6.86802377458662E-05
2	627	105.263341734236	0.293426513671875	0.29339599609375	2.0172119140625E-07	5.91841917696456E-08	1454462.875	6.87004940118641E-05
2	628	105.364049733981	0.283355712890625	0.28338623046875	2.03552246093749E-07	5.76839056520839E-08	1392203.875	6.87209030729719E-05
2	629	105.464757733727	0.273284912109375	0.273284912109375	2.032470703125E-07	5.55443584460136E-08	1344594.625	6.87413848936558E-05
2	630	105.565465733473	0.263214111328125	0.26324462890625	2.03857421875001E-07	5.36643689486027E-08	1291317.375	6.87618812662549E-05
2	631	105.666173733219	0.253143310546875	0.253173828125	2.032470703125E-07	5.14568370135748E-08	1245645.625	6.87823849148117E-05
2	632	105.766881732964	0.243072509765625	0.243133544921875	2.0294189453125E-07	4.93419811675722E-08	1198045.125	6.88028376316652E-05
2	633	105.86758973271	0.233001708984375	0.233001708984375	2.01416015625E-07	4.69302747774236E-08	1156818.25	6.88231957610697E-05
2	634	105.968297732456	0.222930908203125	0.222930908203125	2.001953125E-07	4.46297221401437E-08	1113567.125	6.88434156472795E-05
2	635	106.069005732202	0.212860107421875	0.212890625	1.97448730468749E-07	4.20349834939771E-08	1078207.125	6.88634390826337E-05
2	636	106.169713731947	0.202789306640625	0.20281982421875	1.94702148437501E-07	3.94894534849755E-08	1041692.8125	6.88831860315986E-05
2	637	106.270421731693	0.192718505859375	0.192718505859375	1.9073486328125E-07	3.6758134314141E-08	1010400.0625	6.89025982865132E-05
2	638	106.371129731439	0.182647705078125	0.182708740234375	1.849365234375E-07	3.37895187385584E-08	987953.8125	6.89215157763101E-05
2	639	106.471837731184	0.172576904296875	0.172607421875	1.7730712890625E-07	3.06045251363685E-08	973494	6.89397566020489E-05
2	640	106.57254573093	0.162506103515625	0.1624755859375	1.67236328125001E-07	2.7171820349281E-08	971532.875	6.89571024850011E-05
2	641	106.673253730676	0.152435302734375	0.15252685546875	1.5289306640625E-07	2.33202985810976E-08	997604.8125	6.89732260070741E-05
2	642	106.773961730422	0.142364501953125	0.142364501953125	1.33361816406249E-07	1.8985987892961E-08	1067505.75	6.89876396791078E-05
2	643	106.874669730167	0.132293701171875	0.13238525390625	1.0650634765625E-07	1.40998688280547E-08	1242980	6.89997177687474E-05
2	644	106.975377729913	0.122222900390625	0.12225341796875	6.95800781250006E-08	8.50640180516393E-09	1757017.625	6.90085798851214E-05
2	645	107.076085729659	0.112152099609375	0.1121826171875	1.73950195312494E-08	1.95141880432459E-09	6449123	6.90129600116052E-05
2	646	107.176793729405	0.102081298828125	0.10211181640625	-5.4931640625E-08	-5.60916957326185E-09	-1858888.875	6.90110682626255E-05
2	647	107.27750172915	0.092010498046875	0.092041015625	-1.52587890625E-07	-1.40443443541471E-08	-603200	6.90006199874915E-05
2	648	107.378209728896	0.081939697265625	0.082000732421875	-2.8106689453125E-07	-2.30476899787391E-08	-291748.09375	6.89787848386914E-05
2	649	107.478917728642	0.071868896484375	0.07183837890625	-4.47692871093749E-07	-3.21615303278122E-08	-160463.53125	6.8942092184443E-05
2	650	107.579625728388	0.061798095703125	0.061859130859375	-6.5032958984375E-07	-4.02288229395253E-08	-95119.6640625	6.88868021825328E-05
2	651	107.680333728133	0.051727294921875	0.051788330078125	-8.84094238281249E-07	-4.57857645130844E-08	-58577.83984375	6.88095387886278E-05
2	652	107.781041727879	0.041656494140625	0.04173583984375	-1.134033203125E-06	-4.73298236158826E-08	-36803.015625	6.87079154886305E-05
2	653	107.881749727625	0.031585693359375	0.031671142578125	-1.3787841796875E-06	-4.36676721449203E-08	-22970.341796875	6.85813865857199E-05
2	654	107.982457727371	0.021514892578125	0.0216217041015625	-1.59027099609375E-06	-3.43843673533684E-08	-13596.2392578125	6.84318802086636E-05
2	655	108.083165727116	0.011444091796875	0.0115447998046875	-1.74957275390625E-06	-2.01984651226894E-08	-6598.6396484375	6.82637037243694E-05
2	656	108.183873726862	0.001373291015625	0.0014678955078125	-1.8450927734375E-06	-2.70840327942778E-09	-795.567321777344	6.80826997268014E-05
2	657	108.284581726608	-0.008697509765625	-0.0085906982421875	-1.87957763671875E-06	1.61468829418254E-08	4570.54736328125	6.78951473673806E-05
2	658	108.385289726353	-0.018768310546875	-0.0186553955078125	-1.865234375E-06	3.47966846447889E-08	10001.6357421875	6.77065836498514E-05
2	659	108.485997726099	-0.028839111328125	-0.02872314453125	-1.81640625E-06	5.21728971136781E-08	15813.1728515625	6.75211995257996E-05
2	660	108.586705725845	-0.038909912109375	-0.0387908935546875	-1.7486572265625E-06	6.78319693747653E-08	22183.24609375	6.73416798235849E-05
2	661	108.687413725591	-0.048980712890625	-0.04884033203125	-1.673583984375E-06	8.17383991602583E-08	29183.080078125	6.71693560434505E-05
2	662	108.788121725336	-0.059051513671875	-0.058990478515625	-1.59759521484375E-06	9.42429068118145E-08	36924.546875	6.70046429149806E-05
2	663	108.888829725082	-0.069122314453125	-0.069091796875	-1.52587890625E-06	1.05425712604301E-07	45280.00390625	6.68473585392348E-05
2	664	108.989537724828	-0.079193115234375	-0.079132080078125	-1.4599609375E-06	1.15529743993648E-07	54201.5078125	6.6697015427053E-05
2	665	109.090245724574	-0.089263916015625	-0.089202880859375	-1.40106201171875E-06	1.24978754456606E-07	63668.05078125	6.65529514662921E-05
2	666	109.190953724319	-0.099334716796875	-0.09930419921875	-1.3482666015625E-06	1.33888534037396E-07	73653.2421875	6.64145118207671E-05
2	667	109.291661724065	-0.109405517578125	-0.10931396484375	-1.3037109375E-06	1.42513798095933E-07	83848.3203125	6.62809688947164E-05
2	668	109.392369723811	-0.119476318359375	-0.119384765625	-1.2646484375E-06	1.50979758473113E-07	94401.546875	6.61516460240819E-05
2	669	109.493077723557	-0.129547119140625	-0.129425048828125	-1.23077392578125E-06	1.59292980583814E-07	105157.453125	6.60259902360849E-05
2	670	109.593785723302	-0.139617919921875	-0.13946533203125	-1.2017822265625E-06	1.67606955869815E-07	116048.7578125	6.59034994896501E-05
2	671	109.694493723048	-0.149688720703125	-0.149566650390625	-1.17767333984375E-06	1.76140659391422E-07	127001.8203125	6.57836862956174E-05
2	672	109.795201722794	-0.159759521484375	-0.15960693359375	-1.1572265625E-06	1.84701377747842E-07	137921.953125	6.56661140965298E-05
2	673	109.895909722539	-0.169830322265625	-0.169677734375	-1.1407470703125E-06	1.9355937297405E-07	148742.640625	6.55504045425914E-05
2	674	109.996617722285	-0.179901123046875	-0.179718017578125	-1.12701416015625E-06	2.02544740091071E-07	159463.859375	6.54362083878368E-05
2	675	110.097325722031	-0.189971923828125	-0.1898193359375	-1.11663818359375E-06	2.1195951660502E-07	169991.8125	6.53232345939614E-05
2	676	110.198033721777	-0.200042724609375	-0.19989013671875	-1.1090087890625E-06	2.21679911760475E-07	180242.171875	6.52111630188301E-05
2	677	110.298741721522	-0.189971923828125	-0.189849853515625	-9.64965820312499E-07	1.83198622494274E-07	196742.578125	6.51067311991937E-05
