Potential - Start -0.2 V, Upper Vertex 1.5 V, Lower Vertex -0.2 V, Stop -0.19 V; Scan - # end cross 5, Rate 0.1 Vps, Step 0.01 V 
Scan	Index	Time (s)	Potential applied (V)	WE(1).Potential (V)	WE(1).Current (A)	WE(1).Power (W)	WE(1).Resistance (Ω)	WE(1).Charge (C)
1	1	64.511546837124	-0.189971923828125	-0.18988037109375	-2.00805664062501E-07	3.81290519158028E-08	945592.75	0
1	2	64.6122548368697	-0.179901123046875	-0.17974853515625	-1.6357421875E-07	2.9402224654973E-08	1098880.625	-1.83479844650947E-08
1	3	64.7129628366155	-0.169830322265625	-0.169677734375	-1.35192871093751E-07	2.29392185246979E-08	1255079.125	-3.33921015283067E-08
1	4	64.8136708363612	-0.159759521484375	-0.159637451171875	-1.11999511718749E-07	1.78793158056578E-08	1425340.625	-4.58392257485229E-08
1	5	64.9143788361069	-0.149688720703125	-0.149566650390625	-9.03320312499997E-08	1.35106592580314E-08	1655743.25	-5.60274280303474E-08
1	6	65.0150868358527	-0.139617919921875	-0.139556884765625	-7.11059570312506E-08	9.92332616078784E-09	1962660.875	-6.41564739112255E-08
1	7	65.1157948355984	-0.129547119140625	-0.12945556640625	-5.27954101562506E-08	6.83465950501727E-09	2452023.25	-7.03954086134218E-08
1	8	65.2165028353442	-0.119476318359375	-0.119384765625	-3.38745117187497E-08	4.04410060994564E-09	3524324.5	-7.47595834127424E-08
1	9	65.3172108350899	-0.109405517578125	-0.10931396484375	-1.43432617187494E-08	1.56791879479812E-09	7621276.5	-7.71875434679714E-08
1	10	65.4179188348356	-0.099334716796875	-0.09918212890625	6.40869140624972E-09	-6.35627661615956E-10	-15476191	-7.75870816482893E-08
1	11	65.5186268345814	-0.089263916015625	-0.089202880859375	2.92968749999997E-08	-2.61336552398461E-09	-3044791.75	-7.57891598368587E-08
1	12	65.6193348343271	-0.079193115234375	-0.07916259765625	5.55419921874995E-08	-4.39684821884612E-09	-1425274.75	-7.15171850629304E-08
1	13	65.7200428340728	-0.069122314453125	-0.069091796875	8.94165039062506E-08	-6.17794704282915E-09	-772696.25	-6.42179429632961E-08
1	14	65.8207508338186	-0.059051513671875	-0.058990478515625	1.33056640625E-07	-7.84907427942017E-09	-443348.65625	-5.30155332967297E-08
1	15	65.9214588335643	-0.048980712890625	-0.0488128662109375	1.910400390625E-07	-9.32521171392864E-09	-255511.1875	-3.66959689301893E-08
1	16	66.0221668333101	-0.038909912109375	-0.0387542724609375	2.685546875E-07	-1.04076418594445E-08	-144306.828125	-1.35535369594209E-08
1	17	66.1228748330558	-0.028839111328125	-0.0287078857421875	3.7109375E-07	-1.06533164512257E-08	-77360.203125	1.86553208436635E-08
1	18	66.2235828328015	-0.018768310546875	-0.0186370849609375	5.04150390624999E-07	-9.39589295256837E-09	-36967.31640625	6.27273593067912E-08
1	19	66.3242908325473	-0.008697509765625	-0.0085784912109375	6.6986083984375E-07	-5.74639535955157E-09	-12806.37890625	1.21843513056774E-07
1	20	66.424998832293	0.001373291015625	0.00150451660156251	8.6639404296875E-07	1.3035041934728E-09	1736.52697753906	1.9920010174701E-07
1	21	66.5257068320387	0.011444091796875	0.011541748046875	1.08642578125E-06	1.25392523031564E-08	10623.595703125	2.9753238095509E-07
1	22	66.6264148317845	0.021514892578125	0.0216064453125	1.31256103515625E-06	2.83597785255552E-08	16461.287109375	4.18330955653801E-07
1	23	66.7271228315302	0.031585693359375	0.03165283203125	1.5240478515625E-06	4.82404267643233E-08	20768.921875	5.6116556379493E-07
1	24	66.8278308312759	0.041656494140625	0.0417144775390625	1.70166015625E-06	7.09838658963236E-08	24513.98828125	7.23592847862164E-07
1	25	66.9285388310217	0.051727294921875	0.0517578125	1.8267822265625E-06	9.45502520721675E-08	28332.77734375	9.01264058938978E-07
1	26	67.0292468307674	0.061798095703125	0.0618896484375	1.89544677734375E-06	1.17308530889204E-07	32651.748046875	1.08869312498427E-06
1	27	67.1299548305132	0.071868896484375	0.071868896484375	1.9122314453125E-06	1.37429964297553E-07	37583.78515625	1.28042495362024E-06
1	28	67.2306628302589	0.081939697265625	0.08197021484375	1.88873291015625E-06	1.54819844055964E-07	43399.58203125	1.47181879128766E-06
1	29	67.3313708300046	0.092010498046875	0.092010498046875	1.83929443359375E-06	1.69234397162654E-07	50024.88671875	1.65953986197565E-06
1	30	67.4320788297504	0.102081298828125	0.102081298828125	1.7767333984375E-06	1.81371248686446E-07	57454.484375	1.84162126970477E-06
1	31	67.5327868294961	0.112152099609375	0.112213134765625	1.7083740234375E-06	1.91702000051919E-07	65684.1796875	2.01711031877494E-06
1	32	67.6334948292418	0.122222900390625	0.122314453125	1.641845703125E-06	2.00821446583177E-07	74498.140625	2.18580726141226E-06
1	33	67.7342028289876	0.132293701171875	0.132354736328125	1.57867431640625E-06	2.08945024837703E-07	83839.1640625	2.34797334996983E-06
1	34	67.8349108287333	0.142364501953125	0.142364501953125	1.519775390625E-06	2.16362053606645E-07	93674.703125	2.50399284595915E-06
1	35	67.9356188284791	0.152435302734375	0.1524658203125	1.46636962890625E-06	2.23571234414521E-07	103975.03125	2.65435710389283E-06
1	36	68.0363268282248	0.162506103515625	0.16253662109375	1.41876220703125E-06	2.30600804229653E-07	114562.2734375	2.79963501270686E-06
1	37	68.1370348279705	0.172576904296875	0.172637939453125	1.37542724609375E-06	2.3745091937144E-07	125515.8671875	2.94033361569745E-06
1	38	68.2377428277163	0.182647705078125	0.182647705078125	1.33758544921875E-06	2.44306903596225E-07	136550.3125	3.07694472212461E-06
1	39	68.338450827462	0.192718505859375	0.1927490234375	1.30462646484375E-06	2.51465451128752E-07	147742.703125	3.20999060932081E-06
1	40	68.4391588272077	0.202789306640625	0.202789306640625	1.27471923828125E-06	2.58499426308845E-07	159085.46875	3.33987100020749E-06
1	41	68.5398668269535	0.212860107421875	0.21282958984375	1.24786376953125E-06	2.65582343672577E-07	170555.140625	3.46689307662018E-06
1	42	68.6405748266992	0.222930908203125	0.22296142578125	1.22314453125E-06	2.72714032689692E-07	182285.4375	3.59131831828563E-06
1	43	68.7412828264449	0.233001708984375	0.23297119140625	1.20086669921875E-06	2.79767334632197E-07	194002.546875	3.71337682736339E-06
1	44	68.8419908261907	0.243072509765625	0.243133544921875	1.180419921875E-06	2.86999664922405E-07	205972.09375	3.83328415409778E-06
1	45	68.9426988259364	0.253143310546875	0.25311279296875	1.16241455078125E-06	2.94221990770893E-07	217747.453125	3.9512551666121E-06
1	46	69.0434068256822	0.263214111328125	0.263214111328125	1.146240234375E-06	3.01706592154005E-07	229632.609375	4.06750541515066E-06
1	47	69.1441148254279	0.273284912109375	0.2733154296875	1.131591796875E-06	3.09281489307978E-07	241531.84375	4.1822031562333E-06
1	48	69.2448228251736	0.283355712890625	0.283355712890625	1.11846923828125E-06	3.16924626986292E-07	253342.4375	4.29550300395931E-06
1	49	69.3455308249194	0.293426513671875	0.29339599609375	1.1065673828125E-06	3.2466240895701E-07	265140.65625	4.40754229202867E-06
1	50	69.4462388246651	0.303497314453125	0.30352783203125	1.09527587890625E-06	3.32446688844357E-07	277124.5625	4.51841378890094E-06
1	51	69.5469468244108	0.313568115234375	0.313629150390625	1.085205078125E-06	3.40351959948748E-07	289004.5	4.62820980828837E-06
1	52	69.6476548241566	0.323638916015625	0.323638916015625	1.075439453125E-06	3.48054044252422E-07	300936.4375	4.73700674774591E-06
1	53	69.7483628239023	0.333709716796875	0.33367919921875	1.06658935546875E-06	3.55898663428889E-07	312846.9375	4.84486645291327E-06
1	54	69.849070823648	0.343780517578125	0.343780517578125	1.0589599609375E-06	3.64049782319853E-07	324639.78125	4.95189669891261E-06
1	55	69.9497788233938	0.353851318359375	0.353851318359375	1.05255126953125E-06	3.72446663732262E-07	336184.40625	5.05821981278132E-06
1	56	70.0504868231395	0.363922119140625	0.36395263671875	1.04644775390625E-06	3.80857414938873E-07	347798.1875	5.1639126468217E-06
1	57	70.1511948228853	0.373992919921875	0.3740234375	1.0406494140625E-06	3.89227267305614E-07	359413.5	5.26900612385361E-06
1	58	70.251902822631	0.384063720703125	0.384002685546875	1.0357666015625E-06	3.97737153434718E-07	370742.5	5.37356208951678E-06
1	59	70.3526108223767	0.394134521484375	0.394195556640625	1.03057861328125E-06	4.06249483830834E-07	382499.28125	5.47761101188371E-06
1	60	70.4533188221225	0.404205322265625	0.404205322265625	1.02691650390625E-06	4.1508511117172E-07	393610.6875	5.58121382709942E-06
1	61	70.5540268218682	0.414276123046875	0.414306640625	1.02325439453125E-06	4.23941088456559E-07	404891.125	5.68444829696091E-06
1	62	70.6547348216139	0.424346923828125	0.42431640625	1.02081298828125E-06	4.3314770437064E-07	415665.1875	5.7873753576132E-06
1	63	70.7554428213597	0.434417724609375	0.434356689453125	1.01776123046875E-06	4.42071382167342E-07	426776.625	5.8900254771288E-06
1	64	70.8561508211054	0.444488525390625	0.444488525390625	1.016845703125E-06	4.51976234217E-07	437124.875	5.99247641730472E-06
1	65	70.9568588208512	0.454559326171875	0.45458984375	1.0150146484375E-06	4.61415339714222E-07	447865.3125	6.09478865953861E-06
1	66	71.0575668205969	0.464630126953125	0.464599609375	1.01409912109375E-06	4.7115003098952E-07	458140.25	6.19696265857783E-06
1	67	71.1582748203426	0.474700927734375	0.47467041015625	1.01318359375E-06	4.80928292745375E-07	468493.96875	6.29904434390482E-06
1	68	71.2589828200884	0.484771728515625	0.484771728515625	1.01287841796875E-06	4.91014816361712E-07	478608	6.40106463833945E-06
1	69	71.3596908198341	0.494842529296875	0.494781494140625	1.01287841796875E-06	5.01153522236564E-07	488490.5	6.50306947136414E-06
1	70	71.4603988195798	0.504913330078125	0.504852294921875	1.01409912109375E-06	5.11970256411587E-07	497833.28125	6.60513615002856E-06
1	71	71.5611068193256	0.514984130859375	0.514984130859375	1.0162353515625E-06	5.23345022429567E-07	506756.78125	6.70737153996015E-06
1	72	71.6618148190713	0.525054931640625	0.524993896484375	1.01776123046875E-06	5.3431841706697E-07	515832.125	6.80979110256885E-06
1	73	71.762522818817	0.535125732421875	0.53515625	1.0205078125E-06	5.46131104783854E-07	524401.9375	6.91242621542187E-06
1	74	71.8632308185628	0.545196533203125	0.545135498046875	1.02264404296875E-06	5.57479552298901E-07	533064.75	7.01530734659173E-06
1	75	71.9639388183085	0.555267333984375	0.555206298828125	1.025390625E-06	5.69303324482462E-07	541458.375	7.11843404133106E-06
1	76	72.0646468180543	0.565338134765625	0.56524658203125	1.0284423828125E-06	5.81323547521606E-07	549614.25	7.22185268386966E-06
1	77	72.1653548178	0.575408935546875	0.57537841796875	1.0321044921875E-06	5.93850643326732E-07	557480.8125	7.32560920368996E-06
1	78	72.2660628175457	0.585479736328125	0.58544921875	1.03607177734375E-06	6.06567425620597E-07	565066.25	7.42975043976912E-06
1	79	72.3667708172915	0.595550537109375	0.59552001953125	1.04095458984375E-06	6.19909258148255E-07	572090.3125	7.5343368735048E-06
1	80	72.4674788170372	0.605621337890625	0.60565185546875	1.04583740234375E-06	6.3341337863676E-07	579107.125	7.63941534387413E-06
1	81	72.5681868167829	0.615692138671875	0.615631103515625	1.051025390625E-06	6.47043918888812E-07	585743.3125	7.74500040279236E-06
1	82	72.6688948165287	0.625762939453125	0.625701904296875	1.0565185546875E-06	6.61065655549464E-07	592229.9375	7.85112388257403E-06
1	83	72.7696028162744	0.635833740234375	0.6357421875	1.06201171875E-06	6.75165665597888E-07	598620.6875	7.95780033513438E-06
1	84	72.8703108160202	0.645904541015625	0.64581298828125	1.0687255859375E-06	6.9019682769067E-07	604283.3125	8.06509160611313E-06
1	85	72.9710188157659	0.655975341796875	0.655914306640625	1.0760498046875E-06	7.0579642397206E-07	609557.5625	8.17308955447515E-06
1	86	73.0717268155116	0.666046142578125	0.666107177734375	1.0845947265625E-06	7.22456320545461E-07	614153.0625	8.28188694868004E-06
1	87	73.1724348152574	0.676116943359375	0.67608642578125	1.0931396484375E-06	7.39056872589572E-07	618481.3125	8.3915447248728E-06
1	88	73.2731428150031	0.686187744140625	0.686126708984375	1.10198974609375E-06	7.56104554966441E-07	622625.3125	8.50207743496867E-06
1	89	73.3738508147488	0.696258544921875	0.696197509765625	1.1090087890625E-06	7.72089094880357E-07	627765.5625	8.6134105004021E-06
1	90	73.4745588144946	0.706329345703125	0.7061767578125	1.1151123046875E-06	7.87466319707164E-07	633278.625	8.72540385898901E-06
1	91	73.5752668142403	0.716400146484375	0.71630859375	1.11968994140625E-06	8.02043530256924E-07	639738.3125	8.83793472894467E-06
1	92	73.675974813986	0.726470947265625	0.726409912109375	1.123046875E-06	8.15792418507044E-07	646820.625	8.95086577656912E-06
1	93	73.7766828137318	0.736541748046875	0.736480712890625	1.12548828125E-06	8.2890034036609E-07	654365.5625	9.06408877199283E-06
1	94	73.8773908134775	0.746612548828125	0.74658203125	1.12823486328125E-06	8.42319877847331E-07	661725.6875	9.17757279239595E-06
1	95	73.9780988132233	0.756683349609375	0.7568359375	1.1309814453125E-06	8.55967414281622E-07	669185.125	9.29133329918841E-06
1	96	74.078806812969	0.766754150390625	0.76690673828125	1.13433837890625E-06	8.69931739089225E-07	676082.875	9.40540121519007E-06
1	97	74.1795148127147	0.776824951171875	0.7763671875	1.13861083984375E-06	8.83980135313323E-07	681854.75	9.51985293795587E-06
1	98	74.2802228124605	0.786895751953125	0.7861328125	1.14410400390625E-06	8.99417671007541E-07	687116.5625	9.63479669735534E-06
1	99	74.3809308122062	0.796966552734375	0.79742431640625	1.15142822265625E-06	9.18176795039471E-07	692552.375	9.75038619799307E-06
1	100	74.4816388119519	0.807037353515625	0.8074951171875	1.1614990234375E-06	9.37904758302466E-07	695218.125	9.8668515420286E-06
1	101	74.5823468116977	0.817108154296875	0.8172607421875	1.1749267578125E-06	9.60221541390638E-07	695584.4375	9.98450013867114E-06
1	102	74.6830548114434	0.827178955078125	0.82733154296875	1.1907958984375E-06	9.85182964541309E-07	694771.9375	1.01036230262253E-05
1	103	74.7837628111891	0.837249755859375	0.83770751953125	1.20880126953125E-06	1.01262185125961E-06	693006.8125	1.02244530353346E-05
1	104	74.8844708109349	0.847320556640625	0.84747314453125	1.2274169921875E-06	1.0402029602119E-06	690452.5	1.03471256807097E-05
1	105	74.9851788106806	0.857391357421875	0.85723876953125	1.2451171875E-06	1.06736263205676E-06	688480.4375	1.04716282294248E-05
1	106	75.0858868104264	0.867462158203125	0.86761474609375	1.26007080078125E-06	1.09325605990307E-06	688544.4375	1.0597774235066E-05
1	107	75.1865948101721	0.877532958984375	0.87799072265625	1.27105712890625E-06	1.1159762607349E-06	690756.375	1.0725226275099E-05
1	108	75.2873028099178	0.887603759765625	0.887451171875	1.27838134765625E-06	1.13450096250745E-06	694199.125	1.08536005427595E-05
1	109	75.3880108096636	0.897674560546875	0.89752197265625	1.28204345703125E-06	1.15066211492376E-06	700071.4375	1.09825286926934E-05
1	110	75.4887188094093	0.907745361328125	0.90789794921875	1.28387451171875E-06	1.16562694074673E-06	707154.8125	1.1111732419522E-05
1	111	75.589426809155	0.917816162109375	0.9173583984375	1.28387451171875E-06	1.17777301511524E-06	714523.4375	1.12410289148102E-05
1	112	75.6901348089008	0.927886962890625	0.92803955078125	1.2835693359375E-06	1.19120306862897E-06	723014.75	1.13703099486884E-05
1	113	75.7908428086465	0.937957763671875	0.9381103515625	1.28265380859375E-06	1.20327081276628E-06	731382.375	1.14995300464216E-05
1	114	75.8915508083923	0.948028564453125	0.94818115234375	1.28082275390625E-06	1.21445202694304E-06	740290.6875	1.16286109914654E-05
1	115	75.992258808138	0.958099365234375	0.95794677734375	1.27960205078125E-06	1.2257905837032E-06	748628.6875	1.17575391413993E-05
1	116	76.0929668078837	0.968170166015625	0.96771240234375	1.27960205078125E-06	1.23828669984505E-06	756260.5	1.18864054456935E-05
1	117	76.1936748076295	0.978240966796875	0.9783935546875	1.279296875E-06	1.25165581721376E-06	764790.125	1.20152553790831E-05
1	118	76.2943828073752	0.988311767578125	0.98876953125	1.280517578125E-06	1.26613667816855E-06	772164	1.21441526061972E-05
1	119	76.3950908071209	0.998382568359375	0.99853515625	1.2823486328125E-06	1.28047020098165E-06	778676.8125	1.22732035379158E-05
1	120	76.4957988068667	1.00845336914063	1.00830078125	1.2847900390625E-06	1.29545469462755E-06	784798.125	1.24024691103841E-05
1	121	76.5965068066124	1.01852416992188	1.01806640625	1.28753662109375E-06	1.31079775655962E-06	790708.6875	1.25319957078318E-05
1	122	76.6972148063581	1.02859497070313	1.0284423828125	1.29058837890625E-06	1.32729576307611E-06	796878.75	1.26618151625735E-05
1	123	76.7979228061039	1.03866577148438	1.0382080078125	1.29364013671875E-06	1.34306753807323E-06	802547.75	1.27919411170296E-05
1	124	76.8986308058496	1.04873657226563	1.04888916015625	1.2969970703125E-06	1.36040614506783E-06	808705.875	1.29223899421049E-05
1	125	76.9993388055954	1.05880737304688	1.058349609375	1.30096435546875E-06	1.37687504775386E-06	813511.625	1.30532080220291E-05
1	126	77.1000468053411	1.06887817382813	1.0687255859375	1.30584716796875E-06	1.39559222134267E-06	818415.5	1.31844708448625E-05
1	127	77.2007548050868	1.07894897460938	1.0791015625	1.31103515625E-06	1.41474004067277E-06	823091.25	1.33162411657395E-05
1	128	77.3014628048326	1.08901977539063	1.08917236328125	1.3165283203125E-06	1.43392617246718E-06	827306.5	1.34485499074799E-05
1	129	77.4021708045783	1.09909057617188	1.0992431640625	1.32171630859375E-06	1.45288754538342E-06	831678.625	1.35813961605891E-05
1	130	77.502878804324	1.10916137695313	1.1090087890625	1.32781982421875E-06	1.47256378113525E-06	835210.375	1.37148108478868E-05
1	131	77.6035868040698	1.11923217773438	1.11907958984375	1.33331298828125E-06	1.4920833564247E-06	839322.5	1.38488094307831E-05
1	132	77.7042948038155	1.12930297851563	1.12945556640625	1.339111328125E-06	1.51246672430716E-06	843436.625	1.39833764478681E-05
1	133	77.8050028035613	1.13937377929688	1.1395263671875	1.3458251953125E-06	1.53360326748953E-06	846712.0625	1.41185737447813E-05
1	134	77.905710803307	1.14944458007813	1.14898681640625	1.35284423828125E-06	1.55440011440078E-06	849312.0625	1.42544631671626E-05
1	135	78.0064188030527	1.15951538085938	1.15997314453125	1.3604736328125E-06	1.57811280132591E-06	852624.5625	1.43910892802523E-05
1	136	78.1071268027985	1.16958618164063	1.16973876953125	1.36871337890625E-06	1.60103707003145E-06	854626.5625	1.45285148391849E-05
1	137	78.2078348025442	1.17965698242188	1.17919921875	1.37725830078125E-06	1.62406195158837E-06	856193.25	1.46667853186955E-05
1	138	78.3085428022899	1.18972778320313	1.19049072265625	1.385498046875E-06	1.64942252922629E-06	859251.125	1.48059016282787E-05
1	139	78.4092508020357	1.19979858398438	1.1993408203125	1.39495849609375E-06	1.67303062426072E-06	859768.125	1.49459083331749E-05
1	140	78.5099588017814	1.20986938476563	1.2103271484375	1.4044189453125E-06	1.69980626196775E-06	861799.25	1.50868681885186E-05
1	141	78.6106668015271	1.21994018554688	1.2200927734375	1.41387939453125E-06	1.72506395301752E-06	862939.8125	1.5228780284815E-05
1	142	78.7113748012729	1.23001098632813	1.2298583984375	1.42425537109375E-06	1.75163233961939E-06	863509.8125	1.53716919157887E-05
1	143	78.8120828010186	1.24008178710938	1.23992919921875	1.43524169921875E-06	1.77959805114369E-06	863916.6875	1.55156794789946E-05
1	144	78.9127908007644	1.25015258789063	1.25	1.44622802734375E-06	1.8077849972542E-06	864317.375	1.56607729877578E-05
1	145	79.0134988005101	1.26022338867188	1.259765625	1.45751953125E-06	1.83613292392693E-06	864321.625	1.5806988812983E-05
1	146	79.1142068002558	1.27029418945313	1.27044677734375	1.4691162109375E-06	1.86643399047171E-06	864769.4375	1.59543560585007E-05
1	147	79.2149148000016	1.28036499023438	1.2799072265625	1.47979736328125E-06	1.89400327599287E-06	864920.625	1.61028456204804E-05
1	148	79.3156227997473	1.29043579101563	1.29058837890625	1.4910888671875E-06	1.92438187696098E-06	865534.1875	1.62524411280174E-05
1	149	79.416330799493	1.30050659179688	1.30035400390625	1.5032958984375E-06	1.95481675291376E-06	865002.0625	1.64032207976561E-05
1	150	79.5170387992388	1.31057739257813	1.31072998046875	1.51580810546875E-06	1.98681505025888E-06	864707.0625	1.65552446560469E-05
1	151	79.6177467989845	1.32064819335938	1.32049560546875	1.52862548828125E-06	2.01854322767758E-06	863845.0625	1.67085436260095E-05
1	152	79.7184547987302	1.33071899414063	1.33026123046875	1.54266357421875E-06	2.05214541892929E-06	862314.5625	1.68631959240884E-05
1	153	79.819162798476	1.34078979492188	1.34063720703125	1.556396484375E-06	2.08656297218113E-06	861372.5625	1.70192452060292E-05
1	154	79.9198707982217	1.35086059570313	1.3507080078125	1.5704345703125E-06	2.12119834941404E-06	860085.5625	1.71766951098107E-05
1	155	80.0205787979675	1.36093139648438	1.361083984375	1.58538818359375E-06	2.15784643842198E-06	858517.8125	1.73356020241044E-05
1	156	80.1212867977132	1.37100219726563	1.3714599609375	1.6009521484375E-06	2.19564185499621E-06	856652.6875	1.74960478034336E-05
1	157	80.2219947974589	1.38107299804688	1.38153076171875	1.617431640625E-06	2.23453162107035E-06	854150.9375	1.76581052073743E-05
1	158	80.3227027972047	1.39114379882813	1.3909912109375	1.6357421875E-06	2.27530290430877E-06	850373.1875	1.78219161171E-05
1	159	80.4234107969504	1.40121459960938	1.40106201171875	1.6558837890625E-06	2.31999570132757E-06	846111.375	1.79876624315511E-05
1	160	80.5241187966961	1.41128540039063	1.41143798828125	1.678466796875E-06	2.36905179917812E-06	840909.125	1.81555606104666E-05
1	161	80.6248267964419	1.42135620117188	1.4208984375	1.70379638671875E-06	2.42092164626229E-06	833960.25	1.83258707693312E-05
1	162	80.7255347961876	1.43142700195313	1.4312744140625	1.73187255859375E-06	2.47878483605746E-06	826431.75	1.84988712135237E-05
1	163	80.8262427959334	1.44149780273438	1.441650390625	1.76361083984375E-06	2.54251017395291E-06	817442.4375	1.8674882085179E-05
1	164	80.9269507956791	1.45156860351563	1.4520263671875	1.800537109375E-06	2.61442733062722E-06	806440.6875	1.88543508556904E-05
1	165	81.0276587954248	1.46163940429688	1.46148681640625	1.8414306640625E-06	2.69122665486066E-06	793669.25	1.90377395483665E-05
1	166	81.1283667951706	1.47171020507813	1.4715576171875	1.8890380859375E-06	2.77982826446532E-06	778998.4375	1.92255829460919E-05
1	167	81.2290747949163	1.48178100585938	1.48193359375	1.943359375E-06	2.87992952507921E-06	762562.8125	1.94185595319141E-05
1	168	81.329782794662	1.49185180664063	1.49200439453125	2.00592041015625E-06	2.99284192806226E-06	743800.4375	1.96174223674461E-05
1	169	81.4304907944078	1.50192260742188	1.50177001953125	2.07672119140625E-06	3.11875760417024E-06	723144.75	1.98229990928667E-05
1	170	81.5311987941535	1.49185180664063	1.49169921875	1.83441162109375E-06	2.7363903427613E-06	813175.875	2.00199410755886E-05
1	171	81.6319067938992	1.48178100585938	1.48193359375	1.6583251953125E-06	2.45752767114027E-06	893632.75	2.01958137040492E-05
1	172	81.732614793645	1.47171020507813	1.47216796875	1.52008056640625E-06	2.23781398744904E-06	968480.25	2.03558593057096E-05
1	173	81.8333227933907	1.46163940429688	1.4617919921875	1.40655517578125E-06	2.05609103431925E-06	1039271	2.05032265512273E-05
1	174	81.9340307931365	1.45156860351563	1.45172119140625	1.31134033203125E-06	1.90370042219001E-06	1107051.5	2.06400836759713E-05
1	175	82.0347387928822	1.44149780273438	1.44195556640625	1.23138427734375E-06	1.77560127667675E-06	1171003.75	2.07681205210974E-05
1	176	82.1354467926279	1.43142700195313	1.43157958984375	1.163330078125E-06	1.66539950896549E-06	1230587.75	2.08887031476479E-05
1	177	82.2361547923737	1.42135620117188	1.42120361328125	1.10382080078125E-06	1.56875398715783E-06	1287531.125	2.10028629226144E-05
1	178	82.3368627921194	1.41128540039063	1.4117431640625	1.05224609375E-06	1.48550111589429E-06	1341647.375	2.11114311241545E-05
1	179	82.4375707918651	1.40121459960938	1.40106201171875	1.00677490234375E-06	1.41055397762102E-06	1391633.875	2.12151098821778E-05
1	180	82.5382787916109	1.39114379882813	1.39129638671875	9.6588134765625E-07	1.34382719352288E-06	1440442.375	2.13144412555266E-05
1	181	82.6389867913566	1.38107299804688	1.38092041015625	9.295654296875E-07	1.28365581986145E-06	1485554.875	2.14098854485201E-05
1	182	82.7396947911024	1.37100219726563	1.370849609375	8.9599609375E-07	1.22827589166263E-06	1529972.75	2.15018098970177E-05
1	183	82.8404027908481	1.36093139648438	1.361083984375	8.6700439453125E-07	1.18006573757157E-06	1569869.875	2.15905838558683E-05
1	184	82.9411107905938	1.35086059570313	1.3507080078125	8.41369628906249E-07	1.13644466637197E-06	1605368.125	2.16766056837514E-05
1	185	83.0418187903396	1.34078979492188	1.34033203125	8.1695556640625E-07	1.09499171685457E-06	1640642.5	2.17601100303E-05
1	186	83.1425267900853	1.33071899414063	1.33056640625	7.952880859375E-07	1.05818355677911E-06	1673062.125	2.18412933463696E-05
1	187	83.243234789831	1.32064819335938	1.32049560546875	7.7484130859375E-07	1.02317449091061E-06	1704214.375	2.19203557207948E-05
1	188	83.3439427895768	1.31057739257813	1.3104248046875	7.56225585937501E-07	9.90976786852116E-07	1732849.125	2.19974499486852E-05
1	189	83.4446507893225	1.30050659179688	1.300048828125	7.3822021484375E-07	9.59722342486202E-07	1761058.375	2.20727015403099E-05
1	190	83.5453587890682	1.29043579101563	1.290283203125	7.22351074218749E-07	9.32037437451072E-07	1786227.375	2.21462469198741E-05
1	191	83.646066788814	1.28036499023438	1.280517578125	7.07397460937501E-07	9.05834838249575E-07	1810181.25	2.2218240701477E-05
1	192	83.7467747885597	1.27029418945313	1.2701416015625	6.9427490234375E-07	8.81827418197645E-07	1829450.625	2.22888211283134E-05
1	193	83.8474827883055	1.26022338867188	1.26007080078125	6.81457519531251E-07	8.58684700233425E-07	1849082	2.23580937017687E-05
1	194	83.9481907880512	1.25015258789063	1.2506103515625	6.6986083984375E-07	8.37734887682018E-07	1866970.5	2.24261384573765E-05
1	195	84.0488987877969	1.24008178710938	1.240234375	6.58569335937501E-07	8.16780300283426E-07	1883225.25	2.24930299737025E-05
1	196	84.1496067875427	1.23001098632813	1.2298583984375	6.4727783203125E-07	7.96060078300798E-07	1900047.125	2.25587846216513E-05
1	197	84.2503147872884	1.21994018554688	1.21978759765625	6.37207031250001E-07	7.77257184836344E-07	1914272.125	2.26234642468626E-05
1	198	84.3510227870341	1.20986938476563	1.21002197265625	6.268310546875E-07	7.58479302476189E-07	1930379.875	2.2687112505082E-05
1	199	84.4517307867799	1.19979858398438	1.1993408203125	6.170654296875E-07	7.40071754989913E-07	1943620.125	2.27497494051931E-05
1	200	84.5524387865256	1.18972778320313	1.18988037109375	6.072998046875E-07	7.22614117876219E-07	1959296.5	2.28114004130475E-05
1	201	84.6531467862713	1.17965698242188	1.17950439453125	5.9844970703125E-07	7.05874015238805E-07	1970933.25	2.28721146413591E-05
1	202	84.7538547860171	1.16958618164063	1.16943359375	5.89599609374999E-07	6.89497596795263E-07	1983436.875	2.29319375648629E-05
1	203	84.8545627857628	1.15951538085938	1.15936279296875	5.810546875E-07	6.73653175908839E-07	1995273.125	2.29908855544636E-05
1	204	84.9552707855086	1.14944458007813	1.1492919921875	5.718994140625E-07	6.57279429105984E-07	2009605.125	2.30489404202672E-05
1	205	85.0559787852543	1.13937377929688	1.1395263671875	5.6304931640625E-07	6.41609517515462E-07	2023848.25	2.31060894293478E-05
1	206	85.156686785	1.12930297851563	1.129150390625	5.54504394531249E-07	6.26118833224609E-07	2036323.75	2.31623635045253E-05
1	207	85.2573947847458	1.11923217773438	1.119384765625	5.45654296875001E-07	6.1079708757461E-07	2051454.125	2.32177608268103E-05
1	208	85.3581027844915	1.10916137695313	1.10931396484375	5.37109375E-07	5.95822939430946E-07	2065340.875	2.32722813962027E-05
1	209	85.4588107842372	1.09909057617188	1.09893798828125	5.30395507812501E-07	5.82871734877699E-07	2071921.875	2.33260343520669E-05
1	210	85.559518783983	1.08901977539063	1.08917236328125	5.22766113281251E-07	5.69382336834678E-07	2083479.5	2.33790651691379E-05
1	211	85.6602267837287	1.07894897460938	1.0791015625	5.15136718750001E-07	5.55884810182761E-07	2094786.75	2.34313283726806E-05
1	212	85.7609347834745	1.06887817382813	1.06903076171875	5.0811767578125E-07	5.43193380053708E-07	2103904	2.34828530665254E-05
1	213	85.8616427832202	1.05880737304688	1.05926513671875	5.0018310546875E-07	5.29826536421751E-07	2117754.75	2.35336246987572E-05
1	214	85.9623507829659	1.04873657226563	1.04888916015625	4.931640625E-07	5.17274429512327E-07	2126856.5	2.35836450883653E-05
1	215	86.0630587827117	1.03866577148438	1.03851318359375	4.8675537109375E-07	5.05501873249159E-07	2133542.25	2.36329869949259E-05
1	216	86.1637667824574	1.02859497070313	1.029052734375	4.803466796875E-07	4.94302071274433E-07	2142312.5	2.36816849792376E-05
1	217	86.2644747822031	1.01852416992188	1.01837158203125	4.7454833984375E-07	4.83266546780214E-07	2145980.75	2.37297681451309E-05
1	218	86.3651827819489	1.00845336914063	1.00830078125	4.6875E-07	4.7264097702282E-07	2151041.75	2.37772655964363E-05
1	219	86.4658907816946	0.998382568359375	0.9979248046875	4.6356201171875E-07	4.626000134067E-07	2152732	2.38242118939525E-05
1	220	86.5665987814403	0.988311767578125	0.98846435546875	4.5745849609375E-07	4.52181410537378E-07	2160773.75	2.38705888477853E-05
1	221	86.6673067811861	0.978240966796875	0.97869873046875	4.5166015625E-07	4.42039208792266E-07	2166892	2.39163673541043E-05
1	222	86.7680147809318	0.968170166015625	0.96832275390625	4.443359375E-07	4.3026059870499E-07	2179258.25	2.39614837482804E-05
1	223	86.8687227806776	0.958099365234375	0.95855712890625	4.37316894531251E-07	4.191932134745E-07	2191905.25	2.40058780036634E-05
1	224	86.9694307804233	0.948028564453125	0.9478759765625	4.29382324218749E-07	4.07001181201849E-07	2207533.75	2.40495210164227E-05
1	225	87.070138780169	0.937957763671875	0.93780517578125	4.2083740234375E-07	3.94663487668367E-07	2228426.5	2.40923327510245E-05
1	226	87.1708467799148	0.927886962890625	0.9283447265625	4.1168212890625E-07	3.82182918201579E-07	2255003.75	2.41342531808186E-05
1	227	87.2715547796605	0.917816162109375	0.91796875	4.010009765625E-07	3.68106356063436E-07	2289193.5	2.41751749854302E-05
1	228	87.3722627794062	0.907745361328125	0.9075927734375	3.88183593749999E-07	3.52312611084926E-07	2338050.25	2.42149126279401E-05
1	229	87.472970779152	0.897674560546875	0.89813232421875	3.7261962890625E-07	3.34661706347106E-07	2410319.5	2.42532223637681E-05
1	230	87.5736787788977	0.887603759765625	0.887451171875	3.54614257812499E-07	3.14702845116699E-07	2502581.75	2.42898422584403E-05
1	231	87.6743867786435	0.877532958984375	0.8770751953125	3.3416748046875E-07	2.93090010927699E-07	2624657.5	2.43245249293977E-05
1	232	87.7750947783892	0.867462158203125	0.8673095703125	3.125E-07	2.71034224397226E-07	2775390.75	2.43570866587106E-05
1	233	87.8758027781349	0.857391357421875	0.85784912109375	2.90832519531251E-07	2.49490398118724E-07	2949633	2.43874674197286E-05
1	234	87.9765107778807	0.847320556640625	0.84747314453125	2.70690917968749E-07	2.29403283924512E-07	3130778	2.44157417910174E-05
1	235	88.0772187776264	0.837249755859375	0.83740234375	2.5360107421875E-07	2.12366117580132E-07	3302046	2.44421426032204E-05
1	236	88.1779267773721	0.827178955078125	0.82733154296875	2.410888671875E-07	1.99460416183683E-07	3431645.75	2.44670518441126E-05
1	237	88.2786347771179	0.817108154296875	0.81756591796875	2.32543945312499E-07	1.90120005072458E-07	3515748	2.44909024331719E-05
1	238	88.3793427768636	0.807037353515625	0.806884765625	2.2705078125E-07	1.83203809456245E-07	3553763.5	2.45140436163638E-05
1	239	88.4800507766093	0.796966552734375	0.79681396484375	2.2430419921875E-07	1.78728711830445E-07	3552381.25	2.45367718889611E-05
1	240	88.5807587763551	0.786895751953125	0.7867431640625	2.23388671874999E-07	1.75749505615386E-07	3521858	2.45593146246392E-05
1	241	88.6814667761008	0.776824951171875	0.7769775390625	2.23388671874999E-07	1.735679830972E-07	3478142.25	2.45818118855823E-05
1	242	88.7821747758466	0.766754150390625	0.76690673828125	2.23388671874999E-07	1.71318276898091E-07	3433060.25	2.46043091465253E-05
1	243	88.8828827755923	0.756683349609375	0.75714111328125	2.227783203125E-07	1.68674617384568E-07	3398630.25	2.46267754846485E-05
1	244	88.983590775338	0.746612548828125	0.746490478515625	2.20947265625E-07	1.64935016755408E-07	3378591.25	2.46491181314923E-05
1	245	89.0842987750838	0.736541748046875	0.7364501953125	2.17590332031251E-07	1.60244439939561E-07	3384572.25	2.46712006628513E-05
1	246	89.1850067748295	0.726470947265625	0.72637939453125	2.1392822265625E-07	1.55393053091757E-07	3395435.25	2.46929284912767E-05
1	247	89.2857147745752	0.716400146484375	0.71636962890625	2.0751953125E-07	1.48660674881285E-07	3452059	2.47141506406479E-05
1	248	89.386422774321	0.706329345703125	0.706298828125	2.00500488281249E-07	1.41613256232631E-07	3522679	2.47346961259609E-05
1	249	89.4871307740667	0.696258544921875	0.696197509765625	1.92871093749999E-07	1.34276362473429E-07	3609652	2.47545031015761E-05
1	250	89.5878387738125	0.686187744140625	0.686187744140625	1.85546875000001E-07	1.27319992770936E-07	3698191	2.47735588345677E-05
1	251	89.6885467735582	0.676116943359375	0.676055908203125	1.77612304687499E-07	1.2007585326046E-07	3806357.25	2.47918451350415E-05
1	252	89.7892547733039	0.666046142578125	0.66595458984375	1.708984375E-07	1.13810592949903E-07	3896785.75	2.48093947448069E-05
1	253	89.8899627730497	0.655975341796875	0.655914306640625	1.65405273437499E-07	1.08491683192824E-07	3965498.25	2.48263277171645E-05
1	254	89.9906707727954	0.645904541015625	0.645751953125	1.6021728515625E-07	1.03460621403428E-07	4030476.25	2.48427240876481E-05
1	255	90.0913787725411	0.635833740234375	0.635833740234375	1.5594482421875E-07	9.91549740092523E-08	4077299.5	2.48586457018973E-05
1	256	90.1920867722869	0.625762939453125	0.625732421875	1.53198242187499E-07	9.58611110490892E-08	4084462	2.48742107942235E-05
1	257	90.2927947720326	0.615692138671875	0.615692138671875	1.507568359375E-07	9.28197962934973E-08	4084008.25	2.48895175900543E-05
1	258	90.3935027717783	0.605621337890625	0.6055908203125	1.4923095703125E-07	9.03729002743603E-08	4058077.75	2.49046224780614E-05
1	259	90.4942107715241	0.595550537109375	0.5955810546875	1.483154296875E-07	8.83338557855495E-08	4015638	2.49196054937784E-05
1	260	90.5949187712698	0.585479736328125	0.585479736328125	1.46484375E-07	8.57636308637666E-08	3996875.25	2.49344502663007E-05
1	261	90.6956267710156	0.575408935546875	0.575408935546875	1.45568847656249E-07	8.37616127569163E-08	3952830.25	2.4949154976639E-05
1	262	90.7963347707613	0.565338134765625	0.56536865234375	1.44348144531251E-07	8.16099117173508E-08	3916702.25	2.49637541855918E-05
1	263	90.897042770507	0.555267333984375	0.555206298828125	1.422119140625E-07	7.89569511994159E-08	3904077.25	2.49781842285302E-05
1	264	90.9977507702528	0.545196533203125	0.54510498046875	1.40991210937499E-07	7.68550094676357E-08	3866234	2.49924432864645E-05
1	265	91.0984587699985	0.535125732421875	0.535186767578125	1.39770507812501E-07	7.48033244235558E-08	3829039.25	2.50065804721089E-05
1	266	91.1991667697442	0.525054931640625	0.525054931640625	1.39465332031249E-07	7.32269569425625E-08	3764770.25	2.50206412601983E-05
1	267	91.29987476949	0.514984130859375	0.514984130859375	1.38244628906251E-07	7.11937886421765E-08	3725165.5	2.50346256507328E-05
1	268	91.4005827692357	0.504913330078125	0.504913330078125	1.373291015625E-07	6.93392934181247E-08	3676666.75	2.50485027208924E-05
1	269	91.5012907689814	0.494842529296875	0.49481201171875	1.36413574218749E-07	6.74990729976344E-08	3627293	2.50622852036031E-05
1	270	91.6019987687272	0.484771728515625	0.48480224609375	1.35192871093751E-07	6.55418048722822E-08	3586004.75	2.50759621849284E-05
1	271	91.7027067684729	0.474700927734375	0.474761962890625	1.3458251953125E-07	6.389466022938E-08	3527664.25	2.5089546397794E-05
1	272	91.8034147682187	0.464630126953125	0.46466064453125	1.33056640625E-07	6.18261779550267E-08	3492202	2.51030232902849E-05
1	273	91.9041227679644	0.454559326171875	0.45458984375	1.324462890625E-07	6.02087411039065E-08	3432258	2.5116392862401E-05
1	274	92.0048307677101	0.444488525390625	0.444549560546875	1.312255859375E-07	5.83362727013537E-08	3387674.75	2.51296696660575E-05
1	275	92.1055387674559	0.434417724609375	0.43438720703125	1.300048828125E-07	5.64724551566087E-08	3341314.75	2.51428227784345E-05
1	276	92.2062467672016	0.424346923828125	0.424346923828125	1.28173828125E-07	5.43901670368996E-08	3310714.5	2.51558230957016E-05
1	277	92.3069547669473	0.414276123046875	0.414276123046875	1.26953125E-07	5.25936485473721E-08	3263221.25	2.51686706178589E-05
1	278	92.4076627666931	0.404205322265625	0.404296875	1.24511718750001E-07	5.03396968554171E-08	3247059	2.5181332603097E-05
1	279	92.5083707664388	0.394134521484375	0.3941650390625	1.2237548828125E-07	4.82361350861993E-08	3220947.75	2.51937653956702E-05
1	280	92.6090787661846	0.384063720703125	0.38409423828125	1.19934082031251E-07	4.60659919099271E-08	3202544.5	2.52059653575998E-05
1	281	92.7097867659303	0.373992919921875	0.37396240234375	1.18103027343749E-07	4.41660894523466E-08	3166408.25	2.52179524977691E-05
1	282	92.810494765676	0.363922119140625	0.36395263671875	1.16577148437499E-07	4.24285602207419E-08	3121989.5	2.52297686529346E-05
1	283	92.9112027654218	0.353851318359375	0.353851318359375	1.15966796875E-07	4.10350011748051E-08	3051316	2.52414793067146E-05
1	284	93.0119107651675	0.343780517578125	0.343780517578125	1.1474609375E-07	3.94474710674331E-08	2996010.75	2.52530953730457E-05
1	285	93.1126187649132	0.333709716796875	0.333740234375	1.1322021484375E-07	3.77861404388113E-08	2947709	2.52645750151714E-05
1	286	93.213326764659	0.323638916015625	0.323699951171875	1.11999511718749E-07	3.62542351695083E-08	2890190.75	2.52759164141025E-05
1	287	93.3140347644047	0.313568115234375	0.313568115234375	1.1016845703125E-07	3.45453159411591E-08	2846260.5	2.52871031989343E-05
1	288	93.4147427641504	0.303497314453125	0.303466796875	1.080322265625E-07	3.27841931380135E-08	2809039.5	2.52980898949318E-05
1	289	93.5154507638962	0.293426513671875	0.293426513671875	1.06201171875001E-07	3.11622407878076E-08	2762931	2.53088783210842E-05
1	290	93.6161587636419	0.283355712890625	0.28338623046875	1.0498046875E-07	2.97500175605592E-08	2699418.75	2.53195121331373E-05
1	291	93.7168667633877	0.273284912109375	0.273223876953125	1.03759765625E-07	2.83496444097864E-08	2633235.5	2.5330022253911E-05
1	292	93.8175747631334	0.263214111328125	0.26324462890625	1.0223388671875E-07	2.69125202123632E-08	2574925.5	2.534039413149E-05
1	293	93.9182827628791	0.253143310546875	0.253173828125	1.007080078125E-07	2.54966323609551E-08	2513939.5	2.53506132139592E-05
1	294	94.0189907626249	0.243072509765625	0.24310302734375	9.918212890625E-08	2.41114737065118E-08	2451077	2.53606795013184E-05
1	295	94.1196987623706	0.233001708984375	0.23291015625	9.613037109375E-08	2.23897398399231E-08	2422857.25	2.53705129580339E-05
1	296	94.2204067621163	0.222930908203125	0.222991943359375	9.307861328125E-08	2.07557810938397E-08	2395737.75	2.53800408245297E-05
1	297	94.3211147618621	0.212860107421875	0.21282958984375	8.94165039062506E-08	1.90304767500038E-08	2380204.75	2.53892303589964E-05
1	298	94.4218227616078	0.202789306640625	0.202850341796875	8.57543945312497E-08	1.73953083049128E-08	2365480.5	2.53980506386142E-05
1	299	94.5225307613536	0.192718505859375	0.19268798828125	8.087158203125E-08	1.55829820158715E-08	2382641.5	2.54064416367328E-05
1	300	94.6232387610993	0.182647705078125	0.18267822265625	7.53784179687494E-08	1.3769994922086E-08	2423481.75	2.54143087659031E-05
1	301	94.723946760845	0.172576904296875	0.172607421875	6.83593750000003E-08	1.17993357307E-08	2525000	2.54215465247398E-05
1	302	94.8246547605908	0.162506103515625	0.162567138671875	5.98144531249997E-08	9.7238643803621E-09	2717857	2.54280002991436E-05
1	303	94.9253627603365	0.152435302734375	0.152435302734375	4.730224609375E-08	7.21053172725306E-09	3222580.75	2.54333954217145E-05
1	304	95.0260707600822	0.142364501953125	0.142364501953125	3.11279296874994E-08	4.43151204621017E-09	4573529.5	2.54373444477096E-05
1	305	95.126778759828	0.132293701171875	0.132293701171875	1.00708007812506E-08	1.33230337873158E-09	13136364	2.54394180956297E-05
1	306	95.2274867595737	0.122222900390625	0.122222900390625	-1.77001953125006E-08	-2.16336926150973E-09	-6905172.5	2.54390342888655E-05
1	307	95.3281947593194	0.112152099609375	0.1121826171875	-5.645751953125E-08	-6.33355234924693E-09	-1987027	2.543529990362E-05
1	308	95.4289027590652	0.102081298828125	0.102142333984375	-1.080322265625E-07	-1.10346638493297E-08	-945480.25	2.54270180448657E-05
1	309	95.5296107588109	0.092010498046875	0.092041015625	-1.79443359375001E-07	-1.65161484488863E-08	-512925.15625	2.54125425271923E-05
1	310	95.6303187585567	0.081939697265625	0.08203125	-2.7435302734375E-07	-2.25055210023584E-08	-298998.875	2.53896923823049E-05
1	311	95.7310267583024	0.071868896484375	0.071929931640625	-3.9947509765625E-07	-2.87342150073755E-08	-180061.125	2.53557609539712E-05
1	312	95.8317347580481	0.061798095703125	0.0618896484375	-5.57861328125001E-07	-3.45258399647719E-08	-110940.921875	2.53075559157878E-05
1	313	95.9324427577939	0.051727294921875	0.0518798828125	-7.5042724609375E-07	-3.89320753413358E-08	-69133.796875	2.52416775765596E-05
1	314	96.0331507575396	0.041656494140625	0.0417510986328125	-9.6771240234375E-07	-4.04030551237611E-08	-43144.12109375	2.51551628025481E-05
1	315	96.1338587572853	0.031585693359375	0.031695556640625	-1.197509765625E-06	-3.79557363316962E-08	-26467.890625	2.50461362156784E-05
1	316	96.2345667570311	0.021514892578125	0.02159423828125	-1.416015625E-06	-3.05777767550808E-08	-15250	2.49145341513213E-05
1	317	96.3352747567768	0.011444091796875	0.0115081787109375	-1.60400390625E-06	-1.84591630869591E-08	-7174.65771484375	2.47624648181954E-05
1	318	96.4359827565225	0.001373291015625	0.00146484375	-1.74285888671875E-06	-2.55301602081204E-09	-840.483276367188	2.45939354499569E-05
1	319	96.5366907562683	-0.008697509765625	-0.0085906982421875	-1.8231201171875E-06	1.56618753521798E-08	4712.0859375	2.44143739109859E-05
1	320	96.637398756014	-0.018768310546875	-0.0186065673828125	-1.84906005859375E-06	3.44046604539017E-08	10062.716796875	2.42294663621578E-05
1	321	96.7381067557598	-0.028839111328125	-0.0286773681640625	-1.83013916015625E-06	5.24835748194619E-08	15669.501953125	2.40442041103961E-05
1	322	96.8388147555055	-0.038909912109375	-0.0387725830078125	-1.78192138671875E-06	6.90896939659069E-08	21758.86328125	2.38623215409461E-05
1	323	96.9395227552512	-0.048980712890625	-0.048846435546875	-1.717529296875E-06	8.38951805803845E-08	28439.943359375	2.36861105804564E-05
1	324	97.040230754997	-0.059051513671875	-0.059051513671875	-1.64703369140625E-06	9.72598286352877E-08	35853.25390625	2.35166917263996E-05
1	325	97.1409387547427	-0.069122314453125	-0.06903076171875	-1.57745361328125E-06	1.08892820094297E-07	43760.8828125	2.33543250942603E-05
1	326	97.2416467544884	-0.079193115234375	-0.0791015625	-1.51275634765625E-06	1.19661379471836E-07	52289.6953125	2.31987214647233E-05
1	327	97.3423547542342	-0.089263916015625	-0.0892333984375	-1.453857421875E-06	1.29732640630209E-07	61376.99609375	2.3049340597936E-05
1	328	97.4430627539799	-0.099334716796875	-0.0992431640625	-1.402587890625E-06	1.39197254611645E-07	70757.1796875	2.290550582984E-05
1	329	97.5437707537257	-0.109405517578125	-0.109283447265625	-1.35772705078125E-06	1.48377083064588E-07	80490	2.27665132115362E-05
1	330	97.6444787534714	-0.119476318359375	-0.119384765625	-1.3189697265625E-06	1.57464882022396E-07	90513.65625	2.26317315537017E-05
1	331	97.7451867532171	-0.129547119140625	-0.12945556640625	-1.2860107421875E-06	1.6648124301355E-07	100664.453125	2.25005605898332E-05
1	332	97.8458947529629	-0.139617919921875	-0.139556884765625	-1.25701904296875E-06	1.75425654447281E-07	111022.09375	2.23725091927918E-05
1	333	97.9466027527086	-0.149688720703125	-0.149627685546875	-1.2322998046875E-06	1.8438615256855E-07	121421.5	2.2247160814004E-05
1	334	98.0473107524543	-0.159759521484375	-0.15960693359375	-1.2115478515625E-06	1.93371420209587E-07	131738.046875	2.21241043618647E-05
1	335	98.1480187522001	-0.169830322265625	-0.169647216796875	-1.19415283203125E-06	2.0258470101453E-07	142064.921875	2.20029669435462E-05
1	336	98.2487267519458	-0.179901123046875	-0.179718017578125	-1.18011474609375E-06	2.12087883255663E-07	152288.59375	2.18834138649981E-05
1	337	98.3494347516915	-0.189971923828125	-0.189788818359375	-1.16851806640625E-06	2.21771642827662E-07	162418.390625	2.17651504499372E-05
1	338	98.4501427514373	-0.200042724609375	-0.19989013671875	-1.15966796875E-06	2.31806183137451E-07	172368.421875	2.16479165828787E-05
1	339	98.550850751183	-0.189971923828125	-0.189849853515625	-1.00921630859375E-06	1.91599554000277E-07	188116.125	2.15387044590898E-05
2	340	98.6515587509288	-0.179901123046875	-0.1796875	-9.06982421874999E-07	1.62973393003085E-07	198115.75	2.14422161661787E-05
2	341	98.7522667506745	-0.169830322265625	-0.169708251953125	-8.2550048828125E-07	1.40094243761268E-07	205582.25	2.1354979253374E-05
2	342	98.8529747504202	-0.159759521484375	-0.159637451171875	-7.5531005859375E-07	1.20575776918486E-07	211353.53125	2.12753784580855E-05
2	343	98.953682750166	-0.149688720703125	-0.1495361328125	-6.94580078125E-07	1.03864820744093E-07	215289.984375	2.12023714993848E-05
2	344	99.0543907499117	-0.139617919921875	-0.13946533203125	-6.39953613281249E-07	8.92513440930998E-08	217930.375	2.11351725738496E-05
2	345	99.1550987496574	-0.129547119140625	-0.12945556640625	-5.9112548828125E-07	7.65244791978148E-08	218998.46875	2.10731814149767E-05
2	346	99.2558067494032	-0.119476318359375	-0.11944580078125	-5.450439453125E-07	6.51032081577796E-08	219148.953125	2.10159723792458E-05
2	347	99.3565147491489	-0.109405517578125	-0.10931396484375	-5.0079345703125E-07	5.47437153386454E-08	218281.546875	2.09633089980343E-05
2	348	99.4572227488947	-0.099334716796875	-0.09930419921875	-4.5745849609375E-07	4.54275514982783E-08	217078.046875	2.09150584851159E-05
2	349	99.5579307486404	-0.089263916015625	-0.089141845703125	-4.12902832031251E-07	3.68069201783783E-08	215890.609375	2.08712317544268E-05
2	350	99.6586387483861	-0.079193115234375	-0.07916259765625	-3.65295410156249E-07	2.89177322088108E-08	216708.453125	2.08320452657063E-05
2	351	99.7593467481319	-0.069122314453125	-0.069061279296875	-3.12194824218751E-07	2.15605737707847E-08	221212.125	2.07979319384322E-05
2	352	99.8600547478776	-0.059051513671875	-0.058990478515625	-2.50244140625E-07	1.47620218271527E-08	235731.703125	2.07696102734189E-05
2	353	99.9607627476233	-0.048980712890625	-0.0488006591796875	-1.7578125E-07	8.57824034028454E-09	277621.53125	2.07481589313829E-05
2	354	100.061470747369	-0.038909912109375	-0.0387451171875	-8.20922851562503E-08	3.18067505666875E-09	471970.25	2.0735173166031E-05
2	355	100.162178747115	-0.028839111328125	-0.028704833984375	3.662109375E-08	-1.05120234739076E-09	-783833.375	2.07328848773614E-05
2	356	100.262886746861	-0.018768310546875	-0.01865234375	1.85241699218749E-07	-3.45519168831743E-09	-100691.9375	2.07440552912885E-05
2	357	100.363594746606	-0.008697509765625	-0.00859985351562501	3.6590576171875E-07	-3.14673576085056E-09	-23502.91796875	2.07718076126184E-05
2	358	100.464302746352	0.001373291015625	0.0014678955078125	5.7708740234375E-07	8.47103998058429E-10	2543.62768554688	2.0819292330998E-05
2	359	100.565010746098	0.011444091796875	0.01156005859375	8.099365234375E-07	9.36291311148807E-09	14272.794921875	2.08891342481365E-05
2	360	100.665718745843	0.021514892578125	0.0216339111328125	1.04705810546875E-06	2.26519620838417E-08	20661.6171875	2.09826412174152E-05
2	361	100.766426745589	0.031585693359375	0.0316802978515625	1.2664794921875E-06	4.0122444033841E-08	25014.458984375	2.10991365747759E-05
2	362	100.867134745335	0.041656494140625	0.0417327880859375	1.448974609375E-06	6.04697447670333E-08	28801.6015625	2.12358700082405E-05
2	363	100.967842745081	0.051727294921875	0.0517578125	1.5777587890625E-06	8.16613408005651E-08	32804.640625	2.13882794923848E-05
2	364	101.068550744826	0.061798095703125	0.06182861328125	1.6497802734375E-06	1.02003617996616E-07	37476.87890625	2.1550798919634E-05
2	365	101.169258744572	0.071868896484375	0.071929931640625	1.669921875E-06	1.20117363167083E-07	43073.83203125	2.17179585888516E-05
2	366	101.269966744318	0.081939697265625	0.08203125	1.65191650390625E-06	1.35508770426895E-07	49658.23046875	2.18852273974335E-05
2	367	101.370674744064	0.092010498046875	0.092071533203125	1.60797119140625E-06	1.48048371784171E-07	57259.44140625	2.20493748201989E-05
2	368	101.471382743809	0.102081298828125	0.10211181640625	1.55059814453125E-06	1.58334387379E-07	65853.1796875	2.22084217966767E-05
2	369	101.572090743555	0.112152099609375	0.112213134765625	1.48773193359375E-06	1.6694305315923E-07	75425.640625	2.23614133574301E-05
2	370	101.672798743301	0.122222900390625	0.122283935546875	1.42578125E-06	1.7435013432987E-07	85766.2734375	2.25081203097943E-05
2	371	101.773506743047	0.132293701171875	0.132293701171875	1.3671875E-06	1.80870287636026E-07	96763.3984375	2.26487572945189E-05
2	372	101.874214742792	0.142364501953125	0.14239501953125	1.3140869140625E-06	1.87119425731908E-07	108360.4375	2.27837699640077E-05
2	373	101.974922742538	0.152435302734375	0.1524658203125	1.2664794921875E-06	1.93094834344265E-07	120385.546875	2.29137131100288E-05
2	374	102.075630742284	0.162506103515625	0.1624755859375	1.224365234375E-06	1.98929456018959E-07	132701.90625	2.30391360673821E-05
2	375	102.17633874203	0.172576904296875	0.172607421875	1.1871337890625E-06	2.04908104706192E-07	145398.453125	2.31605645240052E-05
2	376	102.277046741775	0.182647705078125	0.1826171875	1.1541748046875E-06	2.10772157061001E-07	158223.15625	2.32784586842172E-05
2	377	102.377754741521	0.192718505859375	0.192718505859375	1.12457275390625E-06	2.16725965174192E-07	171370.4375	2.33932041737717E-05
2	378	102.478462741267	0.202789306640625	0.202880859375	1.09771728515625E-06	2.22705821784075E-07	184820.6875	2.3505104763899E-05
2	379	102.579170741012	0.212860107421875	0.212921142578125	1.07421875E-06	2.28723877171433E-07	198210.234375	2.36144696827978E-05
2	380	102.679878740758	0.222930908203125	0.22296142578125	1.05255126953125E-06	2.3467833898394E-07	211829.515625	2.37215608649421E-05
2	381	102.780586740504	0.233001708984375	0.2330322265625	1.03485107421875E-06	2.4115362862176E-07	225184.3125	2.3826671167626E-05
2	382	102.88129474025	0.243072509765625	0.24310302734375	1.01776123046875E-06	2.4742081450313E-07	238860.578125	2.39300279645249E-05
2	383	102.982002739995	0.253143310546875	0.253143310546875	1.00311279296875E-06	2.53931290217224E-07	252357.78125	2.40317876887275E-05
2	384	103.082710739741	0.263214111328125	0.26318359375	9.89685058593751E-07	2.60468880242115E-07	265926.59375	2.41321322391741E-05
2	385	103.183418739487	0.273284912109375	0.273284912109375	9.77478027343751E-07	2.67129962594481E-07	279581.65625	2.42311871261336E-05
2	386	103.284126739233	0.283355712890625	0.283355712890625	9.661865234375E-07	2.7377444666854E-07	293272.28125	2.43290578509914E-05
2	387	103.384834738978	0.293426513671875	0.29339599609375	9.55810546875E-07	2.80430981547397E-07	306960.4375	2.44258390011964E-05
2	388	103.485542738724	0.303497314453125	0.303466796875	9.46960449218751E-07	2.87371051399532E-07	320464.0625	2.45216506300494E-05
2	389	103.58625073847	0.313568115234375	0.31353759765625	9.3963623046875E-07	2.94611282924961E-07	333679.78125	2.46166473516496E-05
2	390	103.686958738216	0.323638916015625	0.32366943359375	9.33227539062501E-07	3.02057230783248E-07	346828	2.47109546762658E-05
2	391	103.787666737961	0.333709716796875	0.333709716796875	9.2803955078125E-07	3.09695820988054E-07	359585.6875	2.48046762862941E-05
2	392	103.888374737707	0.343780517578125	0.34375	9.22241210937499E-07	3.17020408147073E-07	372733.28125	2.48978449235437E-05
2	393	103.989082737453	0.353851318359375	0.353912353515625	9.17663574218749E-07	3.24772457815925E-07	385666.78125	2.49904915108345E-05
2	394	104.089790737199	0.363922119140625	0.363983154296875	9.136962890625E-07	3.32570067484994E-07	398363.40625	2.50827088166261E-05
2	395	104.190498736944	0.373992919921875	0.3740234375	9.1064453125E-07	3.40602383630539E-07	410723.875	2.5174571419484E-05
2	396	104.29120673669	0.384063720703125	0.38409423828125	9.075927734375E-07	3.48601162158957E-07	423201.0625	2.52661266131327E-05
2	397	104.391914736436	0.394134521484375	0.3941650390625	9.0606689453125E-07	3.57139896323133E-07	435028.625	2.53574526141165E-05
2	398	104.492622736181	0.404205322265625	0.404205322265625	9.03930664062499E-07	3.65373580279993E-07	447164.09375	2.54485930781811E-05
2	399	104.593330735927	0.414276123046875	0.414276123046875	9.0179443359375E-07	3.73591888092051E-07	459390.875	2.55395189014962E-05
2	400	104.694038735673	0.424346923828125	0.42437744140625	9.0087890625E-07	3.82312663305129E-07	471070.46875	2.56302901107119E-05
2	401	104.794746735419	0.434417724609375	0.434417724609375	8.99658203125001E-07	3.90827466389965E-07	482869.75	2.57209539995529E-05
2	402	104.895454735164	0.444488525390625	0.44451904296875	8.984375E-07	3.99372567017053E-07	494769.03125	2.58114960161038E-05
2	403	104.99616273491	0.454559326171875	0.45452880859375	8.9691162109375E-07	4.07672160918082E-07	506771	2.59018979704706E-05
2	404	105.096870734656	0.464630126953125	0.46466064453125	8.96606445312501E-07	4.16617723431045E-07	518243.71875	2.59922089753672E-05
2	405	105.197578734402	0.474700927734375	0.474639892578125	8.96606445312501E-07	4.2556519019854E-07	529373.75	2.60825054283487E-05
2	406	105.298286734147	0.484771728515625	0.4847412109375	8.97216796875E-07	4.34917922120803E-07	540272.125	2.61728309851605E-05
2	407	105.398994733893	0.494842529296875	0.49481201171875	8.98132324218751E-07	4.44406651922691E-07	550934.4375	2.62632329395274E-05
2	408	105.499702733639	0.504913330078125	0.504852294921875	8.99658203125001E-07	4.54194491794624E-07	561160.125	2.6353760404163E-05
2	409	105.600410733385	0.514984130859375	0.5150146484375	9.0087890625E-07	4.63965818653378E-07	571680.25	2.6444424293004E-05
2	410	105.70111873313	0.525054931640625	0.52496337890625	9.02404785156249E-07	4.73729443228876E-07	581738.25	2.65352264250396E-05
2	411	105.801826732876	0.535125732421875	0.53509521484375	9.051513671875E-07	4.84342137951899E-07	591166.5625	2.66262450168142E-05
2	412	105.902534732622	0.545196533203125	0.545166015625	9.075927734375E-07	4.94788764626719E-07	600672.5	2.67175237240735E-05
2	413	106.003242732368	0.555267333984375	0.555206298828125	9.1064453125E-07	5.05595551203442E-07	609685	2.68090789177222E-05
2	414	106.103950732113	0.565338134765625	0.565338134765625	9.14611816406249E-07	5.17064904670406E-07	618118.125	2.69009869953152E-05
2	415	106.204658731859	0.575408935546875	0.57537841796875	9.19189453124999E-07	5.28881741956866E-07	625962.875	2.69933261733968E-05
2	416	106.305366731605	0.585479736328125	0.585479736328125	9.24072265625001E-07	5.41025599432032E-07	633586.5625	2.70861419267021E-05
2	417	106.40607473135	0.595550537109375	0.595550537109375	9.29870605468749E-07	5.53784900603205E-07	640466.0625	2.71794961008709E-05
2	418	106.506782731096	0.605621337890625	0.605560302734375	9.35974121093749E-07	5.66788742162316E-07	646984.0625	2.72734487225534E-05
2	419	106.607490730842	0.615692138671875	0.6156005859375	9.429931640625E-07	5.80507162339927E-07	652815.5625	2.73680616373895E-05
2	420	106.708198730588	0.625762939453125	0.62579345703125	9.503173828125E-07	5.94702385114942E-07	658509.9375	2.74633985100081E-05
2	421	106.808906730333	0.635833740234375	0.63580322265625	9.58251953125E-07	6.09259643624682E-07	663503.1875	2.75595011771657E-05
2	422	106.909614730079	0.645904541015625	0.6458740234375	9.6771240234375E-07	6.25020277311705E-07	667423.5625	2.76564824162051E-05
2	423	107.010322729825	0.655975341796875	0.65594482421875	9.771728515625E-07	6.4097145013875E-07	671268	2.77544149867026E-05
2	424	107.111030729571	0.666046142578125	0.665924072265625	9.8846435546875E-07	6.58242186091229E-07	673695.625	2.78533916571178E-05
2	425	107.211738729316	0.676116943359375	0.676116943359375	9.991455078125E-07	6.75539240546641E-07	676695.1875	2.79534760920797E-05
2	426	107.312446729062	0.686187744140625	0.686126708984375	1.009521484375E-06	6.92659682499652E-07	679655.375	2.80546209978638E-05
2	427	107.413154728808	0.696258544921875	0.696197509765625	1.0186767578125E-06	7.09200207893446E-07	683433.25	2.81567481579259E-05
2	428	107.513862728554	0.706329345703125	0.706298828125	1.0272216796875E-06	7.25525410416594E-07	687581.75	2.82597684417851E-05
2	429	107.614570728299	0.716400146484375	0.716339111328125	1.03424072265625E-06	7.40867051263194E-07	692623.25	2.83635708910879E-05
2	430	107.715278728045	0.726470947265625	0.726409912109375	1.0406494140625E-06	7.55938060592598E-07	698035.1875	2.84680500044487E-05
2	431	107.815986727791	0.736541748046875	0.7364501953125	1.046142578125E-06	7.70431881846889E-07	703967.375	2.85731275653234E-05
2	432	107.916694727537	0.746612548828125	0.74652099609375	1.05194091796875E-06	7.8529598113164E-07	709660.5625	2.86787744698813E-05
2	433	108.017402727282	0.756683349609375	0.75653076171875	1.0565185546875E-06	7.99288727648673E-07	716060.125	2.87849452433875E-05
2	434	108.118110727028	0.766754150390625	0.7672119140625	1.06170654296875E-06	8.14553857253486E-07	722621.5	2.88916053250432E-05
2	435	108.218818726774	0.776824951171875	0.7769775390625	1.0675048828125E-06	8.2942727885893E-07	727844.5	2.8998820198467E-05
2	436	108.319526726519	0.786895751953125	0.78704833984375	1.07330322265625E-06	8.44741521177639E-07	733295.4375	2.91066189674893E-05
2	437	108.420234726265	0.796966552734375	0.797119140625	1.08184814453125E-06	8.62361844156112E-07	736812.375	2.92151380563155E-05
2	438	108.520942726011	0.807037353515625	0.8074951171875	1.09130859375E-06	8.81226355886611E-07	739932.875	2.93245666398434E-05
2	439	108.621650725757	0.817108154296875	0.8172607421875	1.102294921875E-06	9.00862289654469E-07	741417.5625	2.94350229523843E-05
2	440	108.722358725502	0.827178955078125	0.82763671875	1.11572265625E-06	9.23413040254673E-07	741794.3125	2.9546708901762E-05
2	441	108.823066725248	0.837249755859375	0.83770751953125	1.129150390625E-06	9.45897795645578E-07	741891.875	2.96597463602666E-05
2	442	108.923774724994	0.847320556640625	0.84747314453125	1.14227294921875E-06	9.68045583249477E-07	741918.25	2.97741225949721E-05
2	443	109.02448272474	0.857391357421875	0.8575439453125	1.1553955078125E-06	9.90802391243051E-07	742208.1875	2.98898194159847E-05
2	444	109.125190724485	0.867462158203125	0.867919921875	1.16729736328125E-06	1.01312059541669E-06	743529.4375	3.00067749776645E-05
2	445	109.225898724231	0.877532958984375	0.877685546875	1.175537109375E-06	1.03175193544303E-06	746625.125	3.01247473544208E-05
2	446	109.326606723977	0.887603759765625	0.887451171875	1.18194580078125E-06	1.04891921637318E-06	750839.1875	3.02434564218856E-05
2	447	109.427314723723	0.897674560546875	0.8978271484375	1.1865234375E-06	1.0652928494892E-06	756687.25	3.03627166431397E-05
2	448	109.528022723468	0.907745361328125	0.90789794921875	1.18927001953125E-06	1.07973573904019E-06	763407.8125	3.04823479382321E-05
2	449	109.628730723214	0.917816162109375	0.91796875	1.19110107421875E-06	1.09339362097671E-06	770689.1875	3.06022084259894E-05
2	450	109.72943872296	0.927886962890625	0.92803955078125	1.19140625E-06	1.10567214051116E-06	778944.6875	3.07221780531108E-05
2	451	109.830146722706	0.937957763671875	0.93841552734375	1.19110107421875E-06	1.11774772904027E-06	787855.5	3.08421476802323E-05
2	452	109.930854722451	0.948028564453125	0.94818115234375	1.19049072265625E-06	1.12880081815092E-06	796462.4375	3.09620700136293E-05
2	453	110.031562722197	0.958099365234375	0.95855712890625	1.190185546875E-06	1.14086083158327E-06	805384.625	3.10819450533018E-05
2	454	110.132270721943	0.968170166015625	0.96832275390625	1.19049072265625E-06	1.15277919121581E-06	813381.1875	3.1201823730953E-05
2	455	110.232978721688	0.978240966796875	0.977783203125	1.19110107421875E-06	1.16463866106642E-06	820907	3.132174606435E-05
2	456	110.333686721434	0.988311767578125	0.98846435546875	1.19140625E-06	1.17766262519581E-06	829661.875	3.14417156914715E-05
2	457	110.43439472118	0.998382568359375	0.9979248046875	1.19232177734375E-06	1.18984746677597E-06	836959.3125	3.15617435262538E-05
2	458	110.535102720926	1.00845336914063	1.00860595703125	1.1932373046875E-06	1.2035062582072E-06	845268.5625	3.16818659484852E-05
2	459	110.635810720671	1.01852416992188	1.0186767578125	1.19476318359375E-06	1.21707751077338E-06	852618.125	3.1802112061996E-05
2	460	110.736518720417	1.02859497070313	1.02813720703125	1.19537353515625E-06	1.22900803489756E-06	860097	3.19224636768922E-05
2	461	110.837226720163	1.03866577148438	1.038818359375	1.1968994140625E-06	1.24336099815991E-06	867924.5625	3.20429244311526E-05
2	462	110.937934719909	1.04873657226563	1.048583984375	1.1981201171875E-06	1.25632959679933E-06	875191.0625	3.21635234286077E-05
2	463	111.038642719654	1.05880737304688	1.0589599609375	1.2005615234375E-06	1.27134660488082E-06	882053.875	3.2284307962982E-05
2	464	111.1393507194	1.06887817382813	1.06903076171875	1.20330810546875E-06	1.28637339003035E-06	888409.8125	3.24053507938515E-05
2	465	111.240058719146	1.07894897460938	1.0791015625	1.2066650390625E-06	1.30211412852077E-06	894284.25	3.25267028529197E-05
2	466	111.340766718892	1.08901977539063	1.08917236328125	1.209716796875E-06	1.31759009036614E-06	900353.25	3.26483786921017E-05
2	467	111.441474718637	1.09909057617188	1.0992431640625	1.21307373046875E-06	1.33346293296199E-06	906163.5625	3.27703746734187E-05
2	468	111.542182718383	1.10916137695313	1.1090087890625	1.21612548828125E-06	1.34869389967207E-06	911919.6875	3.28926944348495E-05
2	469	111.642890718129	1.11923217773438	1.11968994140625	1.21978759765625E-06	1.36578387355257E-06	917938.5	3.30153525283094E-05
2	470	111.743598717875	1.12930297851563	1.129150390625	1.22406005859375E-06	1.38214784328738E-06	922463.25	3.31384107994381E-05
2	471	111.84430671762	1.13937377929688	1.1395263671875	1.22894287109375E-06	1.40041288432258E-06	927241.125	3.32619310938753E-05
2	472	111.945014717366	1.14944458007813	1.14959716796875	1.23382568359375E-06	1.41840246214997E-06	931733.875	3.33859388774727E-05
2	473	112.045722717112	1.15951538085938	1.1590576171875	1.23931884765625E-06	1.43644194849912E-06	935237.625	3.3510474167997E-05
2	474	112.146430716857	1.16958618164063	1.16973876953125	1.24481201171875E-06	1.45610488289094E-06	939691.125	3.36355587933213E-05
2	475	112.247138716603	1.17965698242188	1.1798095703125	1.2506103515625E-06	1.47548200857273E-06	943387	3.37612145813182E-05
2	476	112.347846716349	1.18972778320313	1.1895751953125	1.2567138671875E-06	1.49495565437974E-06	946576	3.38874669978395E-05
2	477	112.448554716095	1.19979858398438	1.19964599609375	1.2628173828125E-06	1.51493384237256E-06	949975.875	3.40143342327792E-05
2	478	112.54926271584	1.20986938476563	1.21002197265625	1.26953125E-06	1.53616076659091E-06	953125	3.41418490279466E-05
2	479	112.649970715586	1.21994018554688	1.22039794921875	1.27777099609375E-06	1.55938903390052E-06	955099.1875	3.4270116884727E-05
2	480	112.750678715332	1.23001098632813	1.23016357421875	1.28570556640625E-06	1.58162799834827E-06	956800.4375	3.43991960107815E-05
2	481	112.851386715078	1.24008178710938	1.23992919921875	1.29486083984375E-06	1.6055356582001E-06	957577.25	3.45291373378132E-05
2	482	112.952094714823	1.25015258789063	1.25	1.30462646484375E-06	1.63078300374764E-06	958128.6875	3.46600318152923E-05
2	483	113.052802714569	1.26022338867188	1.2603759765625	1.3153076171875E-06	1.65778214977763E-06	958236.6875	3.47919594787527E-05
2	484	113.153510714315	1.27029418945313	1.2701416015625	1.32598876953125E-06	1.68419342116977E-06	957882.6875	3.49249567079823E-05
2	485	113.254218714061	1.28036499023438	1.28021240234375	1.3372802734375E-06	1.71200269960536E-06	957325.5	3.50590635207482E-05
2	486	113.354926713806	1.29043579101563	1.29058837890625	1.34979248046875E-06	1.74202648395294E-06	956138.375	3.51943672285415E-05
2	487	113.455634713552	1.30050659179688	1.30035400390625	1.36322021484375E-06	1.77266883838456E-06	953884	3.53309806087054E-05
2	488	113.556342713298	1.31057739257813	1.3104248046875	1.37847900390625E-06	1.80639301561314E-06	950631	3.54690346284769E-05
2	489	113.657050713044	1.32064819335938	1.32080078125	1.39434814453125E-06	1.84165617156395E-06	947253.25	3.56086566171143E-05
2	490	113.757758712789	1.33071899414063	1.33087158203125	1.41143798828125E-06	1.87844273114024E-06	942918.9375	3.57499411620665E-05
2	491	113.858466712535	1.34078979492188	1.34063720703125	1.42913818359375E-06	1.9159558632964E-06	938073.9375	3.5892975574825E-05
2	492	113.959174712281	1.35086059570313	1.35040283203125	1.44744873046875E-06	1.95463871932589E-06	932953.875	3.60378217010293E-05
2	493	114.059882712026	1.36093139648438	1.3604736328125	1.466064453125E-06	1.99454188987147E-06	927976.6875	3.61845304723829E-05
2	494	114.160590711772	1.37100219726563	1.370849609375	1.4862060546875E-06	2.03736476578342E-06	922382	3.63331892003771E-05
2	495	114.261298711518	1.38107299804688	1.38092041015625	1.50726318359375E-06	2.08141045732191E-06	916177.375	3.64839215762913E-05
2	496	114.362006711264	1.39114379882813	1.39068603515625	1.52923583984375E-06	2.12668692256557E-06	909399.375	3.66368221875746E-05
2	497	114.462714711009	1.40121459960938	1.40106201171875	1.552734375E-06	2.17547722058953E-06	902319.1875	3.67920110875275E-05
2	498	114.563422710755	1.41128540039063	1.41143798828125	1.578369140625E-06	2.22776998271002E-06	894238.25	3.69496738130692E-05
2	499	114.664130710501	1.42135620117188	1.42120361328125	1.60552978515625E-06	2.28178464567463E-06	885192.9375	3.7109995901119E-05
2	500	114.764838710247	1.43142700195313	1.431884765625	1.6357421875E-06	2.34219419326109E-06	875373.1875	3.72732065443415E-05
2	501	114.865546709992	1.44149780273438	1.4410400390625	1.668701171875E-06	2.40466511058912E-06	863569.875	3.74396004190203E-05
2	502	114.966254709738	1.45156860351563	1.45172119140625	1.70745849609375E-06	2.47875345849025E-06	850223.4375	3.76096031686757E-05
2	503	115.066962709484	1.46163940429688	1.4617919921875	1.751708984375E-06	2.56063412962249E-06	834494.8125	3.77837859559804E-05
2	504	115.16767070923	1.47171020507813	1.47186279296875	1.80206298828125E-06	2.65238941210555E-06	816765.5	3.79627308575436E-05
2	505	115.268378708975	1.48178100585938	1.4813232421875	1.859130859375E-06	2.75397383120435E-06	796782.6875	3.81470890715718E-05
2	506	115.369086708721	1.49185180664063	1.49200439453125	1.923828125E-06	2.87035982182715E-06	775539.375	3.83375736419111E-05
2	507	115.469794708467	1.50192260742188	1.50238037109375	1.99462890625E-06	2.99669113701384E-06	753213.0625	3.85348866984714E-05
2	508	115.570502708213	1.49185180664063	1.49169921875	1.7657470703125E-06	2.63396350419498E-06	844797.8125	3.87242362194229E-05
2	509	115.671210707958	1.48178100585938	1.48223876953125	1.60064697265625E-06	2.3725408482278E-06	926024.8125	3.88937478419393E-05
2	510	115.771918707704	1.47171020507813	1.4715576171875	1.47125244140625E-06	2.16503258343437E-06	1000207.4375	3.90484274248593E-05
2	511	115.87262670745	1.46163940429688	1.4617919921875	1.36627197265625E-06	1.99720534510561E-06	1069912.875	3.91913090425078E-05
2	512	115.973334707195	1.45156860351563	1.45172119140625	1.279296875E-06	1.8571823829916E-06	1134780.625	3.93245245504659E-05
2	513	116.074042706941	1.44149780273438	1.4410400390625	1.20635986328125E-06	1.73841272044228E-06	1194535.875	3.94496855733451E-05
2	514	116.174750706687	1.43142700195313	1.43157958984375	1.14410400390625E-06	1.63787592555309E-06	1251267	3.9568043575855E-05
2	515	116.275458706433	1.42135620117188	1.42120361328125	1.0919189453125E-06	1.55183909100742E-06	1301565.25	3.96806353819557E-05
2	516	116.376166706178	1.41128540039063	1.4117431640625	1.046142578125E-06	1.4768845630897E-06	1349475	3.97882940887939E-05
2	517	116.476874705924	1.40121459960938	1.4013671875	1.00555419921875E-06	1.40915062729619E-06	1393626.75	3.98916054109577E-05
2	518	116.57758270567	1.39114379882813	1.3909912109375	9.7015380859375E-07	1.34947538299457E-06	1433784.25	3.99910895794164E-05
2	519	116.678290705416	1.38107299804688	1.380615234375	9.38720703125E-07	1.2960121011929E-06	1470741.25	4.00872122554574E-05
2	520	116.778998705161	1.37100219726563	1.370849609375	9.112548828125E-07	1.24919336030871E-06	1504353.75	4.0180362702813E-05
2	521	116.879706704907	1.36093139648438	1.36138916015625	8.868408203125E-07	1.20733545827534E-06	1535099.875	4.02709047193639E-05
2	522	116.980414704653	1.35086059570313	1.35040283203125	8.6517333984375E-07	1.16833246011083E-06	1560846.625	4.03591257054359E-05
2	523	117.081122704399	1.34078979492188	1.34063720703125	8.4503173828125E-07	1.13288092506991E-06	1586493.375	4.04452403017785E-05
2	524	117.181830704144	1.33071899414063	1.33087158203125	8.270263671875E-07	1.10066582692525E-06	1609225.125	4.05294376832899E-05
2	525	117.28253870389	1.32064819335938	1.32110595703125	8.099365234375E-07	1.07001199012302E-06	1631122.875	4.06118633691221E-05
2	526	117.383246703636	1.31057739257813	1.31072998046875	7.9345703125E-07	1.04000787359837E-06	1651923.125	4.06926010327879E-05
2	527	117.483954703382	1.30050659179688	1.3006591796875	7.79113769531251E-07	1.01336149782583E-06	1669408.625	4.07717852795031E-05
2	528	117.584662703127	1.29043579101563	1.29058837890625	7.6568603515625E-07	9.88185433925537E-07	1685532.125	4.08495725423563E-05
2	529	117.685370702873	1.28036499023438	1.27960205078125	7.53173828125001E-07	9.63762772698828E-07	1698946.5	4.09260537708178E-05
2	530	117.786078702619	1.27029418945313	1.27044677734375	7.415771484375E-07	9.42134306569642E-07	1713168.75	4.10013199143577E-05
2	531	117.886786702364	1.26022338867188	1.26007080078125	7.31201171875E-07	9.21365256090212E-07	1723288.875	4.10754801123403E-05
2	532	117.98749470211	1.25015258789063	1.25030517578125	7.2052001953125E-07	9.00869906672597E-07	1735281.75	4.114858165849E-05
2	533	118.088202701856	1.24008178710938	1.240234375	7.1075439453125E-07	8.81501989624667E-07	1744955	4.12206536566373E-05
2	534	118.188910701602	1.23001098632813	1.23016357421875	7.0068359375E-07	8.61955413711257E-07	1755662	4.12917252106126E-05
2	535	118.289618701347	1.21994018554688	1.21978759765625	6.9122314453125E-07	8.43145414819446E-07	1764679.875	4.13618108723313E-05
2	536	118.390326701093	1.20986938476563	1.21002197265625	6.82983398437501E-07	8.26424923161539E-07	1771671.125	4.1431008867221E-05
2	537	118.491034700839	1.19979858398438	1.19964599609375	6.75048828124999E-07	8.09819596270245E-07	1777124.875	4.14993919548579E-05
2	538	118.591742700585	1.18972778320313	1.18988037109375	6.67724609375001E-07	7.94512345692056E-07	1781992.75	4.15670037909877E-05
2	539	118.69245070033	1.17965698242188	1.17950439453125	6.6131591796875E-07	7.80025004587515E-07	1783571.875	4.16339280491229E-05
2	540	118.793158700076	1.16958618164063	1.16912841796875	6.5460205078125E-07	7.65313870942919E-07	1786014	4.17001901951153E-05
2	541	118.893866699822	1.15951538085938	1.15997314453125	6.47888183593751E-07	7.51532866161142E-07	1790391	4.17657756770495E-05
2	542	118.994574699568	1.14944458007813	1.14959716796875	6.40869140625E-07	7.36741355922277E-07	1793809.5	4.18306699430104E-05
2	543	119.095282699313	1.13937377929688	1.13922119140625	6.33850097656249E-07	7.22095478522533E-07	1797303.75	4.1894854803104E-05
2	544	119.195990699059	1.12930297851563	1.129150390625	6.2713623046875E-07	7.08131096871512E-07	1800486.625	4.19583520852029E-05
2	545	119.296698698805	1.11923217773438	1.11968994140625	6.207275390625E-07	6.95022379204602E-07	1803834.875	4.2021187255159E-05
2	546	119.397406698551	1.10916137695313	1.1090087890625	6.146240234375E-07	6.81623419040989E-07	1804369.5	4.20833930547815E-05
2	547	119.498114698296	1.09909057617188	1.0992431640625	6.085205078125E-07	6.68912036871916E-07	1806419.25	4.21449803980067E-05
2	548	119.598822698042	1.08901977539063	1.0894775390625	6.01806640625E-07	6.55654787351523E-07	1810344.875	4.22059274569619E-05
2	549	119.699530697788	1.07894897460938	1.0791015625	5.9478759765625E-07	6.41836209069879E-07	1814263.75	4.2266179661965E-05
2	550	119.800238697533	1.06887817382813	1.06903076171875	5.8746337890625E-07	6.2801643707644E-07	1819740.25	4.23257115471642E-05
2	551	119.900946697279	1.05880737304688	1.0589599609375	5.79223632812501E-07	6.13374652402854E-07	1828240.25	4.23844576289412E-05
2	552	120.001654697025	1.04873657226563	1.04827880859375	5.71289062499999E-07	5.98870201429236E-07	1834936	4.24423924414441E-05
2	553	120.102362696771	1.03866577148438	1.03851318359375	5.63659667968749E-07	5.85367956773553E-07	1842447.375	4.24995414505247E-05
2	554	120.203070696516	1.02859497070313	1.029052734375	5.5572509765625E-07	5.71870430121635E-07	1851729.875	4.2555904656183E-05
2	555	120.303778696262	1.01852416992188	1.0186767578125	5.48400878906249E-07	5.586431939264E-07	1857540.375	4.26115038862918E-05
2	556	120.404486696008	1.00845336914063	1.00799560546875	5.40771484374999E-07	5.45095247161953E-07	1863995.625	4.26663464168087E-05
2	557	120.505194695754	0.998382568359375	0.99884033203125	5.3253173828125E-07	5.31914167822833E-07	1875644.75	4.27203922299668E-05
2	558	120.605902695499	0.988311767578125	0.98846435546875	5.2459716796875E-07	5.18545618888311E-07	1884235	4.27736231358722E-05
2	559	120.706610695245	0.978240966796875	0.97808837890625	5.16357421875E-07	5.05043203702371E-07	1894208	4.28260391345248E-05
2	560	120.807318694991	0.968170166015625	0.9686279296875	5.07507324218751E-07	4.9158575166075E-07	1908599	4.28775929322001E-05
2	561	120.908026694737	0.958099365234375	0.95794677734375	4.99267578125E-07	4.78271772408334E-07	1918704.125	4.29282881668769E-05
2	562	121.008734694482	0.948028564453125	0.948486328125	4.90722656250001E-07	4.6544371912205E-07	1932835.875	4.29781393904705E-05
2	563	121.109442694228	0.937957763671875	0.93780517578125	4.82177734375E-07	4.52188743338411E-07	1944936.75	4.30271284130868E-05
2	564	121.210150693974	0.927886962890625	0.927734375	4.7332763671875E-07	4.39122288753424E-07	1960025.875	4.30752443207894E-05
2	565	121.31085869372	0.917816162109375	0.91796875	4.638671875E-07	4.25815557036913E-07	1978947.5	4.31224325438961E-05
2	566	121.411566693465	0.907745361328125	0.90789794921875	4.5318603515625E-07	4.11446677617278E-07	2003367	4.31686130468734E-05
2	567	121.512274693211	0.897674560546875	0.8978271484375	4.412841796875E-07	3.96196895735557E-07	2034578.25	4.32136512245052E-05
2	568	121.612982692957	0.887603759765625	0.8880615234375	4.290771484375E-07	3.81046902475646E-07	2069701.25	4.32574779551942E-05
2	569	121.713690692702	0.877532958984375	0.87738037109375	4.1534423828125E-07	3.64414887599196E-07	2112417.25	4.32999986514915E-05
2	570	121.814398692448	0.867462158203125	0.86700439453125	4.010009765625E-07	3.47669583788957E-07	2162100.5	4.33411041740328E-05
2	571	121.915106692194	0.857391357421875	0.85723876953125	3.8604736328125E-07	3.30934767589497E-07	2220553.25	4.33807363151573E-05
2	572	122.01581469194	0.847320556640625	0.8477783203125	3.7109375E-07	3.14605216544805E-07	2284539.5	4.34188586950768E-05
2	573	122.116522691685	0.837249755859375	0.83770751953125	3.570556640625E-07	2.99108194212749E-07	2346154	4.34555258834735E-05
2	574	122.217230691431	0.827178955078125	0.82733154296875	3.4332275390625E-07	2.84041732356854E-07	2409778	4.34907924500294E-05
2	575	122.317938691177	0.817108154296875	0.8172607421875	3.2928466796875E-07	2.69111438910841E-07	2481927.75	4.35246620327234E-05
2	576	122.418646690923	0.807037353515625	0.80657958984375	3.16162109375E-07	2.55009894090108E-07	2551158.25	4.35571600974072E-05
2	577	122.519354690668	0.796966552734375	0.79681396484375	3.04565429687501E-07	2.4268197762467E-07	2616232.5	4.35884176113177E-05
2	578	122.620062690414	0.786895751953125	0.7867431640625	2.92053222656249E-07	2.2977087610343E-07	2693835	4.36184600403067E-05
2	579	122.72077069016	0.776824951171875	0.7769775390625	2.825927734375E-07	2.19568235593215E-07	2749460	4.36473965237383E-05
2	580	122.821478689906	0.766754150390625	0.7672119140625	2.728271484375E-07	2.09316240784574E-07	2812080.5	4.36753616668284E-05
2	581	122.922186689651	0.756683349609375	0.7568359375	2.642822265625E-07	2.00018277496383E-07	2863741.5	4.37024100392591E-05
2	582	123.022894689397	0.746612548828125	0.746551513671875	2.55432128906249E-07	1.9069324252996E-07	2922700.25	4.37285780208185E-05
2	583	123.123602689143	0.736541748046875	0.73651123046875	2.4749755859375E-07	1.82284722427539E-07	2975832.25	4.37539019912947E-05
2	584	123.224310688889	0.726470947265625	0.726348876953125	2.3956298828125E-07	1.74006302700036E-07	3031974.75	4.37784292444121E-05
2	585	123.325018688634	0.716400146484375	0.716278076171875	2.3162841796875E-07	1.65910350347076E-07	3092358.5	4.3802156142192E-05
2	586	123.42572668838	0.706329345703125	0.706329345703125	2.227783203125E-07	1.57354861585191E-07	3170548	4.38250353909098E-05
2	587	123.526434688126	0.696258544921875	0.69610595703125	2.14538574218751E-07	1.49341573774109E-07	3244665.75	4.38470560766291E-05
2	588	123.627142687871	0.686187744140625	0.6861572265625	2.06604003906249E-07	1.41762825478509E-07	3321122.75	4.38682618550956E-05
2	589	123.727850687617	0.676116943359375	0.676055908203125	1.98974609374999E-07	1.34517961214442E-07	3397699.5	4.38886854681186E-05
2	590	123.828558687363	0.666046142578125	0.665985107421875	1.92871093749999E-07	1.28449272551734E-07	3453006.5	4.39084178651683E-05
2	591	123.929266687109	0.655975341796875	0.655914306640625	1.87072753906251E-07	1.22703681881831E-07	3506199.25	4.3927546357736E-05
2	592	124.029974686854	0.645904541015625	0.6458740234375	1.8310546875E-07	1.18263066894997E-07	3527333.25	4.39461873611435E-05
2	593	124.1306826866	0.635833740234375	0.63580322265625	1.800537109375E-07	1.14478723389766E-07	3531186.5	4.39644754806068E-05
2	594	124.231390686346	0.625762939453125	0.62579345703125	1.77917480468751E-07	1.11339588215742E-07	3517324.25	4.39825016655959E-05
2	595	124.332098686092	0.615692138671875	0.61566162109375	1.7669677734375E-07	1.08785421559787E-07	3484283.25	4.40003568655811E-05
2	596	124.432806685837	0.605621337890625	0.6055908203125	1.7578125E-07	1.06451501835636E-07	3445139	4.40181065641809E-05
2	597	124.533514685583	0.595550537109375	0.595458984375	1.7578125E-07	1.04670519363026E-07	3387500.25	4.40358089690562E-05
2	598	124.634222685329	0.585479736328125	0.585418701171875	1.751708984375E-07	1.02548320057849E-07	3341986	4.40534786321223E-05
2	599	124.734930685075	0.575408935546875	0.575439453125	1.74865722656251E-07	1.00624632182189E-07	3290750.5	4.40711046394426E-05
2	600	124.83563868482	0.565338134765625	0.565277099609375	1.73034667968749E-07	9.78125314077261E-08	3266843	4.40886215073988E-05
2	601	124.936346684566	0.555267333984375	0.55523681640625	1.71813964843751E-07	9.53974392814416E-08	3231616.25	4.41059892182238E-05
2	602	125.037054684312	0.545196533203125	0.545135498046875	1.69982910156249E-07	9.26637184761603E-08	3207001.75	4.41231968579814E-05
2	603	125.137762684058	0.535125732421875	0.53509521484375	1.68762207031251E-07	9.03038426258718E-08	3170705.5	4.41402553406078E-05
2	604	125.238470683803	0.525054931640625	0.5250244140625	1.67236328125001E-07	8.78031514162103E-08	3139416.25	4.41571755800396E-05
2	605	125.339178683549	0.514984130859375	0.5150146484375	1.65710449218751E-07	8.53433093084277E-08	3107919	4.41739393863827E-05
2	606	125.439886683295	0.504913330078125	0.504913330078125	1.6448974609375E-07	8.30530666462437E-08	3069573.25	4.41905649495311E-05
2	607	125.54059468304	0.494842529296875	0.49481201171875	1.629638671875E-07	8.06364752747868E-08	3036329.75	4.42070559074637E-05
2	608	125.641302682786	0.484771728515625	0.484771728515625	1.61132812500001E-07	7.81126274773669E-08	3008523	4.42233758803923E-05
2	609	125.742010682532	0.474700927734375	0.474700927734375	1.5899658203125E-07	7.54758247012433E-08	2985604.5	4.42394957644865E-05
2	610	125.842718682278	0.464630126953125	0.464691162109375	1.568603515625E-07	7.28916162984206E-08	2962451.25	4.42554010078311E-05
2	611	125.943426682023	0.454559326171875	0.45465087890625	1.5533447265625E-07	7.06229528191216E-08	2926915.75	4.42711207142565E-05
2	612	126.044134681769	0.444488525390625	0.444549560546875	1.5380859375E-07	6.83755416730492E-08	2890278	4.42866876255721E-05
2	613	126.144842681515	0.434417724609375	0.434417724609375	1.5228271484375E-07	6.61543069213621E-08	2852705.5	4.43020981037989E-05
2	614	126.245550681261	0.424346923828125	0.424346923828125	1.50451660156251E-07	6.38437001043712E-08	2820487	4.43173412350006E-05
2	615	126.346258681006	0.414276123046875	0.414276123046875	1.483154296875E-07	6.14435364809651E-08	2793210	4.43323879153468E-05
2	616	126.446966680752	0.404205322265625	0.4041748046875	1.4617919921875E-07	5.90819446699697E-08	2764927	4.43472163169645E-05
2	617	126.547674680498	0.394134521484375	0.3941650390625	1.434326171875E-07	5.65361233384465E-08	2748085.25	4.43617973360233E-05
2	618	126.648382680244	0.384063720703125	0.384033203125	1.416015625E-07	5.43797007424018E-08	2712069	4.43761528003961E-05
2	619	126.749090679989	0.373992919921875	0.3740234375	1.385498046875E-07	5.18208764788142E-08	2699559.5	4.43902572442312E-05
2	620	126.849798679735	0.363922119140625	0.363922119140625	1.3702392578125E-07	4.98660348569047E-08	2655902.25	4.44041361333802E-05
2	621	126.950506679481	0.353851318359375	0.3538818359375	1.34887695312499E-07	4.7734300068214E-08	2623529.5	4.44178258476313E-05
2	622	127.051214679227	0.343780517578125	0.343780517578125	1.33056640625E-07	4.57422757449422E-08	2583715.75	4.44313191110268E-05
2	623	127.151922678972	0.333709716796875	0.333709716796875	1.30615234375001E-07	4.35875726623181E-08	2554906.5	4.44445940956939E-05
2	624	127.252630678718	0.323638916015625	0.3236083984375	1.2786865234375E-07	4.13793692644049E-08	2530787.75	4.44576107838657E-05
2	625	127.353338678464	0.313568115234375	0.31353759765625	1.24511718750001E-07	3.90391043936233E-08	2518137.25	4.44703182438388E-05
2	626	127.454046678209	0.303497314453125	0.303497314453125	1.2054443359375E-07	3.658491110059E-08	2517721.75	4.44826582679525E-05
2	627	127.554754677955	0.293426513671875	0.293365478515625	1.16882324218751E-07	3.42892363391911E-08	2509921.75	4.44946163042914E-05
2	628	127.655462677701	0.283355712890625	0.283294677734375	1.129150390625E-07	3.19882289545603E-08	2508919	4.4506185076898E-05
2	629	127.756170677447	0.273284912109375	0.273284912109375	1.09252929687501E-07	2.9857176286896E-08	2501396.75	4.45173718617298E-05
2	630	127.856878677192	0.263214111328125	0.26318359375	1.055908203125E-07	2.77897704847874E-08	2492485.75	4.45281912107021E-05
2	631	127.957586676938	0.253143310546875	0.25311279296875	1.019287109375E-07	2.57994585695087E-08	2483233.75	4.4538639485836E-05
2	632	128.058294676684	0.243072509765625	0.243072509765625	9.73510742187503E-08	2.36633681538478E-08	2496865.25	4.45486766693648E-05
2	633	128.15900267643	0.233001708984375	0.233001708984375	9.24682617187506E-08	2.15452633511859E-08	2519802	4.4558233639691E-05
2	634	128.259710676175	0.222930908203125	0.22296142578125	8.78906250000006E-08	1.95962197580002E-08	2536805.5	4.45673140347935E-05
2	635	128.360418675921	0.212860107421875	0.212860107421875	8.17871093750006E-08	1.74092118498947E-08	2602612	4.45758596470114E-05
2	636	128.461126675667	0.202789306640625	0.2027587890625	7.69042968749994E-08	1.55930219847278E-08	2636508	4.45838486484718E-05
2	637	128.561834675413	0.192718505859375	0.192718505859375	7.04956054687497E-08	1.35858071459438E-08	2733766.25	4.45912701252382E-05
2	638	128.662542675158	0.182647705078125	0.1826171875	6.40869140625E-08	1.17033716051651E-08	2849524	4.45980476797558E-05
2	639	128.763250674904	0.172576904296875	0.172515869140625	5.67626953124997E-08	9.7924655051429E-09	3039247.5	4.46041340183001E-05
2	640	128.86395867465	0.162506103515625	0.162567138671875	4.69970703125003E-08	7.64017915599879E-09	3459091	4.46093581558671E-05
2	641	128.964666674396	0.152435302734375	0.152496337890625	3.41796874999994E-08	5.21227683236702E-09	4461607.5	4.46134472440463E-05
2	642	129.065374674141	0.142364501953125	0.1424560546875	1.80053710937503E-08	2.56497423301028E-09	7911864.5	4.4616073864745E-05
2	643	129.166082673887	0.132293701171875	0.13238525390625	-4.27246093750028E-09	-5.65610835945307E-10	-30985714	4.46167650807183E-05
2	644	129.266790673633	0.122222900390625	0.122283935546875	-3.17382812500003E-08	-3.88108212234783E-09	-3852884.5	4.46149533672724E-05
2	645	129.367498673378	0.112152099609375	0.11212158203125	-6.98852539062503E-08	-7.8356450217143E-09	-1604366.875	4.46098347310908E-05
2	646	129.468206673124	0.102081298828125	0.10211181640625	-1.21154785156249E-07	-1.23713350674848E-08	-842821.1875	4.46002159151249E-05
2	647	129.56891467287	0.092010498046875	0.092041015625	-1.9195556640625E-07	-1.76677854568652E-08	-479491.25	4.45844489149749E-05
2	648	129.669622672616	0.081939697265625	0.08197021484375	-2.86865234375E-07	-2.35144046456526E-08	-285744.6875	4.45603400294203E-05
2	649	129.770330672361	0.071868896484375	0.0718994140625	-4.1229248046875E-07	-2.96435871405265E-08	-174389.34375	4.45251316705253E-05
2	650	129.871038672107	0.061798095703125	0.061859130859375	-5.718994140625E-07	-3.53772016126186E-08	-108164.3515625	4.44755751232151E-05
2	651	129.971746671853	0.051727294921875	0.05181884765625	-7.647705078125E-07	-3.96295263271895E-08	-67757.3828125	4.44082688773051E-05
2	652	130.072454671599	0.041656494140625	0.041766357421875	-9.8602294921875E-07	-4.11825844537361E-08	-42358.40625	4.43201097368728E-05
2	653	130.173162671344	0.031585693359375	0.031689453125	-1.2213134765625E-06	-3.87027583315103E-08	-25947.02734375	4.42089622083586E-05
2	654	130.27387067109	0.021514892578125	0.0216033935546875	-1.44866943359375E-06	-3.12961780934984E-08	-14912.5771484375	4.40745170635637E-05
2	655	130.374578670836	0.011444091796875	0.0115692138671875	-1.64703369140625E-06	-1.90548838929772E-08	-7024.27294921875	4.39186369476374E-05
2	656	130.475286670582	0.001373291015625	0.00148925781250001	-1.79779052734375E-06	-2.67737343406793E-09	-828.38232421875	4.37451744801365E-05
2	657	130.575994670327	-0.008697509765625	-0.00861511230468751	-1.8896484375E-06	1.62795323888076E-08	4559.1083984375	4.35594956798013E-05
2	658	130.676702670073	-0.018768310546875	-0.018634033203125	-1.9232177734375E-06	3.5837302903019E-08	9688.9873046875	4.33675049862359E-05
2	659	130.777410669819	-0.028839111328125	-0.0287445068359375	-1.91070556640625E-06	5.49222924917103E-08	15043.9228515625	4.31744520028587E-05
2	660	130.878118669565	-0.038909912109375	-0.038751220703125	-1.86492919921875E-06	7.22682855780477E-08	20778.92578125	4.29843312304001E-05
2	661	130.97882666931	-0.048980712890625	-0.048822021484375	-1.80084228515625E-06	8.79207604498333E-08	27110.66015625	4.27997474616859E-05
2	662	131.079534669056	-0.059051513671875	-0.05902099609375	-1.729736328125E-06	1.02090758957729E-07	34121.3828125	4.2621966713341E-05
2	663	131.180242668802	-0.069122314453125	-0.06903076171875	-1.65771484375E-06	1.14433319708951E-07	41642.12109375	4.24513964389917E-05
2	664	131.280950668547	-0.079193115234375	-0.07916259765625	-1.5911865234375E-06	1.25962458241702E-07	49750.671875	4.22878001700155E-05
2	665	131.381658668293	-0.089263916015625	-0.08917236328125	-1.53045654296875E-06	1.36474426426503E-07	58265.203125	4.21306140196975E-05
2	666	131.482366668039	-0.099334716796875	-0.099212646484375	-1.47735595703125E-06	1.46572389780886E-07	67155.546875	4.19791576860007E-05
2	667	131.583074667785	-0.109405517578125	-0.109344482421875	-1.43096923828125E-06	1.56468587420022E-07	76412.8828125	4.18327108491212E-05
2	668	131.68378266753	-0.119476318359375	-0.119384765625	-1.39068603515625E-06	1.66026723036339E-07	85845.953125	4.16906295868102E-05
2	669	131.784490667276	-0.129547119140625	-0.12945556640625	-1.356201171875E-06	1.75567777205288E-07	95454.546875	4.15523136325646E-05
2	670	131.885198667022	-0.139617919921875	-0.13946533203125	-1.3275146484375E-06	1.85142269515381E-07	105057.4765625	4.14171772717964E-05
2	671	131.985906666768	-0.149688720703125	-0.149566650390625	-1.30218505859375E-06	1.94763458694069E-07	114858.2109375	4.12847621191759E-05
2	672	132.086614666513	-0.159759521484375	-0.15960693359375	-1.28265380859375E-06	2.04720436158823E-07	124434.9296875	4.11546061513945E-05
2	673	132.187322666259	-0.169830322265625	-0.16973876953125	-1.26678466796875E-06	2.15022453176061E-07	133991.8125	4.10262291552499E-05
2	674	132.288030666005	-0.179901123046875	-0.179779052734375	-1.2554931640625E-06	2.25711360712921E-07	143193.984375	4.08992236771155E-05
2	675	132.388738665751	-0.189971923828125	-0.189788818359375	-1.24664306640625E-06	2.3659890757699E-07	152239.90625	4.07732331950683E-05
2	676	132.489446665496	-0.200042724609375	-0.19989013671875	-1.23992919921875E-06	2.47849612833306E-07	161210.9375	4.06480212404858E-05
2	677	132.590154665242	-0.189971923828125	-0.189788818359375	-1.08184814453125E-06	2.05322677970798E-07	175430.1875	4.05311111535411E-05
