Potential - Start -0.2 V, Upper Vertex 1.5 V, Lower Vertex -0.2 V, Stop -0.19 V; Scan - # end cross 5, Rate 0.1 Vps, Step 0.01 V 
Scan	Index	Time (s)	Potential applied (V)	WE(1).Potential (V)	WE(1).Current (A)	WE(1).Power (W)	WE(1).Resistance (Ω)	WE(1).Charge (C)
1	1	40.9491068966134	-0.189971923828125	-0.1898193359375	-1.80969238281251E-07	3.43514621192753E-08	1048903.875	0
1	2	41.0498148963592	-0.179901123046875	-0.179718017578125	-1.48620605468749E-07	2.67097988171372E-08	1209240.25	-1.65961662190739E-08
1	3	41.1505228961049	-0.169830322265625	-0.169677734375	-1.239013671875E-07	2.10233022102102E-08	1369458.25	-3.03187377426184E-08
1	4	41.2512308958507	-0.159759521484375	-0.159576416015625	-1.02844238281249E-07	1.64115139256182E-08	1551632.125	-4.17362855387182E-08
1	5	41.3519388955964	-0.149688720703125	-0.149658203125	-8.45336914062495E-08	1.26511601195034E-08	1770397.125	-5.1171511472603E-08
1	6	41.4526468953421	-0.139617919921875	-0.139556884765625	-6.80541992187506E-08	9.49743217404375E-09	2050672.625	-5.88549227131807E-08
1	7	41.5533548950879	-0.129547119140625	-0.12945556640625	-5.24902343749994E-08	6.7951528848198E-09	2466279.25	-6.49248192985397E-08
1	8	41.6540628948336	-0.119476318359375	-0.119354248046875	-3.75366210937506E-08	4.48015491372189E-09	3179675	-6.94580322146976E-08
1	9	41.7547708945793	-0.109405517578125	-0.109344482421875	-2.288818359375E-08	2.50269671653314E-09	4777333.5	-7.25006614743506E-08
1	10	41.8554788943251	-0.099334716796875	-0.09930419921875	-8.54492187500056E-09	8.48546621856627E-10	11621428	-7.40834451562478E-08
1	11	41.9561868940708	-0.089263916015625	-0.08917236328125	6.40869140624972E-09	-5.71478142585846E-10	-13914286	-7.41910071155871E-08
1	12	42.0568948938165	-0.079193115234375	-0.079132080078125	2.25830078125003E-08	-1.78704040454392E-09	-3504054	-7.27311615378312E-08
1	13	42.1576028935623	-0.069122314453125	-0.06903076171875	4.02832031249994E-08	-2.78078005067073E-09	-1713636.5	-6.9565594174037E-08
1	14	42.258310893308	-0.059051513671875	-0.058990478515625	6.13403320312497E-08	-3.61849550323257E-09	-961691.5625	-6.44484430267767E-08
1	15	42.3590188930538	-0.048980712890625	-0.048846435546875	8.81958007812503E-08	-4.30805036089055E-09	-553840.8125	-5.69187044163755E-08
1	16	42.4597268927995	-0.038909912109375	-0.0387542724609375	1.2237548828125E-07	-4.74257300098202E-09	-316683.3125	-4.63155984675723E-08
1	17	42.5604348925452	-0.028839111328125	-0.028717041015625	1.6815185546875E-07	-4.82882356322989E-09	-170780.390625	-3.16863832949821E-08
1	18	42.661142892291	-0.018768310546875	-0.0186492919921875	2.29492187499999E-07	-4.27986668327662E-09	-81263.296875	-1.16634160107765E-08
1	19	42.7618508920367	-0.008697509765625	-0.00859680175781249	3.12194824218751E-07	-2.68387712054619E-09	-27536.658203125	1.56126915840105E-08
1	20	42.8625588917824	0.001373291015625	0.001446533203125	4.23583984375001E-07	6.1272831253234E-10	3414.98583984375	5.26620986818216E-08
1	21	42.9632668915282	0.011444091796875	0.0115447998046875	5.6884765625E-07	6.56723209147003E-09	20295.0625	1.02634999166185E-07
1	22	43.0639748912739	0.021514892578125	0.021600341796875	7.5225830078125E-07	1.62490358945888E-08	28713.99609375	1.69157971185996E-07
1	23	43.1646828910197	0.031585693359375	0.0316802978515625	9.71374511718751E-07	3.07734318027997E-08	32613.88671875	2.55949771599262E-07
1	24	43.2653908907654	0.041656494140625	0.041741943359375	1.21795654296875E-06	5.0839876308828E-08	34272.11328125	3.66191358125434E-07
1	25	43.3660988905111	0.051727294921875	0.051788330078125	1.47186279296875E-06	7.62253193897777E-08	35185.5703125	5.01634531246964E-07
1	26	43.4668068902569	0.061798095703125	0.061767578125	1.70928955078125E-06	1.05578678244456E-07	36136.40234375	6.61818262415181E-07
1	27	43.5675148900026	0.071868896484375	0.071929931640625	1.90582275390625E-06	1.37085692131222E-07	37742.1953125	8.43853626975033E-07
1	28	43.6682228897483	0.081939697265625	0.08197021484375	2.04437255859375E-06	1.67577653087392E-07	40095.5390625	1.0427617098685E-06
1	29	43.7689308894941	0.092010498046875	0.092071533203125	2.11883544921875E-06	1.95084425058667E-07	43453.8359375	1.25239591852733E-06
1	30	43.8696388892398	0.102081298828125	0.102142333984375	2.13592529296875E-06	2.18168395349494E-07	47821.1171875	1.46664012845577E-06
1	31	43.9703468889855	0.112152099609375	0.112152099609375	2.1087646484375E-06	2.36502387451765E-07	53183.79296875	1.68037729508796E-06
1	32	44.0710548887313	0.122222900390625	0.122222900390625	2.05322265625E-06	2.50950847657805E-07	59527.34765625	1.88994999916758E-06
1	33	44.171762888477	0.132293701171875	0.13238525390625	1.9818115234375E-06	2.62362618741463E-07	66800.125	2.09312997867528E-06
1	34	44.2724708882228	0.142364501953125	0.14239501953125	1.905517578125E-06	2.71336205059924E-07	74727.7421875	2.28887256525923E-06
1	35	44.3731788879685	0.152435302734375	0.15252685546875	1.82952880859375E-06	2.79052272844638E-07	83369.4765625	2.47694720201252E-06
1	36	44.4738868877142	0.162506103515625	0.162506103515625	1.7578125E-06	2.85655261222928E-07	92447.921875	2.6575842184684E-06
1	37	44.57459488746	0.172576904296875	0.172576904296875	1.69158935546875E-06	2.91929239892852E-07	102020.5703125	2.83127542388684E-06
1	38	44.6753028872057	0.182647705078125	0.18267822265625	1.63177490234375E-06	2.9808973067702E-07	111950.6328125	2.99861994790263E-06
1	39	44.7760108869514	0.192718505859375	0.192779541015625	1.5777587890625E-06	3.04159613051525E-07	122185.6875	3.16023283630784E-06
1	40	44.8767188866972	0.202789306640625	0.202789306640625	1.52984619140625E-06	3.1023643032313E-07	132555.359375	3.31671321873728E-06
1	41	44.9774268864429	0.212860107421875	0.212890625	1.48681640625E-06	3.16529252586406E-07	143185.546875	3.46861429534329E-06
1	42	45.0781348861886	0.222930908203125	0.22296142578125	1.4483642578125E-06	3.22929338381073E-07	153940.171875	3.61641218660225E-06
1	43	45.1788428859344	0.233001708984375	0.23297119140625	1.41448974609375E-06	3.29535339460563E-07	164703.34375	3.76056846107531E-06
1	44	45.2795508856801	0.243072509765625	0.24310302734375	1.3836669921875E-06	3.36373631171227E-07	175694.765625	3.90146669815294E-06
1	45	45.3802588854259	0.253143310546875	0.253143310546875	1.356201171875E-06	3.43313246276011E-07	186656.171875	4.03943022320163E-06
1	46	45.4809668851716	0.263214111328125	0.26318359375	1.331787109375E-06	3.50504507196092E-07	197616.875	4.17478122471948E-06
1	47	45.5816748849173	0.273284912109375	0.27325439453125	1.30950927734375E-06	3.5782915119853E-07	208669.3125	4.30778072768589E-06
1	48	45.6823828846631	0.283355712890625	0.2833251953125	1.28875732421875E-06	3.65137424296336E-07	219843.71875	4.43861381427268E-06
1	49	45.7830908844088	0.293426513671875	0.29339599609375	1.27105712890625E-06	3.72923040004025E-07	230828.34375	4.56751104138675E-06
1	50	45.8837988841545	0.303497314453125	0.303497314453125	1.25396728515625E-06	3.80575698954999E-07	242029.6875	4.69465612695785E-06
1	51	45.9845068839003	0.313568115234375	0.3135986328125	1.23870849609375E-06	3.88457294775435E-07	253165.8125	4.82017230751808E-06
1	52	46.085214883646	0.323638916015625	0.323699951171875	1.2249755859375E-06	3.9652454120187E-07	264250.125	4.94422874908196E-06
1	53	46.1859228833918	0.333709716796875	0.333770751953125	1.21246337890625E-06	4.04684783461562E-07	275283.1875	5.06696324009681E-06
1	54	46.2866308831375	0.343780517578125	0.34381103515625	1.20147705078125E-06	4.13081068018073E-07	286156.96875	5.18851493325201E-06
1	55	46.3873388828832	0.353851318359375	0.353912353515625	1.19140625E-06	4.21653368221087E-07	297054.3125	5.30900615558494E-06
1	56	46.488046882629	0.363922119140625	0.3638916015625	1.1822509765625E-06	4.30211173352291E-07	307795.5625	5.42852922080783E-06
1	57	46.5887548823747	0.373992919921875	0.373992919921875	1.17431640625E-06	4.39186010225967E-07	318477.15625	5.54719190404285E-06
1	58	46.6894628821204	0.384063720703125	0.384063720703125	1.16729736328125E-06	4.48316569645613E-07	329019.625	5.6651015256648E-06
1	59	46.7901708818662	0.394134521484375	0.39410400390625	1.1614990234375E-06	4.57751383464711E-07	339306.375	5.78236586079584E-06
1	60	46.8908788816119	0.404205322265625	0.40423583984375	1.15631103515625E-06	4.67422353267466E-07	349590.9375	5.89907676840085E-06
1	61	46.9915868813576	0.414276123046875	0.414276123046875	1.15203857421875E-06	4.7726206275911E-07	359602.65625	6.01531110078213E-06
1	62	47.0922948811034	0.424346923828125	0.42437744140625	1.14898681640625E-06	4.87604097543226E-07	369349.28125	6.13117708780919E-06
1	63	47.1930028808491	0.434417724609375	0.434417724609375	1.146240234375E-06	4.97947041822044E-07	378993.625	6.24675112703699E-06
1	64	47.2937108805949	0.444488525390625	0.444488525390625	1.1444091796875E-06	5.08676691879373E-07	388400.03125	6.36209415461053E-06
1	65	47.3944188803406	0.454559326171875	0.454559326171875	1.14227294921875E-06	5.19230809459259E-07	397942.84375	6.47723800284439E-06
1	66	47.4951268800863	0.464630126953125	0.464599609375	1.14166259765625E-06	5.30416002675338E-07	406950.03125	6.59224315313622E-06
1	67	47.5958348798321	0.474700927734375	0.47467041015625	1.14166259765625E-06	5.41913436791219E-07	415771.1875	6.70721783535555E-06
1	68	47.6965428795778	0.484771728515625	0.484710693359375	1.14227294921875E-06	5.53671895886509E-07	424338.78125	6.82222298564739E-06
1	69	47.7972508793235	0.494842529296875	0.4947509765625	1.14288330078125E-06	5.65442633160274E-07	432897.1875	6.93728998157894E-06
1	70	47.8979588790693	0.504913330078125	0.5048828125	1.1444091796875E-06	5.77792491185392E-07	441173.375	7.05246429788531E-06
1	71	47.998666878815	0.514984130859375	0.514984130859375	1.14593505859375E-06	5.90138370171189E-07	449400.8125	7.16779231879627E-06
1	72	48.0993748785608	0.525054931640625	0.524993896484375	1.14776611328125E-06	6.02570196406305E-07	457404.96875	7.28328905097442E-06
1	73	48.2000828783065	0.535125732421875	0.535125732421875	1.15081787109375E-06	6.15832277617301E-07	464996.03125	7.39903225621674E-06
1	74	48.3007908780522	0.545196533203125	0.545166015625	1.15325927734375E-06	6.28717771178344E-07	472717.65625	7.51505149310105E-06
1	75	48.401498877798	0.555267333984375	0.55523681640625	1.1572265625E-06	6.4253475784426E-07	479799.59375	7.6313936006045E-06
1	76	48.5022068775437	0.565338134765625	0.5653076171875	1.160888671875E-06	6.56259146580851E-07	486961.125	7.74811996961944E-06
1	77	48.6029148772894	0.575408935546875	0.575347900390625	1.16546630859375E-06	6.70548615744337E-07	493663.28125	7.86526106821839E-06
1	78	48.7036228770352	0.585479736328125	0.58544921875	1.16973876953125E-06	6.84822623497894E-07	500495.6875	7.98284872871591E-06
1	79	48.8043308767809	0.595550537109375	0.59552001953125	1.17462158203125E-06	6.99510621871013E-07	506988.875	8.10089659353253E-06
1	80	48.9050388765266	0.605621337890625	0.6055908203125	1.180419921875E-06	7.14851466909749E-07	513030	8.21948196971789E-06
1	81	49.0057468762724	0.615692138671875	0.615631103515625	1.1871337890625E-06	7.30836461571016E-07	518586.125	8.33869762573158E-06
1	82	49.1064548760181	0.625762939453125	0.625701904296875	1.195068359375E-06	7.47756530472543E-07	523570	8.45865088194842E-06
1	83	49.2071628757639	0.635833740234375	0.635833740234375	1.2042236328125E-06	7.656860248062E-07	528003.0625	8.57946542964783E-06
1	84	49.3078708755096	0.645904541015625	0.645843505859375	1.217041015625E-06	7.86018063081428E-07	530667	8.70138592290459E-06
1	85	49.4085788752553	0.655975341796875	0.655914306640625	1.23321533203125E-06	8.08883612535283E-07	531873.3125	8.8247661551577E-06
1	86	49.5092868750011	0.666046142578125	0.665985107421875	1.25335693359375E-06	8.34717013731279E-07	531361.125	8.94997447176138E-06
1	87	49.6099948747468	0.676116943359375	0.67608642578125	1.2799072265625E-06	8.6532787690885E-07	528230.8125	9.07753474166384E-06
1	88	49.7107028744925	0.686187744140625	0.686065673828125	1.3128662109375E-06	9.00712393558933E-07	522570.90625	9.20809088711394E-06
1	89	49.8114108742383	0.696258544921875	0.6961669921875	1.35162353515625E-06	9.40955658279563E-07	515059.84375	9.34225863602478E-06
1	90	49.912118873984	0.706329345703125	0.706268310546875	1.3946533203125E-06	9.84999360298389E-07	506411.40625	9.48054457694525E-06
1	91	50.0128268737298	0.716400146484375	0.716339111328125	1.43707275390625E-06	1.02943135971145E-06	498471.03125	9.62313333729981E-06
1	92	50.1135348734755	0.726470947265625	0.7264404296875	1.47430419921875E-06	1.0709941307141E-06	492734.40625	9.76973296928918E-06
1	93	50.2142428732212	0.736541748046875	0.736480712890625	1.502685546875E-06	1.10669896002946E-06	490109.65625	9.9196367955301E-06
1	94	50.314950872967	0.746612548828125	0.746551513671875	1.52069091796875E-06	1.13527403300395E-06	490929.1875	1.00718752946705E-05
1	95	50.4156588727127	0.756683349609375	0.7568359375	1.5283203125E-06	1.15668763100985E-06	495207.6875	1.02254052762873E-05
1	96	50.5163668724584	0.766754150390625	0.7672119140625	1.5277099609375E-06	1.17207730454538E-06	502197.375	1.03792890513432E-05
1	97	50.6170748722042	0.776824951171875	0.77667236328125	1.52130126953125E-06	1.18155264772213E-06	510531.625	1.05328190329601E-05
1	98	50.7177828719499	0.786895751953125	0.787353515625	1.51275634765625E-06	1.19107403406815E-06	520476.125	1.06855959529639E-05
1	99	50.8184908716956	0.796966552734375	0.797119140625	1.502685546875E-06	1.19781941521069E-06	530463.0625	1.08374351839302E-05
1	100	50.9191988714414	0.807037353515625	0.80780029296875	1.49322509765625E-06	1.20622769372858E-06	540976.875	1.09882912511239E-05
1	101	51.0199068711871	0.817108154296875	0.81756591796875	1.484375E-06	1.21357436455583E-06	550781.25	1.113822509069E-05
1	102	51.1206148709329	0.827178955078125	0.82794189453125	1.47735595703125E-06	1.22316487249918E-06	560421.4375	1.12873603939079E-05
1	103	51.2213228706786	0.837249755859375	0.83709716796875	1.470947265625E-06	1.23132576845819E-06	569087.125	1.14358190330677E-05
1	104	51.3220308704243	0.847320556640625	0.8477783203125	1.46636962890625E-06	1.24315636185202E-06	578147.8125	1.15837246994488E-05
1	105	51.4227388701701	0.857391357421875	0.8575439453125	1.4630126953125E-06	1.25459757782664E-06	586149.375	1.17312310976558E-05
1	106	51.5234468699158	0.867462158203125	0.86761474609375	1.46148681640625E-06	1.2680075087701E-06	593652.125	1.18784910227987E-05
1	107	51.6241548696615	0.877532958984375	0.87738037109375	1.46026611328125E-06	1.28120882436633E-06	600836	1.20256127047469E-05
1	108	51.7248628694073	0.887603759765625	0.887451171875	1.45904541015625E-06	1.29483157707E-06	608240.9375	1.21726116049103E-05
1	109	51.825570869153	0.897674560546875	0.89752197265625	1.45843505859375E-06	1.30897751660086E-06	615400.75	1.23195186461089E-05
1	110	51.9262788688987	0.907745361328125	0.90789794921875	1.45751953125E-06	1.32327897972573E-06	622906.1875	1.24663483802578E-05
1	111	52.0269868686445	0.917816162109375	0.9185791015625	1.45721435546875E-06	1.33856667616783E-06	630366.5	1.26131171782617E-05
1	112	52.1276948683902	0.927886962890625	0.927734375	1.45660400390625E-06	1.35134155243577E-06	636916	1.27598395920359E-05
1	113	52.228402868136	0.937957763671875	0.9381103515625	1.45599365234375E-06	1.36588266741455E-06	644309.375	1.2906501069665E-05
1	114	52.3291108678817	0.948028564453125	0.94818115234375	1.4556884765625E-06	1.38025632168137E-06	651362.6875	1.30531152535696E-05
1	115	52.4298188676274	0.958099365234375	0.95794677734375	1.455078125E-06	1.39388737352419E-06	658347.3125	1.31996839627391E-05
1	116	52.5305268673732	0.968170166015625	0.968017578125	1.4556884765625E-06	1.4091319826548E-06	664989.5	1.33462526719086E-05
1	117	52.6312348671189	0.978240966796875	0.97808837890625	1.45721435546875E-06	1.42528438118461E-06	671204.1875	1.34929296109476E-05
1	118	52.7319428668646	0.988311767578125	0.98846435546875	1.4593505859375E-06	1.44251600886491E-06	677331.6875	1.36397902679164E-05
1	119	52.8326508666104	0.998382568359375	0.99853515625	1.46331787109375E-06	1.46117429267179E-06	682377.5	1.37869583340944E-05
1	120	52.9333588663561	1.00845336914063	1.00860595703125	1.46881103515625E-06	1.48145147704781E-06	686681.9375	1.39346020660014E-05
1	121	53.0340668661019	1.01852416992188	1.01806640625	1.4752197265625E-06	1.50187167946569E-06	690111.6875	1.40828460644116E-05
1	122	53.1347748658476	1.02859497070313	1.0284423828125	1.483154296875E-06	1.52533868913451E-06	693415.625	1.4231812201615E-05
1	123	53.2354828655933	1.03866577148438	1.03851318359375	1.49169921875E-06	1.54914926042693E-06	696194.75	1.43816077979864E-05
1	124	53.3361908653391	1.04873657226563	1.04888916015625	1.49993896484375E-06	1.57326962835214E-06	699287.9375	1.45322492244304E-05
1	125	53.4368988650848	1.05880737304688	1.0589599609375	1.507568359375E-06	1.59645446728973E-06	702429.1875	1.46836891872226E-05
1	126	53.5376068648305	1.06887817382813	1.06903076171875	1.5130615234375E-06	1.61750926963578E-06	706534.875	1.48357894431683E-05
1	127	53.6383148645763	1.07894897460938	1.07940673828125	1.51580810546875E-06	1.63617346515821E-06	712099.875	1.49883053381927E-05
1	128	53.739022864322	1.08901977539063	1.08917236328125	1.5167236328125E-06	1.65197343449108E-06	718108.6875	1.51410058606416E-05
1	129	53.8397308640677	1.09909057617188	1.09893798828125	1.51641845703125E-06	1.66644974797237E-06	724693.125	1.52937354869209E-05
1	130	53.9404388638135	1.10916137695313	1.1090087890625	1.51458740234375E-06	1.67969062658813E-06	732218.4375	1.54463596118148E-05
1	131	54.0411468635592	1.11923217773438	1.11907958984375	1.5130615234375E-06	1.69323629961582E-06	739612.75	1.55988145706942E-05
1	132	54.141854863305	1.12930297851563	1.12945556640625	1.5106201171875E-06	1.70617829553521E-06	747676.75	1.57510676217498E-05
1	133	54.2425628630507	1.13937377929688	1.13922119140625	1.5093994140625E-06	1.71953968219896E-06	754751.375	1.59031387738651E-05
1	134	54.3432708627964	1.14944458007813	1.14990234375	1.5081787109375E-06	1.73425814864459E-06	762444.375	1.60550862347009E-05
1	135	54.4439788625422	1.15951538085938	1.15966796875	1.50787353515625E-06	1.74863259871927E-06	769075.0625	1.62069554789923E-05
1	136	54.5446868622879	1.16958618164063	1.16973876953125	1.5081787109375E-06	1.7641750673647E-06	775596.9375	1.63588265422732E-05
1	137	54.6453948620336	1.17965698242188	1.17950439453125	1.5093994140625E-06	1.78034315467812E-06	781439.5625	1.6510774003109E-05
1	138	54.7461028617794	1.18972778320313	1.18988037109375	1.51123046875E-06	1.79818334800075E-06	787358.6875	1.66628742590547E-05
1	139	54.8468108615251	1.19979858398438	1.19964599609375	1.51397705078125E-06	1.81623647677043E-06	792380.5625	1.68152055266546E-05
1	140	54.9475188612709	1.20986938476563	1.2103271484375	1.51763916015625E-06	1.83683982868388E-06	797506.5625	1.6967858755379E-05
1	141	55.0482268610166	1.21994018554688	1.21978759765625	1.52252197265625E-06	1.85715339284798E-06	801162.5625	1.7120943084592E-05
1	142	55.1489348607623	1.23001098632813	1.2298583984375	1.5283203125E-06	1.87961745723442E-06	804712.5	1.72745658346685E-05
1	143	55.2496428605081	1.24008178710938	1.23992919921875	1.53472900390625E-06	1.90295531865559E-06	807914.125	1.74288015841739E-05
1	144	55.3503508602538	1.25015258789063	1.25030517578125	1.5423583984375E-06	1.9284186691948E-06	810645	1.75837467395468E-05
1	145	55.4510588599995	1.26022338867188	1.2603759765625	1.5509033203125E-06	1.95472125597007E-06	812672.1875	1.7739504983183E-05
1	146	55.5517668597453	1.27029418945313	1.27044677734375	1.56097412109375E-06	1.98313455257448E-06	813880.75	1.78962000063621E-05
1	147	55.652474859491	1.28036499023438	1.28021240234375	1.571044921875E-06	2.01127113541588E-06	814879.5625	1.80539100256283E-05
1	148	55.7531828592367	1.29043579101563	1.29058837890625	1.58294677734375E-06	2.04293269234768E-06	815307.5	1.82127259904519E-05
1	149	55.8538908589825	1.30050659179688	1.300048828125	1.59454345703125E-06	2.07298421628366E-06	815311.0625	1.83727242983878E-05
1	150	55.9545988587282	1.31057739257813	1.31072998046875	1.6082763671875E-06	2.10801590583287E-06	814990.5625	1.85339995368849E-05
1	151	56.055306858474	1.32064819335938	1.32080078125	1.622314453125E-06	2.14275405596709E-06	814146	1.86966735782335E-05
1	152	56.1560148582197	1.33071899414063	1.3311767578125	1.636962890625E-06	2.17908677768719E-06	813199.125	1.8860790078179E-05
1	153	56.2567228579654	1.34078979492188	1.34063720703125	1.65283203125E-06	2.2158480987855E-06	811115.25	1.90264454431599E-05
1	154	56.3574308577112	1.35086059570313	1.35101318359375	1.6693115234375E-06	2.25526173380786E-06	809323.625	1.9193728803657E-05
1	155	56.4581388574569	1.36093139648438	1.36077880859375	1.68548583984375E-06	2.29357328862534E-06	807351.0625	1.93626547115855E-05
1	156	56.5588468572026	1.37100219726563	1.37115478515625	1.70196533203125E-06	2.33365790336393E-06	805630.3125	1.95332268049242E-05
1	157	56.6595548569484	1.38107299804688	1.38092041015625	1.71844482421875E-06	2.37303538597189E-06	803587.3125	1.97054578165989E-05
1	158	56.7602628566941	1.39114379882813	1.3909912109375	1.73553466796875E-06	2.41411339629849E-06	801477.0625	1.9879380488419E-05
1	159	56.8609708564398	1.40121459960938	1.4013671875	1.7529296875E-06	2.45649812313786E-06	799442.9375	2.005503847613E-05
1	160	56.9616788561856	1.41128540039063	1.41143798828125	1.77154541015625E-06	2.50042648985982E-06	796727	2.02325099962763E-05
1	161	57.0623868559313	1.42135620117188	1.4215087890625	1.79046630859375E-06	2.54516362474533E-06	793932.1875	2.0411871446413E-05
1	162	57.1630948556771	1.43142700195313	1.43157958984375	1.81365966796875E-06	2.5963981897803E-06	789332	2.05933538381942E-05
1	163	57.2638028554228	1.44149780273438	1.441650390625	1.84112548828125E-06	2.65425933321239E-06	783026.6875	2.07773864531191E-05
1	164	57.3645108551685	1.45156860351563	1.45172119140625	1.8768310546875E-06	2.72463535111456E-06	773495.9375	2.09646004805109E-05
1	165	57.4652188549143	1.46163940429688	1.4617919921875	1.92596435546875E-06	2.81535926660581E-06	758992.25	2.11560854950221E-05
1	166	57.56592685466	1.47171020507813	1.4715576171875	1.99127197265625E-06	2.93027142106439E-06	739003.8125	2.13533348869532E-05
1	167	57.6666348544057	1.48178100585938	1.48193359375	2.07366943359375E-06	3.0730402613699E-06	714643.1875	2.1558020307566E-05
1	168	57.7673428541515	1.49185180664063	1.49139404296875	2.17376708984375E-06	3.24194343193085E-06	686087.3125	2.1771897081635E-05
1	169	57.8680508538972	1.50192260742188	1.50177001953125	2.2882080078125E-06	3.43636202160269E-06	656308.375	2.19965750147821E-05
1	170	57.968758853643	1.49185180664063	1.49200439453125	2.00592041015625E-06	2.99284192806226E-06	743800.4375	2.22128019231604E-05
1	171	58.0694668533887	1.48178100585938	1.4813232421875	1.8035888671875E-06	2.67169798462419E-06	821319.8125	2.24046252697008E-05
1	172	58.1701748531344	1.47171020507813	1.47216796875	1.6473388671875E-06	2.4251594368252E-06	893664.3125	2.25783933274215E-05
1	173	58.2708828528802	1.46163940429688	1.461181640625	1.52252197265625E-06	2.22468111132912E-06	959711.375	2.27380078285933E-05
1	174	58.3715908526259	1.45156860351563	1.45111083984375	1.42181396484375E-06	2.06320964935003E-06	1020605.25	2.28862681979081E-05
1	175	58.4722988523716	1.44149780273438	1.44134521484375	1.337890625E-06	1.92836228052329E-06	1077326.625	2.3025229893392E-05
1	176	58.5730068521174	1.43142700195313	1.431884765625	1.26953125E-06	1.81782240815664E-06	1127884.625	2.31565245485399E-05
1	177	58.6737148518631	1.42135620117188	1.42120361328125	1.2127685546875E-06	1.723591026348E-06	1171867.125	2.32815182243939E-05
1	178	58.7744228516088	1.41128540039063	1.4111328125	1.16424560546875E-06	1.64290509019338E-06	1212057.75	2.34012095461367E-05
1	179	58.8751308513546	1.40121459960938	1.40106201171875	1.12457275390625E-06	1.57559611579927E-06	1245861.625	2.35164607147453E-05
1	180	58.9758388511003	1.39114379882813	1.3909912109375	1.09039306640625E-06	1.51672725223762E-06	1275678.625	2.36279938690132E-05
1	181	59.0765468508461	1.38107299804688	1.3812255859375	1.06201171875E-06	1.4668777339466E-06	1300574.75	2.37363747146446E-05
1	182	59.1772548505918	1.37100219726563	1.37054443359375	1.03668212890625E-06	1.42081887588574E-06	1322048.875	2.38420525420224E-05
1	183	59.2779628503375	1.36093139648438	1.36077880859375	1.0150146484375E-06	1.38121038162353E-06	1340649.5	2.39453638641862E-05
1	184	59.3786708500833	1.35086059570313	1.3507080078125	9.95483398437499E-07	1.34460731260333E-06	1356836.375	2.404660153843E-05
1	185	59.479378849829	1.34078979492188	1.34063720703125	9.77478027343751E-07	1.31044328099961E-06	1371526.75	2.4145947463694E-05
1	186	59.5800868495747	1.33071899414063	1.33056640625	9.6038818359375E-07	1.27786029224808E-06	1385446.375	2.42435271502472E-05
1	187	59.6807948493205	1.32064819335938	1.32080078125	9.4451904296875E-07	1.24752148167318E-06	1398384.5	2.4339446099475E-05
1	188	59.7815028490662	1.31057739257813	1.31072998046875	9.295654296875E-07	1.21840923839045E-06	1410046	2.44338134507416E-05
1	189	59.882210848812	1.30050659179688	1.30096435546875	9.1552734375E-07	1.1910684634131E-06	1421000	2.45267219725065E-05
1	190	59.9829188485577	1.29043579101563	1.29058837890625	9.02099609375E-07	1.1642392792055E-06	1430649.5	2.46182462433353E-05
1	191	60.0836268483034	1.28036499023438	1.280517578125	8.88671874999999E-07	1.13795999823196E-06	1440934	2.47084190050373E-05
1	192	60.1843348480492	1.27029418945313	1.27044677734375	8.7554931640625E-07	1.11233873667516E-06	1451028.25	2.47972548095277E-05
1	193	60.2850428477949	1.26022338867188	1.259765625	8.6395263671875E-07	1.08837775769643E-06	1458142	2.48848446062766E-05
1	194	60.3857508475406	1.25015258789063	1.25030517578125	8.5174560546875E-07	1.06494189822115E-06	1467932.625	2.4971237507998E-05
1	195	60.4864588472864	1.24008178710938	1.23992919921875	8.41064453125E-07	1.04286039004364E-06	1474238	2.50564771704376E-05
1	196	60.5871668470321	1.23001098632813	1.2298583984375	8.29467773437501E-07	1.02012791103334E-06	1482707.875	2.51405963354046E-05
1	197	60.6878748467778	1.21994018554688	1.22039794921875	8.18786621093751E-07	9.99245457933284E-07	1490495.75	2.52235913649201E-05
1	198	60.7885828465236	1.20986938476563	1.209716796875	8.0841064453125E-07	9.77947934188705E-07	1496413.75	2.53055277426029E-05
1	199	60.8892908462693	1.19979858398438	1.199951171875	7.9803466796875E-07	9.57602651396883E-07	1503632.875	2.53864182013785E-05
1	200	60.9899988460151	1.18972778320313	1.190185546875	7.8765869140625E-07	9.3745995854988E-07	1511042.25	2.54662645602366E-05
1	201	61.0907068457608	1.17965698242188	1.17950439453125	7.763671875E-07	9.15728492145718E-07	1519261	2.55450195254525E-05
1	202	61.1914148455065	1.16958618164063	1.16943359375	7.6629638671875E-07	8.96132689831575E-07	1526085.25	2.56226994679309E-05
1	203	61.2921228452523	1.15951538085938	1.15966796875	7.55615234375E-07	8.76262731708266E-07	1534733.5	2.56993334915023E-05
1	204	61.392830844998	1.14944458007813	1.1492919921875	7.4493408203125E-07	8.56146755268128E-07	1542810.375	2.57748924923362E-05
1	205	61.4935388447437	1.13937377929688	1.13983154296875	7.33642578125E-07	8.3622887814272E-07	1553660.625	2.58493437286234E-05
1	206	61.5942468444895	1.12930297851563	1.129150390625	7.2174072265625E-07	8.14953807548591E-07	1564482	2.59226289927028E-05
1	207	61.6949548442352	1.11923217773438	1.119384765625	7.0953369140625E-07	7.94241145740671E-07	1577634.5	2.59946991718607E-05
1	208	61.7956628439809	1.10916137695313	1.10931396484375	6.9610595703125E-07	7.72200053233973E-07	1593599.375	2.60654778685421E-05
1	209	61.8963708437267	1.09909057617188	1.09893798828125	6.817626953125E-07	7.49214905226836E-07	1611906.875	2.61348595813615E-05
1	210	61.9970788434724	1.08901977539063	1.0888671875	6.66198730468751E-07	7.25401946510829E-07	1634448	2.62027351709548E-05
1	211	62.0977868432182	1.07894897460938	1.07879638671875	6.488037109375E-07	6.99927056757588E-07	1662747	2.62689500232227E-05
1	212	62.1984948429639	1.06887817382813	1.0687255859375	6.30798339843749E-07	6.74150271606777E-07	1694243	2.63333840848645E-05
1	213	62.2992028427096	1.05880737304688	1.05865478515625	6.11572265625E-07	6.47443926027336E-07	1731037.875	2.63959409494419E-05
1	214	62.3999108424554	1.04873657226563	1.048583984375	5.9234619140625E-07	6.21124684130336E-07	1770221.625	2.64565642282832E-05
1	215	62.5006188422011	1.03866577148438	1.038818359375	5.74951171875E-07	5.97269831814629E-07	1806794	2.651534123288E-05
1	216	62.6013268419468	1.02859497070313	1.02874755859375	5.59387207031251E-07	5.75468220631592E-07	1839061.625	2.65724611381302E-05
1	217	62.7020348416926	1.01852416992188	1.01837158203125	5.4595947265625E-07	5.55989572603721E-07	1865288	2.66281185758999E-05
1	218	62.8027428414383	1.00845336914063	1.00799560546875	5.34667968749999E-07	5.38942913408391E-07	1885274	2.66825336439069E-05
1	219	62.9034508411841	0.998382568359375	0.99853515625	5.25512695312499E-07	5.24742915786192E-07	1900116.125	2.67359173449222E-05
1	220	63.0041588409298	0.988311767578125	0.98846435546875	5.17883300781249E-07	5.11909149736312E-07	1908662.375	2.67884570348542E-05
1	221	63.1048668406755	0.978240966796875	0.97869873046875	5.108642578125E-07	4.99982206747518E-07	1915770.625	2.68402582150884E-05
1	222	63.2055748404213	0.968170166015625	0.96832275390625	5.0384521484375E-07	4.87884790345561E-07	1921865.5	2.68913518084446E-05
1	223	63.306282840167	0.958099365234375	0.9576416015625	4.98046875E-07	4.76950390293496E-07	1922794.125	2.69418014795519E-05
1	224	63.4069908399127	0.948028564453125	0.9478759765625	4.90722656250001E-07	4.65144211148072E-07	1931592.125	2.69915908575058E-05
1	225	63.5076988396585	0.937957763671875	0.9381103515625	4.833984375E-07	4.53481078466211E-07	1940656.625	2.70406417257618E-05
1	226	63.6084068394042	0.927886962890625	0.927734375	4.7576904296875E-07	4.41387300043061E-07	1949967.875	2.70889395324048E-05
1	227	63.7091148391499	0.917816162109375	0.91796875	4.681396484375E-07	4.29737553986342E-07	1960886.625	2.71364697255194E-05
1	228	63.8098228388957	0.907745361328125	0.90789794921875	4.58679199218751E-07	4.16433891814449E-07	1979374.625	2.71831377176568E-05
1	229	63.9105308386414	0.897674560546875	0.89752197265625	4.50439453125E-07	4.04279290933118E-07	1992547.5	2.72289162239758E-05
1	230	64.0112388383872	0.887603759765625	0.887451171875	4.41894531250001E-07	3.92159790862934E-07	2008287.375	2.72738489002222E-05
1	231	64.1119468381329	0.877532958984375	0.877685546875	4.32739257812501E-07	3.79808994921405E-07	2028208.75	2.73178902716609E-05
1	232	64.2126548378786	0.867462158203125	0.86761474609375	4.24804687499999E-07	3.68566816177918E-07	2042385.125	2.73610694421222E-05
1	233	64.3133628376244	0.857391357421875	0.8575439453125	4.15649414062499E-07	3.56437624304817E-07	2063142.5	2.74033900495851E-05
1	234	64.4140708373701	0.847320556640625	0.84716796875	4.0740966796875E-07	3.45144400171193E-07	2079400.75	2.74448357231449E-05
1	235	64.5147788371158	0.837249755859375	0.83770751953125	3.9947509765625E-07	3.34643289079395E-07	2097020.75	2.74854646704625E-05
1	236	64.6154868368616	0.827178955078125	0.82763671875	3.90625E-07	3.23295580528793E-07	2118750	2.75252496066969E-05
1	237	64.7161948366073	0.817108154296875	0.81756591796875	3.8116455078125E-07	3.11627132987269E-07	2144916	2.75641123153036E-05
1	238	64.8169028363531	0.807037353515625	0.806884765625	3.70178222656251E-07	2.98691162470277E-07	2179719.75	2.7601945475908E-05
1	239	64.9176108360988	0.796966552734375	0.79742431640625	3.570556640625E-07	2.84724848143014E-07	2233333.5	2.76385635515908E-05
1	240	65.0183188358445	0.786895751953125	0.78704833984375	3.40881347656249E-07	2.68290108351721E-07	2308863	2.76737082458567E-05
1	241	65.1190268355903	0.776824951171875	0.777587890625	3.204345703125E-07	2.49166049570704E-07	2426666.75	2.77070084848674E-05
1	242	65.219734835336	0.766754150390625	0.76690673828125	2.9449462890625E-07	2.2584990233554E-07	2604145.25	2.7737973141484E-05
1	243	65.3204428350817	0.756683349609375	0.7568359375	2.6123046875E-07	1.97708601490376E-07	2897196.25	2.77659546554787E-05
1	244	65.4211508348275	0.746612548828125	0.74652099609375	2.20336914062499E-07	1.64486138487518E-07	3388088.75	2.77902036032174E-05
1	245	65.5218588345732	0.736541748046875	0.7364501953125	1.7364501953125E-07	1.27880909417399E-07	4241125	2.78100433206419E-05
1	246	65.6225668343189	0.726470947265625	0.726409912109375	1.22680664062499E-07	8.91164475547157E-08	5921144.5	2.78249644907191E-05
1	247	65.7232748340647	0.716400146484375	0.716339111328125	7.20214843749997E-08	5.15918081589462E-08	9946186	2.78347688436043E-05
1	248	65.8239828338104	0.706329345703125	0.706329345703125	2.71606445312503E-08	1.91843589902874E-08	26005618	2.7839761969517E-05
1	249	65.9246908335562	0.696258544921875	0.6961669921875	-9.1552734375E-09	-6.37359898192358E-09	-76040000	2.78406696452294E-05
1	250	66.0253988333019	0.686187744140625	0.686126708984375	-3.14331054687506E-08	-2.15670912240284E-08	-21828156	2.78386251011398E-05
1	251	66.1261068330476	0.676116943359375	0.676025390625	-3.96728515625E-08	-2.68198547814791E-08	-17040000	2.78350453299936E-05
1	252	66.2268148327934	0.666046142578125	0.666015625	-3.75366210937506E-08	-2.49999754231567E-08	-17743090	2.78311563306488E-05
1	253	66.3275228325391	0.655975341796875	0.65594482421875	-2.68554687500006E-08	-1.76157062270477E-08	-24425000	2.78279148915317E-05
1	254	66.4282308322848	0.645904541015625	0.64581298828125	-1.220703125E-08	-7.88345921876044E-09	-52905000	2.78259467449971E-05
1	255	66.5289388320306	0.635833740234375	0.635772705078125	3.66210937499945E-09	2.32826913304507E-09	173608336	2.78255174634978E-05
1	256	66.6296468317763	0.625762939453125	0.625701904296875	1.86157226562497E-08	1.16478933165354E-08	33611476	2.78266397799598E-05
1	257	66.730354831522	0.615692138671875	0.61566162109375	3.11279296874994E-08	1.91642701707906E-08	19778432	2.78291445283685E-05
1	258	66.8310628312678	0.605621337890625	0.605621337890625	4.18090820312494E-08	2.53204710531918E-08	14485402	2.78328170679742E-05
1	259	66.9317708310135	0.595550537109375	0.595611572265625	5.12695312500006E-08	3.05367251485222E-08	11617262	2.78375027846778E-05
1	260	67.0324788307593	0.585479736328125	0.585479736328125	5.79833984375E-08	3.39481047717527E-08	10097369	2.78430052276235E-05
1	261	67.133186830505	0.575408935546875	0.575408935546875	6.37817382812503E-08	3.67005803525444E-08	9021532	2.78491352219135E-05
1	262	67.2338948302507	0.565338134765625	0.5653076171875	6.95800781250006E-08	3.93341466065067E-08	8124562	2.78558509307913E-05
1	263	67.3346028299965	0.555267333984375	0.555206298828125	7.44628906250003E-08	4.13422647227435E-08	7456147.5	2.78631050605327E-05
1	264	67.4353108297422	0.545196533203125	0.545166015625	7.81249999999997E-08	4.25910933188334E-08	6978125	2.78707884717733E-05
1	265	67.5360188294879	0.535125732421875	0.53509521484375	8.087158203125E-08	4.32739959421724E-08	6616604	2.78787938441383E-05
1	266	67.6367268292337	0.525054931640625	0.525054931640625	8.33129882812506E-08	4.37438920641853E-08	6302198	2.78870611509774E-05
1	267	67.7374348289794	0.514984130859375	0.5150146484375	8.544921875E-08	4.40075993424216E-08	6027143	2.78955594694708E-05
1	268	67.8381428287252	0.504913330078125	0.504913330078125	8.697509765625E-08	4.39148841735459E-08	5805263.5	2.79042415058939E-05
1	269	67.9388508284709	0.494842529296875	0.494873046875	8.81958007812503E-08	4.36457234798127E-08	5611073	2.79130617855117E-05
1	270	68.0395588282166	0.484771728515625	0.484771728515625	8.88061523437497E-08	4.30507114401735E-08	5458763	2.7921974833589E-05
1	271	68.1402668279624	0.474700927734375	0.4747314453125	8.94165039062506E-08	4.24488248995658E-08	5309215	2.79309497273061E-05
1	272	68.2409748277081	0.464630126953125	0.464630126953125	8.94165039062506E-08	4.1545600737436E-08	5196246	2.79399537248537E-05
1	273	68.3416828274538	0.454559326171875	0.45452880859375	8.97216796875003E-08	4.07810887281812E-08	5065986.5	2.79489740933059E-05
1	274	68.4423908271996	0.444488525390625	0.444580078125	8.91113281249995E-08	3.96171202510232E-08	4989041.5	2.79579799098428E-05
1	275	68.5430988269453	0.434417724609375	0.434478759765625	8.85009765625E-08	3.84517946372398E-08	4909310.5	2.79669220617507E-05
1	276	68.643806826691	0.424346923828125	0.42437744140625	8.88061523437497E-08	3.76873288132629E-08	4778694	2.79758514807327E-05
1	277	68.7445148264368	0.414276123046875	0.414276123046875	8.78906250000006E-08	3.64109880024444E-08	4713541.5	2.79847481579054E-05
1	278	68.8452228261825	0.404205322265625	0.404205322265625	8.78906250000006E-08	3.55258578110806E-08	4598958.5	2.79935993603431E-05
1	279	68.9459308259283	0.394134521484375	0.394195556640625	8.72802734374997E-08	3.44054953416162E-08	4516433.5	2.80024196399609E-05
1	280	69.046638825674	0.384063720703125	0.384063720703125	8.66699218750003E-08	3.32867706731577E-08	4431338	2.80111798929283E-05
1	281	69.1473468254197	0.373992919921875	0.374053955078125	8.544921875E-08	3.19626174416499E-08	4377500	2.80198455584468E-05
1	282	69.2480548251655	0.363922119140625	0.3638916015625	8.48388671875006E-08	3.08721510577925E-08	4289208.5	2.80284202744951E-05
1	283	69.3487628249112	0.353851318359375	0.353759765625	8.42285156249997E-08	2.97966575857345E-08	4200000.5	2.80369331449037E-05
1	284	69.4494708246569	0.343780517578125	0.343780517578125	8.23974609375E-08	2.83266405887161E-08	4172222.5	2.80453241430223E-05
1	285	69.5501788244027	0.333709716796875	0.333709716796875	8.17871093750006E-08	2.72931526268394E-08	4080224	2.80535914498614E-05
1	286	69.6508868241484	0.323638916015625	0.323638916015625	8.02612304687506E-08	2.59756571807657E-08	4032319.5	2.80617514363257E-05
1	287	69.7515948238942	0.313568115234375	0.313568115234375	7.87353515625006E-08	2.46888944843704E-08	3982558.25	2.80697568086907E-05
1	288	69.8523028236399	0.303497314453125	0.30352783203125	7.62939453125E-08	2.31573356046511E-08	3978400	2.80775639112107E-05
1	289	69.9530108233856	0.293426513671875	0.293426513671875	7.44628906250003E-08	2.18493863002323E-08	3940573.75	2.80851545539917E-05
1	290	70.0537188231314	0.283355712890625	0.283355712890625	7.20214843749997E-08	2.04076986420887E-08	3934322	2.80925305560231E-05
1	291	70.1544268228771	0.273284912109375	0.273223876953125	6.95800781250006E-08	1.90109386011272E-08	3926754.5	2.8099660994485E-05
1	292	70.2551348226228	0.263214111328125	0.263275146484375	6.65283203125006E-08	1.75152514714227E-08	3957339.75	2.81065149465576E-05
1	293	70.3558428223686	0.253143310546875	0.253173828125	6.31713867187495E-08	1.5993341762055E-08	4007729.5	2.81130451185163E-05
1	294	70.4565508221143	0.243072509765625	0.2430419921875	5.950927734375E-08	1.44632528176203E-08	4084102.75	2.81192224065308E-05
1	295	70.55725882186	0.233001708984375	0.23297119140625	5.55419921874995E-08	1.29396839909646E-08	4194505.5	2.8125015887781E-05
1	296	70.6579668216058	0.222930908203125	0.222930908203125	5.00488281250003E-08	1.11574305350359E-08	4454268.5	2.81303327938076E-05
1	297	70.7586748213515	0.212860107421875	0.21295166015625	4.30297851562497E-08	9.16326392541578E-09	4948936.5	2.81350203295005E-05
1	298	70.8593828210973	0.202789306640625	0.20281982421875	3.54003906249997E-08	7.17990111809286E-09	5729310.5	2.81389693554956E-05
1	299	70.960090820843	0.192718505859375	0.192779541015625	2.53295898437506E-08	4.88302642764893E-09	7610843.5	2.8142027076683E-05
1	300	71.0607988205887	0.182647705078125	0.182708740234375	1.28173828124994E-08	2.34184782677005E-09	14254762	2.81439479294932E-05
1	301	71.1615068203345	0.172576904296875	0.172576904296875	-4.57763671875E-09	-7.89994347716316E-10	-37700000	2.81443626590772E-05
1	302	71.2622148200802	0.162506103515625	0.16253662109375	-2.68554687500006E-08	-4.36499725253725E-09	-6052272.5	2.81427801382961E-05
1	303	71.3629228198259	0.152435302734375	0.15252685546875	-5.85937499999994E-08	-8.93712037708383E-09	-2603125	2.81384782283567E-05
1	304	71.4636308195717	0.142364501953125	0.14239501953125	-1.0101318359375E-07	-1.4383773283555E-08	-1409667.75	2.81304401141824E-05
1	305	71.5643388193174	0.132293701171875	0.13238525390625	-1.59301757812499E-07	-2.10892032725951E-08	-831034.5	2.81173324765405E-05
1	306	71.6650468190631	0.122222900390625	0.122314453125	-2.392578125E-07	-2.92646884503256E-08	-511224.46875	2.80972635664511E-05
1	307	71.7657548188089	0.112152099609375	0.11224365234375	-3.47290039062501E-07	-3.89811027901033E-08	-323198.59375	2.80677286355058E-05
1	308	71.8664628185546	0.102081298828125	0.10211181640625	-4.89196777343751E-07	-4.99527743613726E-08	-208733.625	2.80256081168773E-05
1	309	71.9671708183004	0.092010498046875	0.092132568359375	-6.68945312499999E-07	-6.16316455648303E-08	-137728.109375	2.79672913165996E-05
1	310	72.0678788180461	0.081939697265625	0.082000732421875	-8.8623046875E-07	-7.26715470023009E-08	-92527.546875	2.78889820037875E-05
1	311	72.1685868177918	0.071868896484375	0.071929931640625	-1.1334228515625E-06	-8.15270269072244E-08	-63462.57421875	2.77872841252247E-05
1	312	72.2692948175376	0.061798095703125	0.061859130859375	-1.3909912109375E-06	-8.604551027247E-08	-44471.2578125	2.76601695077261E-05
1	313	72.3700028172833	0.051727294921875	0.05181884765625	-1.6351318359375E-06	-8.47306438345186E-08	-31690.931640625	2.75077927653911E-05
1	314	72.470710817029	0.041656494140625	0.041729736328125	-1.8408203125E-06	-7.6816945693281E-08	-22669.099609375	2.73327641480137E-05
1	315	72.5714188167748	0.031585693359375	0.031671142578125	-1.98944091796875E-06	-6.30078673680146E-08	-15919.62109375	2.71398948825663E-05
1	316	72.6721268165205	0.021514892578125	0.0216064453125	-2.07122802734375E-06	-4.47518750945619E-08	-10431.7080078125	2.69354241027031E-05
1	317	72.7728348162663	0.011444091796875	0.011541748046875	-2.0928955078125E-06	-2.41556747937466E-08	-5514.7275390625	2.67257437371882E-05
1	318	72.873542816012	0.001373291015625	0.00147705078125	-2.066650390625E-06	-3.05254754806583E-09	-714.707702636719	2.65162943833275E-05
1	319	72.9742508157577	-0.008697509765625	-0.008587646484375	-2.0086669921875E-06	1.72497216510692E-08	4275.2958984375	2.63110869127559E-05
1	320	73.0749588155035	-0.018768310546875	-0.0186798095703125	-1.93450927734375E-06	3.61362637590901E-08	9656.0966796875	2.6112531486433E-05
1	321	73.1756668152492	-0.028839111328125	-0.0287078857421875	-1.85394287109375E-06	5.32227808491825E-08	15484.7734375	2.59217686107149E-05
1	322	73.2763748149949	-0.038909912109375	-0.03875732421875	-1.7742919921875E-06	6.87668091359228E-08	21843.826171875	2.57390711340122E-05
1	323	73.3770828147407	-0.048980712890625	-0.0488189697265625	-1.69921875E-06	8.2954102254007E-08	28730.244140625	2.55641662079142E-05
1	324	73.4777908144864	-0.059051513671875	-0.0589599609375	-1.63055419921875E-06	9.61374055918895E-08	36159.4609375	2.5396499040653E-05
1	325	73.5784988142321	-0.069122314453125	-0.069061279296875	-1.56890869140625E-06	1.08350832306314E-07	44018.67578125	2.52353929681703E-05
1	326	73.6792068139779	-0.079193115234375	-0.079132080078125	-1.51458740234375E-06	1.19852444413482E-07	52246.62890625	2.50801276706625E-05
1	327	73.7799148137236	-0.089263916015625	-0.08917236328125	-1.46575927734375E-06	1.30705217316063E-07	60836.9765625	2.49300537689123E-05
1	328	73.8806228134694	-0.099334716796875	-0.0992431640625	-1.4227294921875E-06	1.41196181857595E-07	69755.46875	2.47846073762048E-05
1	329	73.9813308132151	-0.109405517578125	-0.109344482421875	-1.3848876953125E-06	1.51429830452798E-07	78955.484375	2.46432337007718E-05
1	330	74.0820388129608	-0.119476318359375	-0.11944580078125	-1.351318359375E-06	1.61409303700566E-07	88392.046875	2.45054543484002E-05
1	331	74.1827468127066	-0.129547119140625	-0.12945556640625	-1.32232666015625E-06	1.71182549024707E-07	97899.84375	2.43708254856756E-05
1	332	74.2834548124523	-0.139617919921875	-0.1395263671875	-1.2957763671875E-06	1.8079495589518E-07	107677.8203125	2.42389924096642E-05
1	333	74.384162812198	-0.149688720703125	-0.14959716796875	-1.2725830078125E-06	1.90374805697502E-07	117553.9609375	2.41096659010509E-05
1	334	74.4848708119438	-0.159759521484375	-0.159637451171875	-1.25244140625E-06	1.99936550870916E-07	127461.015625	2.39825203607325E-05
1	335	74.5855788116895	-0.169830322265625	-0.169647216796875	-1.2347412109375E-06	2.09470400136524E-07	137394.96875	2.38572811213089E-05
1	336	74.6862868114353	-0.179901123046875	-0.179718017578125	-1.219482421875E-06	2.19162970438447E-07	147372.375	2.37337008002214E-05
1	337	74.786994811181	-0.189971923828125	-0.1898193359375	-1.20574951171875E-06	2.28874569074833E-07	157428.5	2.3611581127625E-05
1	338	74.8877028109267	-0.200042724609375	-0.199951171875	-1.195068359375E-06	2.38955294662446E-07	167313.59375	2.34906910918653E-05
1	339	74.9884108106725	-0.189971923828125	-0.1898193359375	-1.0577392578125E-06	2.00779368242365E-07	179457.59375	2.3377253455692E-05
2	340	75.0891188104182	-0.179901123046875	-0.17974853515625	-9.65576171875E-07	1.73560906091552E-07	186156.765625	2.327537004021E-05
2	341	75.1898268101639	-0.169830322265625	-0.169647216796875	-8.9263916015625E-07	1.514337526487E-07	190051.28125	2.31818012252916E-05
2	342	75.2905348099097	-0.159759521484375	-0.15966796875	-8.319091796875E-07	1.3282924271607E-07	191929.5625	2.30949644901557E-05
2	343	75.3912428096554	-0.149688720703125	-0.14959716796875	-7.7850341796875E-07	1.16461905008691E-07	192159.9375	2.30138739425456E-05
2	344	75.4919508094011	-0.139617919921875	-0.139495849609375	-7.31201171875E-07	1.01999525270458E-07	190776.296875	2.29378529184032E-05
2	345	75.5926588091469	-0.129547119140625	-0.12945556640625	-6.8817138671875E-07	8.90876137304986E-08	188115.296875	2.28663830057485E-05
2	346	75.6933668088926	-0.119476318359375	-0.119354248046875	-6.488037109375E-07	7.7437476875275E-08	183960.5	2.27990603889339E-05
2	347	75.7940748086384	-0.109405517578125	-0.1092529296875	-6.11267089843751E-07	6.67827180222957E-08	178731.90625	2.27356104005594E-05
2	348	75.8947828083841	-0.099334716796875	-0.099212646484375	-5.7586669921875E-07	5.71332599008656E-08	172284.046875	2.26758347707801E-05
2	349	75.9954908081298	-0.089263916015625	-0.089202880859375	-5.4168701171875E-07	4.83200395251515E-08	164676.0625	2.26195606956026E-05
2	350	76.0961988078756	-0.079193115234375	-0.07916259765625	-5.07507324218751E-07	4.01755961831896E-08	155983.171875	2.2566729967366E-05
2	351	76.1969068076213	-0.069122314453125	-0.069061279296875	-4.7149658203125E-07	3.25621556385158E-08	146472.5	2.25174335355405E-05
2	352	76.297614807367	-0.059051513671875	-0.058990478515625	-4.3304443359375E-07	2.55454981612502E-08	136222.703125	2.24718860408757E-05
2	353	76.3983228071128	-0.048980712890625	-0.0488616943359375	-3.9093017578125E-07	1.91015097072977E-08	124988.296875	2.24303948925808E-05
2	354	76.4990308068585	-0.038909912109375	-0.0387847900390625	-3.4027099609375E-07	1.31973392214491E-08	113982.0703125	2.23935767280636E-05
2	355	76.5997388066043	-0.028839111328125	-0.02869873046875	-2.7923583984375E-07	8.01371413672314E-09	102775.96875	2.23623810597928E-05
2	356	76.70044680635	-0.018768310546875	-0.018670654296875	-2.02331542968751E-07	3.77766218306874E-09	92277.53125	2.23381321120542E-05
2	357	76.8011548060957	-0.008697509765625	-0.008587646484375	-1.025390625E-07	8.80569173133949E-10	83750	2.23227816604776E-05
2	358	76.9018628058415	0.001373291015625	0.00148620605468749	2.56347656250003E-08	3.8098545152021E-11	57976.19140625	2.23189090320375E-05
2	359	77.0025708055872	0.011444091796875	0.011553955078125	1.88293457031249E-07	2.17553419723515E-09	61361.4296875	2.23296810872853E-05
2	360	77.1032788053329	0.021514892578125	0.0216033935546875	3.89404296875E-07	8.41245384464173E-09	55478.0625	2.23587703658268E-05
2	361	77.2039868050787	0.031585693359375	0.03165283203125	6.2530517578125E-07	1.97926794953673E-08	50619.8125	2.24098657781724E-05
2	362	77.3046948048244	0.041656494140625	0.0417633056640625	8.8775634765625E-07	3.70756367829017E-08	47043.66015625	2.24860541493399E-05
2	363	77.4054028045701	0.051727294921875	0.051788330078125	1.15447998046875E-06	5.97885900788242E-08	44858.578125	2.258888889628E-05
2	364	77.5061108043159	0.061798095703125	0.06182861328125	1.40167236328125E-06	8.66634550789058E-08	44110.60546875	2.27176005864749E-05
2	365	77.6068188040616	0.071868896484375	0.071929931640625	1.60430908203125E-06	1.15397845945608E-07	44835.45703125	2.28689641517121E-05
2	366	77.7075268038074	0.081939697265625	0.082000732421875	1.748046875E-06	1.43341125635743E-07	46909.9140625	2.30377681873506E-05
2	367	77.8082348035531	0.092010498046875	0.092010498046875	1.82525634765625E-06	1.6794274415588E-07	50409.6328125	2.32176989811705E-05
2	368	77.9089428032988	0.102081298828125	0.102081298828125	1.844482421875E-06	1.88287160085565E-07	55344.14453125	2.34024846577086E-05
2	369	78.0096508030446	0.112152099609375	0.11212158203125	1.82037353515625E-06	2.04103159262559E-07	61592.625	2.35870247706771E-05
2	370	78.1103588027903	0.122222900390625	0.122283935546875	1.76849365234375E-06	2.16258356999788E-07	69145.8203125	2.376773954893E-05
2	371	78.211066802536	0.132293701171875	0.13232421875	1.70135498046875E-06	2.25130463604728E-07	77775.7890625	2.39424589381088E-05
2	372	78.3117748022818	0.142364501953125	0.14239501953125	1.62933349609375E-06	2.32008972034237E-07	87394.640625	2.41101733990945E-05
2	373	78.4124828020275	0.152435302734375	0.15240478515625	1.55792236328125E-06	2.37434818473048E-07	97825.6640625	2.42706646531587E-05
2	374	78.5131908017732	0.162506103515625	0.16253662109375	1.49078369140625E-06	2.42306953168736E-07	109027.6328125	2.4424178263871E-05
2	375	78.613898801519	0.172576904296875	0.172576904296875	1.4300537109375E-06	2.46794229497027E-07	120678.625	2.45712544710841E-05
2	376	78.7146068012647	0.182647705078125	0.182647705078125	1.37481689453125E-06	2.51107138637963E-07	132852.390625	2.47124917223118E-05
2	377	78.8153148010105	0.192718505859375	0.192779541015625	1.32537841796875E-06	2.55505852919669E-07	145452.453125	2.48484575422481E-05
2	378	78.9160228007562	0.202789306640625	0.2027587890625	1.28204345703125E-06	2.59945579728083E-07	158152.828125	2.49797503784066E-05
2	379	79.0167308005019	0.212860107421875	0.21282958984375	1.24420166015625E-06	2.64802906713157E-07	171057.15625	2.51069577643648E-05
2	380	79.1174388002477	0.222930908203125	0.22296142578125	1.2103271484375E-06	2.69856258228174E-07	184215.84375	2.52305526373675E-05
2	381	79.2181467999934	0.233001708984375	0.233001708984375	1.1798095703125E-06	2.74897615781811E-07	197490.953125	2.53509060712531E-05
2	382	79.3188547997391	0.243072509765625	0.243072509765625	1.15386962890625E-06	2.80473983593765E-07	210658.5625	2.5468416424701E-05
2	383	79.4195627994849	0.253143310546875	0.253143310546875	1.1297607421875E-06	2.85991347936942E-07	224068.078125	2.55834056588355E-05
2	384	79.5202707992306	0.263214111328125	0.26324462890625	1.10870361328125E-06	2.91860260404064E-07	237434.625	2.56961211562157E-05
2	385	79.6209787989764	0.273284912109375	0.27325439453125	1.08978271484375E-06	2.97787920544579E-07	250742.09375	2.58068230323261E-05
2	386	79.7216867987221	0.283355712890625	0.283355712890625	1.07269287109375E-06	3.03953640923282E-07	264153.625	2.59157131949905E-05
2	387	79.8223947984678	0.293426513671875	0.29339599609375	1.05743408203125E-06	3.1024691793391E-07	277460.34375	2.60229735431494E-05
2	388	79.9231027982136	0.303497314453125	0.30340576171875	1.0430908203125E-06	3.16479770390288E-07	290871.84375	2.61287441389868E-05
2	389	80.0238107979593	0.313568115234375	0.313568115234375	1.0308837890625E-06	3.23252265843621E-07	304174.09375	2.62331759586232E-05
2	390	80.124518797705	0.323638916015625	0.323638916015625	1.01959228515625E-06	3.29979712887507E-07	317419.96875	2.63364254351472E-05
2	391	80.2252267974508	0.333709716796875	0.333740234375	1.009521484375E-06	3.36917935328529E-07	330592.5	2.64385998889338E-05
2	392	80.3259347971965	0.343780517578125	0.343780517578125	1.00006103515625E-06	3.43801502822316E-07	343759.53125	2.65397902694531E-05
2	393	80.4266427969422	0.353851318359375	0.3538818359375	9.9212646484375E-07	3.51095508221988E-07	356690.28125	2.66401057160692E-05
2	394	80.527350796688	0.363922119140625	0.363922119140625	9.8419189453125E-07	3.58169188530155E-07	369767.46875	2.67396208073478E-05
2	395	80.6280587964337	0.373992919921875	0.3740234375	9.77783203125E-07	3.65713844985294E-07	382521.84375	2.68384137598332E-05
2	396	80.7287667961795	0.384063720703125	0.38409423828125	9.7198486328125E-07	3.73333762127004E-07	395164.84375	2.69365918939002E-05
2	397	80.8294747959252	0.394134521484375	0.394195556640625	9.6710205078125E-07	3.81227295065401E-07	407604.9375	2.70342334260931E-05
2	398	80.9301827956709	0.404205322265625	0.40423583984375	9.6221923828125E-07	3.889635138421E-07	420107.84375	2.71313820121577E-05
2	399	81.0308907954167	0.414276123046875	0.41424560546875	9.5947265625E-07	3.97457341705376E-07	431743	2.72281467914581E-05
2	400	81.1315987951624	0.424346923828125	0.42431640625	9.55810546875E-07	4.0556608382758E-07	443933.625	2.73245896096341E-05
2	401	81.2323067949081	0.434417724609375	0.4344482421875	9.539794921875E-07	4.14454689234844E-07	455406.28125	2.74207541224314E-05
2	402	81.3330147946539	0.444488525390625	0.44451904296875	9.5184326171875E-07	4.23112425096406E-07	467008.6875	2.75167203653837E-05
2	403	81.4337227943996	0.454559326171875	0.454559326171875	9.5062255859375E-07	4.3211431943746E-07	478170.15625	2.76125174423214E-05
2	404	81.5344307941454	0.464630126953125	0.464630126953125	9.4940185546875E-07	4.41120704408604E-07	489392.46875	2.77081908279797E-05
2	405	81.6351387938911	0.474700927734375	0.474700927734375	9.4879150390625E-07	4.50392178663606E-07	500321.65625	2.78037732641678E-05
2	406	81.7358467936368	0.484771728515625	0.48480224609375	9.4879150390625E-07	4.59976234878923E-07	510968.1875	2.78993247775361E-05
2	407	81.8365547933826	0.494842529296875	0.494842529296875	9.48181152343749E-07	4.69200358566013E-07	521886.0625	2.79948435490951E-05
2	408	81.9372627931283	0.504913330078125	0.504852294921875	9.490966796875E-07	4.79153641208541E-07	531929.25	2.80903786915587E-05
2	409	82.037970792874	0.514984130859375	0.514984130859375	9.4970703125E-07	4.89084015953267E-07	542255.8125	2.81859920505667E-05
2	410	82.1386787926198	0.525054931640625	0.524993896484375	9.51232910156249E-07	4.99391489938716E-07	551908.875	2.82817127299495E-05
2	411	82.2393867923655	0.535125732421875	0.535125732421875	9.53063964843751E-07	5.10009044774051E-07	561479.375	2.83776007563574E-05
2	412	82.3400947921112	0.545196533203125	0.545166015625	9.552001953125E-07	5.207426738707E-07	570734.8125	2.84736888715997E-05
2	413	82.440802791857	0.555267333984375	0.5552978515625	9.5855712890625E-07	5.32284673226968E-07	579306	2.85700552922208E-05
2	414	82.5415107916027	0.565338134765625	0.565277099609375	9.6099853515625E-07	5.43230441962805E-07	588218.5	2.86667127511464E-05
2	415	82.6422187913485	0.575408935546875	0.575408935546875	9.6435546875E-07	5.54898747395782E-07	596677.25	2.87636612483766E-05
2	416	82.7429267910942	0.585479736328125	0.58544921875	9.68322753906251E-07	5.66903793242091E-07	604601.3125	2.88609790004557E-05
2	417	82.8436347908399	0.595550537109375	0.595550537109375	9.72900390625001E-07	5.79411334911129E-07	612139.3125	2.89587278530234E-05
2	418	82.9443427905857	0.605621337890625	0.60552978515625	9.783935546875E-07	5.92446440350614E-07	618902.0625	2.90569842036348E-05
2	419	83.0450507903314	0.615692138671875	0.615692138671875	9.8541259765625E-07	6.06710784722964E-07	624806.4375	2.91558681055903E-05
2	420	83.1457587900771	0.625762939453125	0.625732421875	9.93957519531249E-07	6.21951471657667E-07	629536.375	2.92555378109682E-05
2	421	83.2464667898229	0.635833740234375	0.63580322265625	1.0040283203125E-06	6.38364383576118E-07	633252.3125	2.9356144295889E-05
2	422	83.3471747895686	0.645904541015625	0.64581298828125	1.01776123046875E-06	6.57283408145304E-07	634542.75	2.94579494948266E-05
2	423	83.4478827893143	0.655975341796875	0.655914306640625	1.03546142578125E-06	6.79173979278858E-07	633451.25	2.95613372145453E-05
2	424	83.5485907890601	0.666046142578125	0.666015625	1.058349609375E-06	7.048773227325E-07	629296.4375	2.96667694783537E-05
2	425	83.6492987888058	0.676116943359375	0.675994873046875	1.08734130859375E-06	7.35037133381411E-07	621695.25	2.97748138109455E-05
2	426	83.7500067885516	0.686187744140625	0.686126708984375	1.12396240234375E-06	7.71180623360124E-07	610453.4375	2.98861614282941E-05
2	427	83.8507147882973	0.696258544921875	0.6961669921875	1.16546630859375E-06	8.11359143426671E-07	597329.125	3.00014435197227E-05
2	428	83.951422788043	0.706329345703125	0.706329345703125	1.2115478515625E-06	8.55751750350464E-07	582997.5	3.01211348414654E-05
2	429	84.0521307877888	0.716400146484375	0.71624755859375	1.25640869140625E-06	8.99899589512643E-07	570075.3125	3.02454063785262E-05
2	430	84.1528387875345	0.726470947265625	0.72637939453125	1.2957763671875E-06	9.41225209771801E-07	560574.6875	3.03739197988762E-05
2	431	84.2535467872802	0.736541748046875	0.736419677734375	1.32537841796875E-06	9.76034812083526E-07	555629.75	3.05059056699974E-05
2	432	84.354254787026	0.746612548828125	0.746551513671875	1.34521484375E-06	1.00427223514998E-06	554968.25	3.06403817376122E-05
2	433	84.4549627867717	0.756683349609375	0.75653076171875	1.35345458984375E-06	1.02392993994727E-06	558962.8125	3.07762711599935E-05
2	434	84.5556707865175	0.766754150390625	0.7672119140625	1.353759765625E-06	1.03862066680449E-06	566726.75	3.0912589863874E-05
2	435	84.6563787862632	0.776824951171875	0.7769775390625	1.348876953125E-06	1.04804712464102E-06	576018.125	3.10486757371109E-05
2	436	84.7570867860089	0.786895751953125	0.7867431640625	1.3409423828125E-06	1.05497724689485E-06	586709.125	3.11841213260777E-05
2	437	84.8577947857547	0.796966552734375	0.79681396484375	1.33148193359375E-06	1.06094341845164E-06	598441.4375	3.13186865241732E-05
2	438	84.9585027855004	0.807037353515625	0.80718994140625	1.3226318359375E-06	1.0676150168365E-06	610290.75	3.14523313136306E-05
2	439	85.0592107852461	0.817108154296875	0.816650390625	1.31439208984375E-06	1.07339883470559E-06	621314.125	3.15851175400894E-05
2	440	85.1599187849919	0.827178955078125	0.82763671875	1.30767822265625E-06	1.08228243789199E-06	632905.5	3.17171507049352E-05
2	441	85.2606267847376	0.837249755859375	0.83740234375	1.30218505859375E-06	1.09045288354537E-06	643074.75	3.18485654133838E-05
2	442	85.3613347844833	0.847320556640625	0.84747314453125	1.2982177734375E-06	1.10020471311145E-06	652797.375	3.19795071845874E-05
2	443	85.4620427842291	0.857391357421875	0.8575439453125	1.29547119140625E-06	1.11092344923236E-06	661955.25	3.2110110623762E-05
2	444	85.5627507839748	0.867462158203125	0.86761474609375	1.29486083984375E-06	1.12344037006551E-06	670044.8125	3.22405430779327E-05
2	445	85.6634587837206	0.877532958984375	0.87646484375	1.29364013671875E-06	1.13383009647805E-06	677518.3125	3.23708845826332E-05
2	446	85.7641667834663	0.887603759765625	0.88775634765625	1.29425048828125E-06	1.14897898129129E-06	685923.1875	3.25011933455244E-05
2	447	85.864874783212	0.897674560546875	0.89813232421875	1.29486083984375E-06	1.16295632324181E-06	693613.0625	3.26315675920341E-05
2	448	85.9655827829578	0.907745361328125	0.9075927734375	1.29638671875E-06	1.17659124043712E-06	700094.1875	3.27620473399293E-05
2	449	86.0662907827035	0.917816162109375	0.91766357421875	1.297607421875E-06	1.19076696591947E-06	707196.625	3.28926653310191E-05
2	450	86.1669987824492	0.927886962890625	0.92803955078125	1.298828125E-06	1.20536390113557E-06	714520.6875	3.30234070133884E-05
2	451	86.267706782195	0.937957763671875	0.93841552734375	1.30096435546875E-06	1.22084509257547E-06	721323.0625	3.31543160427827E-05
2	452	86.3684147819407	0.948028564453125	0.9478759765625	1.30279541015625E-06	1.23488837289187E-06	727570.875	3.32854251610115E-05
2	453	86.4691227816865	0.958099365234375	0.95794677734375	1.3055419921875E-06	1.25063979794504E-06	733754.0625	3.34167671098839E-05
2	454	86.5698307814322	0.968170166015625	0.96832275390625	1.3079833984375E-06	1.26655004351051E-06	740317.375	3.35483673552517E-05
2	455	86.6705387811779	0.978240966796875	0.9783935546875	1.31256103515625E-06	1.28420128930884E-06	745408.0625	3.36803204845637E-05
2	456	86.7712467809237	0.988311767578125	0.98846435546875	1.31805419921875E-06	1.30284956867399E-06	749942.125	3.38127829309087E-05
2	457	86.8719547806694	0.998382568359375	0.99853515625	1.324462890625E-06	1.32252262119437E-06	753917.125	3.39458456437569E-05
2	458	86.9726627804151	1.00845336914063	1.00860595703125	1.3323974609375E-06	1.34386402805831E-06	756985.8125	3.40796286764089E-05
2	459	87.0733707801609	1.01852416992188	1.01806640625	1.341552734375E-06	1.3657896715813E-06	758871.75	3.42142739100382E-05
2	460	87.1740787799066	1.02859497070313	1.02783203125	1.3519287109375E-06	1.38955556394649E-06	760270.9375	3.43499013979454E-05
2	461	87.2747867796523	1.03866577148438	1.038818359375	1.36322021484375E-06	1.41613816140307E-06	762032.6875	3.44866202794947E-05
2	462	87.3754947793981	1.04873657226563	1.04888916015625	1.373291015625E-06	1.44042996907956E-06	763777.8125	3.46244123647921E-05
2	463	87.4762027791438	1.05880737304688	1.05865478515625	1.38153076171875E-06	1.46256411426293E-06	766291.125	3.47631284967065E-05
2	464	87.5769107788896	1.06887817382813	1.0687255859375	1.38824462890625E-06	1.48365256791294E-06	769839.5	3.4902597690234E-05
2	465	87.6776187786353	1.07894897460938	1.07879638671875	1.3922119140625E-06	1.50191317516146E-06	774879.5	3.50426053046249E-05
2	466	87.778326778381	1.08901977539063	1.08917236328125	1.3934326171875E-06	1.51768836076371E-06	781646.9375	3.51828748534899E-05
2	467	87.8790347781268	1.09909057617188	1.0986328125	1.39373779296875E-06	1.53120606682933E-06	788263.625	3.53232207999099E-05
2	468	87.9797427778725	1.10916137695313	1.10931396484375	1.392822265625E-06	1.54507711158658E-06	796450.5	3.54635340045206E-05
2	469	88.0804507776182	1.11923217773438	1.119384765625	1.39129638671875E-06	1.55739587626158E-06	804562.4375	3.56037271558307E-05
2	470	88.181158777364	1.12930297851563	1.12945556640625	1.3897705078125E-06	1.5696839454904E-06	812692.1875	3.57437638740521E-05
2	471	88.2818667771097	1.13937377929688	1.138916015625	1.38824462890625E-06	1.58109401127149E-06	820400.0625	3.58836477971636E-05
2	472	88.3825747768554	1.14944458007813	1.1492919921875	1.38641357421875E-06	1.59339390393143E-06	828967.6875	3.60233643732499E-05
2	473	88.4832827766012	1.15951538085938	1.15936279296875	1.3861083984375E-06	1.60700244578038E-06	836415.6875	3.61629718099721E-05
2	474	88.5839907763469	1.16958618164063	1.16973876953125	1.38580322265625E-06	1.62102776357642E-06	844087.1875	3.6302546504885E-05
2	475	88.6846987760927	1.17965698242188	1.17889404296875	1.38671875E-06	1.63479444381665E-06	850132.0625	3.64421539416071E-05
2	476	88.7854067758384	1.18972778320313	1.190185546875	1.3885498046875E-06	1.65263190865517E-06	857142.875	3.65818996215239E-05
2	477	88.8861147755841	1.19979858398438	1.199951171875	1.3909912109375E-06	1.66912150234566E-06	862659.0625	3.67218599421903E-05
2	478	88.9868227753299	1.20986938476563	1.21002197265625	1.39434814453125E-06	1.68719191151467E-06	867804.75	3.68621149391402E-05
2	479	89.0875307750756	1.21994018554688	1.21917724609375	1.39801025390625E-06	1.70442228863976E-06	872080.375	3.70027191820554E-05
2	480	89.1882387748213	1.23001098632813	1.2298583984375	1.402587890625E-06	1.72498437223112E-06	876849.5	3.71437417925335E-05
2	481	89.2889467745671	1.24008178710938	1.23992919921875	1.40869140625E-06	1.74667752617097E-06	880199.375	3.72853028238751E-05
2	482	89.3896547743128	1.25015258789063	1.25	1.416015625E-06	1.7700194803183E-06	882758.625	3.7427536881296E-05
2	483	89.4903627740586	1.26022338867188	1.26007080078125	1.4239501953125E-06	1.79427797775134E-06	884912.1875	3.75705385522451E-05
2	484	89.5910707738043	1.27029418945313	1.2701416015625	1.43341064453125E-06	1.82063445208769E-06	886097.5625	3.77144206140656E-05
2	485	89.69177877355	1.28036499023438	1.2799072265625	1.4434814453125E-06	1.84752229870355E-06	886680.75	3.78592812921852E-05
2	486	89.7924867732958	1.29043579101563	1.29058837890625	1.45599365234375E-06	1.87908835869166E-06	886397	3.80052842956502E-05
2	487	89.8931947730415	1.30050659179688	1.30096435546875	1.46820068359375E-06	1.91007666217047E-06	886094.4375	3.81525278498884E-05
2	488	89.9939027727872	1.31057739257813	1.3104248046875	1.483154296875E-06	1.94356221072667E-06	883539.125	3.83011392841581E-05
2	489	90.094610772533	1.32064819335938	1.32049560546875	1.49871826171875E-06	1.97905092136352E-06	881083.3125	3.84512895834632E-05
2	490	90.1953187722787	1.33071899414063	1.33056640625	1.51580810546875E-06	2.01688339984685E-06	877793.4375	3.86030842491891E-05
2	491	90.2960267720244	1.34078979492188	1.34063720703125	1.53350830078125E-06	2.05587821255904E-06	874228.875	3.87566287827212E-05
2	492	90.3967347717702	1.35086059570313	1.3507080078125	1.5521240234375E-06	2.09646623261506E-06	870232	3.89120032195933E-05
2	493	90.4974427715159	1.36093139648438	1.361083984375	1.57135009765625E-06	2.13873931897979E-06	866187.625	3.90692803193815E-05
2	494	90.5981507712617	1.37100219726563	1.37054443359375	1.5911865234375E-06	2.18079162550566E-06	861334.9375	3.92285292036831E-05
2	495	90.6988587710074	1.38107299804688	1.3812255859375	1.61102294921875E-06	2.22518610826228E-06	857359.375	3.93897717003711E-05
2	496	90.7995667707531	1.39114379882813	1.3909912109375	1.63177490234375E-06	2.26978431783209E-06	852440.6875	3.95530587411486E-05
2	497	90.9002747704989	1.40121459960938	1.40106201171875	1.65283203125E-06	2.31572016673454E-06	847673.5625	3.97184521716554E-05
2	498	91.0009827702446	1.41128540039063	1.4105224609375	1.6741943359375E-06	2.36148866861186E-06	842508.1875	3.98859810957219E-05
2	499	91.1016907699903	1.42135620117188	1.42120361328125	1.6961669921875E-06	2.41059865402349E-06	837891.375	4.00556928070728E-05
2	500	91.2023987697361	1.43142700195313	1.43157958984375	1.71966552734375E-06	2.46183799390565E-06	832475.625	4.02276928070933E-05
2	501	91.3031067694818	1.44149780273438	1.44134521484375	1.7462158203125E-06	2.51689971264568E-06	825410.75	4.04022139264271E-05
2	502	91.4038147692276	1.45156860351563	1.451416015625	1.7803955078125E-06	2.58409454545472E-06	815221.125	4.05797945859376E-05
2	503	91.5045227689733	1.46163940429688	1.46148681640625	1.8255615234375E-06	2.6680340852181E-06	800568.375	4.07613697461784E-05
2	504	91.605230768719	1.47171020507813	1.47186279296875	1.88812255859375E-06	2.77905724033189E-06	779537.75	4.09483654948417E-05
2	505	91.7059387684648	1.48178100585938	1.48162841796875	1.96990966796875E-06	2.91867399937473E-06	752130.1875	4.11426335631404E-05
2	506	91.8066467682105	1.49185180664063	1.4923095703125	2.07000732421875E-06	3.08909147861414E-06	720920	4.13460620620754E-05
2	507	91.9073547679562	1.50192260742188	1.5020751953125	2.18536376953125E-06	3.28258056470077E-06	687334.1875	4.15603353758343E-05
2	508	92.008062767702	1.49185180664063	1.4910888671875	1.91436767578125E-06	2.85449232251267E-06	778893.6875	4.17667724832427E-05
2	509	92.1087707674477	1.48178100585938	1.4813232421875	1.72088623046875E-06	2.5491888209217E-06	860790.9375	4.19498246628791E-05
2	510	92.2094787671934	1.47171020507813	1.47125244140625	1.572265625E-06	2.31319950216857E-06	935753.125	4.21156473748852E-05
2	511	92.3101867669392	1.46163940429688	1.4617919921875	1.45538330078125E-06	2.12746772376704E-06	1004403.4375	4.22681005147751E-05
2	512	92.4108947666849	1.45156860351563	1.4520263671875	1.361083984375E-06	1.97632971321582E-06	1066816.125	4.2409919842612E-05
2	513	92.5116027664307	1.44149780273438	1.441650390625	1.2841796875E-06	1.85133819741168E-06	1122623.625	4.25431207986549E-05
2	514	92.6123107661764	1.43142700195313	1.4312744140625	1.22161865234375E-06	1.74847150447022E-06	1171621.375	4.26692968176212E-05
2	515	92.7130187659221	1.42135620117188	1.4215087890625	1.170654296875E-06	1.66409540724999E-06	1214285.75	4.27897575718816E-05
2	516	92.8137267656679	1.41128540039063	1.41143798828125	1.129150390625E-06	1.59372575581074E-06	1250000	4.2905561713269E-05
2	517	92.9144347654136	1.40121459960938	1.40106201171875	1.094970703125E-06	1.53412179315637E-06	1279543	4.30175568908453E-05
2	518	93.0151427651593	1.39114379882813	1.39129638671875	1.06658935546875E-06	1.48394190091494E-06	1304434.875	4.31263979407959E-05
2	519	93.1158507649051	1.38107299804688	1.38092041015625	1.04248046875E-06	1.43958254739118E-06	1324648.75	4.32325978181325E-05
2	520	93.2165587646508	1.37100219726563	1.370849609375	1.0223388671875E-06	1.40147290039749E-06	1340895.5	4.33365712524392E-05
2	521	93.3172667643965	1.36093139648438	1.36077880859375	1.00311279296875E-06	1.36501455472171E-06	1356556.25	4.3438561988296E-05
2	522	93.4179747641423	1.35086059570313	1.3507080078125	9.86328124999999E-07	1.33224125420384E-06	1369430.625	4.35387373727281E-05
2	523	93.518682763888	1.34078979492188	1.3409423828125	9.70458984375E-07	1.30132946196682E-06	1381761.125	4.36372683907393E-05
2	524	93.6193907636338	1.33071899414063	1.33087158203125	9.55810546875E-07	1.27206101296906E-06	1392401.125	4.3734264181694E-05
2	525	93.7200987633795	1.32064819335938	1.32049560546875	9.41162109375E-07	1.24280040836311E-06	1403048	4.3829782953253E-05
2	526	93.8208067631252	1.31057739257813	1.3104248046875	9.27124023437501E-07	1.21492632843001E-06	1413429.875	4.39238610852044E-05
2	527	93.921514762871	1.30050659179688	1.300048828125	9.13391113281251E-07	1.18745299459988E-06	1423321.125	4.40165385953151E-05
2	528	94.0222227626167	1.29043579101563	1.2908935546875	9.002685546875E-07	1.16215085199656E-06	1433898.25	4.41078627773095E-05
2	529	94.1229307623624	1.28036499023438	1.28021240234375	8.87451171875001E-07	1.13612600216584E-06	1442572.25	4.41978809249122E-05
2	530	94.2236387621082	1.27029418945313	1.2701416015625	8.75244140625001E-07	1.11168390048988E-06	1451185.625	4.42866403318476E-05
2	531	94.3243467618539	1.26022338867188	1.259765625	8.6395263671875E-07	1.08837775769643E-06	1458142	4.43742137576919E-05
2	532	94.4250547615997	1.25015258789063	1.25030517578125	8.5174560546875E-07	1.06494189822115E-06	1467932.625	4.44606084784027E-05
2	533	94.5257627613454	1.24008178710938	1.2396240234375	8.404541015625E-07	1.04184709925903E-06	1474945.5	4.45458172180224E-05
2	534	94.6264707610911	1.23001098632813	1.23016357421875	8.28857421875E-07	1.0196301900578E-06	1484167.875	4.46298727183603E-05
2	535	94.7271787608369	1.21994018554688	1.21978759765625	8.1756591796875E-07	9.9725673408102E-07	1491974.75	4.47127786173951E-05
2	536	94.8278867605826	1.20986938476563	1.20941162109375	8.06579589843751E-07	9.7548672783887E-07	1499432.5	4.47945603809785E-05
2	537	94.9285947603283	1.19979858398438	1.199951171875	7.9620361328125E-07	9.55405425884237E-07	1507090.875	4.4875265302835E-05
2	538	95.0293027600741	1.18972778320313	1.1895751953125	7.8582763671875E-07	9.34801050789247E-07	1513786.375	4.49549261247739E-05
2	539	95.1300107598198	1.17965698242188	1.17919921875	7.74536132812501E-07	9.13332371510478E-07	1522458.75	4.50334991910495E-05
2	540	95.2307187595655	1.16958618164063	1.1700439453125	7.62939453125E-07	8.92672630925517E-07	1533600.125	4.51109153800644E-05
2	541	95.3314267593113	1.15951538085938	1.1590576171875	7.51342773437499E-07	8.7084958977357E-07	1542648.25	4.5187167415861E-05
2	542	95.432134759057	1.14944458007813	1.1492919921875	7.403564453125E-07	8.50885726322304E-07	1552349.625	4.52622807642911E-05
2	543	95.5328427588028	1.13937377929688	1.13922119140625	7.28454589843749E-07	8.29870884899719E-07	1563887.75	4.53362408734392E-05
2	544	95.6335507585485	1.12930297851563	1.1297607421875	7.1533203125E-07	8.08154027254204E-07	1579351.5	4.54089422419202E-05
2	545	95.7342587582942	1.11923217773438	1.119384765625	7.02514648437499E-07	7.86384191542311E-07	1593397.125	4.54803339380305E-05
2	546	95.83496675804	1.10916137695313	1.1090087890625	6.87561035156251E-07	7.62511206175986E-07	1612960.625	4.55503322882578E-05
2	547	95.9356747577857	1.09909057617188	1.0992431640625	6.7291259765625E-07	7.39694542062352E-07	1633560.125	4.56188354291953E-05
2	548	96.0363827575314	1.08901977539063	1.08917236328125	6.5582275390625E-07	7.14304007942701E-07	1660772.5	4.56857414974365E-05
2	549	96.1370907572772	1.07894897460938	1.07879638671875	6.3751220703125E-07	6.8774585315623E-07	1692197.25	4.57508685940411E-05
2	550	96.2377987570229	1.06887817382813	1.0687255859375	6.18591308593749E-07	6.6110430907429E-07	1727676.375	4.58141184935812E-05
2	551	96.3385067567687	1.05880737304688	1.0589599609375	5.9783935546875E-07	6.33087950063782E-07	1771311.875	4.58753711427562E-05
2	552	96.4392147565144	1.04873657226563	1.0491943359375	5.780029296875E-07	6.06437367878243E-07	1815205.875	4.59345792478416E-05
2	553	96.5399227562601	1.03866577148438	1.038818359375	5.5999755859375E-07	5.81735719151766E-07	1855040.875	4.59918810520321E-05
2	554	96.6406307560059	1.02859497070313	1.02874755859375	5.42602539062501E-07	5.58201065814501E-07	1895950.5	4.60474002466071E-05
2	555	96.7413387557516	1.01852416992188	1.01837158203125	5.2825927734375E-07	5.37964183422446E-07	1927787.5	4.61013223684859E-05
2	556	96.8420467554973	1.00845336914063	1.0089111328125	5.157470703125E-07	5.20342950949271E-07	1956213.125	4.61538948002271E-05
2	557	96.9427547552431	0.998382568359375	0.99884033203125	5.05981445312501E-07	5.05394609717769E-07	1974065.25	4.6205343096517E-05
2	558	97.0434627549888	0.988311767578125	0.98785400390625	4.974365234375E-07	4.9139464408654E-07	1985889.5	4.62558673461899E-05
2	559	97.1441707547345	0.978240966796875	0.97808837890625	4.901123046875E-07	4.79373170492181E-07	1995641.25	4.63055948785041E-05
2	560	97.2448787544803	0.968170166015625	0.9686279296875	4.833984375E-07	4.68233224637515E-07	2003787.875	4.63546130049508E-05
2	561	97.345586754226	0.958099365234375	0.95855712890625	4.76989746093751E-07	4.57221915439732E-07	2009597	4.64029726572335E-05
2	562	97.4462947539718	0.948028564453125	0.94818115234375	4.70886230468751E-07	4.4648544417214E-07	2013609.875	4.64507029391825E-05
2	563	97.5470027537175	0.937957763671875	0.9381103515625	4.64782714843751E-07	4.36017472793537E-07	2018384.75	4.64978184027132E-05
2	564	97.6477107534632	0.927886962890625	0.927734375	4.5806884765625E-07	4.24966202672294E-07	2025316.5	4.65442863060161E-05
2	565	97.748418753209	0.917816162109375	0.91766357421875	4.5166015625E-07	4.14472083321016E-07	2031756.75	4.6590095735155E-05
2	566	97.8491267529547	0.907745361328125	0.9075927734375	4.44641113281249E-07	4.03553059413753E-07	2041180.5	4.66352285002358E-05
2	567	97.9498347527004	0.897674560546875	0.8978271484375	4.3792724609375E-07	3.93182972402428E-07	2050174.25	4.66796700493433E-05
2	568	98.0505427524462	0.887603759765625	0.8880615234375	4.30908203124999E-07	3.82672993737287E-07	2060906.625	4.67234167444985E-05
2	569	98.1512507521919	0.877532958984375	0.877685546875	4.241943359375E-07	3.72309216345457E-07	2069064.75	4.67664758616593E-05
2	570	98.2519587519377	0.867462158203125	0.86761474609375	4.17175292968749E-07	3.61947428473286E-07	2079736.75	4.68088437628467E-05
2	571	98.3526667516834	0.857391357421875	0.8575439453125	4.1046142578125E-07	3.51988688862548E-07	2089219.375	4.68505168100819E-05
2	572	98.4533747514291	0.847320556640625	0.84747314453125	4.03747558593751E-07	3.42165208166989E-07	2099017.5	4.68915168312378E-05
2	573	98.5540827511749	0.837249755859375	0.83740234375	3.96728515625E-07	3.32221361531992E-07	2110769.25	4.69318219984416E-05
2	574	98.6547907509206	0.827178955078125	0.82733154296875	3.88488769531251E-07	3.21409004300222E-07	2129615.25	4.69713631900959E-05
2	575	98.7554987506663	0.817108154296875	0.8172607421875	3.79638671875E-07	3.10263772007602E-07	2152733.25	4.70100385427941E-05
2	576	98.8562067504121	0.807037353515625	0.806884765625	3.6956787109375E-07	2.98198671089267E-07	2183319.75	4.70477643830236E-05
2	577	98.9569147501578	0.796966552734375	0.797119140625	3.56140136718749E-07	2.83886123497723E-07	2238217.75	4.70843078801408E-05
2	578	99.0576227499035	0.786895751953125	0.787353515625	3.4027099609375E-07	2.67913549123477E-07	2313901.5	4.71193743578624E-05
2	579	99.1583307496493	0.776824951171875	0.77728271484375	3.19824218750001E-07	2.48593835294741E-07	2430343.5	4.71526145702228E-05
2	580	99.259038749395	0.766754150390625	0.7666015625	2.93579101562499E-07	2.25058187197646E-07	2611226.75	4.7183501010295E-05
2	581	99.3597467491408	0.756683349609375	0.7568359375	2.60314941406251E-07	1.97015708636172E-07	2907385.5	4.7211393393809E-05
2	582	99.4604547488865	0.746612548828125	0.746551513671875	2.20336914062499E-07	1.64492860221799E-07	3388227.25	4.72355932288337E-05
2	583	99.5611627486322	0.736541748046875	0.736480712890625	1.7364501953125E-07	1.27886210066208E-07	4241300.5	4.72554347652476E-05
2	584	99.661870748378	0.726470947265625	0.7264404296875	1.23291015625E-07	8.95635778874748E-08	5892079	4.7270383220166E-05
2	585	99.7625787481237	0.716400146484375	0.71636962890625	7.171630859375E-08	5.1375383947061E-08	9988936	4.72802057629451E-05
2	586	99.8632867478694	0.706329345703125	0.70623779296875	2.65502929687494E-08	1.87508195637065E-08	26600000	4.72851534141228E-05
2	587	99.9639947476152	0.696258544921875	0.696197509765625	-9.46044921874972E-09	-6.58634125016988E-09	-73590320	4.72860119771212E-05
2	588	100.064702747361	0.686187744140625	0.68609619140625	-3.204345703125E-08	-2.19848939053691E-08	-21411430	4.7283923777286E-05
2	589	100.165410747107	0.676116943359375	0.676025390625	-3.96728515625E-08	-2.68198547814791E-08	-17040000	4.72803112643305E-05
2	590	100.266118746852	0.666046142578125	0.665985107421875	-3.47900390625003E-08	-2.31696475339049E-08	-19142984	4.72765641461592E-05
2	591	100.366826746598	0.655975341796875	0.65594482421875	-2.16674804687497E-08	-1.42126719282487E-08	-30273240	4.72737192467321E-05
2	592	100.467534746344	0.645904541015625	0.645843505859375	-6.71386718749945E-09	-4.33610747307966E-09	-96195464	4.72722895210609E-05
2	593	100.56824274609	0.635833740234375	0.635833740234375	7.32421875000028E-09	4.65698546392446E-09	86812504	4.72723222628701E-05
2	594	100.668950745835	0.625762939453125	0.625762939453125	1.95312500000003E-08	1.22219319109718E-08	32039064	4.72736719530076E-05
2	595	100.769658745581	0.615692138671875	0.615692138671875	3.11279296874994E-08	1.91652205216997E-08	19779412	4.72762258141302E-05
2	596	100.870366745327	0.605621337890625	0.6055908203125	4.08935546875003E-08	2.47647609086243E-08	14808956	4.7279849241022E-05
2	597	100.971074745073	0.595550537109375	0.595489501953125	5.00488281250003E-08	2.98035516266282E-08	11898171	4.72844294563401E-05
2	598	101.071782744818	0.585479736328125	0.585479736328125	5.79833984375E-08	3.39481047717527E-08	10097369	4.72898682346568E-05
2	599	101.172490744564	0.575408935546875	0.57537841796875	6.50024414062506E-08	3.74010014070336E-08	8851644	4.72960637125652E-05
2	600	101.27319874431	0.565338134765625	0.565277099609375	7.14111328125003E-08	4.03670767923359E-08	7915812.5	4.7302932216553E-05
2	601	101.373906744055	0.555267333984375	0.55523681640625	7.69042968749994E-08	4.27000941272127E-08	7219841.5	4.7310400987044E-05
2	602	101.474614743801	0.545196533203125	0.545166015625	8.14819335937494E-08	4.44211778471981E-08	6690637	4.73183754365891E-05
2	603	101.575322743547	0.535125732421875	0.53509521484375	8.63647460937506E-08	4.62133620260374E-08	6195760	4.7326826461358E-05
2	604	101.676030743293	0.525054931640625	0.525054931640625	8.97216796875003E-08	4.71088092979244E-08	5852040.5	4.73356922157109E-05
2	605	101.776738743038	0.514984130859375	0.5150146484375	9.307861328125E-08	4.79368473804698E-08	5533115	4.73448999400716E-05
2	606	101.877446742784	0.504913330078125	0.50494384765625	9.58251953125003E-08	4.83863402678253E-08	5269427	4.73544096166734E-05
2	607	101.97815474253	0.494842529296875	0.49481201171875	9.85717773437506E-08	4.877449910623E-08	5019814.5	4.73641994176432E-05
2	608	102.078862742276	0.484771728515625	0.484771728515625	1.0101318359375E-07	4.89683316118317E-08	4799094	4.73742475151084E-05
2	609	102.179570742021	0.474700927734375	0.47467041015625	1.025390625E-07	4.86722591119815E-08	4629166.5	4.73844993393868E-05
2	610	102.280278741767	0.464630126953125	0.464569091796875	1.0406494140625E-07	4.8345352610113E-08	4464223	4.73949039587751E-05
2	611	102.380986741513	0.454559326171875	0.454559326171875	1.0528564453125E-07	4.78585704399848E-08	4317391.5	4.74054431833792E-05
2	612	102.481694741259	0.444488525390625	0.44451904296875	1.06201171875001E-07	4.72084416003327E-08	4185632.25	4.74160915473476E-05
2	613	102.582402741004	0.434417724609375	0.43438720703125	1.07421874999999E-07	4.66626843831364E-08	4043750.25	4.74268490506802E-05
2	614	102.68311074075	0.424346923828125	0.424346923828125	1.07727050781251E-07	4.5713640872691E-08	3939093.75	4.74376829515677E-05
2	615	102.783818740496	0.414276123046875	0.414306640625	1.0833740234375E-07	4.48849064582646E-08	3824225.25	4.74485641461797E-05
2	616	102.884526740242	0.404205322265625	0.404144287109375	1.08642578125E-07	4.3907274260846E-08	3719944	4.74594889965374E-05
2	617	102.985234739987	0.394134521484375	0.394134521484375	1.0955810546875E-07	4.31806306266935E-08	3597493.25	4.74704756925348E-05
2	618	103.085942739733	0.384063720703125	0.384063720703125	1.0955810546875E-07	4.20772927611779E-08	3505571.25	4.74815096822567E-05
2	619	103.186650739479	0.373992919921875	0.373992919921875	1.0986328125E-07	4.10880893753074E-08	3404166.75	4.74925582238939E-05
2	620	103.287358739224	0.363922119140625	0.363922119140625	1.10778808593751E-07	4.03148590066849E-08	3285124	4.75036686111707E-05
2	621	103.38806673897	0.353851318359375	0.3538818359375	1.10473632812499E-07	3.90946119921409E-08	3203315	4.7514808102278E-05
2	622	103.488774738716	0.343780517578125	0.343780517578125	1.10778808593751E-07	3.80835949442826E-08	3103305.75	4.75259512313642E-05
2	623	103.589482738462	0.333709716796875	0.33367919921875	1.1016845703125E-07	3.67609231943788E-08	3028808.75	4.75370761705562E-05
2	624	103.690190738207	0.323638916015625	0.3236083984375	1.1016845703125E-07	3.56514391341989E-08	2937396	4.75481720059179E-05
2	625	103.790898737953	0.313568115234375	0.31353759765625	1.09252929687501E-07	3.42549029141992E-08	2869832.5	4.7559220547555E-05
2	626	103.891606737699	0.303497314453125	0.303436279296875	1.07727050781251E-07	3.26882947376816E-08	2816714	4.75701453979127E-05
2	627	103.992314737445	0.293426513671875	0.293426513671875	1.0650634765625E-07	3.12517833833681E-08	2755014.5	4.75809320050757E-05
2	628	104.09302273719	0.283355712890625	0.283416748046875	1.0528564453125E-07	2.98397146991647E-08	2691884	4.75915985589381E-05
2	629	104.193730736936	0.273284912109375	0.27325439453125	1.0345458984375E-07	2.82694205822054E-08	2641298	4.76021086797118E-05
2	630	104.294438736682	0.263214111328125	0.263153076171875	1.0101318359375E-07	2.6581927770053E-08	2605136	4.76124041597359E-05
2	631	104.395146736428	0.253143310546875	0.253082275390625	9.82666015624995E-08	2.48695339877258E-08	2575466	4.76224377052858E-05
2	632	104.495854736173	0.243072509765625	0.24310302734375	9.55200195312506E-08	2.32212045148117E-08	2545048	4.76321984024253E-05
2	633	104.596562735919	0.233001708984375	0.233062744140625	9.12475585937503E-08	2.12664055254663E-08	2554180.75	4.76416025776416E-05
2	634	104.697270735665	0.222930908203125	0.22296142578125	8.72802734374997E-08	1.94601330605337E-08	2554545.5	4.76505920232739E-05
2	635	104.797978735411	0.212860107421875	0.212860107421875	8.11767578124997E-08	1.72792926633747E-08	2622180.5	4.76590721518733E-05
2	636	104.898686735156	0.202789306640625	0.20281982421875	7.38525390624995E-08	1.497875956602E-08	2746281	4.76668792543933E-05
2	637	104.999394734902	0.192718505859375	0.19268798828125	6.43920898437497E-08	1.24075825169712E-08	2992417	4.76738423458301E-05
2	638	105.100102734648	0.182647705078125	0.182647705078125	5.18798828125E-08	9.47574108067784E-09	3520588.5	4.76796958537307E-05
2	639	105.200810734393	0.172576904296875	0.172607421875	3.509521484375E-08	6.05769479022911E-09	4918261	4.76840759802144E-05
2	640	105.301518734139	0.162506103515625	0.16253662109375	1.25122070312497E-08	2.03369165951983E-09	12990245	4.76864734082483E-05
2	641	105.402226733885	0.152435302734375	0.152435302734375	-1.89208984374994E-08	-2.88421286853691E-09	-8056451.5	4.76861496281344E-05
2	642	105.502934733631	0.142364501953125	0.14239501953125	-6.16455078124994E-08	-8.77801298315717E-09	-2309901	4.76820932817645E-05
2	643	105.603642733376	0.132293701171875	0.13238525390625	-1.21154785156249E-07	-1.60391060433085E-08	-1092695.25	4.76728891953826E-05
2	644	105.704350733122	0.122222900390625	0.122283935546875	-2.02026367187499E-07	-2.47045779389055E-08	-605287.0625	4.76566128781997E-05
2	645	105.805058732868	0.112152099609375	0.112213134765625	-3.12194824218751E-07	-3.50323610120995E-08	-359433.03125	4.76307213830296E-05
2	646	105.905766732614	0.102081298828125	0.10211181640625	-4.559326171875E-07	-4.6556106525486E-08	-223962.53125	4.75920423923526E-05
2	647	106.006474732359	0.092010498046875	0.092071533203125	-6.390380859375E-07	-5.88372159882056E-08	-144078.3125	4.75369088235311E-05
2	648	106.107182732105	0.081939697265625	0.081939697265625	-8.59680175781249E-07	-7.0441927846332E-08	-95314.1640625	4.7461438953178E-05
2	649	106.207890731851	0.071868896484375	0.071868896484375	-1.10992431640625E-06	-7.97690304921161E-08	-64751.171875	4.73622640129179E-05
2	650	106.308598731597	0.061798095703125	0.06182861328125	-1.36962890625E-06	-8.46822558742133E-08	-45142.6015625	4.72374085802585E-05
2	651	106.409306731342	0.051727294921875	0.051788330078125	-1.6168212890625E-06	-8.37324733993228E-08	-32030.95703125	4.70870290882885E-05
2	652	106.510014731088	0.041656494140625	0.0417572021484375	-1.82373046875E-06	-7.61538814231244E-08	-22896.587890625	4.69137812615372E-05
2	653	106.610722730834	0.031585693359375	0.0316680908203125	-1.97265625E-06	-6.24702565232838E-08	-16053.5263671875	4.67226200271398E-05
2	654	106.71143073058	0.021514892578125	0.021588134765625	-2.054443359375E-06	-4.43515979497988E-08	-10508.0224609375	4.65198390884325E-05
2	655	106.812138730325	0.011444091796875	0.0115203857421875	-2.07427978515625E-06	-2.38965025545212E-08	-5553.9208984375	4.63119395135436E-05
2	656	106.912846730071	0.001373291015625	0.00145568847656249	-2.047119140625E-06	-2.97996782805399E-09	-711.091247558594	4.61044110124931E-05
2	657	107.013554729817	-0.008697509765625	-0.00856628417968749	-1.9873046875E-06	1.70238170227321E-08	4310.50390625	4.59012626379263E-05
2	658	107.114262729562	-0.018768310546875	-0.01865234375	-1.91162109375E-06	3.56562139813832E-08	9757.3447265625	4.57049354736228E-05
2	659	107.214970729308	-0.028839111328125	-0.02869873046875	-1.8304443359375E-06	5.25314263200016E-08	15678.560546875	4.55165099992882E-05
2	660	107.315678729054	-0.038909912109375	-0.0387664794921875	-1.749267578125E-06	6.7812948145729E-08	22161.55078125	4.53362554253545E-05
2	661	107.4163867288	-0.048980712890625	-0.04886474609375	-1.67388916015625E-06	8.17941625541607E-08	29192.34375	4.51638843514957E-05
2	662	107.517094728545	-0.059051513671875	-0.0589599609375	-1.6046142578125E-06	9.46079907748754E-08	36744.01171875	4.49988001491874E-05
2	663	107.617802728291	-0.069122314453125	-0.069061279296875	-1.54205322265625E-06	1.06496166552006E-07	44785.27734375	4.48403516202234E-05
2	664	107.718510728037	-0.079193115234375	-0.079132080078125	-1.48681640625E-06	1.17654870734896E-07	53222.49609375	4.46878366346937E-05
2	665	107.819218727783	-0.089263916015625	-0.089202880859375	-1.43798828125E-06	1.28272688471043E-07	62033.109375	4.45405603386462E-05
2	666	107.919926727528	-0.099334716796875	-0.09918212890625	-1.39617919921875E-06	1.38476025313139E-07	71038.25	4.43978497060016E-05
2	667	108.020634727274	-0.109405517578125	-0.10931396484375	-1.3580322265625E-06	1.48451874792954E-07	80494.390625	4.42591626779176E-05
2	668	108.12134272702	-0.119476318359375	-0.119354248046875	-1.3250732421875E-06	1.58153113716253E-07	90073.703125	4.41240590589587E-05
2	669	108.222050726766	-0.129547119140625	-0.12945556640625	-1.2957763671875E-06	1.67745454859869E-07	99905.796875	4.39920877397526E-05
2	670	108.322758726511	-0.139617919921875	-0.139556884765625	-1.2701416015625E-06	1.77256993083574E-07	109875.0703125	4.38628849224187E-05
2	671	108.423466726257	-0.149688720703125	-0.149627685546875	-1.2481689453125E-06	1.86760630072058E-07	119877.75	4.37360758951399E-05
2	672	108.524174726003	-0.159759521484375	-0.159698486328125	-1.22894287109375E-06	1.96260316442931E-07	129947.8515625	4.361134415376E-05
2	673	108.624882725749	-0.169830322265625	-0.169708251953125	-1.2115478515625E-06	2.05609651970917E-07	140075.578125	4.34884568676353E-05
2	674	108.725590725494	-0.179901123046875	-0.179779052734375	-1.19781494140625E-06	2.15342026876897E-07	150089.1875	4.33671339123975E-05
2	675	108.82629872524	-0.189971923828125	-0.1898193359375	-1.18560791015625E-06	2.2505129493311E-07	160102.96875	4.32471206295304E-05
2	676	108.927006724986	-0.200042724609375	-0.199920654296875	-1.17431640625E-06	2.34770098472836E-07	170244.28125	4.31282896897756E-05
2	677	109.027714724731	-0.189971923828125	-0.1898193359375	-1.03424072265625E-06	1.96318879375212E-07	183534.984375	4.30170803156216E-05
