Potential - Start -0.2 V, Upper Vertex 1.5 V, Lower Vertex -0.2 V, Stop -0.19 V; Scan - # end cross 5, Rate 0.1 Vps, Step 0.01 V 
Scan	Index	Time (s)	Potential applied (V)	WE(1).Potential (V)	WE(1).Current (A)	WE(1).Power (W)	WE(1).Resistance (Ω)	WE(1).Charge (C)
1	1	65.8125688338392	-0.189971923828125	-0.18975830078125	-1.91345214843749E-07	3.63093413113802E-08	991706.5625	0
1	2	65.913276833585	-0.179901123046875	-0.17974853515625	-1.5533447265625E-07	2.79211427312021E-08	1157171	-1.74567080790666E-08
1	3	66.0139848333307	-0.169830322265625	-0.169647216796875	-1.27563476562501E-07	2.16407869402246E-08	1329904.375	-3.17017487816429E-08
1	4	66.1146928330764	-0.159759521484375	-0.15960693359375	-1.03759765625E-07	1.65607776381194E-08	1538235.375	-4.3349800193937E-08
1	5	66.2154008328222	-0.149688720703125	-0.1495361328125	-8.23974609375E-08	1.23213972358371E-08	1814814.875	-5.27235606284648E-08
1	6	66.3161088325679	-0.139617919921875	-0.139495849609375	-6.19506835937506E-08	8.6418623368445E-09	2251724.25	-5.99920682020638E-08
1	7	66.4168168323137	-0.129547119140625	-0.12945556640625	-4.24194335937503E-08	5.49143175376798E-09	3051798.5	-6.52475193874125E-08
1	8	66.5175248320594	-0.119476318359375	-0.11932373046875	-2.19726562499994E-08	2.6218591742122E-09	5430556	-6.84899177372245E-08
1	9	66.6182328318051	-0.109405517578125	-0.109283447265625	1.52587890625E-09	-1.66753305608225E-10	-71620000	-6.95194941613408E-08
1	10	66.7189408315509	-0.099334716796875	-0.099273681640625	2.77709960937497E-08	-2.75692912943271E-09	-3574725.25	-6.80442795442104E-08
1	11	66.8196488312966	-0.089263916015625	-0.08917236328125	5.88989257812506E-08	-5.25215604341156E-09	-1513989.75	-6.36801047448898E-08
1	12	66.9203568310423	-0.079193115234375	-0.079132080078125	9.82666015624995E-08	-7.77604025614664E-09	-805279.5625	-5.57661898881179E-08
1	13	67.0210648307881	-0.069122314453125	-0.069061279296875	1.50451660156251E-07	-1.03903836645713E-08	-459026.375	-4.32422311291702E-08
1	14	67.1217728305338	-0.059051513671875	-0.058990478515625	2.18505859375E-07	-1.28897656992422E-08	-269972.0625	-2.46637448242382E-08
1	15	67.2224808302796	-0.048980712890625	-0.04884033203125	3.08837890624999E-07	-1.50837458079423E-08	-158142.296875	1.89012139273359E-09
1	16	67.3231888300253	-0.038909912109375	-0.0387939453125	4.2694091796875E-07	-1.65627209725017E-08	-90864.8984375	3.89395253819202E-08
1	17	67.423896829771	-0.028839111328125	-0.0286956787109375	5.7861328125E-07	-1.66036997484298E-08	-49593.8828125	8.9573198636117E-08
1	18	67.5246048295168	-0.018768310546875	-0.0186248779296875	7.6416015625E-07	-1.42323886009876E-08	-24373.00390625	1.57187216132115E-07
1	19	67.6253128292625	-0.008697509765625	-0.008587646484375	9.7991943359375E-07	-8.41520098049386E-09	-8763.625	2.45008578758643E-07
1	20	67.7260208290082	0.001373291015625	0.00147705078125	1.21429443359375E-06	1.79357462215535E-09	1216.38598632813	3.55496041493097E-07
1	21	67.826728828754	0.011444091796875	0.01153564453125	1.4508056640625E-06	1.67359779368326E-08	7951.19921875	4.89694457428413E-07
1	22	67.9274368284997	0.021514892578125	0.0216094970703125	1.6632080078125E-06	3.59410847750041E-08	12992.66015625	6.46497539946722E-07
1	23	68.0281448282454	0.031585693359375	0.0317108154296875	1.83349609375E-06	5.8141655046029E-08	17295.2734375	8.22570541458845E-07
1	24	68.1288528279912	0.041656494140625	0.0417572021484375	1.94732666015625E-06	8.13149156897452E-08	21443.349609375	1.01295006516011E-06
1	25	68.2295608277369	0.051727294921875	0.0517578125	2.001953125E-06	1.0361671343162E-07	25853.658203125	1.2118121048843E-06
1	26	68.3302688274827	0.061798095703125	0.061767578125	2.005615234375E-06	1.23881989111396E-07	30797.322265625	1.41360919769795E-06
1	27	68.4309768272284	0.071868896484375	0.071929931640625	1.97174072265625E-06	1.41827172228659E-07	36480.421875	1.61388504693605E-06
1	28	68.5316848269741	0.081939697265625	0.08197021484375	1.9158935546875E-06	1.57046201820776E-07	42784.32421875	1.80964298124309E-06
1	29	68.6323928267199	0.092010498046875	0.092010498046875	1.84722900390625E-06	1.69964465612793E-07	49810.01171875	1.99913120013662E-06
1	30	68.7331008264656	0.102081298828125	0.10211181640625	1.776123046875E-06	1.81363148499258E-07	57491.41015625	2.18158152165415E-06
1	31	68.8338088262113	0.112152099609375	0.112213134765625	1.70684814453125E-06	1.91530773463455E-07	65742.890625	2.35696302297583E-06
1	32	68.9345168259571	0.122222900390625	0.122283935546875	1.64154052734375E-06	2.00734035615824E-07	74493.3984375	2.5255678792746E-06
1	33	69.0352248257028	0.132293701171875	0.13238525390625	1.58203125E-06	2.09437601483842E-07	83680.5546875	2.6878874450631E-06
1	34	69.1359328254485	0.142364501953125	0.14239501953125	1.5283203125E-06	2.17625185428005E-07	93170.9296875	2.8445060706872E-06
1	35	69.2366408251943	0.152435302734375	0.1524658203125	1.4801025390625E-06	2.2566503332655E-07	103010.3125	2.99599219033553E-06
1	36	69.33734882494	0.162506103515625	0.162567138671875	1.4373779296875E-06	2.3367041990241E-07	113099.7890625	3.14289900416043E-06
1	37	69.4380568246858	0.172576904296875	0.172607421875	1.3995361328125E-06	2.41570319303719E-07	123331.8828125	3.28574901686807E-06
1	38	69.5387648244315	0.182647705078125	0.1826171875	1.3653564453125E-06	2.49337546165407E-07	133750.5625	3.42497241945239E-06
1	39	69.6394728241772	0.192718505859375	0.19281005859375	1.33453369140625E-06	2.57311512541492E-07	144477.484375	3.5609227779787E-06
1	40	69.740180823923	0.202789306640625	0.202880859375	1.30767822265625E-06	2.65302873003748E-07	155145.859375	3.69396866517491E-06
1	41	69.8408888236687	0.212860107421875	0.21295166015625	1.28265380859375E-06	2.73143257345509E-07	166024.265625	3.82440202884027E-06
1	42	69.9415968234144	0.222930908203125	0.222900390625	1.2603759765625E-06	2.8093828063902E-07	176852.3125	3.95245388062904E-06
1	43	70.0423048231602	0.233001708984375	0.233001708984375	1.240234375E-06	2.88976735873803E-07	187869.09375	4.07836978411069E-06
1	44	70.1430128229059	0.243072509765625	0.24310302734375	1.221923828125E-06	2.9705336146435E-07	198951.0625	4.20234937337227E-06
1	45	70.2437208226517	0.253143310546875	0.253173828125	1.204833984375E-06	3.05032443748132E-07	210131.703125	4.32454635301838E-06
1	46	70.3444288223974	0.263214111328125	0.26324462890625	1.18988037109375E-06	3.13229605808374E-07	221236.21875	4.44512943431619E-06
1	47	70.4451368221431	0.273284912109375	0.273284912109375	1.17584228515625E-06	3.21339939546306E-07	232416.296875	4.564253231365E-06
1	48	70.5458448218889	0.283355712890625	0.2833251953125	1.16302490234375E-06	3.29514250552165E-07	243610.609375	4.68202460979228E-06
1	49	70.6465528216346	0.293426513671875	0.293426513671875	1.1517333984375E-06	3.37949103368373E-07	254769.484375	4.79858181279269E-06
1	50	70.7472608213803	0.303497314453125	0.303466796875	1.141357421875E-06	3.4636408940969E-07	265882.34375	4.91404807689833E-06
1	51	70.8479688211261	0.313568115234375	0.3135986328125	1.1322021484375E-06	3.55057039769235E-07	276981.15625	5.02853072248399E-06
1	52	70.9486768208718	0.323638916015625	0.3236083984375	1.123046875E-06	3.63427403726746E-07	288152.15625	5.14209159518941E-06
1	53	71.0493848206175	0.333709716796875	0.333709716796875	1.1163330078125E-06	3.72531161474399E-07	298933.84375	5.25485347679933E-06
1	54	71.1500928203633	0.343780517578125	0.343780517578125	1.109619140625E-06	3.81465440568718E-07	309818.5	5.36693914909847E-06
1	55	71.250800820109	0.353851318359375	0.353912353515625	1.10382080078125E-06	3.90655799265005E-07	320624.84375	5.47839454156929E-06
1	56	71.3515088198548	0.363922119140625	0.364013671875	1.09893798828125E-06	4.00028454805579E-07	331241.3125	5.58931242267136E-06
1	57	71.4522168196005	0.373992919921875	0.3740234375	1.094970703125E-06	4.09544696822195E-07	341583.0625	5.6997841966222E-06
1	58	71.5529248193462	0.384063720703125	0.3841552734375	1.09161376953125E-06	4.19349163394145E-07	351915.03125	5.80988762521883E-06
1	59	71.653632819092	0.394134521484375	0.394195556640625	1.0894775390625E-06	4.2946720668624E-07	361820.71875	5.91971456742613E-06
1	60	71.7543408188377	0.404205322265625	0.40423583984375	1.08673095703125E-06	4.39295575915821E-07	371974.1875	6.02929503656924E-06
1	61	71.8550488185834	0.414276123046875	0.414306640625	1.0845947265625E-06	4.49354786269396E-07	381992.125	6.13862994214287E-06
1	62	71.9557568183292	0.424346923828125	0.42437744140625	1.082763671875E-06	4.59500483884767E-07	391939.125	6.24776521362946E-06
1	63	72.0564648180749	0.434417724609375	0.4344482421875	1.0821533203125E-06	4.7013958237585E-07	401466.4375	6.35677770333132E-06
1	64	72.1571728178207	0.444488525390625	0.444549560546875	1.08123779296875E-06	4.80663800317416E-07	411148.75	6.46571288598352E-06
1	65	72.2578808175664	0.454559326171875	0.45458984375	1.08062744140625E-06	4.91242246880574E-07	420672.15625	6.57457121633342E-06
1	66	72.3585888173121	0.464630126953125	0.464630126953125	1.08001708984375E-06	5.01808472108678E-07	430206.25	6.68336861053831E-06
1	67	72.4592968170579	0.474700927734375	0.474700927734375	1.080322265625E-06	5.12829956278438E-07	439406.78125	6.79215008858591E-06
1	68	72.5600048168036	0.484771728515625	0.484771728515625	1.08123779296875E-06	5.24153506376024E-07	448348.875	6.90099341227324E-06
1	69	72.6607128165493	0.494842529296875	0.494873046875	1.08245849609375E-06	5.35679475888173E-07	457175.09375	7.00994405633537E-06
1	70	72.7614208162951	0.504913330078125	0.504913330078125	1.08367919921875E-06	5.47164063391392E-07	465925.09375	7.11901793692959E-06
1	71	72.8621288160408	0.514984130859375	0.514984130859375	1.08642578125E-06	5.59492036700249E-07	474016.875	7.22829145161086E-06
1	72	72.9628368157865	0.525054931640625	0.525054931640625	1.08856201171875E-06	5.7155483546012E-07	482338.125	7.3378105298616E-06
1	73	73.0635448155323	0.535125732421875	0.53515625	1.09130859375E-06	5.84020597216295E-07	490380.3125	7.44757608117652E-06
1	74	73.164252815278	0.545196533203125	0.545196533203125	1.09405517578125E-06	5.96475103975536E-07	498326.375	7.55761766413343E-06
1	75	73.2649608150238	0.555267333984375	0.5552978515625	1.097412109375E-06	6.09390610861738E-07	506006.6875	7.66796711104689E-06
1	76	73.3656688147695	0.565338134765625	0.565338134765625	1.10137939453125E-06	6.22651725734613E-07	513300.125	7.77868444856722E-06
1	77	73.4663768145152	0.575408935546875	0.575439453125	1.10443115234375E-06	6.35533240256336E-07	521027.90625	7.88975648902124E-06
1	78	73.567084814261	0.585479736328125	0.585479736328125	1.10870361328125E-06	6.49123478524416E-07	528076	8.00119596533477E-06
1	79	73.6677928140067	0.595550537109375	0.595489501953125	1.11328125E-06	6.62947286400595E-07	534895.875	8.11308200354688E-06
1	80	73.7685008137524	0.605621337890625	0.605621337890625	1.1181640625E-06	6.77184004871378E-07	541621.1875	8.22544461698271E-06
1	81	73.8692088134982	0.615692138671875	0.61566162109375	1.12213134765625E-06	6.90853141804837E-07	548653.8125	8.33825197332771E-06
1	82	73.9699168132439	0.625762939453125	0.625762939453125	1.126708984375E-06	7.05052741523104E-07	555390.0625	8.45149043016136E-06
1	83	74.0706248129896	0.635833740234375	0.635833740234375	1.13250732421875E-06	7.20086404726317E-07	561438.9375	8.56525093695382E-06
1	84	74.1713328127354	0.645904541015625	0.64581298828125	1.13739013671875E-06	7.34541288238688E-07	567802.5625	8.67954895511502E-06
1	85	74.2720408124811	0.655975341796875	0.65594482421875	1.14349365234375E-06	7.50068693378125E-07	573632.25	8.79440085554961E-06
1	86	74.3727488122269	0.666046142578125	0.666015625	1.148681640625E-06	7.65039885664009E-07	579808.75	8.90982119017281E-06
1	87	74.4734568119726	0.676116943359375	0.676055908203125	1.1541748046875E-06	7.8028671168795E-07	585748.25	9.02577903616475E-06
1	88	74.5741648117183	0.686187744140625	0.68609619140625	1.1590576171875E-06	7.95224991634313E-07	591943.1875	9.14225984161021E-06
1	89	74.6748728114641	0.696258544921875	0.696258544921875	1.16363525390625E-06	8.10191011169081E-07	598347.75	9.2592163127847E-06
1	90	74.7755808112098	0.706329345703125	0.706268310546875	1.16790771484375E-06	8.24856215331238E-07	604729.5625	9.37661934585776E-06
1	91	74.8762888109555	0.716400146484375	0.716339111328125	1.171875E-06	8.39459858070768E-07	611276.0625	9.49443619902013E-06
1	92	74.9769968107013	0.726470947265625	0.7264404296875	1.1767578125E-06	8.54844415698608E-07	617323.6875	9.61269961408107E-06
1	93	75.077704810447	0.736541748046875	0.73651123046875	1.18194580078125E-06	8.70516316808789E-07	623134.5625	9.73146961769089E-06
1	94	75.1784128101928	0.746612548828125	0.74658203125	1.18865966796875E-06	8.87431951923645E-07	628087.3125	9.85083897830918E-06
1	95	75.2791208099385	0.756683349609375	0.75714111328125	1.19781494140625E-06	9.0691486320793E-07	632101.9375	9.97100778477034E-06
1	96	75.3798288096842	0.766754150390625	0.76690673828125	1.20941162109375E-06	9.27505936942907E-07	634115.5625	1.00922206911491E-05
1	97	75.48053680943	0.776824951171875	0.77667236328125	1.2249755859375E-06	9.51404672377976E-07	634030.875	1.02148023870541E-05
1	98	75.5812448091757	0.786895751953125	0.7867431640625	1.2445068359375E-06	9.79107198872953E-07	632172.625	1.03391503216699E-05
1	99	75.6819528089214	0.796966552734375	0.79681396484375	1.26953125E-06	1.0115802524524E-06	627644.25	1.04657428892097E-05
1	100	75.7826608086672	0.807037353515625	0.80718994140625	1.29974365234375E-06	1.04913999621203E-06	621037.8125	1.05951157820527E-05
1	101	75.8833688084129	0.817108154296875	0.81787109375	1.33575439453125E-06	1.09247491764108E-06	612291.5	1.07278237919672E-05
1	102	75.9840768081586	0.827178955078125	0.8270263671875	1.37420654296875E-06	1.1365050340828E-06	601821.0625	1.08642807390424E-05
1	103	76.0847848079044	0.837249755859375	0.83770751953125	1.412353515625E-06	1.18313914754253E-06	593128.75	1.10045957626426E-05
1	104	76.1854928076501	0.847320556640625	0.84747314453125	1.44622802734375E-06	1.22563938020903E-06	585988.625	1.1148536032124E-05
1	105	76.2862008073959	0.857391357421875	0.8575439453125	1.47430419921875E-06	1.26428062685591E-06	581660.125	1.12955967779271E-05
1	106	76.3869088071416	0.867462158203125	0.86700439453125	1.494140625E-06	1.2954265002918E-06	580269.625	1.14450704131741E-05
1	107	76.4876168068873	0.877532958984375	0.8770751953125	1.505126953125E-06	1.32010950437689E-06	582725.0625	1.15960947368876E-05
1	108	76.5883248066331	0.887603759765625	0.88775634765625	1.510009765625E-06	1.34052072553459E-06	587914.3125	1.17479194159387E-05
1	109	76.6890328063788	0.897674560546875	0.89752197265625	1.50970458984375E-06	1.35499305997655E-06	594501.6875	1.18999741971493E-05
1	110	76.7897408061245	0.907745361328125	0.90789794921875	1.50543212890625E-06	1.36677874706947E-06	603081.3125	1.20517979667056E-05
1	111	76.8904488058703	0.917816162109375	0.91796875	1.50054931640625E-06	1.37745735173667E-06	611755.125	1.22031615319429E-05
1	112	76.991156805616	0.927886962890625	0.927734375	1.49444580078125E-06	1.38644873004523E-06	620788.25	1.23539712149068E-05
1	113	77.0918648053618	0.937957763671875	0.93841552734375	1.4892578125E-06	1.39754263273062E-06	630122.9375	1.25042124636821E-05
1	114	77.1925728051075	0.948028564453125	0.94818115234375	1.48406982421875E-06	1.40716701935162E-06	638906.0625	1.26539316624985E-05
1	115	77.2932808048532	0.958099365234375	0.95855712890625	1.48040771484375E-06	1.41905536565901E-06	647495.375	1.28032052089111E-05
1	116	77.393988804599	0.968170166015625	0.968017578125	1.47705078125E-06	1.42981116368901E-06	655371.875	1.29521249618847E-05
1	117	77.4946968043447	0.978240966796875	0.97808837890625	1.47552490234375E-06	1.44319369610457E-06	662874.875	1.31007991512888E-05
1	118	77.5954048040904	0.988311767578125	0.9881591796875	1.47430419921875E-06	1.45684725794126E-06	670254.625	1.32493341880036E-05
1	119	77.6961128038362	0.998382568359375	0.99884033203125	1.4739990234375E-06	1.47228956848267E-06	677639.75	1.33977937366581E-05
1	120	77.7968208035819	1.00845336914063	1.00830078125	1.474609375E-06	1.48684978285019E-06	683774.875	1.35462678372278E-05
1	121	77.8975288033276	1.01852416992188	1.01837158203125	1.47552490234375E-06	1.50263258547056E-06	690175.8125	1.36948183353525E-05
1	122	77.9982368030734	1.02859497070313	1.02874755859375	1.47735595703125E-06	1.51982624174707E-06	696343.75	1.38435079861665E-05
1	123	78.0989448028191	1.03866577148438	1.03851318359375	1.4794921875E-06	1.53647215483943E-06	701938.9375	1.39923968163203E-05
1	124	78.1996528025649	1.04873657226563	1.04888916015625	1.48162841796875E-06	1.55406394242164E-06	707930	1.41415011967183E-05
1	125	78.3003608023106	1.05880737304688	1.058349609375	1.484375E-06	1.57098759245855E-06	712993.4375	1.42908511406858E-05
1	126	78.4010688020563	1.06887817382813	1.0687255859375	1.48773193359375E-06	1.58997715971054E-06	718359	1.44405094033573E-05
1	127	78.5017768018021	1.07894897460938	1.0791015625	1.49200439453125E-06	1.61002424192702E-06	723256.3125	1.45905505632982E-05
1	128	78.6024848015478	1.08901977539063	1.0894775390625	1.49566650390625E-06	1.62949493187625E-06	728422.8125	1.47409919009078E-05
1	129	78.7031928012935	1.09909057617188	1.0992431640625	1.500244140625E-06	1.64913308253745E-06	732709.5	1.48918479681015E-05
1	130	78.8039008010393	1.10916137695313	1.109619140625	1.50482177734375E-06	1.6697789533282E-06	737375.8125	1.5043165149109E-05
1	131	78.904608800785	1.11923217773438	1.11907958984375	1.51123046875E-06	1.69118709436589E-06	740508.9375	1.51950353028951E-05
1	132	79.0053168005307	1.12930297851563	1.129150390625	1.51641845703125E-06	1.7122644067058E-06	744616.6875	1.53474902617745E-05
1	133	79.1060248002765	1.13937377929688	1.1395263671875	1.52313232421875E-06	1.73564933447778E-06	748146.6875	1.55005436681677E-05
1	134	79.2067328000222	1.14944458007813	1.1492919921875	1.52984619140625E-06	1.75823993231461E-06	751246.8125	1.56542719196295E-05
1	135	79.307440799768	1.15951538085938	1.15966796875	1.5374755859375E-06	1.78296113517717E-06	754267.5625	1.5808724128874E-05
1	136	79.4081487995137	1.16958618164063	1.16943359375	1.54541015625E-06	1.80725453446939E-06	756714.0625	1.59639603225514E-05
1	137	79.5088567992594	1.17965698242188	1.17950439453125	1.55426025390625E-06	1.83325664693257E-06	758884.8125	1.61200405273121E-05
1	138	79.6095647990052	1.18972778320313	1.18988037109375	1.56341552734375E-06	1.86027739346173E-06	761077.5	1.62770284077851E-05
1	139	79.7102727987509	1.19979858398438	1.20025634765625	1.57257080078125E-06	1.88748811069672E-06	763244.6875	1.64349385158857E-05
1	140	79.8109807984966	1.20986938476563	1.2091064453125	1.583251953125E-06	1.91432013707526E-06	763685.4375	1.65938454301795E-05
1	141	79.9116887982424	1.21994018554688	1.22039794921875	1.5936279296875E-06	1.94486028703977E-06	765798.5625	1.67538146342849E-05
1	142	80.0123967979881	1.23001098632813	1.23016357421875	1.6046142578125E-06	1.97393796952383E-06	766641.3125	1.69148588611279E-05
1	143	80.1131047977339	1.24008178710938	1.23992919921875	1.6162109375E-06	2.00398699234938E-06	767182.8125	1.7077039956348E-05
1	144	80.2138127974796	1.25015258789063	1.2506103515625	1.6278076171875E-06	2.03575291379821E-06	768279	1.72403906617546E-05
1	145	80.3145207972253	1.26022338867188	1.2603759765625	1.640625E-06	2.06780441658339E-06	768229.1875	1.74049691850087E-05
1	146	80.4152287969711	1.27029418945313	1.2701416015625	1.65435791015625E-06	2.10126881938777E-06	767755	1.75708846654743E-05
1	147	80.5159367967168	1.28036499023438	1.280517578125	1.66839599609375E-06	2.13641033042222E-06	767514.1875	1.77381989487913E-05
1	148	80.6166447964625	1.29043579101563	1.290283203125	1.68365478515625E-06	2.17239153244009E-06	766358.5625	1.79069866135251E-05
1	149	80.7173527962083	1.30050659179688	1.3006591796875	1.70013427734375E-06	2.21129516830842E-06	765033.25	1.8077374988934E-05
1	150	80.818060795954	1.31057739257813	1.31103515625	1.7181396484375E-06	2.25254143515485E-06	763055.0625	1.8249498680234E-05
1	151	80.9187687956997	1.32064819335938	1.3201904296875	1.7376708984375E-06	2.29405645768566E-06	759747.125	1.84235123015242E-05
1	152	81.0194767954455	1.33071899414063	1.33056640625	1.7584228515625E-06	2.33969831242575E-06	756681.6875	1.85995540959993E-05
1	153	81.1201847951912	1.34078979492188	1.34033203125	1.78131103515625E-06	2.38754819292808E-06	752441.375	1.87777950486634E-05
1	154	81.220892794937	1.35086059570313	1.35040283203125	1.8060302734375E-06	2.43886825046502E-06	747718.8125	1.89584316103719E-05
1	155	81.3216007946827	1.36093139648438	1.361083984375	1.83349609375E-06	2.49554204856395E-06	742343.5625	1.91416966117686E-05
1	156	81.4223087944284	1.37100219726563	1.370849609375	1.86492919921875E-06	2.55653731073835E-06	735067.9375	1.9327926565893E-05
1	157	81.5230167941742	1.38107299804688	1.38153076171875	1.90093994140625E-06	2.62620687863091E-06	726761.9375	1.95175525732338E-05
1	158	81.6237247939199	1.39114379882813	1.39129638671875	1.943359375E-06	2.70378882305522E-06	715923.375	1.97111294255592E-05
1	159	81.7244327936656	1.40121459960938	1.40106201171875	1.99127197265625E-06	2.78989568869292E-06	703601.5	1.99092537513934E-05
1	160	81.8251407934114	1.41128540039063	1.4117431640625	2.0465087890625E-06	2.88914475277124E-06	689830	2.01125712919747E-05
1	161	81.9258487931571	1.42135620117188	1.422119140625	2.1112060546875E-06	3.00238639283634E-06	673605.125	2.03219296963653E-05
1	162	82.0265567929029	1.43142700195313	1.4312744140625	2.18658447265625E-06	3.12960241899418E-06	654570.875	2.05383403226733E-05
1	163	82.1272647926486	1.44149780273438	1.44134521484375	2.27447509765625E-06	3.27830366586568E-06	633704.5625	2.07629727810854E-05
1	164	82.2279727923943	1.45156860351563	1.451416015625	2.3785400390625E-06	3.45225089404266E-06	610213	2.09972695301985E-05
1	165	82.3286807921401	1.46163940429688	1.46209716796875	2.5E-06	3.65524283552077E-06	584838.875	2.12429240491474E-05
1	166	82.4293887918858	1.47171020507813	1.47125244140625	2.6416015625E-06	3.8864627640578E-06	556954.75	2.15018244489329E-05
1	167	82.5300967916315	1.48178100585938	1.48193359375	2.8021240234375E-06	4.15256135966047E-06	528860.875	2.17759370571002E-05
1	168	82.6308047913773	1.49185180664063	1.49169921875	2.97882080078125E-06	4.44350462203147E-06	500768.375	2.20670317503391E-05
1	169	82.731512791123	1.50192260742188	1.50177001953125	3.1671142578125E-06	4.75627712148707E-06	474176.15625	2.2376503693522E-05
1	170	82.8322207908687	1.49185180664063	1.49200439453125	2.73681640625E-06	4.08334199164528E-06	545160.5625	2.26737902266905E-05
1	171	82.9329287906145	1.48178100585938	1.48193359375	2.4176025390625E-06	3.58272632183798E-06	612976.5625	2.29333363677142E-05
1	172	83.0336367903602	1.47171020507813	1.47216796875	2.16400146484375E-06	3.18577372127038E-06	680299	2.31640387937659E-05
1	173	83.134344790106	1.46163940429688	1.46148681640625	1.95587158203125E-06	2.85848045677994E-06	747230.5	2.33714908972615E-05
1	174	83.2350527898517	1.45156860351563	1.45172119140625	1.783447265625E-06	2.58906811723136E-06	813997.25	2.35597799473908E-05
1	175	83.3357607895974	1.44149780273438	1.44134521484375	1.63787841796875E-06	2.36074833992461E-06	880007.4375	2.37320564338006E-05
1	176	83.4364687893432	1.43142700195313	1.43096923828125	1.51611328125E-06	2.16951139009325E-06	943840.625	2.38908742176136E-05
1	177	83.5371767890889	1.42135620117188	1.42120361328125	1.41204833984375E-06	2.00680801754061E-06	1006483.75	2.40383178606862E-05
1	178	83.6378847888346	1.41128540039063	1.4111328125	1.324462890625E-06	1.86899296750198E-06	1065437.875	2.4176111764973E-05
1	179	83.7385927885804	1.40121459960938	1.4013671875	1.25030517578125E-06	1.75213654074469E-06	1120820.125	2.43057620537002E-05
1	180	83.8393007883261	1.39114379882813	1.3916015625	1.1865234375E-06	1.65116773587215E-06	1172839.625	2.44284656218952E-05
1	181	83.9400087880719	1.38107299804688	1.3812255859375	1.13189697265625E-06	1.56340502144303E-06	1220275	2.45452083618147E-05
1	182	84.0407167878176	1.37100219726563	1.37115478515625	1.08551025390625E-06	1.48840251767979E-06	1263143.125	2.46568633883726E-05
1	183	84.1414247875633	1.36093139648438	1.36138916015625	1.0455322265625E-06	1.42337614761345E-06	1302101.625	2.47641692112666E-05
1	184	84.2421327873091	1.35086059570313	1.351318359375	1.01104736328125E-06	1.36624680635578E-06	1336553.125	2.48677260969998E-05
1	185	84.3428407870548	1.34078979492188	1.34063720703125	9.808349609375E-07	1.31494380184449E-06	1366832.75	2.49680251727114E-05
1	186	84.4435487868005	1.33071899414063	1.33056640625	9.552001953125E-07	1.27095734114846E-06	1392971.25	2.50655139097944E-05
1	187	84.5442567865463	1.32064819335938	1.32049560546875	9.320068359375E-07	1.23071083635296E-06	1416830.5	2.51605415542144E-05
1	188	84.644964786292	1.31057739257813	1.3104248046875	9.124755859375E-07	1.19573064694123E-06	1436120.375	2.52534191531595E-05
1	189	84.7456727860377	1.30050659179688	1.30035400390625	8.941650390625E-07	1.16273099592945E-06	1454266.25	2.53443904512096E-05
1	190	84.8463807857835	1.29043579101563	1.29058837890625	8.7890625E-07	1.13430621695443E-06	1468402.75	2.54336719081039E-05
1	191	84.9470887855292	1.28036499023438	1.28021240234375	8.64562988281251E-07	1.10682424292463E-06	1480762.375	2.55214617936872E-05
1	192	85.047796785275	1.27029418945313	1.27044677734375	8.5174560546875E-07	1.08209746940702E-06	1491580.125	2.56078856182285E-05
1	193	85.1485047850207	1.26022338867188	1.2603759765625	8.39843749999999E-07	1.05851881926355E-06	1500726.75	2.56930634350283E-05
1	194	85.2492127847664	1.25015258789063	1.24969482421875	8.29467773437501E-07	1.03658157968312E-06	1506622.5	2.57771207543556E-05
1	195	85.3499207845122	1.24008178710938	1.240234375	8.19091796875E-07	1.01586579148716E-06	1514158	2.58601321547758E-05
1	196	85.4506287842579	1.23001098632813	1.2298583984375	8.099365234375E-07	9.96107246464817E-07	1518462.75	2.59421594819287E-05
1	197	85.5513367840036	1.21994018554688	1.219482421875	8.0108642578125E-07	9.76910769168171E-07	1522285.75	2.60232809523586E-05
1	198	85.6520447837494	1.20986938476563	1.209716796875	7.92541503906249E-07	9.58750774771033E-07	1526376.625	2.6103525669896E-05
1	199	85.7527527834951	1.19979858398438	1.19964599609375	7.8399658203125E-07	9.40518305014848E-07	1530167.5	2.6182911824435E-05
1	200	85.8534607832408	1.18972778320313	1.18927001953125	7.76062011718751E-07	9.22947265280527E-07	1532442	2.62614667008165E-05
1	201	85.9541687829866	1.17965698242188	1.18011474609375	7.68432617187501E-07	9.06838636183238E-07	1535742.75	2.63392375927651E-05
1	202	86.0548767827323	1.16958618164063	1.1700439453125	7.60803222656251E-07	8.90173168954789E-07	1537906.25	2.64162408711854E-05
1	203	86.1555847824781	1.15951538085938	1.15936279296875	7.53173828125001E-07	8.73201713602612E-07	1539303.125	2.64924765360774E-05
1	204	86.2562927822238	1.14944458007813	1.1492919921875	7.45849609375E-07	8.5719898379466E-07	1540916.5	2.6567957320367E-05
1	205	86.3570007819695	1.13937377929688	1.1395263671875	7.38525390625E-07	8.41569146814436E-07	1542975.25	2.66427014139481E-05
1	206	86.4577087817153	1.12930297851563	1.129150390625	7.3150634765625E-07	8.25980634999723E-07	1543596.25	2.6716723368736E-05
1	207	86.558416781461	1.11923217773438	1.119384765625	7.23876953125E-07	8.10296853615E-07	1546374.375	2.67900086328154E-05
1	208	86.6591247812067	1.10916137695313	1.109619140625	7.1624755859375E-07	7.94762001987692E-07	1549211.75	2.68625244643772E-05
1	209	86.7598327809525	1.09909057617188	1.09954833984375	7.086181640625E-07	7.79159904595872E-07	1551679.625	2.69342726824107E-05
1	210	86.8605407806982	1.08901977539063	1.08917236328125	7.00988769531249E-07	7.63497610023478E-07	1553765.75	2.70052514679264E-05
1	211	86.961248780444	1.07894897460938	1.07940673828125	6.9305419921875E-07	7.48087359170313E-07	1557463.75	2.70754480879987E-05
1	212	87.0619567801897	1.06887817382813	1.0687255859375	6.854248046875E-07	7.32530963887257E-07	1559216.5	2.71448589046486E-05
1	213	87.1626647799354	1.05880737304688	1.05926513671875	6.7779541015625E-07	7.1796506517785E-07	1562809.5	2.72135021077702E-05
1	214	87.2633727796812	1.04873657226563	1.0479736328125	6.695556640625E-07	7.01676697190123E-07	1565177.75	2.72813467745436E-05
1	215	87.3640807794269	1.03866577148438	1.038818359375	6.61621093750001E-07	6.87304122948262E-07	1570110.75	2.73483765340643E-05
1	216	87.4647887791726	1.02859497070313	1.02874755859375	6.53076171875E-07	6.71850500566507E-07	1575233.75	2.74145768344169E-05
1	217	87.5654967789184	1.01852416992188	1.01898193359375	6.44531249999999E-07	6.5676567828632E-07	1580966	2.74799167527817E-05
1	218	87.6662047786641	1.00845336914063	1.00860595703125	6.35986328125E-07	6.41459621419926E-07	1585892.5	2.75443962891586E-05
1	219	87.7669127784098	0.998382568359375	0.99884033203125	6.2713623046875E-07	6.26408962034475E-07	1592700.75	2.7607999072643E-05
1	220	87.8676207781556	0.988311767578125	0.9881591796875	6.18591308593749E-07	6.1126667105782E-07	1597434.75	2.76707269222243E-05
1	221	87.9683287779013	0.978240966796875	0.97808837890625	6.09741210937501E-07	5.96380800743646E-07	1604104.125	2.7732578018913E-05
1	222	88.0690367776471	0.968170166015625	0.9686279296875	6.00585937500001E-07	5.81744302508014E-07	1612805	2.77935232588788E-05
1	223	88.1697447773928	0.958099365234375	0.95794677734375	5.91430664062501E-07	5.66559094750119E-07	1619711.125	2.78535462712171E-05
1	224	88.2704527771385	0.948028564453125	0.94818115234375	5.816650390625E-07	5.5152378308776E-07	1630115.5	2.79126161331078E-05
1	225	88.3711607768843	0.937957763671875	0.93841552734375	5.7098388671875E-07	5.35820163349854E-07	1643506.125	2.79706564469961E-05
1	226	88.47186877663	0.927886962890625	0.9283447265625	5.5816650390625E-07	5.1817090707118E-07	1663203.875	2.80275144177722E-05
1	227	88.5725767763757	0.917816162109375	0.91796875	5.43823242187499E-07	4.99212717386399E-07	1687991.125	2.80830026895273E-05
1	228	88.6732847761215	0.907745361328125	0.9075927734375	5.267333984375E-07	4.7805940539547E-07	1723059.125	2.81369102594908E-05
1	229	88.7739927758672	0.897674560546875	0.89752197265625	5.0567626953125E-07	4.53855562909666E-07	1774894.375	2.81888969766442E-05
1	230	88.874700775613	0.887603759765625	0.887451171875	4.8065185546875E-07	4.26555061494582E-07	1846349.125	2.82385626633186E-05
1	231	88.9754087753587	0.877532958984375	0.87799072265625	4.498291015625E-07	3.9494577208643E-07	1951831.75	2.82854161923751E-05
1	232	89.0761167751044	0.867462158203125	0.86761474609375	4.14123535156249E-07	3.5929966202275E-07	2095062.75	2.83289191429503E-05
1	233	89.1768247748502	0.857391357421875	0.8575439453125	3.7384033203125E-07	3.20584518931355E-07	2293877.5	2.83685967588099E-05
1	234	89.2775327745959	0.847320556640625	0.84747314453125	3.326416015625E-07	2.8190481771162E-07	2547706.5	2.8404170734575E-05
1	235	89.3782407743416	0.837249755859375	0.8380126953125	2.92053222656249E-07	2.44744313704359E-07	2869383.5	2.84356265183305E-05
1	236	89.4789487740874	0.827178955078125	0.82794189453125	2.57568359375E-07	2.1325163857E-07	3214455	2.84633024421055E-05
1	237	89.5796567738331	0.817108154296875	0.8172607421875	2.30712890625E-07	1.88552590429936E-07	3542328	2.84878879028838E-05
1	238	89.6803647735788	0.807037353515625	0.8074951171875	2.14233398437499E-07	1.72992415059525E-07	3769230.75	2.85102942143567E-05
1	239	89.7810727733246	0.796966552734375	0.79681396484375	2.0599365234375E-07	1.64138612035458E-07	3868148.25	2.85314526990987E-05
1	240	89.8817807730703	0.786895751953125	0.787353515625	2.056884765625E-07	1.61949529342564E-07	3827893.5	2.85521837213309E-05
1	241	89.9824887728161	0.776824951171875	0.7769775390625	2.09655761718749E-07	1.62897805466855E-07	3705968.25	2.85730984614929E-05
1	242	90.0831967725618	0.766754150390625	0.7666015625	2.154541015625E-07	1.65167449495129E-07	3558073.75	2.85945043287938E-05
1	243	90.1839047723075	0.756683349609375	0.75714111328125	2.22167968750001E-07	1.68212508810939E-07	3407967	2.86165395664284E-05
1	244	90.2846127720533	0.746612548828125	0.746551513671875	2.28271484375001E-07	1.70416413425301E-07	3270454.75	2.86392205453012E-05
1	245	90.385320771799	0.736541748046875	0.73651123046875	2.33154296875E-07	1.71720756725335E-07	3158900.5	2.86624563159421E-05
1	246	90.4860287715447	0.726470947265625	0.72637939453125	2.37426757812501E-07	1.72461895431297E-07	3059383.25	2.86861504719127E-05
1	247	90.5867367712905	0.716400146484375	0.71630859375	2.40478515625001E-07	1.72256818586902E-07	2978680.5	2.87102157017216E-05
1	248	90.6874447710362	0.706329345703125	0.70623779296875	2.4261474609375E-07	1.71343685906322E-07	2910943.5	2.87345410470152E-05
1	249	90.7881527707819	0.696258544921875	0.696136474609375	2.4383544921875E-07	1.69742747857526E-07	2854943.75	2.87590355583234E-05
1	250	90.8888607705277	0.686187744140625	0.68609619140625	2.4383544921875E-07	1.67294572861465E-07	2813767.25	2.87835919152712E-05
1	251	90.9895687702734	0.676116943359375	0.676116943359375	2.4383544921875E-07	1.6486127663029E-07	2772841	2.88081482722191E-05
1	252	91.0902767700192	0.666046142578125	0.665985107421875	2.43225097656249E-07	1.61984289093198E-07	2738143.25	2.88326737063471E-05
1	253	91.1909847697649	0.655975341796875	0.65594482421875	2.42919921875E-07	1.59342064876E-07	2700251.25	2.885715366574E-05
1	254	91.2916927695106	0.645904541015625	0.645904541015625	2.42919921875E-07	1.5690308430294E-07	2658919.5	2.88816172542283E-05
1	255	91.3924007692564	0.635833740234375	0.6357421875	2.43225097656249E-07	1.5462845226466E-07	2613801.75	2.89060972136213E-05
1	256	91.4931087690021	0.625762939453125	0.625701904296875	2.43530273437501E-07	1.52377353401789E-07	2569298.25	2.89306062768446E-05
1	257	91.5938167687478	0.615692138671875	0.615631103515625	2.43530273437501E-07	1.4992481567333E-07	2527944.75	2.89551317109726E-05
1	258	91.6945247684936	0.605621337890625	0.605621337890625	2.4444580078125E-07	1.48041593206472E-07	2477528	2.89797044388251E-05
1	259	91.7952327682393	0.595550537109375	0.5955810546875	2.45056152343751E-07	1.45950806995643E-07	2430386	2.90043517452432E-05
1	260	91.8959407679851	0.585479736328125	0.585418701171875	2.45361328125E-07	1.43639098837411E-07	2385945.25	2.90290463453857E-05
1	261	91.9966487677308	0.575408935546875	0.575408935546875	2.45361328125E-07	1.41183093660402E-07	2345149.25	2.90537554974435E-05
1	262	92.0973567674765	0.565338134765625	0.56536865234375	2.45361328125E-07	1.38719599362958E-07	2304229	2.90784664684907E-05
1	263	92.1980647672223	0.555267333984375	0.555206298828125	2.4566650390625E-07	1.36395584604543E-07	2260000.25	2.91031919914531E-05
1	264	92.298772766968	0.545196533203125	0.545166015625	2.45361328125E-07	1.33762654286329E-07	2221890.5	2.91279175144155E-05
1	265	92.3994807667137	0.535125732421875	0.53515625	2.45056152343751E-07	1.31143337966932E-07	2183810.75	2.91526102955686E-05
1	266	92.5001887664595	0.525054931640625	0.524993896484375	2.4444580078125E-07	1.28332558801958E-07	2147690.5	2.9177259420976E-05
1	267	92.6008967662052	0.514984130859375	0.5150146484375	2.43225097656249E-07	1.2526447790151E-07	2117440.5	2.92018157779239E-05
1	268	92.7016047659509	0.504913330078125	0.504913330078125	2.4261474609375E-07	1.22499415056154E-07	2081132.25	2.92262793664122E-05
1	269	92.8023127656967	0.494842529296875	0.494873046875	2.4139404296875E-07	1.19459414804624E-07	2050063.125	2.92506520054303E-05
1	270	92.9030207654424	0.484771728515625	0.48480224609375	2.40478515625001E-07	1.16584516263174E-07	2015990	2.92749155050842E-05
1	271	93.0037287651882	0.474700927734375	0.47467041015625	2.392578125E-07	1.13568603410386E-07	1983928.5	2.92990716843633E-05
1	272	93.1044367649339	0.464630126953125	0.46466064453125	2.38037109375E-07	1.10606471537267E-07	1952051.375	2.93231059913523E-05
1	273	93.2051447646796	0.454559326171875	0.45458984375	2.3681640625E-07	1.07654329895013E-07	1919587.625	2.9347016607062E-05
1	274	93.3058527644254	0.444488525390625	0.44451904296875	2.349853515625E-07	1.04455466498621E-07	1891688.375	2.93707744276617E-05
1	275	93.4065607641711	0.434417724609375	0.43438720703125	2.33154296875E-07	1.0127924099379E-07	1863089	2.93943467113422E-05
1	276	93.5072687639168	0.424346923828125	0.42431640625	2.31018066406249E-07	9.80247563120429E-08	1836723.875	2.94177189061884E-05
1	277	93.6079767636626	0.414276123046875	0.414276123046875	2.2918701171875E-07	9.49467064970122E-08	1807589.875	2.94408928311896E-05
1	278	93.7086847634083	0.404205322265625	0.404266357421875	2.2613525390625E-07	9.14188689193907E-08	1787719.375	2.94638193736318E-05
1	279	93.8093927631541	0.394134521484375	0.3941650390625	2.239990234375E-07	8.82925874634566E-08	1759673	2.94864858005894E-05
1	280	93.9101007628998	0.384063720703125	0.384063720703125	2.21862792968749E-07	8.52094501624379E-08	1731086.625	2.95089375867974E-05
1	281	94.0108087626455	0.373992919921875	0.3740234375	2.2003173828125E-07	8.22970278591129E-08	1699861.375	2.95311874651816E-05
1	282	94.1115167623913	0.363922119140625	0.363922119140625	2.1820068359375E-07	7.94080534660679E-08	1667832.125	2.95532554446254E-05
1	283	94.212224762137	0.353851318359375	0.3538818359375	2.1697998046875E-07	7.67852696981208E-08	1630942.375	2.95751688099699E-05
1	284	94.3129327618827	0.343780517578125	0.343841552734375	2.1514892578125E-07	7.39771337521233E-08	1598156.125	2.95969275612151E-05
1	285	94.4136407616285	0.333709716796875	0.333709716796875	2.1331787109375E-07	7.11862426783227E-08	1564377.75	2.96185025945306E-05
1	286	94.5143487613742	0.323638916015625	0.323699951171875	2.11486816406251E-07	6.84582701637737E-08	1530591.75	2.96398939099163E-05
1	287	94.6150567611199	0.313568115234375	0.313568115234375	2.09655761718749E-07	6.57413607996205E-08	1495633.25	2.96610996883828E-05
1	288	94.7157647608657	0.303497314453125	0.30340576171875	2.0751953125E-07	6.29626200066014E-08	1462058.875	2.9682105378015E-05
1	289	94.8164727606114	0.293426513671875	0.293365478515625	2.05078124999999E-07	6.01628400431764E-08	1430506	2.97028818749823E-05
1	290	94.9171807603572	0.283355712890625	0.283416748046875	2.032470703125E-07	5.76036249810841E-08	1394444.5	2.97234419122105E-05
1	291	95.0178887601029	0.273284912109375	0.2733154296875	2.00500488281249E-07	5.47998766364799E-08	1363166	2.9743772756774E-05
1	292	95.1185967598486	0.263214111328125	0.263153076171875	1.97753906250001E-07	5.2039549558458E-08	1330709.875	2.97638271149481E-05
1	293	95.2193047595944	0.253143310546875	0.253173828125	1.94702148437501E-07	4.92934866258565E-08	1300313.5	2.97835886158282E-05
1	294	95.3200127593401	0.243072509765625	0.243072509765625	1.910400390625E-07	4.64365790264765E-08	1272364.25	2.98030117846793E-05
1	295	95.4207207590858	0.233001708984375	0.233001708984375	1.8798828125E-07	4.3801588134329E-08	1239448.125	2.98220966215013E-05
1	296	95.5214287588316	0.222930908203125	0.222991943359375	1.83715820312499E-07	4.096714434354E-08	1213787.375	2.98408140224637E-05
1	297	95.6221367585773	0.212860107421875	0.212890625	1.79138183593749E-07	3.81368394641868E-08	1188415.625	2.98590857710224E-05
1	298	95.722844758323	0.202789306640625	0.20281982421875	1.7425537109375E-07	3.53424418619852E-08	1163923	2.98768809443573E-05
1	299	95.8235527580688	0.192718505859375	0.192779541015625	1.6815185546875E-07	3.24162385823001E-08	1146461	2.98941213259241E-05
1	300	95.9242607578145	0.182647705078125	0.182708740234375	1.6204833984375E-07	2.96076478889518E-08	1127495.25	2.99107487080619E-05
1	301	96.0249687575603	0.172576904296875	0.172607421875	1.55029296875001E-07	2.67592081826251E-08	1113385.875	2.99267139780568E-05
1	302	96.125676757306	0.162506103515625	0.162567138671875	1.45568847656249E-07	2.36647110796184E-08	1116771.5	2.99418516078731E-05
1	303	96.2263847570517	0.152435302734375	0.152435302734375	1.3580322265625E-07	2.0701204306306E-08	1122472	2.99560197163373E-05
1	304	96.3270927567975	0.142364501953125	0.142364501953125	1.22680664062499E-07	1.74653713713724E-08	1160447.75	2.99690345855197E-05
1	305	96.4278007565432	0.132293701171875	0.132415771484375	1.055908203125E-07	1.39818894240307E-08	1254046.375	2.99805287795607E-05
1	306	96.5285087562889	0.122222900390625	0.12225341796875	8.392333984375E-08	1.02599146956095E-08	1456727.25	2.99900730169611E-05
1	307	96.6292167560347	0.112152099609375	0.11224365234375	5.4931640625E-08	6.16572792822012E-09	2043333.375	2.99970633932389E-05
1	308	96.7299247557804	0.102081298828125	0.10211181640625	1.58691406249994E-08	1.62042679274776E-09	6434615.5	3.00006286124699E-05
1	309	96.8306327555262	0.092010498046875	0.092071533203125	-3.814697265625E-08	-3.51225026840041E-09	-2413600	2.99995081149973E-05
1	310	96.9313407552719	0.081939697265625	0.08197021484375	-1.09252929687501E-07	-8.95548613044639E-09	-750279.3125	2.99920848192414E-05
1	311	97.0320487550176	0.071868896484375	0.07196044921875	-2.056884765625E-07	-1.48014347445269E-08	-349851.65625	2.99762268696213E-05
1	312	97.1327567547634	0.061798095703125	0.061798095703125	-3.31726074218749E-07	-2.05000389996712E-08	-186292.5625	2.99491657642648E-05
1	313	97.2334647545091	0.051727294921875	0.0517578125	-4.9285888671875E-07	-2.550929778522E-08	-105015.484375	2.990764369315E-05
1	314	97.3341727542548	0.041656494140625	0.0417694091796875	-6.878662109375E-07	-2.87317636349371E-08	-60723.16015625	2.98481900244951E-05
1	315	97.4348807540006	0.031585693359375	0.0316741943359375	-9.124755859375E-07	-2.89019297383675E-08	-34712.375	2.97676069749286E-05
1	316	97.5355887537463	0.021514892578125	0.0216339111328125	-1.15203857421875E-06	-2.4923100028218E-08	-18778.80859375	2.96636499115266E-05
1	317	97.636296753492	0.011444091796875	0.01153564453125	-1.38763427734375E-06	-1.6007255965178E-08	-8313.173828125	2.95357676804997E-05
1	318	97.7370047532378	0.001373291015625	0.0014495849609375	-1.59576416015625E-06	-2.31319563503973E-09	-908.3955078125	2.93855409836397E-05
1	319	97.8377127529835	-0.008697509765625	-0.0085906982421875	-1.75567626953125E-06	1.50824845945863E-08	4893.099609375	2.92167824227363E-05
1	320	97.9384207527293	-0.018768310546875	-0.01864013671875	-1.8560791015625E-06	3.45975657012332E-08	10042.7490234375	2.9034916224191E-05
1	321	98.039128752475	-0.028839111328125	-0.028704833984375	-1.89788818359375E-06	5.44785621059418E-08	15124.6181640625	2.88458886643639E-05
1	322	98.1398367522207	-0.038909912109375	-0.038787841796875	-1.88873291015625E-06	7.32598692820829E-08	20536.435546875	2.86552185571054E-05
1	323	98.2405447519665	-0.048980712890625	-0.0488037109375	-1.845703125E-06	9.00771581768822E-08	26441.798828125	2.84671732515562E-05
1	324	98.3412527517122	-0.059051513671875	-0.059051513671875	-1.7816162109375E-06	1.05207135447927E-07	33144.9140625	2.82845248875674E-05
1	325	98.4419607514579	-0.069122314453125	-0.069061279296875	-1.708984375E-06	1.18024644280013E-07	40410.71484375	2.81087577604922E-05
1	326	98.5426687512037	-0.079193115234375	-0.079132080078125	-1.6363525390625E-06	1.29487972344577E-07	48358.8203125	2.7940306608798E-05
1	327	98.6433767509494	-0.089263916015625	-0.08917236328125	-1.56646728515625E-06	1.39685596423078E-07	56925.7734375	2.77790331892902E-05
1	328	98.7440847506952	-0.099334716796875	-0.0992431640625	-1.50299072265625E-06	1.49161550666577E-07	66030.4609375	2.76244736596709E-05
1	329	98.8447927504409	-0.109405517578125	-0.1092529296875	-1.4471435546875E-06	1.58104668912529E-07	75495.5703125	2.74759222520515E-05
1	330	98.9455007501866	-0.119476318359375	-0.119384765625	-1.3970947265625E-06	1.66791821243351E-07	85452.1640625	2.73327023023739E-05
1	331	99.0462087499324	-0.129547119140625	-0.129425048828125	-1.353759765625E-06	1.75210431052619E-07	95604.1484375	2.71941862592939E-05
1	332	99.1469167496781	-0.139617919921875	-0.1395263671875	-1.3165283203125E-06	1.83690403332548E-07	105980.53125	2.70597265625838E-05
1	333	99.2476247494238	-0.149688720703125	-0.14959716796875	-1.2841796875E-06	1.92109638419424E-07	116492.3984375	2.69287702394649E-05
1	334	99.3483327491696	-0.159759521484375	-0.15960693359375	-1.25701904296875E-06	2.00628946345205E-07	126972.5703125	2.68008116108831E-05
1	335	99.4490407489153	-0.169830322265625	-0.169708251953125	-1.23443603515625E-06	2.09493975944497E-07	137478.375	2.66753559117205E-05
1	336	99.549748748661	-0.179901123046875	-0.179779052734375	-1.214599609375E-06	2.18359559767123E-07	148015.078125	2.65520375251072E-05
1	337	99.6504567484068	-0.189971923828125	-0.1898193359375	-1.1993408203125E-06	2.27658063067793E-07	158269.71875	2.6430487196194E-05
1	338	99.7511647481525	-0.200042724609375	-0.19989013671875	-1.1859130859375E-06	2.37052333318388E-07	168553.78125	2.63103793258779E-05
1	339	99.8518727478983	-0.189971923828125	-0.189788818359375	-1.033935546875E-06	1.96229393623071E-07	183559.625	2.61986006080406E-05
2	340	99.952580747644	-0.179901123046875	-0.17974853515625	-9.29870605468749E-07	1.6714287198738E-07	193304.890625	2.60997148870956E-05
2	341	100.05328874739	-0.169830322265625	-0.169647216796875	-8.4686279296875E-07	1.43667904239919E-07	200324.328125	2.60102497122716E-05
2	342	100.153996747135	-0.159759521484375	-0.15966796875	-7.769775390625E-07	1.24058416872685E-07	205498.828125	2.59284825006034E-05
2	343	100.254704746881	-0.149688720703125	-0.14959716796875	-7.1533203125E-07	1.07011643990518E-07	209129.703125	2.58533400483429E-05
2	344	100.355412746627	-0.139617919921875	-0.139434814453125	-6.60095214843751E-07	9.20402527526676E-08	211234.390625	2.57840802078135E-05
2	345	100.456120746373	-0.129547119140625	-0.12945556640625	-6.085205078125E-07	7.87763667631225E-08	212738.21875	2.57202009379398E-05
2	346	100.556828746118	-0.119476318359375	-0.119354248046875	-5.596923828125E-07	6.68016610916311E-08	213249.734375	2.56613766396185E-05
2	347	100.657536745864	-0.109405517578125	-0.109344482421875	-5.11474609375E-07	5.59269217603742E-08	213782.828125	2.56074399658246E-05
2	348	100.75824474561	-0.099334716796875	-0.0992431640625	-4.61730957031251E-07	4.58236399936141E-08	214937.21875	2.55584345723037E-05
2	349	100.858952745356	-0.089263916015625	-0.0892333984375	-4.0863037109375E-07	3.6463475794335E-08	218371.921875	2.55146078416146E-05
2	350	100.959660745101	-0.079193115234375	-0.079132080078125	-3.4942626953125E-07	2.76508274055232E-08	226462.875	2.54764381679706E-05
2	351	101.060368744847	-0.069122314453125	-0.069061279296875	-2.78625488281251E-07	1.9242232696115E-08	247864.1875	2.54448132182006E-05
2	352	101.161076744593	-0.059051513671875	-0.0589599609375	-1.9378662109375E-07	1.14256515360012E-08	304251.96875	2.5421024474781E-05
2	353	101.261784744339	-0.048980712890625	-0.0488494873046875	-8.72802734374997E-08	4.26359614280614E-09	559685.3125	2.5406870918232E-05
2	354	101.362492744084	-0.038909912109375	-0.03876953125	4.730224609375E-08	-1.83388582097876E-09	-819612.9375	2.54048591159517E-05
2	355	101.46320074383	-0.028839111328125	-0.0286956787109375	2.13623046875E-07	-6.13005823879575E-09	-134328.578125	2.54179976764135E-05
2	356	101.563908743576	-0.018768310546875	-0.018609619140625	4.132080078125E-07	-7.68964358854873E-09	-45036.92578125	2.54495607805438E-05
2	357	101.664616743322	-0.008697509765625	-0.00858459472656251	6.427001953125E-07	-5.5173203783454E-09	-13357.0751953125	2.55027298408095E-05
2	358	101.765324743067	0.001373291015625	0.001483154296875	8.90502929687501E-07	1.32075317349489E-09	1665.52429199219	2.55799332080642E-05
2	359	101.866032742813	0.011444091796875	0.0115478515625	1.138916015625E-06	1.31520323520817E-08	10139.3359375	2.5682122213766E-05
2	360	101.966740742559	0.021514892578125	0.02161865234375	1.3653564453125E-06	2.95171673769801E-08	15833.70703125	2.58082218351774E-05
2	361	102.067448742304	0.031585693359375	0.0317138671875	1.549072265625E-06	4.91270668590005E-08	20472.8125	2.59549760812661E-05
2	362	102.16815674205	0.041656494140625	0.0417083740234375	1.676025390625E-06	6.99042885798917E-08	24885.287109375	2.61173718172358E-05
2	363	102.268864741796	0.051727294921875	0.051788330078125	1.74285888671875E-06	9.02597534491179E-08	29714.5859375	2.62895264313556E-05
2	364	102.369572741542	0.061798095703125	0.0618896484375	1.75689697265625E-06	1.08733736681188E-07	35226.6796875	2.646575376275E-05
2	365	102.470280741287	0.071868896484375	0.071929931640625	1.73095703125E-06	1.24507621990233E-07	41555.0078125	2.66413808276411E-05
2	366	102.570988741033	0.081939697265625	0.08203125	1.68121337890625E-06	1.37912039122057E-07	48792.88671875	2.68131971097318E-05
2	367	102.671696740779	0.092010498046875	0.092010498046875	1.6192626953125E-06	1.48989158788027E-07	56822.46484375	2.69793890765868E-05
2	368	102.772404740525	0.102081298828125	0.102142333984375	1.552734375E-06	1.58599917199354E-07	65782.234375	2.71391127171228E-05
2	369	102.87311274027	0.112152099609375	0.112213134765625	1.48773193359375E-06	1.6694305315923E-07	75425.640625	2.7292211598251E-05
2	370	102.973820740016	0.122222900390625	0.12225341796875	1.4276123046875E-06	1.74530470076206E-07	85634.890625	2.74390113190748E-05
2	371	103.074528739762	0.132293701171875	0.13238525390625	1.37176513671875E-06	1.81601464532832E-07	96507.234375	2.75799702649238E-05
2	372	103.175236739508	0.142364501953125	0.14239501953125	1.32293701171875E-06	1.88379644328052E-07	107635.5234375	2.77156595984707E-05
2	373	103.275944739253	0.152435302734375	0.152496337890625	1.2786865234375E-06	1.94994996149944E-07	119260.1484375	2.78466613963246E-05
2	374	103.376652738999	0.162506103515625	0.162506103515625	1.23992919921875E-06	2.01496050067362E-07	131060.796875	2.79734849755187E-05
2	375	103.477360738745	0.172576904296875	0.172576904296875	1.2054443359375E-06	2.08031835313705E-07	143164.5625	2.80966178252129E-05
2	376	103.578068738491	0.182647705078125	0.18267822265625	1.17523193359375E-06	2.14689265476409E-07	155440.15625	2.82164946838748E-05
2	377	103.678776738236	0.192718505859375	0.192779541015625	1.14898681640625E-06	2.21501153419013E-07	167782.203125	2.83335284620989E-05
2	378	103.779484737982	0.202789306640625	0.202850341796875	1.12548828125E-06	2.28305665928019E-07	180233.203125	2.84480574919144E-05
2	379	103.880192737728	0.212860107421875	0.212921142578125	1.104736328125E-06	2.35221705224831E-07	192734.8125	2.85603582597105E-05
2	380	103.980900737473	0.222930908203125	0.222991943359375	1.08642578125E-06	2.42264178496043E-07	205252.8125	2.86706926999614E-05
2	381	104.081608737219	0.233001708984375	0.233062744140625	1.0693359375E-06	2.49222352977085E-07	217950.921875	2.87792427116074E-05
2	382	104.182316736965	0.243072509765625	0.24310302734375	1.05438232421875E-06	2.56323545499981E-07	230564.40625	2.88861810986418E-05
2	383	104.283024736711	0.253143310546875	0.253173828125	1.041259765625E-06	2.63619739371279E-07	243141.84375	2.89917043119203E-05
2	384	104.383732736456	0.263214111328125	0.263214111328125	1.0296630859375E-06	2.71021832531915E-07	255631.3125	2.90959851554362E-05
2	385	104.484440736202	0.273284912109375	0.27325439453125	1.01837158203125E-06	2.78274512766075E-07	268324.84375	2.91991109406808E-05
2	386	104.585148735948	0.283355712890625	0.2833251953125	1.0089111328125E-06	2.85849949932526E-07	280822.75	2.93011926260078E-05
2	387	104.685856735694	0.293426513671875	0.29339599609375	1.00006103515625E-06	2.93413904728368E-07	293378.09375	2.94023520837072E-05
2	388	104.786564735439	0.303497314453125	0.303466796875	9.9212646484375E-07	3.01077420772344E-07	305875.125	2.95026675303234E-05
2	389	104.887272735185	0.313568115234375	0.313568115234375	9.857177734375E-07	3.09089642769322E-07	318111.46875	2.96022590191569E-05
2	390	104.987980734931	0.323638916015625	0.3236083984375	9.78698730468749E-07	3.16715130566081E-07	330651.6875	2.97011756629217E-05
2	391	105.088688734677	0.333709716796875	0.333709716796875	9.735107421875E-07	3.2487000112269E-07	342789.96875	2.97994774882682E-05
2	392	105.189396734422	0.343780517578125	0.343780517578125	9.6923828125E-07	3.33205235847345E-07	354691.4375	2.98973027383909E-05
2	393	105.290104734168	0.353851318359375	0.3538818359375	9.65576171875E-07	3.41699887940194E-07	366498.09375	2.99947278108448E-05
2	394	105.390812733914	0.363922119140625	0.363922119140625	9.625244140625E-07	3.50283926309203E-07	378091.3125	3.0091816370259E-05
2	395	105.49152073366	0.373992919921875	0.373992919921875	9.6038818359375E-07	3.5917838658861E-07	389418.5	3.01886429951992E-05
2	396	105.592228733405	0.384063720703125	0.384124755859375	9.5855712890625E-07	3.68205490985929E-07	400732.28125	3.02852695313049E-05
2	397	105.692936733151	0.394134521484375	0.39422607421875	9.57336425781249E-07	3.77406962570603E-07	411794.71875	3.03817414533114E-05
2	398	105.793644732897	0.404205322265625	0.404205322265625	9.5672607421875E-07	3.86713736588717E-07	422488.0625	3.04781224258477E-05
2	399	105.894352732642	0.414276123046875	0.414276123046875	9.56115722656251E-07	3.9609591340195E-07	433290.78125	3.05744433717337E-05
2	400	105.995060732388	0.424346923828125	0.424346923828125	9.564208984375E-07	4.05854251539495E-07	443682.21875	3.06707443087362E-05
2	401	106.095768732134	0.434417724609375	0.434417724609375	9.5672607421875E-07	4.15618728766276E-07	454067	3.07670816255268E-05
2	402	106.19647673188	0.444488525390625	0.444488525390625	9.5672607421875E-07	4.25253745106602E-07	464593.34375	3.08634298562538E-05
2	403	106.297184731625	0.454559326171875	0.45458984375	9.5794677734375E-07	4.35472884419141E-07	474546.03125	3.09598399326205E-05
2	404	106.397892731371	0.464630126953125	0.46466064453125	9.5855712890625E-07	4.45403742332928E-07	484750.125	3.10563445964362E-05
2	405	106.498600731117	0.474700927734375	0.47467041015625	9.600830078125E-07	4.55722982906082E-07	494405.625	3.11529547616374E-05
2	406	106.599308730863	0.484771728515625	0.484771728515625	9.6221923828125E-07	4.66456697267859E-07	503805.90625	3.12497504637577E-05
2	407	106.700016730608	0.494842529296875	0.494873046875	9.63745117187501E-07	4.76931461435015E-07	513489.59375	3.13467317027971E-05
2	408	106.800724730354	0.504913330078125	0.504913330078125	9.66491699218749E-07	4.87994554987381E-07	522418.6875	3.14439275825862E-05
2	409	106.9014327301	0.514984130859375	0.515045166015625	9.69848632812501E-07	4.99515863339184E-07	531057.25	3.1541429052595E-05
2	410	107.002140729846	0.525054931640625	0.5250244140625	9.72900390625001E-07	5.10796439812111E-07	539648.6875	3.16392543027177E-05
2	411	107.102848729591	0.535125732421875	0.53509521484375	9.765625E-07	5.22553875725862E-07	547937.5625	3.17374178848695E-05
2	412	107.203556729337	0.545196533203125	0.545166015625	9.80529785156251E-07	5.34551531927718E-07	555991.3125	3.18359670927748E-05
2	413	107.304264729083	0.555267333984375	0.5552978515625	9.85107421875001E-07	5.47027980246639E-07	563692.75	3.19349419442005E-05
2	414	107.404972728829	0.565338134765625	0.565399169921875	9.8907470703125E-07	5.5922203046066E-07	571644.5625	3.20343497151043E-05
2	415	107.505680728574	0.575408935546875	0.575439453125	9.94262695312501E-07	5.72137992094213E-07	578760	3.21342195093166E-05
2	416	107.60638872832	0.585479736328125	0.58544921875	9.9945068359375E-07	5.85127622798609E-07	585771	3.22346131724771E-05
2	417	107.707096728066	0.595550537109375	0.595550537109375	1.0052490234375E-06	5.98676592744596E-07	592440.8125	3.23355561704375E-05
2	418	107.807804727811	0.605621337890625	0.6055908203125	1.01104736328125E-06	6.12280985023972E-07	598973.8125	3.24370848829858E-05
2	419	107.908512727557	0.615692138671875	0.61566162109375	1.01715087890625E-06	6.26220753474627E-07	605280.5	3.25392138620373E-05
2	420	108.009220727303	0.625762939453125	0.625701904296875	1.024169921875E-06	6.40825078335183E-07	610935.625	3.26420013152529E-05
2	421	108.109928727049	0.635833740234375	0.63580322265625	1.03179931640625E-06	6.56021370559756E-07	616208.1875	3.27455272781663E-05
2	422	108.210636726794	0.645904541015625	0.6458740234375	1.0400390625E-06	6.71734198931517E-07	621009.4375	3.28498535964172E-05
2	423	108.31134472654	0.655975341796875	0.65594482421875	1.048583984375E-06	6.8781321260758E-07	625553	3.29550239257514E-05
2	424	108.412052726286	0.666046142578125	0.66595458984375	1.05712890625E-06	7.03999830875546E-07	629965.375	3.30610528180841E-05
2	425	108.512760726032	0.676116943359375	0.676025390625	1.0650634765625E-06	7.2000989348453E-07	634727.8125	3.31679148075636E-05
2	426	108.613468725777	0.686187744140625	0.686126708984375	1.072998046875E-06	7.36212541596615E-07	639448.25	3.32755735144019E-05
2	427	108.714176725523	0.696258544921875	0.696197509765625	1.08123779296875E-06	7.52755056510068E-07	643889.375	3.33840507664718E-05
2	428	108.814884725269	0.706329345703125	0.706298828125	1.08856201171875E-06	7.68850043186831E-07	648836.625	3.34933065460064E-05
2	429	108.915592725015	0.716400146484375	0.716339111328125	1.09619140625E-06	7.85244708367827E-07	653480	3.36033190251328E-05
2	430	109.01630072476	0.726470947265625	0.72637939453125	1.10382080078125E-06	8.01792623406072E-07	658059.1875	3.37140991177876E-05
2	431	109.117008724506	0.736541748046875	0.73651123046875	1.11175537109375E-06	8.18820240056084E-07	662476	3.38256613758858E-05
2	432	109.217716724252	0.746612548828125	0.74652099609375	1.12091064453125E-06	8.36783328850288E-07	665995.125	3.39380858349614E-05
2	433	109.318424723998	0.756683349609375	0.75714111328125	1.131591796875E-06	8.56774590829446E-07	669093.875	3.40515071002301E-05
2	434	109.419132723743	0.766754150390625	0.76690673828125	1.14349365234375E-06	8.76952924500074E-07	670669.875	3.41660670528654E-05
2	435	109.519840723489	0.776824951171875	0.7769775390625	1.1578369140625E-06	8.99613269211841E-07	671059.5625	3.42819475918077E-05
2	436	109.620548723235	0.786895751953125	0.7867431640625	1.17584228515625E-06	9.25085885228327E-07	669089	3.43994579452556E-05
2	437	109.72125672298	0.796966552734375	0.797119140625	1.1968994140625E-06	9.54071424530412E-07	665986.75	3.45189364452381E-05
2	438	109.821964722726	0.807037353515625	0.80657958984375	1.221923828125E-06	9.85578708423418E-07	660089.9375	3.46407323377207E-05
2	439	109.922672722472	0.817108154296875	0.81695556640625	1.2506103515625E-06	1.02169303772826E-06	653245.5	3.47652348864358E-05
2	440	110.023380722218	0.827178955078125	0.8270263671875	1.28143310546875E-06	1.0597790378597E-06	645391.75	3.48927351296879E-05
2	441	110.124088721963	0.837249755859375	0.83740234375	1.3116455078125E-06	1.09837503714516E-06	638436.5	3.50233058270533E-05
2	442	110.224796721709	0.847320556640625	0.8477783203125	1.34033203125E-06	1.13630437681422E-06	632513.6875	3.51568414771464E-05
2	443	110.325504721455	0.857391357421875	0.85784912109375	1.3629150390625E-06	1.16917544801254E-06	629422.3125	3.52929637301713E-05
2	444	110.426212721201	0.867462158203125	0.86761474609375	1.37969970703125E-06	1.19704782264307E-06	628843.1875	3.54310650436673E-05
2	445	110.526920720946	0.877532958984375	0.87799072265625	1.39007568359375E-06	1.2204735639898E-06	631613.625	3.55705342371948E-05
2	446	110.627628720692	0.887603759765625	0.88836669921875	1.39556884765625E-06	1.23977679322707E-06	636562.4375	3.5710800148081E-05
2	447	110.728336720438	0.897674560546875	0.89813232421875	1.39617919921875E-06	1.25395365557779E-06	643278.6875	3.58513789251447E-05
2	448	110.829044720184	0.907745361328125	0.90728759765625	1.39495849609375E-06	1.26562849800393E-06	650404.75	3.59919213224202E-05
2	449	110.929752719929	0.917816162109375	0.91827392578125	1.3916015625E-06	1.27787131987134E-06	659868.4375	3.61322381650098E-05
2	450	111.030460719675	0.927886962890625	0.9283447265625	1.3885498046875E-06	1.28905287510861E-06	668571.4375	3.62722275895067E-05
2	451	111.131168719421	0.937957763671875	0.9381103515625	1.38519287109375E-06	1.29946374727297E-06	677241.6875	3.64118968718685E-05
2	452	111.231876719167	0.948028564453125	0.94818115234375	1.3818359375E-06	1.31023068661307E-06	686174.9375	3.65512278222013E-05
2	453	111.332584718912	0.958099365234375	0.958251953125	1.37939453125E-06	1.32180741729826E-06	694690.3125	3.66902677342296E-05
2	454	111.433292718658	0.968170166015625	0.96832275390625	1.37725830078125E-06	1.33363050736079E-06	703080	3.68290748156141E-05
2	455	111.534000718404	0.978240966796875	0.9783935546875	1.37603759765625E-06	1.34630624870624E-06	711022.4375	3.69677145499736E-05
2	456	111.634708718149	0.988311767578125	0.98846435546875	1.37542724609375E-06	1.35956076974253E-06	718659.875	3.71062633348629E-05
2	457	111.735416717895	0.998382568359375	0.99884033203125	1.3751220703125E-06	1.37352731144347E-06	726364.875	3.72447648260277E-05
2	458	111.836124717641	1.00845336914063	1.00860595703125	1.37481689453125E-06	1.38664847781911E-06	733629.3125	3.73832335753832E-05
2	459	111.936832717387	1.01852416992188	1.0186767578125	1.3751220703125E-06	1.4008047628522E-06	740790.125	3.75217059627175E-05
2	460	112.037540717132	1.02859497070313	1.0284423828125	1.37542724609375E-06	1.41454768254334E-06	747725.75	3.76602038159035E-05
2	461	112.138248716878	1.03866577148438	1.03912353515625	1.37603759765625E-06	1.42987300932873E-06	755156.375	3.77987526007928E-05
2	462	112.238956716624	1.04873657226563	1.04888916015625	1.37603759765625E-06	1.44331079354743E-06	762253.3125	3.79373304895125E-05
2	463	112.33966471637	1.05880737304688	1.05804443359375	1.376953125E-06	1.4568774986401E-06	768395.4375	3.80759556719568E-05
2	464	112.440372716115	1.06887817382813	1.06842041015625	1.37725830078125E-06	1.47149091844767E-06	775758.9375	3.82146390620619E-05
2	465	112.541080715861	1.07894897460938	1.07879638671875	1.37847900390625E-06	1.48709807490377E-06	782599.125	3.83534024877008E-05
2	466	112.641788715607	1.08901977539063	1.08917236328125	1.3800048828125E-06	1.50306311752502E-06	789252.5625	3.84923041565344E-05
2	467	112.742496715353	1.09909057617188	1.09954833984375	1.3818359375E-06	1.5193953686321E-06	795715.5625	3.86313731723931E-05
2	468	112.843204715098	1.10916137695313	1.1090087890625	1.3836669921875E-06	1.53449877871026E-06	801499.8125	3.87706277251709E-05
2	469	112.943912714844	1.11923217773438	1.11907958984375	1.38580322265625E-06	1.55082409492024E-06	807531.375	3.89100823667832E-05
2	470	113.04462071459	1.12930297851563	1.12945556640625	1.3897705078125E-06	1.5696839454904E-06	812692.1875	3.90498425986152E-05
2	471	113.145328714336	1.13937377929688	1.138916015625	1.39373779296875E-06	1.58735031163815E-06	817166.625	3.9190003008116E-05
2	472	113.246036714081	1.14944458007813	1.14959716796875	1.39739990234375E-06	1.60644685820444E-06	822668.75	3.93305490433704E-05
2	473	113.346744713827	1.15951538085938	1.15966796875	1.4019775390625E-06	1.62582841767289E-06	827165.875	3.94715098082088E-05
2	474	113.447452713573	1.16958618164063	1.16912841796875	1.40838623046875E-06	1.64658433732257E-06	830119.1875	3.9613019907847E-05
2	475	113.548160713318	1.17965698242188	1.17950439453125	1.4141845703125E-06	1.6680369299138E-06	834052.6875	3.97551484638825E-05
2	476	113.648868713064	1.18972778320313	1.18988037109375	1.42120361328125E-06	1.69106226621807E-06	837234.3125	3.98979209421668E-05
2	477	113.74957671281	1.19979858398438	1.1993408203125	1.42852783203125E-06	1.71329168097145E-06	839564.25	4.00414173782337E-05
2	478	113.850284712556	1.20986938476563	1.20941162109375	1.43707275390625E-06	1.73801242908667E-06	841580	4.01857105316594E-05
2	479	113.950992712301	1.21994018554688	1.21978759765625	1.446533203125E-06	1.76446314981149E-06	843249	4.03309131797869E-05
2	480	114.051700712047	1.23001098632813	1.23016357421875	1.456298828125E-06	1.79148582901689E-06	844719.1875	4.0477083530277E-05
2	481	114.152408711793	1.24008178710938	1.2396240234375	1.4666748046875E-06	1.81812526989233E-06	845193.5	4.06242652388755E-05
2	482	114.253116711539	1.25015258789063	1.25030517578125	1.4788818359375E-06	1.84905354672082E-06	845439.5625	4.07725856348407E-05
2	483	114.353824711284	1.26022338867188	1.2603759765625	1.49139404296875E-06	1.8797171605911E-06	845099.3125	4.09221502195578E-05
2	484	114.45453271103	1.27029418945313	1.27044677734375	1.5057373046875E-06	1.91295907825406E-06	843737.375	4.10730681323912E-05
2	485	114.555240710776	1.28036499023438	1.28082275390625	1.5216064453125E-06	1.94890799321001E-06	841757	4.1225506720366E-05
2	486	114.655948710522	1.29043579101563	1.2908935546875	1.53839111328125E-06	1.9858991890942E-06	839119.25	4.13795896747615E-05
2	487	114.756656710267	1.30050659179688	1.3006591796875	1.55731201171875E-06	2.02553201233968E-06	835195	4.15354734286666E-05
2	488	114.857364710013	1.31057739257813	1.31072998046875	1.5771484375E-06	2.06721574613766E-06	831075.875	4.16933035012335E-05
2	489	114.958072709759	1.32064819335938	1.3214111328125	1.59942626953125E-06	2.11349970413721E-06	826178.25	4.18532581534237E-05
2	490	115.058780709505	1.33071899414063	1.33087158203125	1.6229248046875E-06	2.15990439755842E-06	820045.1875	4.20155156461988E-05
2	491	115.15948870925	1.34078979492188	1.34063720703125	1.64794921875E-06	2.20930201066949E-06	813518.5625	4.21802178607322E-05
2	492	115.260196708996	1.35086059570313	1.35040283203125	1.67510986328125E-06	2.26207316700311E-06	806157.75	4.23475466959644E-05
2	493	115.360904708742	1.36093139648438	1.361083984375	1.7059326171875E-06	2.32191746363242E-06	797853.3125	4.25177968281787E-05
2	494	115.461612708487	1.37100219726563	1.370849609375	1.739501953125E-06	2.38459551837877E-06	788070.1875	4.26912883995101E-05
2	495	115.562320708233	1.38107299804688	1.3812255859375	1.778564453125E-06	2.45659862230241E-06	776595.75	4.28684361395426E-05
2	496	115.663028707979	1.39114379882813	1.39129638671875	1.82281494140625E-06	2.53607572631154E-06	763268.0625	4.30497784691397E-05
2	497	115.763736707725	1.40121459960938	1.40167236328125	1.87469482421875E-06	2.62770799963619E-06	747680.3125	4.3235962948529E-05
2	498	115.86444470747	1.41128540039063	1.4111328125	1.93450927734375E-06	2.72984948423982E-06	729452.5625	4.34277717431542E-05
2	499	115.965152707216	1.42135620117188	1.4215087890625	2.00347900390625E-06	2.84796306004864E-06	709520.1875	4.36260670539923E-05
2	500	116.065860706962	1.43142700195313	1.43157958984375	2.08251953125E-06	2.98129248221812E-06	687426.6875	4.38318129454274E-05
2	501	116.166568706708	1.44149780273438	1.44134521484375	2.17376708984375E-06	3.13314876621007E-06	663063.3125	4.40461335529108E-05
2	502	116.267276706453	1.45156860351563	1.451416015625	2.27752685546875E-06	3.30563898387481E-06	637277.25	4.42702730651945E-05
2	503	116.367984706199	1.46163940429688	1.4617919921875	2.3968505859375E-06	3.5036969165958E-06	609880.3125	4.45056466560345E-05
2	504	116.468692705945	1.47171020507813	1.4715576171875	2.53509521484375E-06	3.73053853763849E-06	580474.3125	4.47539896413218E-05
2	505	116.569400705691	1.48178100585938	1.48193359375	2.6898193359375E-06	3.98613337893039E-06	550941.6875	4.50170882686507E-05
2	506	116.670108705436	1.49185180664063	1.49169921875	2.86041259765625E-06	4.2668748392316E-06	521497.9375	4.52965614385903E-05
2	507	116.770816705182	1.50192260742188	1.5020751953125	3.0401611328125E-06	4.56655061498168E-06	494077.5	4.55936788057443E-05
2	508	116.871524704928	1.49185180664063	1.49200439453125	2.6263427734375E-06	3.91851472159033E-06	568092.0625	4.58790127595421E-05
2	509	116.972232704674	1.48178100585938	1.4813232421875	2.32025146484375E-06	3.43704255101329E-06	638432.1875	4.61280906165484E-05
2	510	117.072940704419	1.47171020507813	1.4715576171875	2.07763671875E-06	3.05736216432706E-06	708284.375	4.63495453004725E-05
2	511	117.173648704165	1.46163940429688	1.4617919921875	1.878662109375E-06	2.74621311291412E-06	778102.6875	4.65487573819701E-05
2	512	117.274356703911	1.45156860351563	1.4520263671875	1.7132568359375E-06	2.48769401878235E-06	847524.0625	4.67296267743222E-05
2	513	117.375064703656	1.44149780273438	1.44134521484375	1.57470703125E-06	2.26969632421969E-06	915310.125	4.68951875518542E-05
2	514	117.475772703402	1.43142700195313	1.43157958984375	1.45782470703125E-06	2.08699202630669E-06	981997.125	4.7047888074303E-05
2	515	117.576480703148	1.42135620117188	1.4215087890625	1.35833740234375E-06	1.93088862943114E-06	1046506.4375	4.71896928502247E-05
2	516	117.677188702894	1.41128540039063	1.4111328125	1.27471923828125E-06	1.79879816641915E-06	1107014.625	4.73222789878491E-05
2	517	117.777896702639	1.40121459960938	1.40106201171875	1.20361328125E-06	1.68633675912133E-06	1164046.75	4.74470725748688E-05
2	518	117.878604702385	1.39114379882813	1.39129638671875	1.14288330078125E-06	1.59008948230621E-06	1217356.5	4.75652268505655E-05
2	519	117.979312702131	1.38107299804688	1.380615234375	1.09100341796875E-06	1.50625589867559E-06	1265454.625	4.76777131552808E-05
2	520	118.080020701877	1.37100219726563	1.37115478515625	1.04583740234375E-06	1.43400495744572E-06	1311059.25	4.77853100164793E-05
2	521	118.180728701622	1.36093139648438	1.36077880859375	1.0076904296875E-06	1.37124379762099E-06	1350393.625	4.78887159260921E-05
2	522	118.281436701368	1.35086059570313	1.35040283203125	9.74121093749999E-07	1.31545596104843E-06	1386278.125	4.79885056847706E-05
2	523	118.382144701114	1.34078979492188	1.34063720703125	9.45434570312501E-07	1.26748466300342E-06	1418011.75	4.80851631436963E-05
2	524	118.48285270086	1.33071899414063	1.33087158203125	9.21020507812501E-07	1.22576000194385E-06	1444996.75	4.81791466881987E-05
2	525	118.583560700605	1.32064819335938	1.32049560546875	8.990478515625E-07	1.18718878638902E-06	1468771.25	4.82707946503069E-05
2	526	118.684268700351	1.31057739257813	1.31103515625	8.7921142578125E-07	1.15267710043554E-06	1491148.875	4.83603398606647E-05
2	527	118.784976700097	1.30050659179688	1.3006591796875	8.6212158203125E-07	1.12132636331808E-06	1508672.625	4.84480224258732E-05
2	528	118.885684699842	1.29043579101563	1.290283203125	8.465576171875E-07	1.09229904410313E-06	1524152.875	4.85340606246609E-05
2	529	118.986392699588	1.28036499023438	1.280517578125	8.3160400390625E-07	1.06488346318656E-06	1539816.5	4.86185635963921E-05
2	530	119.087100699334	1.27029418945313	1.27044677734375	8.18481445312499E-07	1.03983700228127E-06	1552200	4.87016513943672E-05
2	531	119.18780869908	1.26022338867188	1.26068115234375	8.0596923828125E-07	1.01607020042138E-06	1564180.375	4.87834477098659E-05
2	532	119.288516698825	1.25015258789063	1.25030517578125	7.9498291015625E-07	9.93971184470865E-07	1572744.75	4.88640616822522E-05
2	533	119.389224698571	1.24008178710938	1.240234375	7.8399658203125E-07	9.72339421423385E-07	1581938.625	4.89435697090812E-05
2	534	119.489932698317	1.23001098632813	1.22955322265625	7.733154296875E-07	9.50832486523723E-07	1589976.25	4.90219863422681E-05
2	535	119.590640698063	1.21994018554688	1.219482421875	7.63549804687499E-07	9.31135559767426E-07	1597122.375	4.90993734274525E-05
2	536	119.691348697808	1.20986938476563	1.20941162109375	7.5408935546875E-07	9.12004395559052E-07	1603804.125	4.91757928102743E-05
2	537	119.792056697554	1.19979858398438	1.199951171875	7.45239257812499E-07	8.94250661076512E-07	1610155.75	4.92512917844579E-05
2	538	119.8927646973	1.18972778320313	1.18927001953125	7.3577880859375E-07	8.75039631864638E-07	1616341.875	4.93258667120244E-05
2	539	119.993472697046	1.17965698242188	1.17919921875	7.26928710937499E-07	8.57193754200125E-07	1622166.25	4.93995212309528E-05
2	540	120.094180696791	1.16958618164063	1.1700439453125	7.1868896484375E-07	8.40897655507433E-07	1628025.5	4.94723135489039E-05
2	541	120.194888696537	1.15951538085938	1.15966796875	7.1075439453125E-07	8.24239066332666E-07	1631601.625	4.95442909596022E-05
2	542	120.295596696283	1.14944458007813	1.1492919921875	7.01904296875E-07	8.06692980859225E-07	1637391.25	4.96154243592173E-05
2	543	120.396304696029	1.13937377929688	1.13922119140625	6.93359374999999E-07	7.89889668340038E-07	1643045.75	4.96856810059398E-05
2	544	120.497012695774	1.12930297851563	1.12945556640625	6.84814453125E-07	7.73467490944313E-07	1649287	4.97550754516851E-05
2	545	120.59772069552	1.11923217773438	1.11968994140625	6.7626953125E-07	7.57212148982944E-07	1655686	4.98236113344319E-05
2	546	120.698428695266	1.10916137695313	1.1090087890625	6.67724609375001E-07	7.40512405172922E-07	1660877.625	4.98912886541802E-05
2	547	120.799136695011	1.09909057617188	1.09893798828125	6.5887451171875E-07	7.24062203971698E-07	1667901.75	4.99580892210361E-05
2	548	120.899844694757	1.08901977539063	1.08917236328125	6.5032958984375E-07	7.08321010733926E-07	1674800.625	5.00240130349994E-05
2	549	121.000552694503	1.07894897460938	1.0791015625	6.40869140625E-07	6.91562888732733E-07	1683809.5	5.00890273542609E-05
2	550	121.101260694249	1.06887817382813	1.0693359375	6.3201904296875E-07	6.75840624353441E-07	1691936.375	5.01531249028631E-05
2	551	121.201968693994	1.05880737304688	1.0589599609375	6.2225341796875E-07	6.58941473830055E-07	1701814.625	5.02162802149542E-05
2	552	121.30267669374	1.04873657226563	1.04888916015625	6.1187744140625E-07	6.41791643829492E-07	1714214.375	5.02784241689369E-05
2	553	121.403384693486	1.03866577148438	1.03851318359375	6.02111816406251E-07	6.25301026957459E-07	1724784.625	5.03395531268325E-05
2	554	121.504092693232	1.02859497070313	1.029052734375	5.9234619140625E-07	6.09555456776434E-07	1737248.875	5.03996998304501E-05
2	555	121.604800692977	1.01852416992188	1.01837158203125	5.81970214843749E-07	5.92661933751515E-07	1749869	5.04588315379806E-05
2	556	121.705508692723	1.00845336914063	1.0089111328125	5.71594238281251E-07	5.76687796183251E-07	1765082.75	5.05169191455934E-05
2	557	121.806216692469	0.998382568359375	0.99884033203125	5.6121826171875E-07	5.60567457341676E-07	1779771.625	5.05739590153098E-05
2	558	121.906924692215	0.988311767578125	0.98846435546875	5.5084228515625E-07	5.44487988918263E-07	1794459.875	5.06299547851086E-05
2	559	122.00763269196	0.978240966796875	0.9783935546875	5.41076660156251E-07	5.29385886238742E-07	1808234.625	5.0684939196799E-05
2	560	122.108340691706	0.968170166015625	0.96771240234375	5.30395507812501E-07	5.13270265400934E-07	1824511	5.07388904225081E-05
2	561	122.209048691452	0.958099365234375	0.95794677734375	5.206298828125E-07	4.98735744258738E-07	1839976.5	5.07918157381937E-05
2	562	122.309756691198	0.948028564453125	0.9478759765625	5.0994873046875E-07	4.83368125969719E-07	1858767.25	5.0843707867898E-05
2	563	122.410464690943	0.937957763671875	0.93841552734375	4.9896240234375E-07	4.68234048867089E-07	1880734	5.08945122419391E-05
2	564	122.511172690689	0.927886962890625	0.92803955078125	4.86145019531251E-07	4.51161781711562E-07	1908976.875	5.09441160829738E-05
2	565	122.611880690435	0.917816162109375	0.91827392578125	4.72412109375001E-07	4.33803705846003E-07	1943798.5	5.09923811478075E-05
2	566	122.71258869018	0.907745361328125	0.908203125	4.559326171875E-07	4.14079408983525E-07	1991968	5.10391291754786E-05
2	567	122.813296689926	0.897674560546875	0.8978271484375	4.3609619140625E-07	3.91538975463845E-07	2058782.5	5.10840472998098E-05
2	568	122.914004689672	0.887603759765625	0.88775634765625	4.12902832031251E-07	3.66557117104094E-07	2150037	5.11267971887719E-05
2	569	123.014712689418	0.877532958984375	0.87738037109375	3.8482666015625E-07	3.37639335157291E-07	2279936.75	5.1166964112781E-05
2	570	123.115420689163	0.867462158203125	0.86700439453125	3.53088378906249E-07	3.06129180671633E-07	2455488.25	5.12041224283166E-05
2	571	123.216128688909	0.857391357421875	0.85723876953125	3.173828125E-07	2.72072838924942E-07	2700961.5	5.12378828716464E-05
2	572	123.316836688655	0.847320556640625	0.8477783203125	2.8045654296875E-07	2.37764965049791E-07	3022851	5.12679871462751E-05
2	573	123.417544688401	0.837249755859375	0.83770751953125	2.4444580078125E-07	2.04774082135373E-07	3426966.25	5.12944170623086E-05
2	574	123.518252688146	0.827178955078125	0.82733154296875	2.11486816406251E-07	1.74969699173744E-07	3911977	5.13173763465602E-05
2	575	123.618960687892	0.817108154296875	0.81756591796875	1.8585205078125E-07	1.51946295545713E-07	4399015	5.13373815920204E-05
2	576	123.719668687638	0.807037353515625	0.80718994140625	1.678466796875E-07	1.35484157226529E-07	4809091	5.13551931362599E-05
2	577	123.820376687384	0.796966552734375	0.79681396484375	1.57470703125E-07	1.25474841183859E-07	5060078	5.13715749548282E-05
2	578	123.921084687129	0.786895751953125	0.7867431640625	1.5289306640625E-07	1.20287580784861E-07	5145708.5	5.13872037117835E-05
2	579	124.021792686875	0.776824951171875	0.77728271484375	1.52587890625E-07	1.18603928456196E-07	5094000	5.14025850861799E-05
2	580	124.122500686621	0.766754150390625	0.7672119140625	1.55029296875001E-07	1.18940327809014E-07	4948819	5.14180755999405E-05
2	581	124.223208686367	0.756683349609375	0.75714111328125	1.58081054687501E-07	1.19689659072719E-07	4789575.5	5.14338389621116E-05
2	582	124.323916686112	0.746612548828125	0.74652099609375	1.60827636718749E-07	1.20061216080103E-07	4641745.5	5.14499006385449E-05
2	583	124.424624685858	0.736541748046875	0.736480712890625	1.629638671875E-07	1.20019734595189E-07	4519288.5	5.14662024215795E-05
2	584	124.525332685604	0.726470947265625	0.7264404296875	1.64794921875E-07	1.19713689628043E-07	4408148.5	5.14827079314273E-05
2	585	124.626040685349	0.716400146484375	0.71636962890625	1.65405273437499E-07	1.18491307432578E-07	4330996.5	5.14993334945757E-05
2	586	124.726748685095	0.706329345703125	0.706268310546875	1.65710449218751E-07	1.1703603775004E-07	4262062.5	5.15160063514486E-05
2	587	124.827456684841	0.696258544921875	0.696197509765625	1.65710449218751E-07	1.15367200237415E-07	4201289	5.15326937602367E-05
2	588	124.928164684587	0.686187744140625	0.686065673828125	1.65710449218751E-07	1.1368825170166E-07	4140147.5	5.15493848070037E-05
2	589	125.028872684332	0.676116943359375	0.6761474609375	1.64794921875E-07	1.11425663362752E-07	4102963.25	5.15660249220673E-05
2	590	125.129580684078	0.666046142578125	0.666046142578125	1.63879394531249E-07	1.09151237381866E-07	4064246	5.15825777256396E-05
2	591	125.230288683824	0.655975341796875	0.655914306640625	1.6326904296875E-07	1.07090492917905E-07	4017383.25	5.15990504936781E-05
2	592	125.33099668357	0.645904541015625	0.6458740234375	1.6326904296875E-07	1.05451228193942E-07	3955888	5.16154905199073E-05
2	593	125.431704683315	0.635833740234375	0.6357421875	1.63879394531249E-07	1.04185041038818E-07	3879329.75	5.16319632879458E-05
2	594	125.532412683061	0.625762939453125	0.625732421875	1.64184570312501E-07	1.02735612017568E-07	3811152.5	5.16484833497088E-05
2	595	125.633120682807	0.615692138671875	0.615692138671875	1.65710449218751E-07	1.02026618264972E-07	3715469.75	5.1665094360942E-05
2	596	125.733828682553	0.605621337890625	0.605560302734375	1.6632080078125E-07	1.00717272744077E-07	3640917.5	5.16818145115394E-05
2	597	125.834536682298	0.595550537109375	0.595550537109375	1.6754150390625E-07	9.97794273871477E-08	3554645	5.1698625611607E-05
2	598	125.935244682044	0.585479736328125	0.585479736328125	1.68762207031251E-07	9.8806850701294E-08	3469258.75	5.1715560402954E-05
2	599	126.03595268179	0.575408935546875	0.575408935546875	1.69982910156249E-07	9.7809689236783E-08	3385098.75	5.17326188855805E-05
2	600	126.136660681536	0.565338134765625	0.565277099609375	1.708984375E-07	9.66049711337291E-08	3307678.75	5.17497828695923E-05
2	601	126.237368681281	0.555267333984375	0.5552978515625	1.71508789062499E-07	9.52384624497427E-08	3237722.5	5.17670232511591E-05
2	602	126.338076681027	0.545196533203125	0.545196533203125	1.7242431640625E-07	9.40051378961471E-08	3161947	5.17843436682597E-05
2	603	126.438784680773	0.535125732421875	0.53509521484375	1.7364501953125E-07	9.29166219520994E-08	3081546.5	5.18017695867456E-05
2	604	126.539492680518	0.525054931640625	0.525054931640625	1.739501953125E-07	9.13334048391334E-08	3018421.25	5.18192719027866E-05
2	605	126.640200680264	0.514984130859375	0.51495361328125	1.7547607421875E-07	9.03620360759305E-08	2934608.75	5.18368651682977E-05
2	606	126.74090868001	0.504913330078125	0.504913330078125	1.7547607421875E-07	8.86002098354766E-08	2877391.25	5.18545384693425E-05
2	607	126.841616679756	0.494842529296875	0.49481201171875	1.7547607421875E-07	8.68276686105673E-08	2819826	5.18722081324086E-05
2	608	126.942324679501	0.484771728515625	0.484771728515625	1.76086425781249E-07	8.53617194707113E-08	2753033	5.18899141752627E-05
2	609	127.043032679247	0.474700927734375	0.474761962890625	1.76391601562501E-07	8.37440197187789E-08	2691522.5	5.19076602358837E-05
2	610	127.143740678993	0.464630126953125	0.464599609375	1.76086425781249E-07	8.18096808075097E-08	2638475	5.19254099344835E-05
2	611	127.244448678739	0.454559326171875	0.45458984375	1.76391601562501E-07	8.01858277554857E-08	2577162.75	5.19431596330833E-05
2	612	127.345156678484	0.444488525390625	0.444488525390625	1.7669677734375E-07	7.85396849778408E-08	2515544	5.19609384355135E-05
2	613	127.44586467823	0.434417724609375	0.434417724609375	1.76086425781249E-07	7.64950627285543E-08	2467071.25	5.19787026860286E-05
2	614	127.546572677976	0.424346923828125	0.42437744140625	1.7578125E-07	7.45975938798438E-08	2414236.25	5.19964196428191E-05
2	615	127.647280677722	0.414276123046875	0.414215087890625	1.74560546874999E-07	7.23056103879571E-08	2372902.25	5.20140602020547E-05
2	616	127.747988677467	0.404205322265625	0.40423583984375	1.7364501953125E-07	7.01935434221923E-08	2327943.75	5.20315952599049E-05
2	617	127.848696677213	0.394134521484375	0.3941650390625	1.7242431640625E-07	6.79636329437017E-08	2286017.75	5.20490211783908E-05
2	618	127.949404676959	0.384063720703125	0.384033203125	1.71508789062499E-07	6.58650662899163E-08	2239146	5.20663379575126E-05
2	619	128.050112676705	0.373992919921875	0.373931884765625	1.69982910156249E-07	6.35620338584886E-08	2199820.5	5.20835346833337E-05
2	620	128.15082067645	0.363922119140625	0.363922119140625	1.690673828125E-07	6.15273592075027E-08	2152527.25	5.21006077178754E-05
2	621	128.251528676196	0.353851318359375	0.3538818359375	1.68457031249999E-07	5.96138818309555E-08	2100724.75	5.21176043548621E-05
2	622	128.352236675942	0.343780517578125	0.343780517578125	1.6754150390625E-07	5.75975036554155E-08	2051912.625	5.21345209563151E-05
2	623	128.452944675687	0.333709716796875	0.333709716796875	1.66931152343749E-07	5.57065433781645E-08	1999086	5.21513647981919E-05
2	624	128.553652675433	0.323638916015625	0.3236083984375	1.65405273437499E-07	5.35265343160063E-08	1956457.625	5.21680995007046E-05
2	625	128.654360675179	0.313568115234375	0.313568115234375	1.64184570312501E-07	5.14830453823834E-08	1909851.25	5.21846959600225E-05
2	626	128.755068674925	0.303497314453125	0.303466796875	1.629638671875E-07	4.94541190221298E-08	1862172.375	5.2201168728061E-05
2	627	128.85577667467	0.293426513671875	0.29345703125	1.6143798828125E-07	4.73751100571462E-08	1817769.5	5.22175032529049E-05
2	628	128.956484674416	0.283355712890625	0.283294677734375	1.59301757812499E-07	4.51293367120797E-08	1778352.625	5.22336522408295E-05
2	629	129.057192674162	0.273284912109375	0.273284912109375	1.5716552734375E-07	4.29509690036411E-08	1738834.875	5.22495865880046E-05
2	630	129.157900673908	0.263214111328125	0.263214111328125	1.544189453125E-07	4.06452436152449E-08	1704545.5	5.22652771905996E-05
2	631	129.258608673653	0.253143310546875	0.253143310546875	1.51977539062501E-07	3.84720948432005E-08	1665662.75	5.22807058587205E-05
2	632	129.359316673399	0.243072509765625	0.24310302734375	1.48620605468749E-07	3.61301175644257E-08	1635729	5.22958434885368E-05
2	633	129.460024673145	0.233001708984375	0.233123779296875	1.4495849609375E-07	3.37932704042032E-08	1608210.625	5.231062459643E-05
2	634	129.560732672891	0.222930908203125	0.222930908203125	1.41296386718751E-07	3.14993293670796E-08	1577753.875	5.23250382684637E-05
2	635	129.661440672636	0.212860107421875	0.21282958984375	1.38244628906251E-07	2.94225479535726E-08	1539514.375	5.23391172464471E-05
2	636	129.762148672382	0.202789306640625	0.20281982421875	1.33361816406249E-07	2.70484186160047E-08	1520823.875	5.2352792408783E-05
2	637	129.862856672128	0.192718505859375	0.192779541015625	1.2847900390625E-07	2.47681235521213E-08	1500475.125	5.23659764439799E-05
2	638	129.963564671874	0.182647705078125	0.18267822265625	1.2237548828125E-07	2.23553353606576E-08	1492768.125	5.23786075063981E-05
2	639	130.064272671619	0.172576904296875	0.172607421875	1.15356445312501E-07	1.99113774357329E-08	1496296.375	5.23905800946523E-05
2	640	130.164980671365	0.162506103515625	0.16253662109375	1.068115234375E-07	1.73607830333822E-08	1521714.375	5.24017668794841E-05
2	641	130.265688671111	0.152435302734375	0.1524658203125	9.64355468749997E-08	1.47031240516071E-08	1581012.75	5.24120005138684E-05
2	642	130.366396670856	0.142364501953125	0.142486572265625	8.30078124999995E-08	1.18274989802103E-08	1716544.125	5.24210372532252E-05
2	643	130.467104670602	0.132293701171875	0.13238525390625	6.65283203125006E-08	8.80736816810668E-09	1989908.375	5.24285642313771E-05
2	644	130.567812670348	0.122222900390625	0.122314453125	4.39453125000003E-08	5.37514699416874E-09	2783333.25	5.24341267009731E-05
2	645	130.668520670094	0.112152099609375	0.1121826171875	1.40380859374997E-08	1.57482915597029E-09	7991304.5	5.24370479979552E-05
2	646	130.769228669839	0.102081298828125	0.10211181640625	-2.62451171874997E-08	-2.67993649494258E-09	-3890697.75	5.24364331795368E-05
2	647	130.869936669585	0.092010498046875	0.092010498046875	-8.087158203125E-08	-7.44103445526889E-09	-1137735.875	5.24310380569659E-05
2	648	130.970644669331	0.081939697265625	0.08197021484375	-1.54724121093749E-07	-1.26827695012821E-08	-529783.0625	5.24191782460548E-05
2	649	131.071352669077	0.071868896484375	0.071868896484375	-2.53906249999999E-07	-1.82479613641817E-08	-283052.875	5.23986018379219E-05
2	650	131.172060668822	0.061798095703125	0.06182861328125	-3.8330078125E-07	-2.36989556867684E-08	-161305.734375	5.23665148648433E-05
2	651	131.272768668568	0.051727294921875	0.051788330078125	-5.474853515625E-07	-2.83533516665102E-08	-94593.0859375	5.23196467838716E-05
2	652	131.373476668314	0.041656494140625	0.0417633056640625	-7.45849609375E-07	-3.11491454851875E-08	-55994.2734375	5.2254519687267E-05
2	653	131.47418466806	0.031585693359375	0.0316680908203125	-9.74121093749999E-07	-3.08485539335379E-08	-32509.396484375	5.21679139637854E-05
2	654	131.574892667805	0.021514892578125	0.0215850830078125	-1.21551513671875E-06	-2.62369947989782E-08	-17757.970703125	5.20576577400789E-05
2	655	131.675600667551	0.011444091796875	0.011529541015625	-1.451416015625E-06	-1.6734158947429E-08	-7943.64990234375	5.19233653903939E-05
2	656	131.776308667297	0.001373291015625	0.0014495849609375	-1.6571044921875E-06	-2.40211361912657E-09	-874.769836425781	5.17668413522188E-05
2	657	131.877016667043	-0.008697509765625	-0.0085906982421875	-1.81488037109375E-06	1.55910893084865E-08	4733.47900390625	5.15920110046864E-05
2	658	131.977724666788	-0.018768310546875	-0.0186370849609375	-1.91131591796875E-06	3.56213583074805E-08	9750.9189453125	5.14043822477106E-05
2	659	132.078432666534	-0.028839111328125	-0.028692626953125	-1.94854736328125E-06	5.59089450291594E-08	14725.13671875	5.12100232299417E-05
2	660	132.17914066628	-0.038909912109375	-0.0387481689453125	-1.93756103515625E-06	7.50769331148149E-08	19998.42578125	5.10143399878871E-05
2	661	132.279848666025	-0.048980712890625	-0.048828125	-1.8914794921875E-06	9.23573963973467E-08	25814.779296875	5.08215343870688E-05
2	662	132.380556665771	-0.059051513671875	-0.059051513671875	-1.826171875E-06	1.078382112496E-07	32336.23046875	5.06343349115923E-05
2	663	132.481264665517	-0.069122314453125	-0.069091796875	-1.7529296875E-06	1.21113060913558E-07	39415.04296875	5.04541130794678E-05
2	664	132.581972665263	-0.079193115234375	-0.079132080078125	-1.6796875E-06	1.32917165274193E-07	47111.1953125	5.02812690683641E-05
2	665	132.682680665008	-0.089263916015625	-0.089202880859375	-1.60980224609375E-06	1.43598995805405E-07	55412.32421875	5.01156282552984E-05
2	666	132.783388664754	-0.099334716796875	-0.0992431640625	-1.5472412109375E-06	1.53553102677506E-07	64142.015625	4.99566594953649E-05
2	667	132.8840966645	-0.109405517578125	-0.1092529296875	-1.49200439453125E-06	1.63005850595255E-07	73225.609375	4.98036206408869E-05
2	668	132.984804664246	-0.119476318359375	-0.119354248046875	-1.44378662109375E-06	1.723220606209E-07	82667.515625	4.96557913720608E-05
2	669	133.085512663991	-0.129547119140625	-0.12945556640625	-1.4019775390625E-06	1.8149380309751E-07	92337.828125	4.95124950248282E-05
2	670	133.186220663737	-0.139617919921875	-0.139556884765625	-1.365966796875E-06	1.90630075280751E-07	102167.1171875	4.93731204187497E-05
2	671	133.286928663483	-0.149688720703125	-0.149658203125	-1.3360595703125E-06	1.99952268076231E-07	112014.6171875	4.92370600113645E-05
2	672	133.387636663229	-0.159759521484375	-0.15966796875	-1.3104248046875E-06	2.09232851489105E-07	121844.4375	4.91038008476608E-05
2	673	133.488344662974	-0.169830322265625	-0.169647216796875	-1.2896728515625E-06	2.18789409700548E-07	131542.828125	4.89728736283723E-05
2	674	133.58905266272	-0.179901123046875	-0.179718017578125	-1.27227783203125E-06	2.28651245492983E-07	141256.890625	4.88438708998729E-05
2	675	133.689760662466	-0.189971923828125	-0.18988037109375	-1.2591552734375E-06	2.39088876696769E-07	150799.8125	4.871640339843E-05
2	676	133.790468662212	-0.200042724609375	-0.199951171875	-1.24847412109375E-06	2.49633842486219E-07	160156.453125	4.85901327920146E-05
2	677	133.891176661957	-0.189971923828125	-0.1898193359375	-1.08917236328125E-06	2.06745966124799E-07	174278.515625	4.84724223497324E-05
