Potential - Start -0.2 V, Upper Vertex 1.5 V, Lower Vertex -0.2 V, Stop -0.19 V; Scan - # end cross 5, Rate 0.1 Vps, Step 0.01 V 
Scan	Index	Time (s)	Potential applied (V)	WE(1).Potential (V)	WE(1).Current (A)	WE(1).Power (W)	WE(1).Resistance (Ω)	WE(1).Charge (C)
1	1	36.4310329080205	-0.189971923828125	-0.1898193359375	-2.02026367187499E-07	3.83485101451697E-08	939577.0625	0
1	2	36.5317409077662	-0.179901123046875	-0.179840087890625	-1.678466796875E-07	3.01855607176549E-08	1071454.5	-1.86245863176282E-08
1	3	36.632448907512	-0.169830322265625	-0.169647216796875	-1.41296386718751E-07	2.39705375548738E-08	1200648	-3.41911778889425E-08
1	4	36.7331569072577	-0.159759521484375	-0.15966796875	-1.190185546875E-07	1.90034494806923E-08	1341538.5	-4.72990748789925E-08
1	5	36.8338649070034	-0.149688720703125	-0.149566650390625	-1.00097656250001E-07	1.49712704455851E-08	1494207.375	-5.8332453534149E-08
1	6	36.9345729067492	-0.139617919921875	-0.13946533203125	-8.27026367187497E-08	1.15341505235733E-08	1686346.875	-6.75371794045532E-08
1	7	37.0352809064949	-0.129547119140625	-0.129486083984375	-6.59179687499997E-08	8.53545945034284E-09	1964351.875	-7.50208215549719E-08
1	8	37.1359889062406	-0.119476318359375	-0.119415283203125	-5.06591796874997E-08	6.0494800280253E-09	2357229	-8.08909419447446E-08
1	9	37.2366969059864	-0.109405517578125	-0.1092529296875	-3.60107421875006E-08	3.93427912470656E-09	3033898.25	-8.52551238494925E-08
1	10	37.3374049057321	-0.099334716796875	-0.099273681640625	-2.01416015624997E-08	1.99953076318593E-09	4928788	-8.80826149796121E-08
1	11	37.4381129054779	-0.089263916015625	-0.089141845703125	-3.66210937499945E-09	3.26447174847644E-10	24341668	-8.92812295205658E-08
1	12	37.5388209052236	-0.079193115234375	-0.079132080078125	1.43432617187494E-08	-1.13501208431899E-09	-5517021.5	-8.87433913021596E-08
1	13	37.6395289049693	-0.069122314453125	-0.069091796875	3.509521484375E-08	-2.42479147871677E-09	-1968695.625	-8.62539621948599E-08
1	14	37.7402369047151	-0.059051513671875	-0.058990478515625	6.01196289062494E-08	-3.54648532763235E-09	-981218.3125	-8.14595182418998E-08
1	15	37.8409449044608	-0.048980712890625	-0.048834228515625	9.1552734375E-08	-4.47090720001597E-09	-533400	-7.38222070140182E-08
1	16	37.9416529042065	-0.038909912109375	-0.0387603759765625	1.3275146484375E-07	-5.14549647334661E-09	-291977	-6.25275902166322E-08
1	17	38.0423609039523	-0.028839111328125	-0.0287078857421875	1.87072753906251E-07	-5.37046318527246E-09	-153458.40625	-4.64231639796253E-08
1	18	38.143068903698	-0.018768310546875	-0.01866455078125	2.61535644531249E-07	-4.88144502597265E-09	-71365.2265625	-2.38339392666376E-08
1	19	38.2437769034437	-0.008697509765625	-0.008587646484375	3.60717773437499E-07	-3.0977165277335E-09	-23807.107421875	7.49900852525798E-09
1	20	38.3444849031895	0.001373291015625	0.0014678955078125	4.9163818359375E-07	7.21673443226933E-10	2985.72314453125	5.0418538677377E-08
1	21	38.4451929029352	0.011444091796875	0.011566162109375	6.6070556640625E-07	7.64182761514576E-09	17505.7734375	1.08443657609314E-07
1	22	38.545900902681	0.021514892578125	0.02161865234375	8.685302734375E-07	1.87764541692559E-08	24891.076171875	1.85446793921074E-07
1	23	38.6466089024267	0.031585693359375	0.031671142578125	1.10931396484375E-06	3.51332438697227E-08	28550.20703125	2.85039163827605E-07
1	24	38.7473169021724	0.041656494140625	0.04176025390625	1.36871337890625E-06	5.71578198105271E-08	30510.591796875	4.09817744184693E-07
1	25	38.8480249019182	0.051727294921875	0.051788330078125	1.622314453125E-06	8.4016953394439E-08	31922.5	5.60427963591792E-07
1	26	38.9487329016639	0.061798095703125	0.06182861328125	1.8463134765625E-06	1.14155000119354E-07	33487.6015625	7.35087269276846E-07
1	27	39.0494409014096	0.071868896484375	0.071929931640625	2.017822265625E-06	1.45141811458416E-07	35647.30859375	9.29661950976879E-07
1	28	39.1501489011554	0.081939697265625	0.08203125	2.12554931640625E-06	1.74361474591933E-07	38592.96484375	1.13829730707948E-06
1	29	39.2508569009011	0.092010498046875	0.092071533203125	2.169189453125E-06	1.99720602722664E-07	42445.1328125	1.35455456984346E-06
1	30	39.3515649006468	0.102081298828125	0.10211181640625	2.16094970703125E-06	2.20658492366965E-07	47253.21484375	1.57259432853607E-06
1	31	39.4522729003926	0.112152099609375	0.1121826171875	2.11578369140625E-06	2.3735414345083E-07	53021.78125	1.78794505245605E-06
1	32	39.5529809001383	0.122222900390625	0.12225341796875	2.0501708984375E-06	2.50640397325697E-07	59630.84375	1.99771739062271E-06
1	33	39.6536888998841	0.132293701171875	0.13232421875	1.97357177734375E-06	2.61151342328958E-07	67048.09375	2.2003289359418E-06
1	34	39.7543968996298	0.142364501953125	0.14239501953125	1.89544677734375E-06	2.69902187710613E-07	75124.78125	2.39514952227182E-06
1	35	39.8551048993755	0.152435302734375	0.15252685546875	1.8194580078125E-06	2.77516193136762E-07	83830.9375	2.58220984505897E-06
1	36	39.9558128991213	0.162506103515625	0.162506103515625	1.7486572265625E-06	2.84167469999375E-07	92931.9375	2.76187870440481E-06
1	37	40.056520898867	0.172576904296875	0.172607421875	1.6839599609375E-06	2.90663990654139E-07	102500.90625	2.93472476187162E-06
1	38	40.1572288986127	0.182647705078125	0.18267822265625	1.6259765625E-06	2.97030510409968E-07	112349.8515625	3.10139330395032E-06
1	39	40.2579368983585	0.192718505859375	0.192779541015625	1.573486328125E-06	3.03335980333941E-07	122517.453125	3.26249892168562E-06
1	40	40.3586448981042	0.202789306640625	0.20281982421875	1.52618408203125E-06	3.09540382659179E-07	132893.421875	3.4185798085673E-06
1	41	40.45935289785	0.212860107421875	0.212860107421875	1.48468017578125E-06	3.16029172608978E-07	143371.015625	3.57018893737404E-06
1	42	40.5600608975957	0.222930908203125	0.222930908203125	1.4471435546875E-06	3.22613004755112E-07	154048.921875	3.71781788999215E-06
1	43	40.6607688973414	0.233001708984375	0.23297119140625	1.41387939453125E-06	3.29393145648282E-07	164774.453125	3.86188185075298E-06
1	44	40.7614768970872	0.243072509765625	0.243072509765625	1.38397216796875E-06	3.36405577172627E-07	175633.953125	4.00276485379436E-06
1	45	40.8621848968329	0.253143310546875	0.25311279296875	1.3568115234375E-06	3.43426336257835E-07	186549.71875	4.14077430832549E-06
1	46	40.9628928965786	0.263214111328125	0.26318359375	1.3323974609375E-06	3.50665146697793E-07	197526.34375	4.27618670073571E-06
1	47	41.0636008963244	0.273284912109375	0.2733154296875	1.309814453125E-06	3.57992462340917E-07	208667.296875	4.40923258793191E-06
1	48	41.1643088960701	0.283355712890625	0.283355712890625	1.2896728515625E-06	3.65436164884159E-07	219711.3125	4.54012706541107E-06
1	49	41.2650168958158	0.293426513671875	0.293426513671875	1.2713623046875E-06	3.73051392443813E-07	230796.921875	4.66908568341751E-06
1	50	41.3657248955616	0.303497314453125	0.303497314453125	1.25457763671875E-06	3.80760923235357E-07	241911.953125	4.79627669847105E-06
1	51	41.4664328953073	0.313568115234375	0.3135986328125	1.23931884765625E-06	3.88648714988449E-07	253041.125	4.92185426992364E-06
1	52	41.5671408950531	0.323638916015625	0.323699951171875	1.22528076171875E-06	3.96623306642141E-07	264184.3125	5.04595709571731E-06
1	53	41.6678488947988	0.333709716796875	0.333770751953125	1.2127685546875E-06	4.0478667528987E-07	275213.90625	5.16872250955203E-06
1	54	41.7685568945445	0.343780517578125	0.343780517578125	1.20147705078125E-06	4.13044404012908E-07	286131.5625	5.2902892093698E-06
1	55	41.8692648942903	0.353851318359375	0.35382080078125	1.19140625E-06	4.21544314122002E-07	296977.46875	5.41078043170273E-06
1	56	41.969972894036	0.363922119140625	0.363922119140625	1.18194580078125E-06	4.30136225304523E-07	307900.84375	5.53028849026305E-06
1	57	42.0706808937817	0.373992919921875	0.374053955078125	1.17431640625E-06	4.39257689777151E-07	318529.125	5.64893571208813E-06
1	58	42.1713888935275	0.384063720703125	0.384063720703125	1.16729736328125E-06	4.48316569645613E-07	329019.625	5.76684533371008E-06
1	59	42.2720968932732	0.394134521484375	0.39410400390625	1.16119384765625E-06	4.57631131212111E-07	339395.53125	5.88409420743119E-06
1	60	42.372804893019	0.404205322265625	0.404266357421875	1.15570068359375E-06	4.67210867327594E-07	349801.96875	6.00075918555376E-06
1	61	42.4735128927647	0.414276123046875	0.414337158203125	1.1517333984375E-06	4.77205958304694E-07	359750.9375	6.1169475884526E-06
1	62	42.5742208925104	0.424346923828125	0.424285888671875	1.14837646484375E-06	4.87239901758585E-07	369465.84375	6.23276719124988E-06
1	63	42.6749288922562	0.434417724609375	0.434417724609375	1.146240234375E-06	4.97947041822044E-07	378993.625	6.34831030765781E-06
1	64	42.7756368920019	0.444488525390625	0.444427490234375	1.14501953125E-06	5.08878144955816E-07	388139.65625	6.46368425805122E-06
1	65	42.8763448917476	0.454559326171875	0.454559326171875	1.143798828125E-06	5.19924412856199E-07	397411.9375	6.57893542665988E-06
1	66	42.9770528914934	0.464630126953125	0.464599609375	1.143798828125E-06	5.31408488768648E-07	406189.96875	6.69412520437618E-06
1	67	43.0777608912391	0.474700927734375	0.474700927734375	1.14410400390625E-06	5.43107205430715E-07	414910.65625	6.8093304435024E-06
1	68	43.1784688909848	0.484771728515625	0.484771728515625	1.14501953125E-06	5.55073086161428E-07	423374.21875	6.924597073521E-06
1	69	43.2791768907306	0.494842529296875	0.49481201171875	1.1468505859375E-06	5.67475410662155E-07	431452.90625	7.04000149198691E-06
1	70	43.3798848904763	0.504913330078125	0.504913330078125	1.14959716796875E-06	5.80446908315935E-07	439208.9375	7.15563692210708E-06
1	71	43.4805928902221	0.514984130859375	0.514923095703125	1.15325927734375E-06	5.93839843077149E-07	446493.78125	7.27159522284637E-06
1	72	43.5813008899678	0.525054931640625	0.52508544921875	1.1578369140625E-06	6.07963329457561E-07	453505.53125	7.38796779842232E-06
1	73	43.6820088897135	0.535125732421875	0.53515625	1.163330078125E-06	6.22563334218285E-07	460021	7.50484787204186E-06
1	74	43.7827168894593	0.545196533203125	0.545135498046875	1.17095947265625E-06	6.38331528080016E-07	465546.03125	7.62238869356224E-06
1	75	43.883424889205	0.555267333984375	0.555267333984375	1.18011474609375E-06	6.55279166039691E-07	470519.78125	7.74077489040792E-06
1	76	43.9841328889507	0.565338134765625	0.565338134765625	1.19110107421875E-06	6.73374870530097E-07	474634.875	7.86017517384607E-06
1	77	44.0848408886965	0.575408935546875	0.575408935546875	1.20452880859375E-06	6.93096637860435E-07	477704.59375	7.98080418462632E-06
1	78	44.1855488884422	0.585479736328125	0.585418701171875	1.22222900390625E-06	7.15515739102557E-07	478976.28125	8.10300116427243E-06
1	79	44.2862568881879	0.595550537109375	0.59552001953125	1.246337890625E-06	7.42219185667636E-07	477815.875	8.22730362415314E-06
1	80	44.3869648879337	0.605621337890625	0.605560302734375	1.278076171875E-06	7.73952194776939E-07	473806.09375	8.35441824165173E-06
1	81	44.4876728876794	0.615692138671875	0.61566162109375	1.32080078125E-06	8.13166309399094E-07	466127.5625	8.48528179631103E-06
1	82	44.5883808874252	0.625762939453125	0.625732421875	1.38153076171875E-06	8.64468574945931E-07	452926.875	8.62135493662208E-06
1	83	44.6890888871709	0.635833740234375	0.63580322265625	1.4666748046875E-06	9.3251657062865E-07	433499.78125	8.76477406563936E-06
1	84	44.7897968869166	0.645904541015625	0.645843505859375	1.58477783203125E-06	1.02351850728155E-06	407529.375	8.91842682904098E-06
1	85	44.8905048866624	0.655975341796875	0.655914306640625	1.74530029296875E-06	1.14476733870106E-06	375817.46875	9.08610945771215E-06
1	86	44.9912128864081	0.666046142578125	0.666015625	1.9573974609375E-06	1.303657313656E-06	340255.6875	9.2725549620809E-06
1	87	45.0919208861538	0.676116943359375	0.676055908203125	2.22320556640625E-06	1.50301116264018E-06	304090.625	9.48306478676386E-06
1	88	45.1926288858996	0.686187744140625	0.686065673828125	2.5396728515625E-06	1.74238232375501E-06	270139.40625	9.72289490164258E-06
1	89	45.2933368856453	0.696258544921875	0.696197509765625	2.89276123046875E-06	2.0139329990343E-06	240668.859375	9.99643998511601E-06
1	90	45.3940448853911	0.706329345703125	0.706268310546875	3.258056640625E-06	2.30106206799974E-06	216775.953125	1.03061584013631E-05
1	91	45.4947528851368	0.716400146484375	0.716339111328125	3.6004638671875E-06	2.57915303336631E-06	198957.453125	1.06515117295203E-05
1	92	45.5954608848825	0.726470947265625	0.72637939453125	3.88824462890625E-06	2.82434075415949E-06	186814.234375	1.10285982373171E-05
1	93	45.6961688846283	0.736541748046875	0.736419677734375	4.09637451171875E-06	3.01665090773895E-06	179773.515625	1.14306558316457E-05
1	94	45.796876884374	0.746612548828125	0.74652099609375	4.21661376953125E-06	3.14779072141391E-06	177042.765625	1.18492480396526E-05
1	95	45.8975848841197	0.756683349609375	0.7568359375	4.2547607421875E-06	3.22015580422885E-06	177879.78125	1.22758156066993E-05
1	96	45.9982928838655	0.766754150390625	0.7672119140625	4.23248291015625E-06	3.24721122524352E-06	181267.578125	1.27031826195889E-05
1	97	46.0990008836112	0.776824951171875	0.77667236328125	4.17388916015625E-06	3.24174425259116E-06	186078.828125	1.3126476915204E-05
1	98	46.1997088833569	0.786895751953125	0.787353515625	4.10308837890625E-06	3.2305811146216E-06	191892.890625	1.35432555907755E-05
1	99	46.3004168831027	0.796966552734375	0.79681396484375	4.04022216796875E-06	3.21930519930902E-06	197220.34375	1.39533040055539E-05
1	100	46.4011248828484	0.807037353515625	0.80657958984375	4.000244140625E-06	3.22651521855732E-06	201632.59375	1.43581737575005E-05
1	101	46.5018328825942	0.817108154296875	0.81695556640625	3.995361328125E-06	3.26403255712648E-06	204476.03125	1.47607843246078E-05
1	102	46.6025408823399	0.827178955078125	0.82733154296875	4.03778076171875E-06	3.34058336193266E-06	204897.578125	1.51652848217054E-05
1	103	46.7032488820856	0.837249755859375	0.83740234375	4.132080078125E-06	3.46021352015669E-06	202658.796875	1.55766701936955E-05
1	104	46.8039568818314	0.847320556640625	0.84747314453125	4.2816162109375E-06	3.62855462299194E-06	197933.015625	1.60003328346647E-05
1	105	46.9046648815771	0.857391357421875	0.85723876953125	4.47784423828125E-06	3.83858150598826E-06	191440.078125	1.64414068422047E-05
1	106	47.0053728813228	0.867462158203125	0.8673095703125	4.70794677734375E-06	4.08324694944895E-06	184222.46875	1.69039485626854E-05
1	107	47.1060808810686	0.877532958984375	0.8770751953125	4.94384765625E-06	4.33612603956135E-06	177407.40625	1.73899552464718E-05
1	108	47.2067888808143	0.887603759765625	0.887451171875	5.1605224609375E-06	4.57971191281104E-06	171969.25	1.78987502295058E-05
1	109	47.3074968805601	0.897674560546875	0.8978271484375	5.328369140625E-06	4.78395440950408E-06	168499.4375	1.84269083547406E-05
1	110	47.4082048803058	0.907745361328125	0.90728759765625	5.4351806640625E-06	4.93127163281315E-06	166928.703125	1.89688962564105E-05
1	111	47.5089128800515	0.917816162109375	0.91766357421875	5.474853515625E-06	5.02407374369795E-06	167614.265625	1.95182601601118E-05
1	112	47.6096208797973	0.927886962890625	0.92803955078125	5.46875E-06	5.0752159950207E-06	169698.671875	2.0069313904969E-05
1	113	47.710328879543	0.937957763671875	0.9381103515625	5.43212890625E-06	5.09593610331649E-06	172696.640625	2.06182176043512E-05
1	114	47.8110368792887	0.948028564453125	0.9478759765625	5.38330078125E-06	5.10270137965563E-06	176077.109375	2.11628175748046E-05
1	115	47.9117448790345	0.958099365234375	0.95855712890625	5.3497314453125E-06	5.12802307639504E-06	179178.546875	2.17032684304286E-05
1	116	48.0124528787802	0.968170166015625	0.96832275390625	5.352783203125E-06	5.18322121934034E-06	180900.8125	2.22421822400065E-05
1	117	48.1131608785259	0.978240966796875	0.9783935546875	5.4046630859375E-06	5.28788768860977E-06	181027.671875	2.27838627324672E-05
1	118	48.2138688782717	0.988311767578125	0.98876953125	5.5267333984375E-06	5.46466526429867E-06	178906.6875	2.3334301658906E-05
1	119	48.3145768780174	0.998382568359375	0.99822998046875	5.731201171875E-06	5.72105636820197E-06	174174.65625	2.39011842495529E-05
1	120	48.4152848777632	1.00845336914063	1.00830078125	6.024169921875E-06	6.07417496212292E-06	167375.890625	2.44931143242866E-05
1	121	48.5159928775089	1.01852416992188	1.01898193359375	6.396484375E-06	6.51790196570801E-06	159303.4375	2.51185447268654E-05
1	122	48.6167008772546	1.02859497070313	1.0284423828125	6.8206787109375E-06	7.01467479302664E-06	150783	2.57840802078135E-05
1	123	48.7174088770004	1.03866577148438	1.03790283203125	7.2662353515625E-06	7.5416460276756E-06	142839.140625	2.64934133156203E-05
1	124	48.8181168767461	1.04873657226563	1.048583984375	7.684326171875E-06	8.05766103439964E-06	136457.5	2.7246234822087E-05
1	125	48.9188248764918	1.05880737304688	1.05865478515625	8.0352783203125E-06	8.50658580020536E-06	131750.859375	2.80377789749764E-05
1	126	49.0195328762376	1.06887817382813	1.06903076171875	8.2763671875E-06	8.84769087861059E-06	129166.6640625	2.88591363641899E-05
1	127	49.1202408759833	1.07894897460938	1.0791015625	8.392333984375E-06	9.05618071556091E-06	128581.8125	2.96984708256787E-05
1	128	49.2209488757291	1.08901977539063	1.08917236328125	8.38623046875E-06	9.13405074243201E-06	129876.2734375	3.0543338652933E-05
1	129	49.3216568754748	1.09909057617188	1.09893798828125	8.2855224609375E-06	9.10527523956262E-06	132633.515625	3.13828277285211E-05
1	130	49.4223648752205	1.10916137695313	1.109619140625	8.1146240234375E-06	9.00414124771487E-06	136743.140625	3.22086416417733E-05
1	131	49.5230728749663	1.11923217773438	1.11907958984375	7.9132080078125E-06	8.85550980456173E-06	141419.203125	3.30157054122537E-05
1	132	49.623780874712	1.12930297851563	1.1297607421875	7.6995849609375E-06	8.69868836161913E-06	146730.09375	3.38018726324663E-05
1	133	49.7244888744577	1.13937377929688	1.13983154296875	7.4920654296875E-06	8.53969231684459E-06	152138.5	3.45668340742122E-05
1	134	49.8251968742035	1.14944458007813	1.14990234375	7.293701171875E-06	8.38704363559373E-06	157656.90625	3.531135735102E-05
1	135	49.9259048739492	1.15951538085938	1.15997314453125	7.1136474609375E-06	8.25163988338318E-06	163063.0625	3.60368248948362E-05
1	136	50.0266128736949	1.16958618164063	1.16973876953125	6.951904296875E-06	8.13191218185239E-06	168261.640625	3.6745081160916E-05
1	137	50.1273208734407	1.17965698242188	1.1798095703125	6.8023681640625E-06	8.02549857326085E-06	173441.015625	3.74376650142949E-05
1	138	50.2280288731864	1.18972778320313	1.18927001953125	6.6680908203125E-06	7.9301598816528E-06	178352.40625	3.81159552489407E-05
1	139	50.3287368729322	1.19979858398438	1.1993408203125	6.549072265625E-06	7.85456995799905E-06	183131.40625	3.87814907298889E-05
1	140	50.4294448726779	1.20986938476563	1.209716796875	6.439208984375E-06	7.78961930336663E-06	187867.296875	3.9435504731955E-05
1	141	50.5301528724236	1.21994018554688	1.21978759765625	6.341552734375E-06	7.73534702602774E-06	192348.40625	4.00790668209083E-05
1	142	50.6308608721694	1.23001098632813	1.23016357421875	6.25E-06	7.68852169130696E-06	196826.171875	4.07131010433659E-05
1	143	50.7315688719151	1.24008178710938	1.2396240234375	6.170654296875E-06	7.64929154684069E-06	200890.21875	4.13385314459447E-05
1	144	50.8322768716608	1.25015258789063	1.25030517578125	6.0943603515625E-06	7.61981027608272E-06	205157.734375	4.19561220041942E-05
1	145	50.9329848714066	1.26022338867188	1.259765625	6.0272216796875E-06	7.59288650442613E-06	209012.671875	4.25664948124904E-05
1	146	51.0336928711523	1.27029418945313	1.270751953125	5.9661865234375E-06	7.58154328650562E-06	212992.328125	4.31704102084041E-05
1	147	51.134400870898	1.28036499023438	1.280517578125	5.9112548828125E-06	7.56946565161343E-06	216623.640625	4.37684866483323E-05
1	148	51.2351088706438	1.29043579101563	1.290283203125	5.859375E-06	7.56025337977917E-06	220208.328125	4.43611861555837E-05
1	149	51.3358168703895	1.30050659179688	1.300048828125	5.810546875E-06	7.55399423724157E-06	223739.515625	4.49488106823992E-05
1	150	51.4365248701353	1.31057739257813	1.31072998046875	5.767822265625E-06	7.56005738367094E-06	227248.6875	4.55318295280449E-05
1	151	51.537232869881	1.32064819335938	1.32049560546875	5.7281494140625E-06	7.56399549572961E-06	230527.453125	4.61106974398717E-05
1	152	51.6379408696267	1.33071899414063	1.33087158203125	5.694580078125E-06	7.57875477574999E-06	233708.46875	4.66858764411882E-05
1	153	51.7386488693725	1.34078979492188	1.34063720703125	5.6610107421875E-06	7.58936130296206E-06	236819.40625	4.72576757601928E-05
1	154	51.8393568691182	1.35086059570313	1.35101318359375	5.633544921875E-06	7.61099317969638E-06	239815.828125	4.78264009871054E-05
1	155	51.9400648688639	1.36093139648438	1.36138916015625	5.609130859375E-06	7.63620937505038E-06	242709.46875	4.83925177832134E-05
1	156	52.0407728686097	1.37100219726563	1.370849609375	5.584716796875E-06	7.65580716688419E-06	245464.484375	4.8956171667669E-05
1	157	52.1414808683554	1.38107299804688	1.3812255859375	5.56640625E-06	7.68846257415134E-06	248135.984375	4.95176755066495E-05
1	158	52.2421888681012	1.39114379882813	1.3909912109375	5.548095703125E-06	7.71735176385846E-06	250715.078125	5.00773348903749E-05
1	159	52.3428968678469	1.40121459960938	1.40106201171875	5.535888671875E-06	7.75612352299504E-06	253087.09375	5.06354590470437E-05
1	160	52.4436048675926	1.41128540039063	1.4117431640625	5.523681640625E-06	7.79801939643221E-06	255580.125	5.11923499288969E-05
1	161	52.5443128673384	1.42135620117188	1.42120361328125	5.5145263671875E-06	7.83726409281371E-06	257720	5.1748167607002E-05
1	162	52.6450208670841	1.43142700195313	1.43157958984375	5.5084228515625E-06	7.88574561738642E-06	259889.203125	5.23032176715788E-05
1	163	52.7457288668298	1.44149780273438	1.441650390625	5.5023193359375E-06	7.93242088548141E-06	262007.765625	5.28576529177371E-05
1	164	52.8464368665756	1.45156860351563	1.451416015625	5.5023193359375E-06	7.98615474195685E-06	263782.59375	5.34117825736757E-05
1	165	52.9471448663213	1.46163940429688	1.46148681640625	5.50537109375E-06	8.04602677817456E-06	265465.625	5.39660613867454E-05
1	166	53.047852866067	1.47171020507813	1.47186279296875	5.511474609375E-06	8.11213431006763E-06	267054.25	5.45208058611024E-05
1	167	53.1485608658128	1.48178100585938	1.48162841796875	5.5267333984375E-06	8.18856551632052E-06	268083.9375	5.50766235392075E-05
1	168	53.2492688655585	1.49185180664063	1.49139404296875	5.55419921875E-06	8.28349948278628E-06	268516.5	5.56345912627876E-05
1	169	53.3499768653043	1.50192260742188	1.50177001953125	5.5938720703125E-06	8.40070879348787E-06	268467	5.61959423066583E-05
1	170	53.45068486505	1.49185180664063	1.4923095703125	5.328369140625E-06	7.95157575339545E-06	280068.75	5.6745921028778E-05
1	171	53.5513928647957	1.48178100585938	1.48193359375	5.133056640625E-06	7.60684906708775E-06	288703.9375	5.7272696722066E-05
1	172	53.6521008645415	1.47171020507813	1.4715576171875	4.98046875E-06	7.32904618416796E-06	295465.6875	5.77819519094191E-05
1	173	53.7528088642872	1.46163940429688	1.4617919921875	4.85443115234375E-06	7.09616870153695E-06	301125.28125	5.82771790504921E-05
1	174	53.8535168640329	1.45156860351563	1.4520263671875	4.749755859375E-06	6.89677017362555E-06	305705.5	5.87607864872552E-05
1	175	53.9542248637787	1.44149780273438	1.44195556640625	4.6588134765625E-06	6.71780207994743E-06	309511.34375	5.92345459153876E-05
1	176	54.0549328635244	1.43142700195313	1.4312744140625	4.57977294921875E-06	6.5549115788599E-06	312520.84375	5.96997451793868E-05
1	177	54.1556408632702	1.42135620117188	1.42181396484375	4.50927734375E-06	6.4113528424059E-06	315308.625	6.01574174652342E-05
1	178	54.2563488630159	1.41128540039063	1.41143798828125	4.44549560546875E-06	6.27454119239701E-06	317498.46875	6.06083231105004E-05
1	179	54.3570568627616	1.40121459960938	1.40106201171875	4.38690185546875E-06	6.14632153883576E-06	319373.90625	6.10530696576461E-05
1	180	54.4577648625074	1.39114379882813	1.39129638671875	4.332275390625E-06	6.0274787756498E-06	321146.8125	6.14921154920012E-05
1	181	54.5584728622531	1.38107299804688	1.38092041015625	4.28253173828125E-06	5.91383559367387E-06	322454.21875	6.19259080849588E-05
1	182	54.6591808619988	1.37100219726563	1.37115478515625	4.23553466796875E-06	5.80757341595017E-06	323726.5	6.23548257863149E-05
1	183	54.7598888617446	1.36093139648438	1.3604736328125	4.19189453125E-06	5.70296151636285E-06	324548.65625	6.27791814622469E-05
1	184	54.8605968614903	1.35086059570313	1.3507080078125	4.15008544921875E-06	5.60555326956091E-06	325465.125	6.31992297712713E-05
1	185	54.961304861236	1.34078979492188	1.34063720703125	4.11102294921875E-06	5.51139009985491E-06	326107.9375	6.36152108199894E-05
1	186	55.0620128609818	1.33071899414063	1.33056640625	4.07257080078125E-06	5.41882582183462E-06	326714.125	6.40272919554263E-05
1	187	55.1627208607275	1.32064819335938	1.32049560546875	4.03656005859375E-06	5.33025968252332E-06	327133.90625	6.44356186967343E-05
1	188	55.2634288604733	1.31057739257813	1.3104248046875	4.002685546875E-06	5.24521828992874E-06	327386.40625	6.4840423874557E-05
1	189	55.364136860219	1.30050659179688	1.3006591796875	3.96942138671875E-06	5.16286445417791E-06	327669.71875	6.52418530080467E-05
1	190	55.4648448599647	1.29043579101563	1.2908935546875	3.93829345703125E-06	5.08391758557991E-06	327779.9375	6.56400370644405E-05
1	191	55.5655528597105	1.28036499023438	1.280517578125	3.9080810546875E-06	5.00436635775259E-06	327658.90625	6.60351361148059E-05
1	192	55.6662608594562	1.27029418945313	1.2701416015625	3.8787841796875E-06	4.92660501549835E-06	327458.71875	6.64272301946767E-05
1	193	55.7669688592019	1.26022338867188	1.2603759765625	3.8507080078125E-06	4.85333976030233E-06	327310.21875	6.68164429953322E-05
1	194	55.8676768589477	1.25015258789063	1.25030517578125	3.82293701171875E-06	4.7798375817365E-06	327053.59375	6.7202840000391E-05
1	195	55.9683848586934	1.24008178710938	1.2396240234375	3.79608154296875E-06	4.70571376354201E-06	326553.59375	6.75864866934717E-05
1	196	56.0690928584391	1.23001098632813	1.23046875	3.7689208984375E-06	4.63753940493916E-06	326477.75	6.79674194543622E-05
1	197	56.1698008581849	1.21994018554688	1.21978759765625	3.74176025390625E-06	4.56415273220045E-06	325993	6.83456091792323E-05
1	198	56.2705088579306	1.20986938476563	1.209716796875	3.71368408203125E-06	4.49250592282624E-06	325745.75	6.87210194882937E-05
1	199	56.3712168576764	1.19979858398438	1.1993408203125	3.68408203125E-06	4.41846987087047E-06	325546.71875	6.9093526690267E-05
1	200	56.4719248574221	1.18972778320313	1.1895751953125	3.65234375E-06	4.34473713539774E-06	325701.875	6.9462948886212E-05
1	201	56.5726328571678	1.17965698242188	1.17950439453125	3.616943359375E-06	4.26620044891024E-06	326105.3125	6.98289877618663E-05
1	202	56.6733408569136	1.16958618164063	1.16973876953125	3.57574462890625E-06	4.18268700741464E-06	327131.53125	7.01911631040275E-05
1	203	56.7740488566593	1.15951538085938	1.1602783203125	3.52783203125E-06	4.09326685257838E-06	328892.75	7.05488564562984E-05
1	204	56.874756856405	1.14944458007813	1.14898681640625	3.4674072265625E-06	3.98400516132824E-06	331367.71875	7.09011001163162E-05
1	205	56.9754648561508	1.13937377929688	1.13922119140625	3.39141845703125E-06	3.86357578463503E-06	335912.90625	7.12464679963887E-05
1	206	57.0761728558965	1.12930297851563	1.12945556640625	3.29254150390625E-06	3.71877922589192E-06	343034.59375	7.1583031967748E-05
1	207	57.1768808556423	1.11923217773438	1.119384765625	3.16131591796875E-06	3.53872883351869E-06	354088.25	7.19080126145855E-05
1	208	57.277588855388	1.10916137695313	1.1090087890625	2.98828125E-06	3.31403020936705E-06	371119.28125	7.22176628187299E-05
1	209	57.3782968551337	1.09909057617188	1.0992431640625	2.75909423828125E-06	3.03291517411708E-06	398407.28125	7.25070713087916E-05
1	210	57.4790048548795	1.08901977539063	1.08917236328125	2.46337890625E-06	2.68304415840248E-06	442145.6875	7.27700389688835E-05
1	211	57.5797128546252	1.07894897460938	1.0784912109375	2.0928955078125E-06	2.25716939894482E-06	515310.5625	7.29994717403315E-05
1	212	57.6804208543709	1.06887817382813	1.0687255859375	1.64886474609375E-06	1.76218384240201E-06	648158.4375	7.31878826627508E-05
1	213	57.7811288541167	1.05880737304688	1.05926513671875	1.14349365234375E-06	1.21126288377127E-06	926341.125	7.33284905436449E-05
1	214	57.8818368538624	1.04873657226563	1.04888916015625	6.0302734375E-07	6.32508829312428E-07	1739372.5	7.34164350433275E-05
1	215	57.9825448536081	1.03866577148438	1.03851318359375	6.80541992187506E-08	7.06751848156273E-08	15260090	7.34502245904878E-05
1	216	58.0832528533539	1.02859497070313	1.02874755859375	-4.2236328125E-07	-4.34505182056455E-07	-2435693.75	7.34323839424178E-05
1	217	58.1839608530996	1.01852416992188	1.0186767578125	-8.23364257812501E-07	-8.38742039377394E-07	-1237212.75	7.33696579118259E-05
1	218	58.2846688528454	1.00845336914063	1.00830078125	-1.1090087890625E-06	-1.11821441350912E-06	-909191	7.32723492546938E-05
1	219	58.3853768525911	0.998382568359375	0.99884033203125	-1.2677001953125E-06	-1.26623012874916E-06	-787915.25	7.31526743038557E-05
1	220	58.4860848523368	0.988311767578125	0.98846435546875	-1.31103515625E-06	-1.29591148834152E-06	-753957.1875	7.3022827564273E-05
1	221	58.5867928520826	0.978240966796875	0.97900390625	-1.26739501953125E-06	-1.24078462704347E-06	-772453.6875	7.28929881006479E-05
1	222	58.6875008518283	0.968170166015625	0.96832275390625	-1.17218017578125E-06	-1.13504870569159E-06	-826086.9375	7.27701481082477E-05
1	223	58.788208851574	0.958099365234375	0.958251953125	-1.05560302734375E-06	-1.01153364084894E-06	-907776.875	7.26579746697098E-05
1	224	58.8889168513198	0.948028564453125	0.948486328125	-9.48181152343749E-07	-8.99336839665921E-07	-1000321.875	7.25570716895163E-05
1	225	58.9896248510655	0.937957763671875	0.93780517578125	-8.697509765625E-07	-8.15656960639899E-07	-1078245.625	7.24655328667723E-05
1	226	59.0903328508113	0.927886962890625	0.92803955078125	-8.36791992187499E-07	-7.76576030148135E-07	-1109044.5	7.23796038073488E-05
1	227	59.191040850557	0.917816162109375	0.9173583984375	-8.58459472656251E-07	-7.87514977673709E-07	-1068610.125	7.22942422726192E-05
1	228	59.2917488503027	0.907745361328125	0.90728759765625	-9.40551757812499E-07	-8.53350911711459E-07	-964633.375	7.2203649324365E-05
1	229	59.3924568500485	0.897674560546875	0.8978271484375	-1.08184814453125E-06	-9.71312601905083E-07	-829901.25	7.21018150215968E-05
1	230	59.4931648497942	0.887603759765625	0.88714599609375	-1.26678466796875E-06	-1.1238228125876E-06	-700313.25	7.19835516065359E-05
1	231	59.5938728495399	0.877532958984375	0.87799072265625	-1.47735595703125E-06	-1.29710474539024E-06	-594298.6875	7.1845373895485E-05
1	232	59.6945808492857	0.867462158203125	0.86761474609375	-1.6796875E-06	-1.45732155942824E-06	-516533.4375	7.16864014975727E-05
1	233	59.7952888490314	0.857391357421875	0.8575439453125	-1.84844970703125E-06	-1.58512682446599E-06	-463926.0625	7.15087517164648E-05
1	234	59.8959968487771	0.847320556640625	0.8477783203125	-1.959228515625E-06	-1.66099141551967E-06	-432710.28125	7.13170156814158E-05
1	235	59.9967048485229	0.837249755859375	0.83770751953125	-2.0050048828125E-06	-1.67960774888343E-06	-417808.21875	7.11173997842707E-05
1	236	60.0974128482686	0.827178955078125	0.82763671875	-1.9927978515625E-06	-1.64931259405421E-06	-415313.96875	7.09160958649591E-05
1	237	60.1981208480144	0.817108154296875	0.81695556640625	-1.9384765625E-06	-1.58364923663612E-06	-421442.0625	7.071813888615E-05
1	238	60.2988288477601	0.807037353515625	0.80718994140625	-1.86065673828125E-06	-1.50190328440658E-06	-433819.9375	7.05268394085579E-05
1	239	60.3995368475058	0.796966552734375	0.79681396484375	-1.78070068359375E-06	-1.41888710913918E-06	-447472.1875	7.03434852766804E-05
1	240	60.5002448472516	0.786895751953125	0.7867431640625	-1.71630859375E-06	-1.350294041913E-06	-458392.59375	7.0167392550502E-05
1	241	60.6009528469973	0.776824951171875	0.7763671875	-1.6827392578125E-06	-1.30642354179145E-06	-461371.0625	6.99962401995435E-05
1	242	60.701660846743	0.766754150390625	0.76690673828125	-1.693115234375E-06	-1.29846148411161E-06	-452956.03125	6.98262520018034E-05
1	243	60.8023688464888	0.756683349609375	0.75714111328125	-1.759033203125E-06	-1.33183630168787E-06	-430430.28125	6.96524220984429E-05
1	244	60.9030768462345	0.746612548828125	0.74652099609375	-1.8865966796875E-06	-1.40838392326259E-06	-395697.21875	6.94688496878371E-05
1	245	61.0037848459802	0.736541748046875	0.7364501953125	-2.07672119140625E-06	-1.52940162934101E-06	-354621.625	6.92692774464376E-05
1	246	61.104492845726	0.726470947265625	0.7264404296875	-2.32025146484375E-06	-1.68552446666581E-06	-313086.9375	6.90478773321956E-05
1	247	61.2052008454717	0.716400146484375	0.716339111328125	-2.59796142578125E-06	-1.86102136012778E-06	-275731.25	6.88002255628817E-05
1	248	61.3059088452175	0.706329345703125	0.706268310546875	-2.87841796875E-06	-2.03293529921211E-06	-245366.84375	6.85244667693041E-05
1	249	61.4066168449632	0.696258544921875	0.69622802734375	-3.126220703125E-06	-2.17656247514242E-06	-222705.96875	6.82221070746891E-05
1	250	61.5073248447089	0.686187744140625	0.686065673828125	-3.30718994140625E-06	-2.26894940169586E-06	-207446.71875	6.78981596138328E-05
1	251	61.6080328444547	0.676116943359375	0.676055908203125	-3.40484619140625E-06	-2.30186628868978E-06	-198556.953125	6.75601841066964E-05
1	252	61.7087408442004	0.666046142578125	0.665985107421875	-3.4149169921875E-06	-2.27428381549544E-06	-195022.34375	6.72167807351798E-05
1	253	61.8094488439461	0.655975341796875	0.655853271484375	-3.3514404296875E-06	-2.19805315282429E-06	-195692.953125	6.68760694679804E-05
1	254	61.9101568436919	0.645904541015625	0.645904541015625	-3.2342529296875E-06	-2.08901860787591E-06	-199707.5	6.65444531477988E-05
1	255	62.0108648434376	0.635833740234375	0.635772705078125	-3.08685302734375E-06	-1.96253677131608E-06	-205961.453125	6.62261591060087E-05
1	256	62.1115728431834	0.625762939453125	0.625762939453125	-2.92633056640625E-06	-1.8311892517886E-06	-213838.765625	6.59233701298945E-05
1	257	62.2122808429291	0.615692138671875	0.615692138671875	-2.76458740234375E-06	-1.70213468209113E-06	-222706.703125	6.56368065392599E-05
1	258	62.3129888426748	0.605621337890625	0.605621337890625	-2.60894775390625E-06	-1.58003433625709E-06	-232132.421875	6.53662282275036E-05
1	259	62.4136968424206	0.595550537109375	0.59552001953125	-2.4639892578125E-06	-1.46735487760452E-06	-241689.375	6.51107911835425E-05
1	260	62.5144048421663	0.585479736328125	0.585479736328125	-2.33001708984375E-06	-1.36417770590924E-06	-251277.03125	6.48693894618191E-05
1	261	62.615112841912	0.575408935546875	0.575469970703125	-2.20733642578125E-06	-1.27025577967288E-06	-260707.875	6.46409171167761E-05
1	262	62.7158208416578	0.565338134765625	0.5654296875	-2.09564208984375E-06	-1.18493824174948E-06	-269812.15625	6.44242463749833E-05
1	263	62.8165288414035	0.555267333984375	0.555267333984375	-1.9940185546875E-06	-1.10721327928331E-06	-278466.5	6.42183149466291E-05
1	264	62.9172368411492	0.545196533203125	0.54510498046875	-1.90155029296875E-06	-1.03654451777402E-06	-286663.46875	6.40221551293507E-05
1	265	63.017944840895	0.535125732421875	0.535125732421875	-1.81610107421875E-06	-9.71842382568866E-07	-294656.375	6.3834959291853E-05
1	266	63.1186528406407	0.525054931640625	0.525054931640625	-1.73828125E-06	-9.12693110421969E-07	-302054.09375	6.36559780105017E-05
1	267	63.2193608403865	0.514984130859375	0.514984130859375	-1.6668701171875E-06	-8.58411624449218E-07	-308952.78125	6.34845200693235E-05
1	268	63.3200688401322	0.504913330078125	0.50482177734375	-1.600341796875E-06	-8.07887374776328E-07	-315446.21875	6.33200033917092E-05
1	269	63.4207768398779	0.494842529296875	0.49481201171875	-1.53900146484375E-06	-7.61516389502503E-07	-321514.96875	6.31619186606258E-05
1	270	63.5214848396237	0.484771728515625	0.484771728515625	-1.48193359375E-06	-7.18399462584784E-07	-327121.09375	6.30098074907437E-05
1	271	63.6221928393694	0.474700927734375	0.4747314453125	-1.42913818359375E-06	-6.78456785863091E-07	-332180.25	6.28632187726907E-05
1	272	63.7229008391151	0.464630126953125	0.464599609375	-1.37908935546875E-06	-6.40724351796962E-07	-336888.6875	6.27218178124167E-05
1	273	63.8236088388609	0.454559326171875	0.454620361328125	-1.3323974609375E-06	-6.05735010594799E-07	-341204.75	6.25852844677866E-05
1	274	63.9243168386066	0.444488525390625	0.444488525390625	-1.2884521484375E-06	-5.72702219869825E-07	-344978.6875	6.24533131485805E-05
1	275	64.0250248383524	0.434417724609375	0.434417724609375	-1.24786376953125E-06	-5.42094142019778E-07	-348129.125	6.23255982645787E-05
1	276	64.1257328380981	0.424346923828125	0.42437744140625	-1.20880126953125E-06	-5.12987980982871E-07	-351072.96875	6.22018924332224E-05
1	277	64.2264408378438	0.414276123046875	0.414276123046875	-1.17156982421875E-06	-4.85353382373432E-07	-353607.71875	6.20820355834439E-05
1	278	64.3271488375896	0.404205322265625	0.404205322265625	-1.1370849609375E-06	-4.59615790759926E-07	-355475.03125	6.19657803326845E-05
1	279	64.4278568373353	0.394134521484375	0.394134521484375	-1.1041259765625E-06	-4.35174172253028E-07	-356965.15625	6.18529302300885E-05
1	280	64.528564837081	0.384063720703125	0.384002685546875	-1.072998046875E-06	-4.12034097507785E-07	-357878.28125	6.17433033767156E-05
1	281	64.6292728368268	0.373992919921875	0.37396240234375	-1.0430908203125E-06	-3.90076763778779E-07	-358513.75	6.16367469774559E-05
1	282	64.7299808365725	0.363922119140625	0.36395263671875	-1.01470947265625E-06	-3.6930617852704E-07	-358676.6875	6.15331300650723E-05
1	283	64.8306888363182	0.353851318359375	0.353851318359375	-9.8724365234375E-07	-3.49337454963461E-07	-358423.5	6.14323216723278E-05
1	284	64.931396836064	0.343780517578125	0.343780517578125	-9.619140625E-07	-3.30687299765486E-07	-357392.15625	6.13341762800701E-05
1	285	65.0321048358097	0.333709716796875	0.333709716796875	-9.368896484375E-07	-3.12649177658386E-07	-356188.9375	6.12385629210621E-05
1	286	65.1328128355555	0.323638916015625	0.3236083984375	-9.13391113281251E-07	-2.95581031650727E-07	-354293.375	6.11453942838125E-05
1	287	65.2335208353012	0.313568115234375	0.31353759765625	-8.9111328125E-07	-2.79397511349089E-07	-351849.34375	6.10545321251266E-05
1	288	65.3342288350469	0.303497314453125	0.303466796875	-8.70361328124999E-07	-2.64125759485978E-07	-348667.625	6.09658345638309E-05
1	289	65.4349368347927	0.293426513671875	0.29345703125	-8.502197265625E-07	-2.49502960514292E-07	-345154.34375	6.087919609854E-05
1	290	65.5356448345384	0.283355712890625	0.283294677734375	-8.3160400390625E-07	-2.35588984764945E-07	-340660.5625	6.07945075898897E-05
1	291	65.6363528342841	0.273284912109375	0.27325439453125	-8.135986328125E-07	-2.22319400222659E-07	-335858.96875	6.07116671744734E-05
1	292	65.7370608340299	0.263214111328125	0.26318359375	-7.95898437500001E-07	-2.09467401646179E-07	-330674.84375	6.0630620282609E-05
1	293	65.8377688337756	0.253143310546875	0.25311279296875	-7.80639648437501E-07	-1.97589884010085E-07	-324237.6875	6.05512359470595E-05
1	294	65.9384768335213	0.243072509765625	0.243072509765625	-7.65380859375001E-07	-1.86043038752359E-07	-317583.75	6.04733868385665E-05
1	295	66.0391848332671	0.233001708984375	0.2330322265625	-7.51647949218751E-07	-1.75158191950686E-07	-310028.4375	6.0397000197554E-05
1	296	66.1398928330128	0.222930908203125	0.222930908203125	-7.3974609375E-07	-1.64912265177009E-07	-301361.375	6.03219014010392E-05
1	297	66.2406008327586	0.212860107421875	0.212860107421875	-7.2906494140625E-07	-1.55188843109499E-07	-291963.15625	6.0247941291891E-05
1	298	66.3413088325043	0.202789306640625	0.202850341796875	-7.2021484375E-07	-1.46095814557157E-07	-281652.5625	6.01749634370208E-05
1	299	66.44201683225	0.192718505859375	0.1927490234375	-7.14111328125E-07	-1.37644263986658E-07	-269914.53125	6.01027422817424E-05
1	300	66.5427248319958	0.182647705078125	0.182647705078125	-7.110595703125E-07	-1.29873399146163E-07	-256866.953125	6.00309795117937E-05
1	301	66.6434328317415	0.172576904296875	0.17266845703125	-7.11669921874999E-07	-1.22882937603208E-07	-242624.375	5.99593367951456E-05
1	302	66.7441408314872	0.162506103515625	0.162567138671875	-7.183837890625E-07	-1.16785592751967E-07	-226295.671875	5.98873302806169E-05
1	303	66.844848831233	0.152435302734375	0.1524658203125	-7.33032226562499E-07	-1.11762354038092E-07	-207993.34375	5.98142432863824E-05
1	304	66.9455568309787	0.142364501953125	0.142425537109375	-7.5714111328125E-07	-1.07836228835367E-07	-188109.640625	5.97392063355073E-05
1	305	67.0462648307245	0.132293701171875	0.132354736328125	-7.965087890625E-07	-1.05421705143272E-07	-166168.59375	5.96609752392396E-05
1	306	67.1469728304702	0.122222900390625	0.122314453125	-8.53881835937501E-07	-1.04442086978906E-07	-143245.171875	5.95778728893492E-05
1	307	67.2476808302159	0.112152099609375	0.11224365234375	-9.344482421875E-07	-1.04885884866235E-07	-120117.5703125	5.94878219999373E-05
1	308	67.3483888299617	0.102081298828125	0.10211181640625	-1.04400634765625E-06	-1.0660538407592E-07	-97807.65625	5.93881995882839E-05
1	309	67.4490968297074	0.092010498046875	0.092041015625	-1.1895751953125E-06	-1.09489711519473E-07	-77373.015625	5.92757278354838E-05
1	310	67.5498048294531	0.081939697265625	0.08197021484375	-1.3720703125E-06	-1.1246889641825E-07	-59741.9921875	5.91467396588996E-05
1	311	67.6505128291989	0.071868896484375	0.071929931640625	-1.588134765625E-06	-1.14234424586357E-07	-45292.08203125	5.89976807532366E-05
1	312	67.7512208289446	0.061798095703125	0.0618896484375	-1.824951171875E-06	-1.12945585328816E-07	-33913.04296875	5.88258189964108E-05
1	313	67.8519288286903	0.051727294921875	0.051788330078125	-2.06268310546875E-06	-1.06822909629045E-07	-25107.265625	5.863006299478E-05
1	314	67.9526368284361	0.041656494140625	0.0417449951171875	-2.27630615234375E-06	-9.50243901343129E-08	-18338.919921875	5.84115769015625E-05
1	315	68.0533448281818	0.031585693359375	0.0316650390625	-2.4432373046875E-06	-7.73652004681935E-08	-12960.2802734375	5.81739295739681E-05
1	316	68.1540528279276	0.021514892578125	0.0215850830078125	-2.54913330078125E-06	-5.50232535090345E-08	-8467.6162109375	5.79225416004192E-05
1	317	68.2547608276733	0.011444091796875	0.0115478515625	-2.59246826171875E-06	-2.99374391943275E-08	-4454.384765625	5.76636412006337E-05
1	318	68.355468827419	0.001373291015625	0.00147399902343751	-2.5830078125E-06	-3.80735087901485E-09	-570.652160644531	5.74030345887877E-05
1	319	68.4561768271648	-0.008697509765625	-0.0086029052734375	-2.53631591796875E-06	2.18196838375206E-08	3391.89038085938	5.71452583244536E-05
1	320	68.5568848269105	-0.018768310546875	-0.0186614990234375	-2.4664306640625E-06	4.60272957525376E-08	7566.1962890625	5.68933501199353E-05
1	321	68.6575928266562	-0.028839111328125	-0.028680419921875	-2.38677978515625E-06	6.84538434825299E-08	12016.3662109375	5.66489725315478E-05
1	322	68.758300826402	-0.038909912109375	-0.0387939453125	-2.3046875E-06	8.94079192903519E-08	16832.626953125	5.64127367397305E-05
1	323	68.8590088261477	-0.048980712890625	-0.0488555908203125	-2.22564697265625E-06	1.08735299875207E-07	21951.185546875	5.61846172786318E-05
1	324	68.9597168258935	-0.059051513671875	-0.058990478515625	-2.15179443359375E-06	1.26935390198923E-07	27414.55078125	5.59641957806889E-05
1	325	69.0604248256392	-0.069122314453125	-0.069000244140625	-2.0855712890625E-06	1.43904912874859E-07	33084.578125	5.57508246856742E-05
1	326	69.1611328253849	-0.079193115234375	-0.079132080078125	-2.0263671875E-06	1.60350651867702E-07	39051.20703125	5.55437727598473E-05
1	327	69.2618408251307	-0.089263916015625	-0.08917236328125	-1.9732666015625E-06	1.75960835235855E-07	45190.2265625	5.53423778910656E-05
1	328	69.3625488248764	-0.099334716796875	-0.0992431640625	-1.927490234375E-06	1.91290212114836E-07	51488.2890625	5.51459561393131E-05
1	329	69.4632568246221	-0.109405517578125	-0.109344482421875	-1.88629150390625E-06	2.06255563739433E-07	57967.96875	5.49539181520231E-05
1	330	69.5639648243679	-0.119476318359375	-0.119354248046875	-1.8499755859375E-06	2.20802434114376E-07	64516.6640625	5.47657837159932E-05
1	331	69.6646728241136	-0.129547119140625	-0.12945556640625	-1.81793212890625E-06	2.35341431675806E-07	71210.34375	5.45810871699359E-05
1	332	69.7653808238593	-0.139617919921875	-0.1395263671875	-1.7901611328125E-06	2.49774672056446E-07	77940.6796875	5.43994065083098E-05
1	333	69.8660888236051	-0.149688720703125	-0.149566650390625	-1.76544189453125E-06	2.64051237763852E-07	84719.1015625	5.42203670192976E-05
1	334	69.9667968233508	-0.159759521484375	-0.159576416015625	-1.74407958984375E-06	2.78313962098764E-07	91496.0625	5.40436485607643E-05
1	335	70.0675048230966	-0.169830322265625	-0.169677734375	-1.7254638671875E-06	2.92772796228746E-07	98337.4609375	5.38689455424901E-05
1	336	70.1682128228423	-0.179901123046875	-0.179779052734375	-1.71051025390625E-06	3.07513914776791E-07	105102.5859375	5.36959305463824E-05
1	337	70.268920822588	-0.189971923828125	-0.189788818359375	-1.69769287109375E-06	3.22203106861707E-07	111792.203125	5.35243125341367E-05
1	338	70.3696288223338	-0.200042724609375	-0.1998291015625	-1.68731689453125E-06	3.37175009690327E-07	118430.1015625	5.3353862313088E-05
1	339	70.4703368220795	-0.189971923828125	-0.1898193359375	-1.52130126953125E-06	2.88772383782998E-07	124774.328125	5.31922960362863E-05
2	340	70.5710448218252	-0.179901123046875	-0.17974853515625	-1.40350341796875E-06	2.52277658319144E-07	128071.328125	5.30450197402388E-05
2	341	70.671752821571	-0.169830322265625	-0.169677734375	-1.30767822265625E-06	2.21883865947348E-07	129754.9609375	5.29085009475239E-05
2	342	70.7724608213167	-0.159759521484375	-0.159637451171875	-1.2261962890625E-06	1.95746835629507E-07	130189.15625	5.27809133927803E-05
2	343	70.8731688210624	-0.149688720703125	-0.149566650390625	-1.15447998046875E-06	1.72671704490313E-07	129553.265625	5.26610347151291E-05
2	344	70.9738768208082	-0.139617919921875	-0.1395263671875	-1.09100341796875E-06	1.52223734062318E-07	127888.1171875	5.25479663338047E-05
2	345	71.0745848205539	-0.129547119140625	-0.129486083984375	-1.03240966796875E-06	1.33682675595992E-07	125421.2265625	5.24410424986854E-05
2	346	71.1752928202997	-0.119476318359375	-0.119415283203125	-9.783935546875E-07	1.16835146002359E-07	122052.3984375	5.23397902725264E-05
2	347	71.2760008200454	-0.109405517578125	-0.1092529296875	-9.28344726562499E-07	1.01424383558424E-07	117685.734375	5.22437803738285E-05
2	348	71.3767088197911	-0.099334716796875	-0.0992431640625	-8.807373046875E-07	8.74071517387165E-08	112681.9140625	5.21526853844989E-05
2	349	71.4774168195369	-0.089263916015625	-0.08917236328125	-8.3526611328125E-07	7.44826493814799E-08	106759.234375	5.20662761118729E-05
2	350	71.5781248192826	-0.079193115234375	-0.0791015625	-7.89489746093749E-07	6.24498710521948E-08	100193.28125	5.1984465244459E-05
2	351	71.6788328190283	-0.069122314453125	-0.069091796875	-7.427978515625E-07	5.13212370378824E-08	93015.609375	5.19073073519394E-05
2	352	71.7795408187741	-0.059051513671875	-0.058990478515625	-6.9305419921875E-07	4.08835987286693E-08	85116.6953125	5.18350061611272E-05
2	353	71.8802488185198	-0.048980712890625	-0.0488372802734375	-6.3812255859375E-07	3.11641699113352E-08	76532.765625	5.17679764016066E-05
2	354	71.9809568182656	-0.038909912109375	-0.038787841796875	-5.7525634765625E-07	2.23129514864695E-08	67427.0625	5.17068801855203E-05
2	355	72.0816648180113	-0.028839111328125	-0.02869873046875	-4.986572265625E-07	1.43108289663019E-08	57552.02734375	5.16528016305529E-05
2	356	72.182372817757	-0.018768310546875	-0.0186676025390625	-4.046630859375E-07	7.5540897981341E-09	46131.22265625	5.16073159815278E-05
2	357	72.2830808175028	-0.008697509765625	-0.00859680175781249	-2.8564453125E-07	2.45562947753797E-09	30096.15625	5.15725587320048E-05
2	358	72.3837888172485	0.001373291015625	0.00144042968749999	-1.361083984375E-07	-1.960545753521E-10	-10582.9599609375	5.1551320211729E-05
2	359	72.4844968169942	0.011444091796875	0.0115264892578125	5.12695312500006E-08	5.90957727197861E-10	224821.4375	5.15470492246095E-05
2	360	72.58520481674	0.021514892578125	0.0216064453125	2.7496337890625E-07	5.94098148454236E-09	78579.3515625	5.15634746989235E-05
2	361	72.6859128164857	0.031585693359375	0.0316741943359375	5.291748046875E-07	1.67611844403837E-08	59855.828125	5.16039654030465E-05
2	362	72.7866208162314	0.041656494140625	0.0417510986328125	7.9986572265625E-07	3.33952705489082E-08	52197.63671875	5.16708896611817E-05
2	363	72.8873288159772	0.051727294921875	0.051788330078125	1.06292724609375E-06	5.5047227220939E-08	48722.3671875	5.1764687668765E-05
2	364	72.9880368157229	0.061798095703125	0.06182861328125	1.2933349609375E-06	7.99651047600491E-08	47805.5703125	5.18833367095795E-05
2	365	73.0887448154687	0.071868896484375	0.071868896484375	1.4703369140625E-06	1.05671489336601E-07	48879.203125	5.20224966749083E-05
2	366	73.1894528152144	0.081939697265625	0.082000732421875	1.58477783203125E-06	1.29952937300004E-07	51742.73046875	5.21763358847238E-05
2	367	73.2901608149601	0.092010498046875	0.092041015625	1.6363525390625E-06	1.50611541016588E-07	56247.66796875	5.23385315318592E-05
2	368	73.3908688147059	0.102081298828125	0.102081298828125	1.63848876953125E-06	1.67259059935532E-07	62302.10546875	5.2503433835227E-05
2	369	73.4915768144516	0.112152099609375	0.1121826171875	1.60430908203125E-06	1.79975586434011E-07	69925.8125	5.26667208760045E-05
2	370	73.5922848141973	0.122222900390625	0.12225341796875	1.55059814453125E-06	1.89565909636258E-07	78842.75	5.28255841345526E-05
2	371	73.6929928139431	0.132293701171875	0.132293701171875	1.4874267578125E-06	1.96777193650632E-07	88941.3203125	5.29785611433908E-05
2	372	73.7937008136888	0.142364501953125	0.14239501953125	1.42181396484375E-06	2.02459233378249E-07	100150.2421875	5.3125051636016E-05
2	373	73.8944088134346	0.152435302734375	0.1524658203125	1.35894775390625E-06	2.07193082246704E-07	112194.0234375	5.32650738023221E-05
2	374	73.9951168131803	0.162506103515625	0.162567138671875	1.30096435546875E-06	2.11494040058824E-07	124958.953125	5.3399009630084E-05
2	375	74.095824812926	0.172576904296875	0.172607421875	1.24847412109375E-06	2.15495887800898E-07	138254.71875	5.35273866262287E-05
2	376	74.1965328126718	0.182647705078125	0.18267822265625	1.20147705078125E-06	2.19483695218514E-07	152044.703125	5.36507504875772E-05
2	377	74.2972408124175	0.192718505859375	0.192718505859375	1.1602783203125E-06	2.23607102611822E-07	166096.796875	5.3769676014781E-05
2	378	74.3979488121632	0.202789306640625	0.202850341796875	1.12396240234375E-06	2.27996167723177E-07	180477.875	5.3884694352746E-05
2	379	74.498656811909	0.212860107421875	0.212890625	1.09222412109375E-06	2.32524271837065E-07	194914.78125	5.39962893526535E-05
2	380	74.5993648116547	0.222930908203125	0.222930908203125	1.06414794921875E-06	2.37231461142073E-07	209492.40625	5.41048721061088E-05
2	381	74.7000728114004	0.233001708984375	0.23297119140625	1.0394287109375E-06	2.42156914964653E-07	224133.890625	5.42107954970561E-05
2	382	74.8007808111462	0.243072509765625	0.243133544921875	1.01837158203125E-06	2.47600297598183E-07	238747.375	5.43144124094397E-05
2	383	74.9014888108919	0.253143310546875	0.253143310546875	9.991455078125E-07	2.52927009114501E-07	253359.796875	5.44160029676277E-05
2	384	75.0021968106377	0.263214111328125	0.26324462890625	9.832763671875E-07	2.58842220546285E-07	267721.9375	5.45158254681155E-05
2	385	75.1029048103834	0.273284912109375	0.2733154296875	9.68017578125E-07	2.64574111952243E-07	282345.53125	5.46140799997374E-05
2	386	75.2036128101291	0.283355712890625	0.283355712890625	9.552001953125E-07	2.70661445256337E-07	296645.375	5.47109229955822E-05
2	387	75.3043208098749	0.293426513671875	0.29345703125	9.43603515624999E-07	2.76907087481959E-07	310996.125	5.48065363545902E-05
2	388	75.4050288096206	0.303497314453125	0.303497314453125	9.3353271484375E-07	2.83324681049635E-07	325106.25	5.49010583199561E-05
2	389	75.5057368093663	0.313568115234375	0.31353759765625	9.2498779296875E-07	2.90018448367846E-07	338964.03125	5.49946416867897E-05
2	390	75.6064448091121	0.323638916015625	0.323638916015625	9.16442871093751E-07	2.96596567750385E-07	353146.875	5.5087362852646E-05
2	391	75.7071528088578	0.333709716796875	0.333740234375	9.0972900390625E-07	3.03613148844306E-07	366856.78125	5.51793200429529E-05
2	392	75.8078608086036	0.343780517578125	0.34381103515625	9.04235839843751E-07	3.10886264287547E-07	380222.75	5.52706587768625E-05
2	393	75.9085688083493	0.353851318359375	0.35382080078125	8.99353027343749E-07	3.18209799843316E-07	393417.0625	5.53614772798028E-05
2	394	76.009276808095	0.363922119140625	0.3638916015625	8.953857421875E-07	3.25823350522114E-07	406407.65625	5.54518483113497E-05
2	395	76.1099848078408	0.373992919921875	0.3740234375	8.92028808593751E-07	3.33639661675988E-07	419295.25	5.55418519070372E-05
2	396	76.2106928075865	0.384063720703125	0.384124755859375	8.892822265625E-07	3.41595296049491E-07	431949.21875	5.56315499125049E-05
2	397	76.3114008073322	0.394134521484375	0.39410400390625	8.868408203125E-07	3.49507502050983E-07	444390.9375	5.57209823455196E-05
2	398	76.412108807078	0.404205322265625	0.4041748046875	8.85925292968751E-07	3.580686609439E-07	456217.71875	5.5810251069488E-05
2	399	76.5128168068237	0.414276123046875	0.414276123046875	8.85620117187499E-07	3.66891242720158E-07	467780.875	5.58994543098379E-05
2	400	76.6135248065694	0.424346923828125	0.42431640625	8.8531494140625E-07	3.75653655737551E-07	479283	5.59886284463573E-05
2	401	76.7142328063152	0.434417724609375	0.43438720703125	8.85925292968751E-07	3.84834606848017E-07	490320.375	5.6077817134792E-05
2	402	76.8149408060609	0.444488525390625	0.444549560546875	8.868408203125E-07	3.94244665358201E-07	501273.25	5.61670822207816E-05
2	403	76.9156488058067	0.454559326171875	0.454559326171875	8.880615234375E-07	4.03676637006356E-07	511855.6875	5.62564564461354E-05
2	404	77.0163568055524	0.464630126953125	0.464630126953125	8.9019775390625E-07	4.13612696092969E-07	521940.375	5.63459980185144E-05
2	405	77.1170648052981	0.474700927734375	0.4747314453125	8.91723632812499E-07	4.2332925431765E-07	532375.0625	5.64357251278125E-05
2	406	77.2177728050439	0.484771728515625	0.484771728515625	8.9447021484375E-07	4.33613848827008E-07	541965.1875	5.65256668778602E-05
2	407	77.3184808047896	0.494842529296875	0.494842529296875	8.978271484375E-07	4.44283045908378E-07	551155.6875	5.66159178561065E-05
2	408	77.4191888045353	0.504913330078125	0.504913330078125	9.0179443359375E-07	4.55328006410127E-07	559898.5	5.67065362702124E-05
2	409	77.5198968042811	0.514984130859375	0.51495361328125	9.0667724609375E-07	4.66896693751551E-07	567956.9375	5.67975985177327E-05
2	410	77.6206048040268	0.525054931640625	0.5250244140625	9.11560058593749E-07	4.78591289265751E-07	575962.5	5.68891555303708E-05
2	411	77.7213128037725	0.535125732421875	0.53509521484375	9.17968750000001E-07	4.91200694341387E-07	582912.25	5.69812800677028E-05
2	412	77.8220208035183	0.545196533203125	0.545135498046875	9.259033203125E-07	5.04742729390273E-07	588760.75	5.70741249248385E-05
2	413	77.922728803264	0.555267333984375	0.55523681640625	9.356689453125E-07	5.19517868724506E-07	593411.625	5.71678610867821E-05
2	414	78.0234368030098	0.565338134765625	0.56524658203125	9.47265625E-07	5.3543863032246E-07	596713.9375	5.72626740904525E-05
2	415	78.1241448027555	0.575408935546875	0.575408935546875	9.6221923828125E-07	5.53669565306336E-07	598001.875	5.73588258703239E-05
2	416	78.2248528025012	0.585479736328125	0.58544921875	9.80529785156251E-07	5.74050375234947E-07	597074.375	5.74566511204466E-05
2	417	78.325560802247	0.595550537109375	0.59552001953125	1.005859375E-06	5.99009354118607E-07	592051	5.75566737097688E-05
2	418	78.4262688019927	0.605621337890625	0.60552978515625	1.0394287109375E-06	6.29405008112371E-07	582560.25	5.76596612518188E-05
2	419	78.5269768017384	0.615692138671875	0.61566162109375	1.08612060546875E-06	6.6868278736365E-07	566844.625	5.77666905883234E-05
2	420	78.6276848014842	0.625762939453125	0.625732421875	1.1517333984375E-06	7.20676894161443E-07	543296.25	5.78793769818731E-05
2	421	78.7283928012299	0.635833740234375	0.63580322265625	1.2432861328125E-06	7.90485273682862E-07	511389.3125	5.79999759793282E-05
2	422	78.8291008009757	0.645904541015625	0.645843505859375	1.3702392578125E-06	8.84960115854483E-07	471336.3125	5.81315762246959E-05
2	423	78.9298088007214	0.655975341796875	0.6558837890625	1.541748046875E-06	1.01120758699835E-06	425415.6875	5.82782085984945E-05
2	424	79.0305168004671	0.666046142578125	0.66595458984375	1.7645263671875E-06	1.17509443953168E-06	377412.65625	5.84446897846647E-05
2	425	79.1312248002129	0.676116943359375	0.676025390625	2.0440673828125E-06	1.38184134357289E-06	330725.59375	5.86364694754593E-05
2	426	79.2319327999586	0.686187744140625	0.6861572265625	2.37335205078125E-06	1.62849255502806E-06	289108.9375	5.88589027756825E-05
2	427	79.3326407997043	0.696258544921875	0.69622802734375	2.7374267578125E-06	1.90587320503255E-06	254336.6875	5.91162533964962E-05
2	428	79.4333487994501	0.706329345703125	0.706298828125	3.11279296875E-06	2.19856201510993E-06	226901.96875	5.94108350924216E-05
2	429	79.5340567991958	0.716400146484375	0.716339111328125	3.4613037109375E-06	2.47946718445746E-06	206956.453125	5.97418656980153E-05
2	430	79.6347647989415	0.726470947265625	0.726318359375	3.75335693359375E-06	2.72613192464632E-06	193511.671875	6.01051542616915E-05
2	431	79.7354727986873	0.736541748046875	0.73638916015625	3.96240234375E-06	2.91787023343204E-06	185844.109375	6.04936722083949E-05
2	432	79.836180798433	0.746612548828125	0.746490478515625	4.08203125E-06	3.04719719679269E-06	182872.328125	6.08987429586705E-05
2	433	79.9368887981788	0.756683349609375	0.7568359375	4.11834716796875E-06	3.11691314891505E-06	183771.765625	6.13116644672118E-05
2	434	80.0375967979245	0.766754150390625	0.7672119140625	4.0948486328125E-06	3.14161661663093E-06	187360.265625	6.1725229898002E-05
2	435	80.1383047976702	0.776824951171875	0.7769775390625	4.03594970703125E-06	3.13584223476937E-06	192514.1875	6.21346480329521E-05
2	436	80.239012797416	0.786895751953125	0.78704833984375	3.966064453125E-06	3.12148449665983E-06	198445.671875	6.2537583289668E-05
2	437	80.3397207971617	0.796966552734375	0.79742431640625	3.905029296875E-06	3.11396524921292E-06	204204.4375	6.29339265287854E-05
2	438	80.4404287969074	0.807037353515625	0.80718994140625	3.8671875E-06	3.12155475512554E-06	208727.90625	6.33252857369371E-05
2	439	80.5411367966532	0.817108154296875	0.8172607421875	3.8665771484375E-06	3.16000159727992E-06	211365.4375	6.37147095403634E-05
2	440	80.6418447963989	0.827178955078125	0.82763671875	3.9129638671875E-06	3.23851236316841E-06	211511.484375	6.41064398223534E-05
2	441	80.7425527961447	0.837249755859375	0.83770751953125	4.01153564453125E-06	3.36049356519652E-06	208824.65625	6.45054751657881E-05
2	442	80.8432607958904	0.847320556640625	0.8477783203125	4.1644287109375E-06	3.5305122310092E-06	203576.15625	6.49171633995138E-05
2	443	80.9439687956361	0.857391357421875	0.85784912109375	4.36370849609375E-06	3.74340334019507E-06	196587.1875	6.53465904179029E-05
2	444	81.0446767953819	0.867462158203125	0.867919921875	4.5941162109375E-06	3.98732481698971E-06	188919.890625	6.57976561342366E-05
2	445	81.1453847951276	0.877532958984375	0.87799072265625	4.8284912109375E-06	4.23937035520794E-06	181835.421875	6.62721213302575E-05
2	446	81.2460927948733	0.887603759765625	0.88775634765625	5.04150390625E-06	4.47562706540339E-06	176089.59375	6.67691128910519E-05
2	447	81.3468007946191	0.897674560546875	0.8978271484375	5.2032470703125E-06	4.67161635242519E-06	172551.328125	6.72849782858975E-05
2	448	81.4475087943648	0.907745361328125	0.9075927734375	5.3070068359375E-06	4.81660072182422E-06	171017.828125	6.78142096148804E-05
2	449	81.5482167941105	0.917816162109375	0.91827392578125	5.3466796875E-06	4.90971660838113E-06	171746.578125	6.83506659697741E-05
2	450	81.6489247938563	0.927886962890625	0.92803955078125	5.33447265625E-06	4.95060157845728E-06	173970.265625	6.88885047566146E-05
2	451	81.749632793602	0.937957763671875	0.9381103515625	5.2978515625E-06	4.96996926813154E-06	177073.75	6.94238842697814E-05
2	452	81.8503407933478	0.948028564453125	0.94757080078125	5.255126953125E-06	4.97960490974947E-06	180313.59375	6.99552692822181E-05
2	453	81.9510487930935	0.958099365234375	0.9588623046875	5.224609375E-06	5.00968053529505E-06	183528.046875	7.04829653841443E-05
2	454	82.0517567928392	0.968170166015625	0.968017578125	5.2337646484375E-06	5.06637616126682E-06	184956.265625	7.10095846443437E-05
2	455	82.152464792585	0.978240966796875	0.977783203125	5.2978515625E-06	5.18014985573245E-06	184562.21875	7.15399000910111E-05
2	456	82.2531727923307	0.988311767578125	0.98876953125	5.4290771484375E-06	5.36810603080085E-06	182124.78125	7.20800380804576E-05
2	457	82.3538807920764	0.998382568359375	0.99822998046875	5.6427001953125E-06	5.63271260034526E-06	176906.4375	7.26375510566868E-05
2	458	82.4545887918222	1.00845336914063	1.00830078125	5.94482421875E-06	5.99417080593412E-06	169609.859375	7.32210246496834E-05
2	459	82.5552967915679	1.01852416992188	1.01898193359375	6.3262939453125E-06	6.44637884761323E-06	161070.921875	7.38389280741103E-05
2	460	82.6560047913136	1.02859497070313	1.02813720703125	6.756591796875E-06	6.94670325174229E-06	152168.03125	7.44977005524561E-05
2	461	82.7567127910594	1.03866577148438	1.038818359375	7.2021484375E-06	7.48172396924929E-06	144237.28125	7.5200579885859E-05
2	462	82.8574207908051	1.04873657226563	1.0491943359375	7.6171875E-06	7.99191002442967E-06	137740.390625	7.59467948228121E-05
2	463	82.9581287905509	1.05880737304688	1.05926513671875	7.9620361328125E-06	8.43390716909198E-06	133039.484375	7.67312667449005E-05
2	464	83.0588367902966	1.06887817382813	1.06903076171875	8.1939697265625E-06	8.75960540724918E-06	130465.546875	7.75447915657423E-05
2	465	83.1595447900423	1.07894897460938	1.0784912109375	8.3038330078125E-06	8.95561061042827E-06	129878.71875	7.83755167503841E-05
2	466	83.2602527897881	1.08901977539063	1.08917236328125	8.28857421875E-06	9.02768624655437E-06	131406.46875	7.92110149632208E-05
2	467	83.3609607895338	1.09909057617188	1.0992431640625	8.1787109375E-06	8.99039241630817E-06	134402.984375	8.0040204920806E-05
2	468	83.4616687892795	1.10916137695313	1.1090087890625	8.0078125E-06	8.88073464011541E-06	138490.859375	8.08552649687044E-05
2	469	83.5623767890253	1.11923217773438	1.119384765625	7.8033447265625E-06	8.73494536790531E-06	143449.359375	8.16514220787212E-05
2	470	83.663084788771	1.12930297851563	1.1297607421875	7.5897216796875E-06	8.57456961966818E-06	148854.046875	8.24265225674026E-05
2	471	83.7637927885168	1.13937377929688	1.1395263671875	7.379150390625E-06	8.40873599372571E-06	154425.140625	8.31802608445287E-05
2	472	83.8645007882625	1.14944458007813	1.1492919921875	7.183837890625E-06	8.25632741907611E-06	159983.015625	8.39135682326742E-05
2	473	83.9652087880082	1.15951538085938	1.15936279296875	7.0037841796875E-06	8.11992686067242E-06	165533.765625	8.4627972682938E-05
2	474	84.065916787754	1.16958618164063	1.16943359375	6.8389892578125E-06	7.99774352344684E-06	170995.09375	8.53250094223768E-05
2	475	84.1666247874997	1.17965698242188	1.17919921875	6.6925048828125E-06	7.89179648563731E-06	176196.984375	8.60063737491146E-05
2	476	84.2673327872454	1.18972778320313	1.1895751953125	6.5582275390625E-06	7.8015045801294E-06	181386.6875	8.6673600890208E-05
2	477	84.3680407869912	1.19979858398438	1.19964599609375	6.439208984375E-06	7.72477142163552E-06	186303.328125	8.73280732776038E-05
2	478	84.4687487867369	1.20986938476563	1.21002197265625	6.3323974609375E-06	7.66234006732702E-06	191084.34375	8.79711806192063E-05
2	479	84.5694567864826	1.21994018554688	1.21978759765625	6.2347412109375E-06	7.60506009100936E-06	195643.65625	8.8603985204827E-05
2	480	84.6701647862284	1.23001098632813	1.22955322265625	6.146240234375E-06	7.55712926547858E-06	200049.65625	8.92274183570407E-05
2	481	84.7708727859741	1.24008178710938	1.240234375	6.06689453125E-06	7.52437108531012E-06	204426.5625	8.98423968465067E-05
2	482	84.8715807857199	1.25015258789063	1.25	5.99365234375E-06	7.4920653787558E-06	208553.96875	9.04496919247322E-05
2	483	84.9722887854656	1.26022338867188	1.2603759765625	5.926513671875E-06	7.46963542042067E-06	212667.359375	9.10499220481142E-05
2	484	85.0729967852113	1.27029418945313	1.2701416015625	5.8685302734375E-06	7.45386432754458E-06	216432.671875	9.16438511922024E-05
2	485	85.1737047849571	1.28036499023438	1.2799072265625	5.8135986328125E-06	7.44086673876154E-06	220157.484375	9.22320905374363E-05
2	486	85.2744127847028	1.29043579101563	1.29058837890625	5.7647705078125E-06	7.43994542062865E-06	223875.078125	9.28151057451032E-05
2	487	85.3751207844485	1.30050659179688	1.30035400390625	5.718994140625E-06	7.43671671443735E-06	227374.609375	9.33933624764904E-05
2	488	85.4758287841943	1.31057739257813	1.3104248046875	5.67626953125E-06	7.43832379157539E-06	230860.234375	9.39671590458602E-05
2	489	85.57653678394	1.32064819335938	1.32080078125	5.6396484375E-06	7.44885210224311E-06	234199.140625	9.45369611144997E-05
2	490	85.6772447836858	1.33071899414063	1.3311767578125	5.6060791015625E-06	7.46268187867827E-06	237452.375	9.51032270677388E-05
2	491	85.7779527834315	1.34078979492188	1.34002685546875	5.57861328125E-06	7.47549120205804E-06	240207.890625	9.56664225668646E-05
2	492	85.8786607831772	1.35086059570313	1.35040283203125	5.5511474609375E-06	7.49628497942467E-06	243265.53125	9.62268459261395E-05
2	493	85.979368782923	1.36093139648438	1.361083984375	5.52978515625E-06	7.52650203139638E-06	246136.875	9.67848172876984E-05
2	494	86.0800767826687	1.37100219726563	1.370849609375	5.5084228515625E-06	7.55121936890646E-06	248864.265625	9.73406349658035E-05
2	495	86.1807847824144	1.38107299804688	1.38092041015625	5.4931640625E-06	7.58562191549572E-06	251388.90625	9.78946118266322E-05
2	496	86.2814927821602	1.39114379882813	1.3909912109375	5.4779052734375E-06	7.61971796237049E-06	253927.578125	9.84470461844467E-05
2	497	86.3822007819059	1.40121459960938	1.40167236328125	5.46875E-06	7.66539506003028E-06	256305.8125	9.89982509054244E-05
2	498	86.4829087816516	1.41128540039063	1.4111328125	5.462646484375E-06	7.70851966080954E-06	258324.03125	9.95486916508526E-05
2	499	86.5836167813974	1.42135620117188	1.4215087890625	5.4595947265625E-06	7.76086108089658E-06	260368.9375	0.000100098674010951
2	500	86.6843247811431	1.43142700195313	1.4312744140625	5.4595947265625E-06	7.81417747930391E-06	262157.65625	0.000100648496299982
2	501	86.7850327808889	1.44149780273438	1.4410400390625	5.4595947265625E-06	7.86749387771124E-06	263946.34375	0.000101198318589013
2	502	86.8857407806346	1.45156860351563	1.4520263671875	5.4656982421875E-06	7.93633716966724E-06	265661.65625	0.000101748453744221
2	503	86.9864487803803	1.46163940429688	1.46148681640625	5.4779052734375E-06	8.00588622951182E-06	266796.65625	0.000102299505670089
2	504	87.0871567801261	1.47171020507813	1.47186279296875	5.4901123046875E-06	8.08069125923794E-06	268093.40625	0.000102851794508751
2	505	87.1878647798718	1.48178100585938	1.48162841796875	5.5084228515625E-06	8.16143619886134E-06	268975.0625	0.000103405611298513
2	506	87.2885727796175	1.49185180664063	1.49200439453125	5.5328369140625E-06	8.25501683721086E-06	269663.53125	0.000103961581771728
2	507	87.3892807793633	1.50192260742188	1.50177001953125	5.5694580078125E-06	8.36404433357529E-06	269643.84375	0.000104520629975013
2	508	87.489988779109	1.49185180664063	1.49200439453125	5.322265625E-06	7.94084371591453E-06	280332.5625	0.000105069069832098
2	509	87.5906967788547	1.48178100585938	1.4813232421875	5.145263671875E-06	7.62179843150079E-06	287900.375	0.000105596154753584
2	510	87.6914047786005	1.47171020507813	1.47216796875	5.0079345703125E-06	7.37252048566006E-06	293967.09375	0.000106107407191303
2	511	87.7921127783462	1.46163940429688	1.46240234375	4.89166259765625E-06	7.15357919034432E-06	298958.125	0.000106605890323408
2	512	87.892820778092	1.45156860351563	1.451416015625	4.79644775390625E-06	6.96164079272421E-06	302602.28125	0.000107093728729524
2	513	87.9935287778377	1.44149780273438	1.44195556640625	4.71405029296875E-06	6.7974510784552E-06	305884.65625	0.000107572617707774
2	514	88.0942367775834	1.43142700195313	1.43157958984375	4.642333984375E-06	6.64587014398421E-06	308374.96875	0.000108043750515208
2	515	88.1949447773292	1.42135620117188	1.42120361328125	4.57794189453125E-06	6.50618721920182E-06	310446	0.000108508029370569
2	516	88.2956527770749	1.41128540039063	1.4111328125	4.5196533203125E-06	6.37783114143531E-06	312221.46875	0.000108966123661958
2	517	88.3963607768206	1.40121459960938	1.40106201171875	4.46624755859375E-06	6.25748953098082E-06	313700.03125	0.000109418600914069
2	518	88.4970687765664	1.39114379882813	1.3909912109375	4.41802978515625E-06	6.14544023846975E-06	314844.25	0.000109865963167977
2	519	88.5977767763121	1.38107299804688	1.380615234375	4.37255859375E-06	6.03682110522641E-06	315745.40625	0.000110308603325393
2	520	88.6984847760579	1.37100219726563	1.37115478515625	4.33013916015625E-06	5.93729055253789E-06	316653.78125	0.00011074681970058
2	521	88.7991927758036	1.36093139648438	1.36077880859375	4.29107666015625E-06	5.83920609642519E-06	317118.28125	0.000111180932435673
2	522	88.8999007755493	1.35086059570313	1.35101318359375	4.2529296875E-06	5.74576370127033E-06	317666.5	0.000111611159809399
2	523	89.0006087752951	1.34078979492188	1.34063720703125	4.2181396484375E-06	5.65499476579134E-06	317826.65625	0.000112037705548573
2	524	89.1013167750408	1.33071899414063	1.33056640625	4.18487548828125E-06	5.56825443709386E-06	317946.5	0.000112460831587669
2	525	89.2020247747865	1.32064819335938	1.32049560546875	4.15313720703125E-06	5.48419939150335E-06	317951.375	0.000112880683445837
2	526	89.3027327745323	1.31057739257813	1.3104248046875	4.122314453125E-06	5.40198288945248E-06	317885.71875	0.000113297392090317
2	527	89.403440774278	1.30050659179688	1.3006591796875	4.09332275390625E-06	5.32401782038505E-06	317751.4375	0.000113711081212386
2	528	89.5041487740237	1.29043579101563	1.29058837890625	4.06585693359375E-06	5.24734787177294E-06	317421	0.000114121925435029
2	529	89.6048567737695	1.28036499023438	1.28082275390625	4.03839111328125E-06	5.17246326126042E-06	317161.625	0.000114530004793778
2	530	89.7055647735152	1.27029418945313	1.2701416015625	4.01336669921875E-06	5.09754363520187E-06	316477.875	0.000114935442979913
2	531	89.806272773261	1.26022338867188	1.26007080078125	3.98834228515625E-06	5.02559350934462E-06	315938.5	0.000115338363684714
2	532	89.9069807730067	1.25015258789063	1.25	3.96392822265625E-06	4.95490985485958E-06	315343.75	0.000115738788736053
2	533	90.0076887727524	1.24008178710938	1.240234375	3.94012451171875E-06	4.88667774334317E-06	314770.375	0.000116136790893506
2	534	90.1083967724982	1.23001098632813	1.22955322265625	3.91632080078125E-06	4.81532470075763E-06	313956.21875	0.000116532399260905
2	535	90.2091047722439	1.21994018554688	1.21978759765625	3.8922119140625E-06	4.7476714826189E-06	313391.90625	0.000116925584734417
2	536	90.3098127719896	1.20986938476563	1.21002197265625	3.8677978515625E-06	4.68012012788677E-06	312845.21875	0.00011731633276213
2	537	90.4105207717354	1.19979858398438	1.19964599609375	3.84124755859375E-06	4.6081368054729E-06	312306.375	0.000117704512376804
2	538	90.5112287714811	1.18972778320313	1.18927001953125	3.8134765625E-06	4.53525308330427E-06	311859.8125	0.000118089963507373
2	539	90.6119367712269	1.17965698242188	1.17919921875	3.78204345703125E-06	4.4597827582038E-06	311788.90625	0.000118472424219362
2	540	90.7126447709726	1.16958618164063	1.16973876953125	3.74542236328125E-06	4.3811655814352E-06	312311.59375	0.000118851465231273
2	541	90.8133527707183	1.15951538085938	1.15936279296875	3.701171875E-06	4.29100100518554E-06	313242.09375	0.00011922643170692
2	542	90.9140607704641	1.14944458007813	1.14990234375	3.64593505859375E-06	4.19246907767956E-06	315393	0.000119596385047771
2	543	91.0147687702098	1.13937377929688	1.13922119140625	3.57513427734375E-06	4.07286870540702E-06	318651.3125	0.000119959993753582
2	544	91.1154767699555	1.12930297851563	1.1297607421875	3.4814453125E-06	3.93320033253985E-06	324509.125	0.000120315322419629
2	545	91.2161847697013	1.11923217773438	1.119384765625	3.35723876953125E-06	3.75804188479378E-06	333424.25	0.000120659678941593
2	546	91.316892769447	1.10916137695313	1.10931396484375	3.19122314453125E-06	3.54006829184073E-06	347614.0625	0.00012098941806471
2	547	91.4176007691927	1.09909057617188	1.09893798828125	2.97088623046875E-06	3.26481949741719E-06	369902.4375	0.000121299708553124
2	548	91.5183087689385	1.08901977539063	1.0888671875	2.68463134765625E-06	2.92320692096837E-06	405592.84375	0.000121584482258186
2	549	91.6190167686842	1.07894897460938	1.0791015625	2.32421875E-06	2.50806806434412E-06	464285.71875	0.000121836703328881
2	550	91.71972476843	1.06887817382813	1.068115234375	1.8896484375E-06	2.01836223823193E-06	565245.5	0.000122048884804826
2	551	91.8204327681757	1.05880737304688	1.0589599609375	1.39129638671875E-06	1.47332707456371E-06	761131.875	0.000122214099974371
2	552	91.9211407679214	1.04873657226563	1.04888916015625	8.5418701171875E-07	8.95947437129507E-07	1227938.625	0.000122327168355696
2	553	92.0218487676672	1.03866577148438	1.03912353515625	3.173828125E-07	3.2979994557536E-07	3274038.5	0.000122386161820032
2	554	92.1225567674129	1.02859497070313	1.0284423828125	-1.77917480468751E-07	-1.82977871077128E-07	-5780446.5	0.000122393175843172
2	555	92.2232647671586	1.01852416992188	1.01837158203125	-5.8868408203125E-07	-5.99499173858931E-07	-1729911.875	0.000122354584163986
2	556	92.3239727669044	1.00845336914063	1.00830078125	-8.8623046875E-07	-8.93586843631056E-07	-1137741.125	0.000122280311188661
2	557	92.4246807666501	0.998382568359375	0.99822998046875	-1.05621337890625E-06	-1.0543438975219E-06	-945102.5625	0.000122182493214495
2	558	92.5253887663958	0.988311767578125	0.98785400390625	-1.109619140625E-06	-1.09614165921812E-06	-890264.0625	0.000122073441161774
2	559	92.6260967661416	0.978240966796875	0.977783203125	-1.0711669921875E-06	-1.04736898265401E-06	-912820.5625	0.000121963632409461
2	560	92.7268047658873	0.968170166015625	0.9686279296875	-9.7625732421875E-07	-9.45630063142744E-07	-992185.0625	0.000121860532090068
2	561	92.8275127656331	0.958099365234375	0.958251953125	-8.55712890625E-07	-8.1998854284393E-07	-1119828.875	0.000121768287499435
2	562	92.9282207653788	0.948028564453125	0.9478759765625	-7.36083984374999E-07	-6.97716302511253E-07	-1287728.125	0.000121688135550357
2	563	93.0289287651245	0.937957763671875	0.9381103515625	-6.390380859375E-07	-5.99488259922509E-07	-1468003.75	0.000121618890261743
2	564	93.1296367648703	0.927886962890625	0.927734375	-5.81970214843749E-07	-5.39913742159115E-07	-1594127	0.000121557408419903
2	565	93.230344764616	0.917816162109375	0.91766357421875	-5.8013916015625E-07	-5.32372553152527E-07	-1581799	0.000121498887892812
2	566	93.3310527643617	0.907745361328125	0.90789794921875	-6.45751953125E-07	-5.86276826197718E-07	-1405954.75	0.000121437165944371
2	567	93.4317607641075	0.897674560546875	0.8978271484375	-7.7880859375E-07	-6.99235442880308E-07	-1152821.375	0.000121365432278253
2	568	93.5324687638532	0.887603759765625	0.887451171875	-9.65270996093751E-07	-8.56630833823147E-07	-919380.375	0.00012127761146985
2	569	93.633176763599	0.877532958984375	0.877685546875	-1.182861328125E-06	-1.03818024399516E-06	-742002.0625	0.000121169439808
2	570	93.7338847633447	0.867462158203125	0.86761474609375	-1.39801025390625E-06	-1.21293430765945E-06	-620606.875	0.000121039483929053
2	571	93.8345927630904	0.857391357421875	0.85784912109375	-1.58233642578125E-06	-1.35740583573352E-06	-542140.8125	0.000120889410027303
2	572	93.9353007628362	0.847320556640625	0.84716796875	-1.70806884765625E-06	-1.44702119087015E-06	-495980	0.00012072372919647
2	573	94.0360087625819	0.837249755859375	0.83740234375	-1.77001953125E-06	-1.48221840845508E-06	-473103.46875	0.000120548589620739
2	574	94.1367167623276	0.827178955078125	0.82733154296875	-1.768798828125E-06	-1.46338311424188E-06	-467736.375	0.000120370401418768
2	575	94.2374247620734	0.817108154296875	0.8172607421875	-1.72149658203125E-06	-1.40691156502726E-06	-474738.53125	0.000120194650662597
2	576	94.3381327618191	0.807037353515625	0.806884765625	-1.64642333984375E-06	-1.32847378608858E-06	-490083.4375	0.000120025062642526
2	577	94.4388407615648	0.796966552734375	0.79742431640625	-1.56494140625E-06	-1.24792234146298E-06	-509555.375	0.000119863354484551
2	578	94.5395487613106	0.786895751953125	0.787353515625	-1.4959716796875E-06	-1.1778585076172E-06	-526315.8125	0.000119709227874409
2	579	94.6402567610563	0.776824951171875	0.777587890625	-1.4544677734375E-06	-1.13097655685124E-06	-534620.25	0.000119560660095885
2	580	94.7409647608021	0.766754150390625	0.7672119140625	-1.45477294921875E-06	-1.11611916508991E-06	-527375.6875	0.000119414165965281
2	581	94.8416727605478	0.756683349609375	0.75653076171875	-1.50634765625E-06	-1.13959833925037E-06	-502228.53125	0.000119265059765894
2	582	94.9423807602935	0.746612548828125	0.746551513671875	-1.61834716796875E-06	-1.20817946935858E-06	-461304.9375	0.000119107724458445
2	583	95.0430887600393	0.736541748046875	0.7364501953125	-1.79443359375E-06	-1.32151092202548E-06	-410408.1875	0.000118935873615555
2	584	95.143796759785	0.726470947265625	0.726409912109375	-2.0269775390625E-06	-1.47241644299356E-06	-358371	0.000118743453640491
2	585	95.2445047595307	0.716400146484375	0.71630859375	-2.29644775390625E-06	-1.64496520937973E-06	-311920.28125	0.000118525749712717
2	586	95.3452127592765	0.706329345703125	0.706207275390625	-2.5738525390625E-06	-1.81767336471239E-06	-274377.53125	0.000118280513561331
2	587	95.4459207590222	0.696258544921875	0.69622802734375	-2.82470703125E-06	-1.96664018403681E-06	-246477.953125	0.00011800866923295
2	588	95.546628758768	0.686187744140625	0.686126708984375	-3.0120849609375E-06	-2.066671868306E-06	-227791.296875	0.000117714764201082
2	589	95.6473367585137	0.676116943359375	0.676055908203125	-3.118896484375E-06	-2.10854818760708E-06	-216761.265625	0.000117406045319512
2	590	95.7480447582594	0.666046142578125	0.665985107421875	-3.13812255859375E-06	-2.08994288186659E-06	-212224.0625	0.000117090981802903
2	591	95.8487527580052	0.655975341796875	0.655975341796875	-3.08319091796875E-06	-2.02249725589354E-06	-212758.59375	0.000116777715447824
2	592	95.9494607577509	0.645904541015625	0.64581298828125	-2.97210693359375E-06	-1.91942513083632E-06	-217291.3125	0.000116472801892087
2	593	96.0501687574966	0.635833740234375	0.63580322265625	-2.8289794921875E-06	-1.79867424776603E-06	-224746.5	0.00011618069402175
2	594	96.1508767572424	0.625762939453125	0.625732421875	-2.67120361328125E-06	-1.6714585626687E-06	-234251.125	0.000115903741971124
2	595	96.2515847569881	0.615692138671875	0.61566162109375	-2.5115966796875E-06	-1.54629367443704E-06	-245127.578125	0.000115642767923418
2	596	96.3522927567338	0.605621337890625	0.60552978515625	-2.35748291015625E-06	-1.42752605825081E-06	-256854.375	0.000115397589979693
2	597	96.4530007564796	0.595550537109375	0.595489501953125	-2.213134765625E-06	-1.31789840907004E-06	-269070.625	0.000115167436888441
2	598	96.5537087562253	0.585479736328125	0.58544921875	-2.08038330078125E-06	-1.21795869745256E-06	-281414.125	0.000114951239083894
2	599	96.6544167559711	0.575408935546875	0.575439453125	-1.95831298828125E-06	-1.12689042452985E-06	-293844.5	0.000114747876068577
2	600	96.7551247557168	0.565338134765625	0.5653076171875	-1.84722900390625E-06	-1.04425259905838E-06	-306030.0625	0.00011455625644885
2	601	96.8558327554625	0.555267333984375	0.55523681640625	-1.7462158203125E-06	-9.69563302533061E-07	-317965.75	0.000114375310658943
2	602	96.9565407552083	0.545196533203125	0.545135498046875	-1.6546630859375E-06	-9.02015585779736E-07	-329454.09375	0.000114204063720535
2	603	97.057248754954	0.535125732421875	0.535125732421875	-1.5704345703125E-06	-8.40379925648449E-07	-340750.125	0.000114041664346587
2	604	97.1579567546997	0.525054931640625	0.525054931640625	-1.4935302734375E-06	-7.84185431257356E-07	-351552.9375	0.000113887384941336
2	605	97.2586647544455	0.514984130859375	0.514984130859375	-1.4227294921875E-06	-7.32683133719547E-07	-361969.125	0.000113740534288809
2	606	97.3593727541912	0.504913330078125	0.50494384765625	-1.35711669921875E-06	-6.85267707467574E-07	-372071.09375	0.000113600559416227
2	607	97.4600807539369	0.494842529296875	0.49481201171875	-1.29638671875E-06	-6.41467693185405E-07	-381685.5	0.0001134669437306
2	608	97.5607887536827	0.484771728515625	0.48480224609375	-1.240234375E-06	-6.01268425270973E-07	-390895.65625	0.000113339214294683
2	609	97.6614967534284	0.474700927734375	0.47467041015625	-1.187744140625E-06	-5.63787011742534E-07	-399640.28125	0.000113216956378892
2	610	97.7622047531742	0.464630126953125	0.464569091796875	-1.1383056640625E-06	-5.28821601619711E-07	-408123.34375	0.000113099835289177
2	611	97.8629127529199	0.454559326171875	0.454559326171875	-1.09344482421875E-06	-4.97035500757192E-07	-415713.09375	0.000112987458123825
2	612	97.9636207526656	0.444488525390625	0.4444580078125	-1.05010986328125E-06	-4.66729744630356E-07	-423249.0625	0.000112879519292619
2	613	98.0643287524114	0.434417724609375	0.4344482421875	-1.00982666015625E-06	-4.38717393080879E-07	-430220.625	0.000112775793240871
2	614	98.1650367521571	0.424346923828125	0.42437744140625	-9.716796875E-07	-4.12358957646575E-07	-436746.21875	0.000112676018034108
2	615	98.2657447519028	0.414276123046875	0.414306640625	-9.35974121093749E-07	-3.87780261235093E-07	-442647.5625	0.000112579960841686
2	616	98.3664527516486	0.404205322265625	0.404266357421875	-9.01184082031251E-07	-3.6431839589568E-07	-448594.65625	0.000112487447040621
2	617	98.4671607513943	0.394134521484375	0.394134521484375	-8.69140625000001E-07	-3.42558308830121E-07	-453476.125	0.00011239830928389
2	618	98.5678687511401	0.384063720703125	0.384063720703125	-8.3831787109375E-07	-3.21967490890529E-07	-458136.15625	0.000112312329292763
2	619	98.6685767508858	0.373992919921875	0.3740234375	-8.0841064453125E-07	-3.0236452630561E-07	-462665.15625	0.000112229412479792
2	620	98.7692847506315	0.363922119140625	0.36395263671875	-7.80334472656249E-07	-2.84004784134595E-07	-466405.9375	0.000112149413325824
2	621	98.8699927503773	0.353851318359375	0.35382080078125	-7.5347900390625E-07	-2.66596515530182E-07	-469582.84375	0.000112072179035749
2	622	98.970700750123	0.343780517578125	0.34375	-7.28454589843749E-07	-2.50406259283409E-07	-471889.4375	0.000111997556814458
2	623	99.0714087498687	0.333709716796875	0.33367919921875	-7.04040527343749E-07	-2.34923675179743E-07	-473948.84375	0.000111925422970671
2	624	99.1721167496145	0.323638916015625	0.323699951171875	-6.8084716796875E-07	-2.20390191429942E-07	-475437.03125	0.000111855690192897
2	625	99.2728247493602	0.313568115234375	0.3135986328125	-6.5887451171875E-07	-2.06622146947666E-07	-475961.09375	0.000111788227513898
2	626	99.3735327491059	0.303497314453125	0.303497314453125	-6.38427734375E-07	-1.93761096056733E-07	-475382.4375	0.000111722903966438
2	627	99.4742407488517	0.293426513671875	0.293487548828125	-6.182861328125E-07	-1.81459270720552E-07	-474679.1875	0.000111659624963067
2	628	99.5749487485974	0.283355712890625	0.283355712890625	-5.99060058593751E-07	-1.69747096379069E-07	-473000.5	0.000111598325020168
2	629	99.6756567483432	0.273284912109375	0.2733154296875	-5.81970214843749E-07	-1.59061428917084E-07	-469638.1875	0.000111538858618587
2	630	99.7763647480889	0.263214111328125	0.263153076171875	-5.645751953125E-07	-1.48569696989398E-07	-466108.09375	0.000111481123894919
2	631	99.8770727478346	0.253143310546875	0.25311279296875	-5.48706054687501E-07	-1.38884516331927E-07	-461290.3125	0.000111425062641501
2	632	99.9777807475804	0.243072509765625	0.243133544921875	-5.3375244140625E-07	-1.29773113144438E-07	-455517.4375	0.000111370558443014
2	633	100.078488747326	0.233001708984375	0.233001708984375	-5.2001953125E-07	-1.21165427913184E-07	-448063.40625	0.000111317494884133
2	634	100.179196747072	0.222930908203125	0.222930908203125	-5.07507324218751E-07	-1.13139066115764E-07	-439266.40625	0.000111265755549539
2	635	100.279904746818	0.212860107421875	0.21282958984375	-4.95300292968751E-07	-1.0541455708335E-07	-429698.09375	0.000111215260403696
2	636	100.380612746563	0.202789306640625	0.202880859375	-4.852294921875E-07	-9.8443770468748E-08	-418113.21875	0.000111165885755327
2	637	100.481320746309	0.192718505859375	0.192718505859375	-4.76684570312499E-07	-9.18659353033036E-08	-404289.375	0.000111117449705489
2	638	100.582028746055	0.182647705078125	0.18267822265625	-4.7027587890625E-07	-8.59091571214776E-08	-388449.0625	0.000111069770355243
2	639	100.682736745801	0.172576904296875	0.172637939453125	-4.66308593750001E-07	-8.05025521799507E-08	-370222.5	0.000111022607597988
2	640	100.783444745546	0.162506103515625	0.162567138671875	-4.66308593750001E-07	-7.58064544470471E-08	-348625.65625	0.000110975648567546
2	641	100.884152745292	0.152435302734375	0.152435302734375	-4.72412109375001E-07	-7.20122841357806E-08	-322674.4375	0.000110928376670927
2	642	100.984860745038	0.142364501953125	0.14239501953125	-4.8736572265625E-07	-6.93984461008768E-08	-292172.84375	0.000110880049760453
2	643	101.085568744783	0.132293701171875	0.132293701171875	-5.157470703125E-07	-6.82300864696117E-08	-256508.890625	0.000110829540062696
2	644	101.186276744529	0.122222900390625	0.12225341796875	-5.62744140625E-07	-6.87973908952699E-08	-217245.140625	0.000110775232315063
2	645	101.286984744275	0.112152099609375	0.112213134765625	-6.3507080078125E-07	-7.12632797217339E-08	-176693.90625	0.000110714914626442
2	646	101.387692744021	0.102081298828125	0.1021728515625	-7.3822021484375E-07	-7.5426065393458E-08	-138404.296875	0.000110645763925277
2	647	101.488400743766	0.092010498046875	0.09210205078125	-8.7860107421875E-07	-8.09209552699031E-08	-104828.0703125	0.000110564353235532
2	648	101.589108743512	0.081939697265625	0.082000732421875	-1.0577392578125E-06	-8.67353975309015E-08	-77524.5234375	0.000110466848127544
2	649	101.689816743258	0.071868896484375	0.0718994140625	-1.27410888671875E-06	-9.16076814405642E-08	-56431.140625	0.000110349435999524
2	650	101.790524743004	0.061798095703125	0.061798095703125	-1.5142822265625E-06	-9.35797572765296E-08	-40810.15625	0.000110209024569485
2	651	101.891232742749	0.051727294921875	0.0517578125	-1.75872802734375E-06	-9.10279140953207E-08	-29429.1171875	0.000110044216853566
2	652	101.991940742495	0.041656494140625	0.0417572021484375	-1.98028564453125E-06	-8.26911872309211E-08	-21086.455078125	0.000109855944174342
2	653	102.092648742241	0.031585693359375	0.0316619873046875	-2.15850830078125E-06	-6.83426648606655E-08	-14668.45703125	0.000109647538920399
2	654	102.193356741987	0.021514892578125	0.021612548828125	-2.2747802734375E-06	-4.91637983657256E-08	-9500.939453125	0.000109424305264838
2	655	102.294064741732	0.011444091796875	0.0115753173828125	-2.32879638671875E-06	-2.6956556098412E-08	-4970.5146484375	0.00010919249325525
2	656	102.394772741478	0.001373291015625	0.00147705078125	-2.3284912109375E-06	-3.43929973389834E-09	-634.338195800781	0.000108957981865387
2	657	102.495480741224	-0.008697509765625	-0.0085784912109375	-2.28851318359375E-06	1.96319902556752E-08	3748.5	0.000108725500467699
2	658	102.59618874097	-0.018768310546875	-0.018682861328125	-2.2247314453125E-06	4.1564348407519E-08	8397.8056640625	0.00010849823593162
2	659	102.696896740715	-0.028839111328125	-0.02872314453125	-2.14874267578125E-06	6.17186444173967E-08	13367.419921875	0.000108278014522512
2	660	102.797604740461	-0.038909912109375	-0.038775634765625	-2.07122802734375E-06	8.03131783300159E-08	18721.083984375	0.000108065527456347
2	661	102.898312740207	-0.048980712890625	-0.0488433837890625	-1.995849609375E-06	9.74840403955568E-08	24472.478515625	0.00010786073107738
2	662	102.999020739952	-0.059051513671875	-0.058990478515625	-1.92626953125E-06	1.13631564602201E-07	30624.20703125	0.000107663232483901
2	663	103.099728739698	-0.069122314453125	-0.069091796875	-1.8634033203125E-06	1.2874588151135E-07	37078.28515625	0.000107472413219512
2	664	103.200436739444	-0.079193115234375	-0.079132080078125	-1.806640625E-06	1.42963230587156E-07	43800.67578125	0.000107287611172069
2	665	103.30114473919	-0.089263916015625	-0.089202880859375	-1.75689697265625E-06	1.56720275867883E-07	50772.97265625	0.000107108171505388
2	666	103.401852738935	-0.099334716796875	-0.099273681640625	-1.7132568359375E-06	1.70081307260261E-07	57944.42578125	0.000106933432107326
2	667	103.502560738681	-0.109405517578125	-0.109344482421875	-1.6754150390625E-06	1.83197386149914E-07	65264.1171875	0.000106762803625315
2	668	103.603268738427	-0.119476318359375	-0.119384765625	-1.64337158203125E-06	1.9619352542577E-07	72646.2421875	0.000106595689430833
2	669	103.703976738173	-0.129547119140625	-0.129425048828125	-1.61468505859375E-06	2.08980694083039E-07	80154.9765625	0.000106431631138548
2	670	103.804684737918	-0.139617919921875	-0.139556884765625	-1.59027099609375E-06	2.21933262878338E-07	87756.671875	0.000106270250398666
2	671	103.905392737664	-0.149688720703125	-0.149566650390625	-1.57012939453125E-06	2.34838992696496E-07	95257.53125	0.000106111110653728
2	672	104.00610073741	-0.159759521484375	-0.159637451171875	-1.553955078125E-06	2.48069426334041E-07	102729.7734375	0.000105953797174152
2	673	104.106808737156	-0.169830322265625	-0.169647216796875	-1.54083251953125E-06	2.61397957501686E-07	110101.0078125	0.000105797967989929
2	674	104.207516736901	-0.179901123046875	-0.179718017578125	-1.53076171875E-06	2.75105463742875E-07	117404.3125	0.000105643295682967
2	675	104.308224736647	-0.189971923828125	-0.189849853515625	-1.5240478515625E-06	2.89340249537418E-07	124569.4921875	0.000105489474663045
2	676	104.408932736393	-0.200042724609375	-0.19989013671875	-1.52099609375E-06	3.0403211326302E-07	131420.546875	0.000105336148408242
2	677	104.509640736139	-0.189971923828125	-0.189788818359375	-1.34735107421875E-06	2.55712166108424E-07	140860.703125	0.000105191713373642
