Potential - Start -0.2 V, Upper Vertex 1.5 V, Lower Vertex -0.2 V, Stop -0.19 V; Scan - # end cross 5, Rate 0.1 Vps, Step 0.01 V 
Scan	Index	Time (s)	Potential applied (V)	WE(1).Potential (V)	WE(1).Current (A)	WE(1).Power (W)	WE(1).Resistance (Ω)	WE(1).Charge (C)
1	1	66.2145708328243	-0.189971923828125	-0.18975830078125	-1.971435546875E-07	3.74096238431321E-08	962538.75	0
1	2	66.31527883257	-0.179901123046875	-0.179779052734375	-1.66015625E-07	2.98461309000686E-08	1082904.375	-1.82865171893809E-08
1	3	66.4159868323158	-0.169830322265625	-0.16973876953125	-1.40991210937499E-07	2.39316744199414E-08	1203896.125	-3.37455396959285E-08
1	4	66.5166948320615	-0.159759521484375	-0.159637451171875	-1.190185546875E-07	1.89998186073126E-08	1341282.125	-4.68380711993177E-08
1	5	66.6174028318072	-0.149688720703125	-0.149658203125	-9.85717773437506E-08	1.47520751170305E-08	1518266.25	-5.7794611763029E-08
1	6	66.718110831553	-0.139617919921875	-0.13958740234375	-7.84301757812495E-08	1.09478648369077E-08	1779766.5	-6.67073720705957E-08
1	7	66.8188188312987	-0.129547119140625	-0.12945556640625	-5.85937499999994E-08	7.58528706512607E-09	2209375	-7.36070688844848E-08
1	8	66.9195268310444	-0.119476318359375	-0.119354248046875	-3.75366210937506E-08	4.48015491372189E-09	3179675	-7.84476199555684E-08
1	9	67.0202348307902	-0.109405517578125	-0.109283447265625	-1.43432617187494E-08	1.56748103385951E-09	7619149	-8.10599800615819E-08
1	10	67.1209428305359	-0.099334716796875	-0.099273681640625	1.28173828124994E-08	-1.27242871794664E-09	-7745238	-8.11368110475996E-08
1	11	67.2216508302816	-0.089263916015625	-0.089202880859375	4.60815429687497E-08	-4.11060652183437E-09	-1935761.625	-7.81710198793917E-08
1	12	67.3223588300274	-0.079193115234375	-0.079193115234375	8.85009765625E-08	-7.00866786829124E-09	-894827.625	-7.13942469587892E-08
1	13	67.4230668297731	-0.069122314453125	-0.069122314453125	1.4373779296875E-07	-9.93548887606721E-09	-480891.71875	-5.97000990865126E-08
1	14	67.5237748295189	-0.059051513671875	-0.059051513671875	2.1636962890625E-07	-1.2776953717264E-08	-272919.59375	-4.15672509745946E-08
1	15	67.6244828292646	-0.048980712890625	-0.0488433837890625	3.131103515625E-07	-1.52933683494894E-08	-155994.15625	-1.49058152487669E-08
1	16	67.7251908290103	-0.038909912109375	-0.0387451171875	4.39453125E-07	-1.70266627463889E-08	-88166.6640625	2.29887646696625E-08
1	17	67.8258988287561	-0.028839111328125	-0.028692626953125	5.999755859375E-07	-1.72148748589507E-08	-47822.9921875	7.53281597098976E-08
1	18	67.9266068285018	-0.018768310546875	-0.0186737060546875	7.9498291015625E-07	-1.48452778958585E-08	-23489.4453125	1.45569899245857E-07
1	19	68.0273148282475	-0.008697509765625	-0.00861511230468751	1.016845703125E-06	-8.76023875662213E-09	-8472.388671875	2.36802705444461E-07
1	20	68.1280228279933	0.001373291015625	0.00151672363281249	1.25457763671875E-06	1.90284743517566E-09	1208.95166015625	3.51177959601046E-07
1	21	68.228730827739	0.011444091796875	0.011517333984375	1.484375E-06	1.70960419154653E-08	7759.04638671875	4.89095157263364E-07
1	22	68.3294388274848	0.021514892578125	0.021612548828125	1.6851806640625E-06	3.64210492875827E-08	12825.0634765625	6.48694992833043E-07
1	23	68.4301468272305	0.031585693359375	0.03167724609375	1.83685302734375E-06	5.81864441073776E-08	17245.390625	8.26043446977565E-07
1	24	68.5308548269762	0.041656494140625	0.041778564453125	1.93115234375E-06	8.06807776143614E-08	21634.0078125	1.01577757050109E-06
1	25	68.631562826722	0.051727294921875	0.0517578125	1.96746826171875E-06	1.01831851395673E-07	26306.80859375	1.21208870496048E-06
1	26	68.7322708264677	0.061798095703125	0.061859130859375	1.9586181640625E-06	1.21158421961809E-07	31583.046875	1.40978295348759E-06
1	27	68.8329788262134	0.071868896484375	0.071929931640625	1.91741943359375E-06	1.3791985509215E-07	37513.92578125	1.60495687850926E-06
1	28	68.9336868259592	0.081939697265625	0.08197021484375	1.8572998046875E-06	1.52243259776697E-07	44134.08203125	1.79502910668816E-06
1	29	69.0343948257049	0.092010498046875	0.09197998046875	1.78924560546875E-06	1.64574771588377E-07	51407.1328125	1.97864733308961E-06
1	30	69.1351028254506	0.102081298828125	0.10223388671875	1.719970703125E-06	1.75839289795476E-07	59439.3203125	2.15535033021297E-06
1	31	69.2358108251964	0.112152099609375	0.112213134765625	1.65252685546875E-06	1.85435226285335E-07	67903.96875	2.32516913456493E-06
1	32	69.3365188249421	0.122222900390625	0.12225341796875	1.59149169921875E-06	1.94565302535921E-07	76816.875	2.48851847572951E-06
1	33	69.4372268246879	0.132293701171875	0.13238525390625	1.53472900390625E-06	2.03175488877605E-07	86259.6953125	2.64593609244912E-06
1	34	69.5379348244336	0.142364501953125	0.142425537109375	1.48345947265625E-06	2.11282497275533E-07	96009.0546875	2.79791402135743E-06
1	35	69.6386428241793	0.152435302734375	0.152435302734375	1.43768310546875E-06	2.19153648117754E-07	106028.4453125	2.94500523523311E-06
1	36	69.7393508239251	0.162506103515625	0.162567138671875	1.3970947265625E-06	2.27121688567422E-07	116360.859375	3.08774747281859E-06
1	37	69.8400588236708	0.172576904296875	0.172607421875	1.36077880859375E-06	2.34880516813973E-07	126844.5859375	3.22661753671127E-06
1	38	69.9407668234165	0.182647705078125	0.182647705078125	1.3287353515625E-06	2.42690447294081E-07	137459.8125	3.36204539053142E-06
1	39	70.0414748231623	0.192718505859375	0.19281005859375	1.298828125E-06	2.50427120818131E-07	148449.25	3.49435367752449E-06
1	40	70.142182822908	0.202789306640625	0.20281982421875	1.27288818359375E-06	2.58166949151928E-07	159338.28125	3.62384980689967E-06
1	41	70.2428908226537	0.212860107421875	0.212860107421875	1.24847412109375E-06	2.65750315975311E-07	170496.21875	3.75081049241999E-06
1	42	70.3435988223995	0.222930908203125	0.222991943359375	1.2274169921875E-06	2.737041029377E-07	181675.78125	3.87548152502859E-06
1	43	70.4443068221452	0.233001708984375	0.232940673828125	1.207275390625E-06	2.81223520914864E-07	192947.4375	3.99807822759612E-06
1	44	70.545014821891	0.243072509765625	0.2430419921875	1.1895751953125E-06	2.89116712792747E-07	204309.90625	4.11876908401609E-06
1	45	70.6457228216367	0.253143310546875	0.253143310546875	1.173095703125E-06	2.96961331969214E-07	215790.84375	4.23773917646031E-06
1	46	70.7464308213824	0.263214111328125	0.26318359375	1.15814208984375E-06	3.04803990047731E-07	227246.390625	4.35512629337609E-06
1	47	70.8471388211282	0.273284912109375	0.273284912109375	1.14501953125E-06	3.12916540678998E-07	238672.71875	4.47109960077796E-06
1	48	70.9478468208739	0.283355712890625	0.283294677734375	1.13311767578125E-06	3.21006183412464E-07	250013.484375	4.58581280327053E-06
1	49	71.0485548206196	0.293426513671875	0.293426513671875	1.121826171875E-06	3.29173531099514E-07	261561.484375	4.69935821456602E-06
1	50	71.1492628203654	0.303497314453125	0.303497314453125	1.112060546875E-06	3.37507401582116E-07	272914.375	4.81184360978659E-06
1	51	71.2499708201111	0.313568115234375	0.313629150390625	1.1029052734375E-06	3.45903231391276E-07	284366.375	4.92337585455971E-06
1	52	71.3506788198569	0.323638916015625	0.323638916015625	1.0943603515625E-06	3.5417758681433E-07	295733.40625	5.03401679452509E-06
1	53	71.4513868196026	0.333709716796875	0.333740234375	1.0870361328125E-06	3.62787687890886E-07	307018.53125	5.14385874339496E-06
1	54	71.5520948193483	0.343780517578125	0.34375	1.0809326171875E-06	3.71570592960779E-07	318012.40625	5.25302493770141E-06
1	55	71.6528028190941	0.353851318359375	0.3538818359375	1.075439453125E-06	3.80578455860814E-07	329057.90625	5.36160678166198E-06
1	56	71.7535108188398	0.363922119140625	0.363983154296875	1.070556640625E-06	3.8966459214862E-07	339994.28125	5.46966612091637E-06
1	57	71.8542188185855	0.373992919921875	0.373992919921875	1.06658935546875E-06	3.98896872866317E-07	350643.78125	5.57728026251425E-06
1	58	71.9549268183313	0.384063720703125	0.384124755859375	1.063232421875E-06	4.08413882269087E-07	361280.15625	5.68452514926321E-06
1	59	72.055634818077	0.394134521484375	0.394195556640625	1.060791015625E-06	4.18159089576875E-07	371605.3125	5.7914780882129E-06
1	60	72.1563428178227	0.404205322265625	0.4041748046875	1.0589599609375E-06	4.28004909736046E-07	381671.46875	5.89821638641297E-06
1	61	72.2570508175685	0.414276123046875	0.414306640625	1.05712890625E-06	4.37975529621326E-07	391916.875	6.00476960244123E-06
1	62	72.3577588173142	0.424346923828125	0.424346923828125	1.05621337890625E-06	4.48200893288231E-07	401762.5	6.11118503002217E-06
1	63	72.45846681706	0.434417724609375	0.434417724609375	1.05560302734375E-06	4.58572657180412E-07	411535.15625	6.21752315055346E-06
1	64	72.5591748168057	0.444488525390625	0.444549560546875	1.05499267578125E-06	4.68996489644269E-07	421376.9375	6.32380033493973E-06
1	65	72.6598828165514	0.454559326171875	0.454620361328125	1.05499267578125E-06	4.79621121485252E-07	430922.8125	6.43004659650614E-06
1	66	72.7605908162972	0.464630126953125	0.46466064453125	1.055908203125E-06	4.90639024519623E-07	440057.78125	6.536338787555E-06
1	67	72.8612988160429	0.474700927734375	0.474700927734375	1.05743408203125E-06	5.01964905197383E-07	448917.78125	6.64275421513594E-06
1	68	72.9620068157886	0.484771728515625	0.484832763671875	1.05987548828125E-06	5.13862346451788E-07	457443.15625	6.74936882205657E-06
1	69	73.0627148155344	0.494842529296875	0.494873046875	1.06353759765625E-06	5.26316057403164E-07	465308.5	6.85629129293375E-06
1	70	73.1634228152801	0.504913330078125	0.504913330078125	1.06842041015625E-06	5.39459676929255E-07	472579.28125	6.96364395480487E-06
1	71	73.2641308150259	0.514984130859375	0.514984130859375	1.0748291015625E-06	5.53519953427895E-07	479131.15625	7.07156505086459E-06
1	72	73.3648388147716	0.525054931640625	0.525054931640625	1.08245849609375E-06	5.68350117191585E-07	485057.8125	7.18019327905495E-06
1	73	73.4655468145173	0.535125732421875	0.53515625	1.09283447265625E-06	5.8483715292823E-07	489695.65625	7.28972781871562E-06
1	74	73.5662548142631	0.545196533203125	0.545166015625	1.1077880859375E-06	6.03928413056565E-07	492121.21875	7.40053792469553E-06
1	75	73.6669628140088	0.555267333984375	0.555267333984375	1.1279296875E-06	6.26302494310949E-07	492288.96875	7.51311517888098E-06
1	76	73.7676708137545	0.565338134765625	0.56536865234375	1.15509033203125E-06	6.53051870358468E-07	489458.375	7.62807439969038E-06
1	77	73.8683788135003	0.575408935546875	0.575408935546875	1.19384765625E-06	6.86950613726367E-07	481978.53125	7.74635282141389E-06
1	78	73.969086813246	0.585479736328125	0.58544921875	1.248779296875E-06	7.31096861272817E-07	468817.1875	7.86934924690286E-06
1	79	74.0697948129917	0.595550537109375	0.595550537109375	1.326904296875E-06	7.90238516401587E-07	448827.0625	7.99904501036508E-06
1	80	74.1705028127375	0.605621337890625	0.605560302734375	1.4349365234375E-06	8.68940560394549E-07	422011.90625	8.13811493571848E-06
1	81	74.2712108124832	0.615692138671875	0.61566162109375	1.58172607421875E-06	9.73808027993073E-07	389234.0625	8.29001601232449E-06
1	82	74.371918812229	0.625762939453125	0.625701904296875	1.7730712890625E-06	1.10941402908793E-06	352891.5625	8.45894282974768E-06
1	83	74.4726268119747	0.635833740234375	0.635711669921875	2.01202392578125E-06	1.27906707803049E-06	315956.3125	8.64953744894592E-06
1	84	74.5733348117204	0.645904541015625	0.6458740234375	2.29217529296875E-06	1.48045637615724E-06	281773.40625	8.86627185536781E-06
1	85	74.6740428114662	0.655975341796875	0.655914306640625	2.601318359375E-06	1.70624196016433E-06	252146.875	9.11267852643505E-06
1	86	74.7747508112119	0.666046142578125	0.666015625	2.9180908203125E-06	1.94349399862404E-06	228236.765625	9.39060282689752E-06
1	87	74.8754588109576	0.676116943359375	0.676025390625	3.21319580078125E-06	2.17220190279477E-06	210390.359375	9.69933807937196E-06
1	88	74.9761668107034	0.686187744140625	0.686065673828125	3.4625244140625E-06	2.37551898862876E-06	198140.3125	1.00354864116525E-05
1	89	75.0768748104491	0.696258544921875	0.696197509765625	3.6456298828125E-06	2.53807843364484E-06	190967.703125	1.03934107755776E-05
1	90	75.1775828101948	0.706329345703125	0.70623779296875	3.75946044921875E-06	2.65507287622313E-06	187856.171875	1.07662863229052E-05
1	91	75.2782908099406	0.716400146484375	0.716339111328125	3.8104248046875E-06	2.7295561721985E-06	187994.5625	1.11474610093865E-05
1	92	75.3789988096863	0.726470947265625	0.72637939453125	3.819580078125E-06	2.77446406471427E-06	190172.59375	1.15316615847405E-05
1	93	75.4797068094321	0.736541748046875	0.736419677734375	3.81103515625E-06	2.80652102446766E-06	193233.515625	1.19158939924091E-05
1	94	75.5804148091778	0.746612548828125	0.746612548828125	3.81134033203125E-06	2.84559450847155E-06	195892.390625	1.2299710760999E-05
1	95	75.6811228089235	0.756683349609375	0.7568359375	3.84185791015625E-06	2.90765615318378E-06	196997.375	1.26850800370448E-05
1	96	75.7818308086693	0.766754150390625	0.76690673828125	3.9251708984375E-06	3.01023987958615E-06	195381.75	1.30761809487012E-05
1	97	75.882538808415	0.776824951171875	0.77667236328125	4.07989501953125E-06	3.16874161399028E-06	190365.765625	1.34792680910323E-05
1	98	75.9832468081607	0.786895751953125	0.78704833984375	4.322509765625E-06	3.40202404913725E-06	182081.34375	1.39023632073076E-05
1	99	76.0839548079065	0.796966552734375	0.797119140625	4.65972900390625E-06	3.71435908164131E-06	171065.5625	1.43546549224993E-05
1	100	76.1846628076522	0.807037353515625	0.806884765625	5.0933837890625E-06	4.10977372666821E-06	158418.21875	1.4845762962068E-05
1	101	76.285370807398	0.817108154296875	0.816650390625	5.596923828125E-06	4.57072974313633E-06	145910.578125	1.53840628627222E-05
1	102	76.3860788071437	0.827178955078125	0.82763671875	6.1553955078125E-06	5.09443134433241E-06	134457.109375	1.59758383233566E-05
1	103	76.4867868068894	0.837249755859375	0.8380126953125	6.72607421875E-06	5.63653520657681E-06	124591.65625	1.6624471754767E-05
1	104	76.5874948066352	0.847320556640625	0.8477783203125	7.2662353515625E-06	6.16015677223913E-06	116673.671875	1.73290409293259E-05
1	105	76.6882028063809	0.857391357421875	0.8575439453125	7.7301025390625E-06	6.62890215608058E-06	110935.65625	1.80841670953669E-05
1	106	76.7889108061266	0.867462158203125	0.86761474609375	8.0810546875E-06	7.0112419052748E-06	107364.0546875	1.88803223863943E-05
1	107	76.8896188058724	0.877532958984375	0.87799072265625	8.282470703125E-06	7.27193264538073E-06	106005.890625	1.97042900254019E-05
1	108	76.9903268056181	0.887603759765625	0.8880615234375	8.3404541015625E-06	7.4068361755053E-06	106476.40625	2.05413216463057E-05
1	109	77.0910348053638	0.897674560546875	0.89752197265625	8.270263671875E-06	7.42274323783931E-06	108523.984375	2.13777366298018E-05
1	110	77.1917428051096	0.907745361328125	0.908203125	8.111572265625E-06	7.36695528757991E-06	111963.8828125	2.22026283154264E-05
1	111	77.2924508048553	0.917816162109375	0.91766357421875	7.9071044921875E-06	7.25606150808744E-06	116055.578125	2.30092318815878E-05
1	112	77.3931588046011	0.927886962890625	0.92864990234375	7.696533203125E-06	7.14738507667789E-06	120658.203125	2.37949388974812E-05
1	113	77.4938668043468	0.937957763671875	0.9381103515625	7.5103759765625E-06	7.04556123309885E-06	124908.578125	2.45606661337661E-05
1	114	77.5945748040925	0.948028564453125	0.94818115234375	7.3638916015625E-06	6.98230269335909E-06	128760.8828125	2.53096459346125E-05
1	115	77.6952828038383	0.958099365234375	0.958251953125	7.269287109375E-06	6.96580855219509E-06	131822	2.60464839811902E-05
1	116	77.795990803584	0.968170166015625	0.96771240234375	7.2357177734375E-06	7.00209375281702E-06	133741.046875	2.67768700723536E-05
1	117	77.8966988033297	0.978240966796875	0.97869873046875	7.2601318359375E-06	7.10548147253576E-06	134804.546875	2.75067941402085E-05
1	118	77.9974068030755	0.988311767578125	0.98846435546875	7.33642578125E-06	7.25179506844142E-06	134733.78125	2.82417895505205E-05
1	119	78.0981148028212	0.998382568359375	0.99884033203125	7.4432373046875E-06	7.43460577723454E-06	134194.34375	2.89860035991296E-05
1	120	78.198822802567	1.00845336914063	1.00860595703125	7.55615234375E-06	7.62117997510359E-06	133481.421875	2.97412825602805E-05
1	121	78.2995308023127	1.01852416992188	1.0186767578125	7.6507568359375E-06	7.79364836489549E-06	133147.1875	3.05070116155548E-05
1	122	78.4002388020584	1.02859497070313	1.029052734375	7.6995849609375E-06	7.92327864473918E-06	133650.421875	3.12799638777506E-05
1	123	78.5009468018042	1.03866577148438	1.03851318359375	7.6934814453125E-06	7.98978180682752E-06	134986.125	3.20550643664319E-05
1	124	78.6016548015499	1.04873657226563	1.04888916015625	7.635498046875E-06	8.00879115558928E-06	137370.109375	3.28269416058902E-05
1	125	78.7023628012956	1.05880737304688	1.05865478515625	7.53173828125E-06	7.9735100371181E-06	140559.15625	3.35906734107994E-05
1	126	78.8030708010414	1.06887817382813	1.06903076171875	7.4005126953125E-06	7.91137517808238E-06	144453.609375	3.43425708706491E-05
1	127	78.9037788007871	1.07894897460938	1.0791015625	7.257080078125E-06	7.83112591307145E-06	148696.390625	3.5080640373053E-05
1	128	79.0044868005328	1.08901977539063	1.0888671875	7.1075439453125E-06	7.73917145124869E-06	153198.796875	3.58039542334154E-05
1	129	79.1051948002786	1.09909057617188	1.0992431640625	6.9671630859375E-06	7.65860568208154E-06	157774.859375	3.65126725228038E-05
1	130	79.2059028000243	1.10916137695313	1.1090087890625	6.8359375E-06	7.58111445975373E-06	162232.15625	3.72077156498563E-05
1	131	79.3066107997701	1.11923217773438	1.11907958984375	6.7108154296875E-06	7.50993649489828E-06	166757.625	3.78898475901224E-05
1	132	79.4073187995158	1.12930297851563	1.129150390625	6.5948486328125E-06	7.44657563700457E-06	171217.03125	3.85598395951092E-05
1	133	79.5080267992615	1.13937377929688	1.138916015625	6.4910888671875E-06	7.3928049459937E-06	175458.390625	3.92187685065437E-05
1	134	79.6087347990073	1.14944458007813	1.14959716796875	6.3995361328125E-06	7.35688809072599E-06	179637.59375	3.98678639612626E-05
1	135	79.709442798753	1.15951538085938	1.15936279296875	6.31103515625E-06	7.3167793743778E-06	183704.0625	4.05078935727943E-05
1	136	79.8101507984987	1.16958618164063	1.16943359375	6.2347412109375E-06	7.29111570763052E-06	187567.296875	4.11396213166881E-05
1	137	79.9108587982445	1.17965698242188	1.17950439453125	6.1614990234375E-06	7.26751477486687E-06	191431.40625	4.17638220824301E-05
1	138	80.0115667979902	1.18972778320313	1.18927001953125	6.097412109375E-06	7.25146946933819E-06	195045.046875	4.23811070504598E-05
1	139	80.1122747977359	1.19979858398438	1.20025634765625	6.036376953125E-06	7.24519941286417E-06	198837.21875	4.29920910391957E-05
1	140	80.2129827974817	1.20986938476563	1.2103271484375	5.9814453125E-06	7.23950552128372E-06	202346.9375	4.35972397099249E-05
1	141	80.3136907972274	1.21994018554688	1.2200927734375	5.9326171875E-06	7.23834318705485E-06	205658.4375	4.41971606051084E-05
1	142	80.4143987969732	1.23001098632813	1.2298583984375	5.8868408203125E-06	7.23998073226539E-06	208916.53125	4.47923157480545E-05
1	143	80.5151067967189	1.24008178710938	1.240234375	5.8441162109375E-06	7.24807341612177E-06	212219.328125	4.53830180049408E-05
1	144	80.6158147964646	1.25015258789063	1.2506103515625	5.804443359375E-06	7.25909694665461E-06	215457.40625	4.59695693280082E-05
1	145	80.7165227962104	1.26022338867188	1.26007080078125	5.7708740234375E-06	7.2717098191788E-06	218350.078125	4.65524317405652E-05
1	146	80.8172307959561	1.27029418945313	1.2701416015625	5.7373046875E-06	7.28718896425562E-06	221382.984375	4.71319144708104E-05
1	147	80.9179387957018	1.28036499023438	1.28021240234375	5.706787109375E-06	7.30589908926049E-06	224331.5625	4.77081703138538E-05
1	148	81.0186467954476	1.29043579101563	1.290283203125	5.682373046875E-06	7.33187016521697E-06	227067.671875	4.82816612930037E-05
1	149	81.1193547951933	1.30050659179688	1.300048828125	5.657958984375E-06	7.35562252884847E-06	229773.46875	4.88526893605012E-05
1	150	81.2200627949391	1.31057739257813	1.3104248046875	5.6365966796875E-06	7.38633616492734E-06	232485.109375	4.94214182253927E-05
1	151	81.3207707946848	1.32064819335938	1.32080078125	5.621337890625E-06	7.42466681913356E-06	234962.015625	4.99882989970502E-05
1	152	81.4214787944305	1.33071899414063	1.33056640625	5.609130859375E-06	7.46332079870626E-06	237214.375	5.05537973367609E-05
1	153	81.5221867941763	1.34078979492188	1.34124755859375	5.5999755859375E-06	7.51095330997487E-06	239509.546875	5.11182224727236E-05
1	154	81.622894793922	1.35086059570313	1.3507080078125	5.596923828125E-06	7.5598095463647E-06	241330.4375	5.1682029152289E-05
1	155	81.7236027936677	1.36093139648438	1.36077880859375	5.596923828125E-06	7.61617502575973E-06	243129.78125	5.22456866747234E-05
1	156	81.8243107934135	1.37100219726563	1.37115478515625	5.60302734375E-06	7.68261725170305E-06	244716.78125	5.28096461493988E-05
1	157	81.9250187931592	1.38107299804688	1.38092041015625	5.615234375E-06	7.75419175624847E-06	245923.90625	5.33745333086699E-05
1	158	82.0257267929049	1.39114379882813	1.39129638671875	5.633544921875E-06	7.83793075243011E-06	246966.421875	5.39409520570189E-05
1	159	82.1264347926507	1.40121459960938	1.40167236328125	5.6610107421875E-06	7.9348819781444E-06	247601.078125	5.45096772839315E-05
1	160	82.2271427923964	1.41128540039063	1.4111328125	5.6976318359375E-06	8.04011506261304E-06	247670.0625	5.50816330360249E-05
1	161	82.3278507921422	1.42135620117188	1.4208984375	5.74951171875E-06	8.1694724940462E-06	247133.75	5.56580416741781E-05
1	162	82.4285587918879	1.43142700195313	1.43218994140625	5.8197021484375E-06	8.33491867524572E-06	246093.34375	5.62405984965153E-05
1	163	82.5292667916336	1.44149780273438	1.44134521484375	5.9112548828125E-06	8.52015909913462E-06	243830.671875	5.68312971154228E-05
1	164	82.6299747913794	1.45156860351563	1.45172119140625	6.0211181640625E-06	8.74098532221979E-06	241104.90625	5.74321420572232E-05
1	165	82.7306827911251	1.46163940429688	1.46148681640625	6.1431884765625E-06	8.97818881639978E-06	237903.625	5.80446612730157E-05
1	166	82.8313907908708	1.47171020507813	1.47186279296875	6.2713623046875E-06	9.23058451007819E-06	234695.875	5.86697860853747E-05
1	167	82.9320987906166	1.48178100585938	1.48193359375	6.4056396484375E-06	9.49273180594901E-06	231348.265625	5.9308124036761E-05
1	168	83.0328067903623	1.49185180664063	1.49139404296875	6.54296875E-06	9.75814418779919E-06	227938.4375	5.99601371504832E-05
1	169	83.1335147901081	1.50192260742188	1.5020751953125	6.6864013671875E-06	1.00434772321023E-05	224646.28125	6.06262874498498E-05
1	170	83.2342227898538	1.49185180664063	1.49200439453125	6.38427734375E-06	9.52536993281683E-06	233699.8125	6.12844523857348E-05
1	171	83.3349307895995	1.48178100585938	1.48162841796875	6.1614990234375E-06	9.12905125005636E-06	240465.59375	6.19161801296286E-05
1	172	83.4356387893453	1.47171020507813	1.47216796875	5.9844970703125E-06	8.81018513609888E-06	245996.9375	6.2527775298804E-05
1	173	83.536346789091	1.46163940429688	1.46148681640625	5.841064453125E-06	8.53663823363604E-06	250209	6.31232396699488E-05
1	174	83.6370547888367	1.45156860351563	1.451416015625	5.718994140625E-06	8.3006398199359E-06	253788.6875	6.37053381069563E-05
1	175	83.7377627885825	1.44149780273438	1.441650390625	5.6121826171875E-06	8.09080484032165E-06	256878.734375	6.4275911427103E-05
1	176	83.8384707883282	1.43142700195313	1.43157958984375	5.5206298828125E-06	7.90322064858628E-06	259314.546875	6.48364875814877E-05
1	177	83.9391787880739	1.42135620117188	1.4215087890625	5.438232421875E-06	7.73049487179378E-06	261391.703125	6.53883107588626E-05
1	178	84.0398867878197	1.41128540039063	1.4111328125	5.3619384765625E-06	7.56640702093136E-06	263175.875	6.59321449347772E-05
1	179	84.1405947875654	1.40121459960938	1.40167236328125	5.291748046875E-06	7.4172971835651E-06	264878.90625	6.64686012896709E-05
1	180	84.2413027873112	1.39114379882813	1.3909912109375	5.2276611328125E-06	7.27163023839239E-06	266082.90625	6.69982910039835E-05
1	181	84.3420107870569	1.38107299804688	1.38092041015625	5.16357421875E-06	7.1304853008769E-06	267434.96875	6.75215342198499E-05
1	182	84.4427187868026	1.37100219726563	1.37115478515625	5.1055908203125E-06	7.00055534252897E-06	268559.46875	6.80386292515323E-05
1	183	84.5434267865484	1.36093139648438	1.361083984375	5.047607421875E-06	6.87021747580729E-06	269649.34375	6.85498816892505E-05
1	184	84.6441347862941	1.35086059570313	1.35101318359375	4.99267578125E-06	6.74517059451318E-06	270599.03125	6.9055451604072E-05
1	185	84.7448427860398	1.34078979492188	1.3409423828125	4.937744140625E-06	6.62123011352378E-06	271569.84375	6.95554845151491E-05
1	186	84.8455507857856	1.33071899414063	1.33087158203125	4.88494873046875E-06	6.50123956802418E-06	272443.3125	7.00500968378037E-05
1	187	84.9462587855313	1.32064819335938	1.32049560546875	4.8345947265625E-06	6.3840607253951E-06	273134.71875	7.05395141267218E-05
1	188	85.046966785277	1.31057739257813	1.3104248046875	4.7845458984375E-06	6.26978726359084E-06	273887	7.10238819010556E-05
1	189	85.1476747850228	1.30050659179688	1.3006591796875	4.7369384765625E-06	6.16114266449586E-06	274578	7.15033238520846E-05
1	190	85.2483827847685	1.29043579101563	1.290283203125	4.68994140625E-06	6.05135255682399E-06	275117.125	7.19780073268339E-05
1	191	85.3490907845143	1.28036499023438	1.280517578125	4.64569091796875E-06	5.94888888372225E-06	275635.5625	7.24480923963711E-05
1	192	85.44979878426	1.27029418945313	1.270751953125	4.6026611328125E-06	5.84884082854842E-06	276090.6875	7.29137827875093E-05
1	193	85.5505067840057	1.26022338867188	1.26007080078125	4.560546875E-06	5.74661180507974E-06	276298.1875	7.33751876396127E-05
1	194	85.6512147837515	1.25015258789063	1.25030517578125	4.5208740234375E-06	5.65247228223598E-06	276562.71875	7.38324742997065E-05
1	195	85.7519227834972	1.24008178710938	1.23992919921875	4.48211669921875E-06	5.55750739295036E-06	276639.1875	7.42858101148158E-05
1	196	85.8526307832429	1.23001098632813	1.23016357421875	4.4451904296875E-06	5.46831142855808E-06	276740.34375	7.47353333281353E-05
1	197	85.9533387829887	1.21994018554688	1.219482421875	4.41009521484375E-06	5.37803362021805E-06	276520.65625	7.51812331145629E-05
1	198	86.0540467827344	1.20986938476563	1.21002197265625	4.375E-06	5.29384624314844E-06	276576.4375	7.56235967855901E-05
1	199	86.1547547824802	1.19979858398438	1.199951171875	4.34173583984375E-06	5.20987077834434E-06	276375.90625	7.60625189286657E-05
1	200	86.2554627822259	1.18972778320313	1.18927001953125	4.30999755859375E-06	5.12575115863001E-06	275932.875	7.64981741667725E-05
1	201	86.3561707819716	1.17965698242188	1.18011474609375	4.27825927734375E-06	5.04883655594313E-06	275839.9375	7.69306207075715E-05
1	202	86.4568787817174	1.16958618164063	1.16973876953125	4.24652099609375E-06	4.96731991006527E-06	275458.15625	7.73598803789355E-05
1	203	86.5575867814631	1.15951538085938	1.15966796875	4.21478271484375E-06	4.88774821860716E-06	275143	7.77859386289492E-05
1	204	86.6582947812088	1.14944458007813	1.1492919921875	4.18304443359375E-06	4.80753942611045E-06	274750.125	7.82088027335703E-05
1	205	86.7590027809546	1.13937377929688	1.13922119140625	4.149169921875E-06	4.72682222607546E-06	274566.0625	7.86283635534346E-05
1	206	86.8597107807003	1.12930297851563	1.12945556640625	4.11346435546875E-06	4.64597542304546E-06	274575.25	7.90444246376865E-05
1	207	86.960418780446	1.11923217773438	1.11907958984375	4.073486328125E-06	4.55855524705839E-06	274722.8125	7.94566658441909E-05
1	208	87.0611267801918	1.10916137695313	1.10870361328125	4.0283203125E-06	4.46621334049269E-06	275227.28125	7.98646287876181E-05
1	209	87.1618347799375	1.09909057617188	1.0986328125	3.9739990234375E-06	4.36596565123182E-06	276455.25	8.02675713202916E-05
1	210	87.2625427796833	1.08901977539063	1.08917236328125	3.90777587890625E-06	4.25624148192583E-06	278719.25	8.06644529802725E-05
1	211	87.363250779429	1.07894897460938	1.0791015625	3.8250732421875E-06	4.12764256907394E-06	282112.65625	8.10538331279531E-05
1	212	87.4639587791747	1.06887817382813	1.0687255859375	3.7200927734375E-06	3.97575831811992E-06	287284.65625	8.14337618066929E-05
1	213	87.5646667789205	1.05880737304688	1.0595703125	3.585205078125E-06	3.79877678824414E-06	295539.6875	8.18016123957932E-05
1	214	87.6653747786662	1.04873657226563	1.048583984375	3.41705322265625E-06	3.58306738235115E-06	306867.90625	8.21542053017765E-05
1	215	87.7660827784119	1.03866577148438	1.0382080078125	3.21319580078125E-06	3.33596540258441E-06	323107.625	8.24880626169033E-05
1	216	87.8667907781577	1.02859497070313	1.0284423828125	2.9736328125E-06	3.05820981338911E-06	345853.875	8.27995972940698E-05
1	217	87.9674987779034	1.01852416992188	1.01806640625	2.711181640625E-06	2.76016294264991E-06	375506.53125	8.3085848018527E-05
1	218	88.0682067776492	1.00845336914063	1.00830078125	2.44049072265625E-06	2.4607486466266E-06	413154.96875	8.33452577353455E-05
1	219	88.1689147773949	0.998382568359375	0.99822998046875	2.18536376953125E-06	2.18149557440483E-06	456779.8125	8.3578190242406E-05
1	220	88.2696227771406	0.988311767578125	0.9881591796875	1.96685791015625E-06	1.94356857718958E-06	502405	8.37872648844495E-05
1	221	88.3703307768864	0.978240966796875	0.97869873046875	1.79931640625E-06	1.76098865267704E-06	543928.125	8.39769127196632E-05
1	222	88.4710387766321	0.968170166015625	0.9686279296875	1.68792724609375E-06	1.63497350058606E-06	573856.4375	8.41525034047663E-05
1	223	88.5717467763778	0.958099365234375	0.95855712890625	1.62506103515625E-06	1.55771385834669E-06	589859.1875	8.43193265609443E-05
1	224	88.6724547761236	0.948028564453125	0.948486328125	1.59332275390625E-06	1.51124481817533E-06	595288.25	8.44813912408426E-05
1	225	88.7731627758693	0.937957763671875	0.93841552734375	1.57196044921875E-06	1.47515208936966E-06	596971.5	8.46407710923813E-05
1	226	88.873870775615	0.927886962890625	0.92803955078125	1.5411376953125E-06	1.4302366935226E-06	602178.25	8.47975315991789E-05
1	227	88.9745787753608	0.917816162109375	0.91827392578125	1.48406982421875E-06	1.36278265472356E-06	618753.875	8.49498610477895E-05
1	228	89.0752867751065	0.907745361328125	0.90728759765625	1.38580322265625E-06	1.25732208289264E-06	654701.625	8.50943688419648E-05
1	229	89.1759947748523	0.897674560546875	0.8978271484375	1.22802734375E-06	1.10255621166289E-06	731113.375	8.52259836392477E-05
1	230	89.276702774598	0.887603759765625	0.887451171875	1.0009765625E-06	8.88317799763172E-07	886585.375	8.53382298373617E-05
1	231	89.3774107743437	0.877532958984375	0.8782958984375	6.96716308593751E-07	6.11923098858824E-07	1260622	8.54237150633708E-05
1	232	89.4781187740895	0.867462158203125	0.86700439453125	3.16467285156249E-07	2.74378521680774E-07	2739633.75	8.54747268022038E-05
1	233	89.5788267738352	0.857391357421875	0.85693359375	-1.30615234375001E-07	-1.11928585511123E-07	-6560747.5	8.54840909596533E-05
1	234	89.6795347735809	0.847320556640625	0.84747314453125	-6.15844726562501E-07	-5.21911886153248E-07	-1376115	8.54465033626184E-05
1	235	89.7802427733267	0.837249755859375	0.83770751953125	-1.1090087890625E-06	-9.29024963625125E-07	-755366	8.53596502565779E-05
1	236	89.8809507730724	0.827178955078125	0.82733154296875	-1.571044921875E-06	-1.29977502183465E-06	-526612.3125	8.522469579475E-05
1	237	89.9816587728182	0.817108154296875	0.816650390625	-1.966552734375E-06	-1.60598597176431E-06	-415270.03125	8.50465658004396E-05
1	238	90.0823667725639	0.807037353515625	0.80718994140625	-2.2613525390625E-06	-1.82534085979569E-06	-356950.09375	8.48336712806486E-05
1	239	90.1830747723096	0.796966552734375	0.79742431640625	-2.44232177734375E-06	-1.94756671589857E-06	-326502.5625	8.45968243083917E-05
1	240	90.2837827720554	0.786895751953125	0.7867431640625	-2.51220703125E-06	-1.97646158994758E-06	-313168.125	8.43473462737165E-05
1	241	90.3844907718011	0.776824951171875	0.77728271484375	-2.491455078125E-06	-1.93656501323858E-06	-311979.4375	8.4095387137495E-05
1	242	90.4851987715468	0.766754150390625	0.76690673828125	-2.410888671875E-06	-1.84892667220993E-06	-318101.28125	8.38485357235186E-05
1	243	90.5859067712926	0.756683349609375	0.7568359375	-2.30255126953125E-06	-1.74265346686298E-06	-328694.53125	8.36111939861439E-05
1	244	90.6866147710383	0.746612548828125	0.74652099609375	-2.19207763671875E-06	-1.63643187534035E-06	-340554.09375	8.33848753245547E-05
1	245	90.787322770784	0.736541748046875	0.736480712890625	-2.1014404296875E-06	-1.54767042204185E-06	-350464.6875	8.31686775200069E-05
1	246	90.8880307705298	0.726470947265625	0.726409912109375	-2.044677734375E-06	-1.4852741969662E-06	-355268.65625	8.29599011922255E-05
1	247	90.9887387702755	0.716400146484375	0.71636962890625	-2.0343017578125E-06	-1.45731200973387E-06	-352145.21875	8.27545081847347E-05
1	248	91.0894467700213	0.706329345703125	0.706298828125	-2.07550048828125E-06	-1.46592344663077E-06	-340302.9375	8.25475653982721E-05
1	249	91.190154769767	0.696258544921875	0.696197509765625	-2.1685791015625E-06	-1.50975938595366E-06	-321038.5625	8.23338559712283E-05
1	250	91.2908627695127	0.686187744140625	0.6861572265625	-2.30499267578125E-06	-1.5815874121472E-06	-297683.03125	8.21085995994508E-05
1	251	91.3915707692585	0.676116943359375	0.67608642578125	-2.4713134765625E-06	-1.67082134794327E-06	-273573.75	8.1868092820514E-05
1	252	91.4922787690042	0.666046142578125	0.665985107421875	-2.6434326171875E-06	-1.76048661160166E-06	-251939.515625	8.16105457488447E-05
1	253	91.5929867687499	0.655975341796875	0.655914306640625	-2.796630859375E-06	-1.83435008693777E-06	-234537.328125	8.13366132206284E-05
1	254	91.6936947684957	0.645904541015625	0.645904541015625	-2.9071044921875E-06	-1.87771183846053E-06	-222181.40625	8.10494093457237E-05
1	255	91.7944027682414	0.635833740234375	0.63580322265625	-2.960205078125E-06	-1.88210788110155E-06	-214783.515625	8.07539690867998E-05
1	256	91.8951107679871	0.625762939453125	0.625701904296875	-2.95440673828125E-06	-1.8485778809918E-06	-211785.96875	8.04561423137784E-05
1	257	91.9958187677329	0.615692138671875	0.61566162109375	-2.89825439453125E-06	-1.78434390818438E-06	-212424.984375	8.01614369265735E-05
1	258	92.0965267674786	0.605621337890625	0.60565185546875	-2.80487060546875E-06	-1.69877500866278E-06	-215928.625	7.98742621554993E-05
1	259	92.1972347672244	0.595550537109375	0.595550537109375	-2.68951416015625E-06	-1.60174158736481E-06	-221434.25	7.959759386722E-05
1	260	92.2979427669701	0.585479736328125	0.585540771484375	-2.564697265625E-06	-1.50173480051308E-06	-228307.953125	7.9333025496453E-05
1	261	92.3986507667158	0.575408935546875	0.575439453125	-2.43804931640625E-06	-1.4029496924195E-06	-236024.546875	7.90811172919348E-05
1	262	92.4993587664616	0.565338134765625	0.5653076171875	-2.315673828125E-06	-1.30906801132369E-06	-244122.296875	7.88417455623858E-05
1	263	92.6000667662073	0.555267333984375	0.555267333984375	-2.20062255859375E-06	-1.2219337577335E-06	-252322.84375	7.86143355071545E-05
1	264	92.700774765953	0.545196533203125	0.54510498046875	-2.0941162109375E-06	-1.14151316665811E-06	-260303.125	7.83980794949457E-05
1	265	92.8014827656988	0.535125732421875	0.53515625	-1.99615478515625E-06	-1.06825461898552E-06	-268093.59375	7.8192118962761E-05
1	266	92.9021907654445	0.525054931640625	0.525054931640625	-1.90643310546875E-06	-1.00098213806632E-06	-275412.1875	7.79956026235595E-05
1	267	93.0028987651903	0.514984130859375	0.515045166015625	-1.824951171875E-06	-9.39932249366393E-07	-282224.09375	7.78077155700885E-05
1	268	93.103606764936	0.504913330078125	0.50494384765625	-1.75079345703125E-06	-8.84052383298695E-07	-288408.5625	7.76276647229679E-05
1	269	93.2043147646817	0.494842529296875	0.494842529296875	-1.68212890625E-06	-8.32388877824997E-07	-294176.34375	7.74548025219701E-05
1	270	93.3050227644275	0.484771728515625	0.484832763671875	-1.62017822265625E-06	-7.85515453571861E-07	-299246.5625	7.72885177866556E-05
1	271	93.4057307641732	0.474700927734375	0.4747314453125	-1.56219482421875E-06	-7.41623011890624E-07	-303887.46875	7.71282720961608E-05
1	272	93.5064387639189	0.464630126953125	0.464630126953125	-1.50909423828125E-06	-7.01170620232006E-07	-307886.75	7.69736216170713E-05
1	273	93.6071467636647	0.454559326171875	0.45458984375	-1.4605712890625E-06	-6.63960861402302E-07	-311241.125	7.68240861361846E-05
1	274	93.7078547634104	0.444488525390625	0.44451904296875	-1.41448974609375E-06	-6.28767622856685E-07	-314261.0625	7.66793164075352E-05
1	275	93.8085627631561	0.434417724609375	0.43438720703125	-1.37237548828125E-06	-5.96142342601524E-07	-316522.125	7.65389850130305E-05
1	276	93.9092707629019	0.424346923828125	0.42437744140625	-1.3330078125E-06	-5.65698428545147E-07	-318360.8125	7.64027572586201E-05
1	277	94.0099787626476	0.414276123046875	0.414276123046875	-1.29638671875E-06	-5.37062078365125E-07	-319562.15625	7.62703566579148E-05
1	278	94.1106867623934	0.404205322265625	0.404144287109375	-1.26251220703125E-06	-5.10237100570521E-07	-320111.1875	7.61415067245252E-05
1	279	94.2113947621391	0.394134521484375	0.394134521484375	-1.23138427734375E-06	-4.8533104290982E-07	-320074.375	7.60159309720621E-05
1	280	94.3121027618848	0.384063720703125	0.38409423828125	-1.20086669921875E-06	-4.61245974747726E-07	-319847.53125	7.58934547775425E-05
1	281	94.4128107616306	0.373992919921875	0.373992919921875	-1.17340087890625E-06	-4.38843613892459E-07	-318725.625	7.57739035179839E-05
1	282	94.5135187613763	0.363922119140625	0.36395263671875	-1.14715576171875E-06	-4.17510364059126E-07	-317265.21875	7.56570516387001E-05
1	283	94.614226761122	0.353851318359375	0.3538818359375	-1.12213134765625E-06	-3.9710187138553E-07	-315365.8125	7.55427827243693E-05
1	284	94.7149347608678	0.343780517578125	0.343780517578125	-1.0986328125E-06	-3.7768853644593E-07	-312916.6875	7.54309585317969E-05
1	285	94.8156427606135	0.333709716796875	0.333709716796875	-1.07574462890625E-06	-3.58986454784826E-07	-310212.75	7.53214699216187E-05
1	286	94.9163507603593	0.323638916015625	0.323638916015625	-1.0552978515625E-06	-3.4153543992943E-07	-306680.15625	7.52141640987247E-05
1	287	95.017058760105	0.313568115234375	0.3135986328125	-1.03515625E-06	-3.24623556480219E-07	-302948.125	7.51089028199203E-05
1	288	95.1177667598507	0.303497314453125	0.303497314453125	-1.016845703125E-06	-3.08609912735847E-07	-298469.40625	7.50055769458413E-05
1	289	95.2184747595965	0.293426513671875	0.29339599609375	-9.98840332031251E-07	-2.93055734346126E-07	-293736.65625	7.49040773371235E-05
1	290	95.3191827593422	0.283355712890625	0.283355712890625	-9.82055664062501E-07	-2.78271073739234E-07	-288533.25	7.48043312341906E-05
1	291	95.4198907590879	0.273284912109375	0.2733154296875	-9.661865234375E-07	-2.64073662492592E-07	-282880.625	7.47062294976786E-05
1	292	95.5205987588337	0.263214111328125	0.26324462890625	-9.51232910156249E-07	-2.50406941404435E-07	-276740.46875	7.46096775401384E-05
1	293	95.6213067585794	0.253143310546875	0.253143310546875	-9.37805175781251E-07	-2.37399106595149E-07	-269931.65625	7.45145589462481E-05
1	294	95.7220147583251	0.243072509765625	0.2430419921875	-9.25598144531251E-07	-2.24959208594555E-07	-262578.3125	7.44207281968556E-05
1	295	95.8227227580709	0.233001708984375	0.233062744140625	-9.1400146484375E-07	-2.13019674788484E-07	-254991.671875	7.43280979804695E-05
1	296	95.9234307578166	0.222930908203125	0.22296142578125	-9.02709960937501E-07	-2.01269486410638E-07	-246991.21875	7.42366173653863E-05
1	297	96.0241387575624	0.212860107421875	0.212921142578125	-8.93554687500001E-07	-1.90256685073109E-07	-238285.53125	7.41461699362844E-05
1	298	96.1248467573081	0.202789306640625	0.20281982421875	-8.8531494140625E-07	-1.79559421553677E-07	-229093.421875	7.40565956220962E-05
1	299	96.2255547570538	0.192718505859375	0.1927490234375	-8.7860107421875E-07	-1.69349490874993E-07	-219381.734375	7.39677780074999E-05
1	300	96.3262627567996	0.182647705078125	0.182647705078125	-8.72802734375E-07	-1.5941542130804E-07	-209265.734375	7.38795861252584E-05
1	301	96.4269707565453	0.172576904296875	0.17266845703125	-8.6944580078125E-07	-1.50125856634986E-07	-198596	7.37918599043041E-05
1	302	96.527678756291	0.162506103515625	0.162567138671875	-8.6883544921875E-07	-1.4124408664884E-07	-187109.25	7.37043301342055E-05
1	303	96.6283867560368	0.152435302734375	0.152496337890625	-8.7158203125E-07	-1.32913072548035E-07	-174964.984375	7.36166912247427E-05
1	304	96.7290947557825	0.142364501953125	0.1424560546875	-8.770751953125E-07	-1.24944676826999E-07	-162421.71875	7.35286375856958E-05
1	305	96.8298027555282	0.132293701171875	0.132354736328125	-8.880615234375E-07	-1.17539144639522E-07	-149037.8125	7.34397617634386E-05
1	306	96.930510755274	0.122222900390625	0.12225341796875	-9.051513671875E-07	-1.10657843777062E-07	-135064.0625	7.3349459853489E-05
1	307	97.0312187550197	0.112152099609375	0.1121826171875	-9.3109130859375E-07	-1.04452254845455E-07	-120485.09375	7.32570042600855E-05
1	308	97.1319267547655	0.102081298828125	0.102081298828125	-9.6771240234375E-07	-9.87853354672552E-08	-105487.234375	7.31613909010775E-05
1	309	97.2326347545112	0.092010498046875	0.09210205078125	-1.0186767578125E-06	-9.3822215774253E-08	-90413.4296875	7.30613683117554E-05
1	310	97.3333427542569	0.081939697265625	0.08197021484375	-1.08795166015625E-06	-8.91796290147795E-08	-75343.6171875	7.29552921256982E-05
1	311	97.4340507540027	0.071868896484375	0.071929931640625	-1.17950439453125E-06	-8.48416661369811E-08	-60983.18359375	7.28411105228588E-05
1	312	97.5347587537484	0.061798095703125	0.0618896484375	-1.29791259765625E-06	-8.03273536575944E-08	-47683.98828125	7.27163642295636E-05
1	313	97.6354667534941	0.051727294921875	0.0517578125	-1.4459228515625E-06	-7.48378070625222E-08	-35795.6953125	7.25782010704279E-05
1	314	97.7361747532399	0.041656494140625	0.0417694091796875	-1.6259765625E-06	-6.79160763183972E-08	-25688.8125	7.2423521487508E-05
1	315	97.8368827529856	0.031585693359375	0.0316802978515625	-1.8359375E-06	-5.8163045935089E-08	-17255.650390625	7.22491968190297E-05
1	316	97.9375907527314	0.021514892578125	0.02158203125	-2.064208984375E-06	-4.45498216095075E-08	-10455.3525390625	7.20528114470653E-05
1	317	98.0382987524771	0.011444091796875	0.011553955078125	-2.294921875E-06	-2.65154245226995E-08	-5034.57470703125	7.18333103577606E-05
1	318	98.1390067522228	0.001373291015625	0.0014678955078125	-2.50579833984375E-06	-3.67824970481934E-09	-585.799560546875	7.1591573941987E-05
1	319	98.2397147519686	-0.008697509765625	-0.00863037109375001	-2.67578125E-06	2.30929835254301E-08	3225.36499023438	7.13306653779E-05
1	320	98.3404227517143	-0.018768310546875	-0.01866455078125	-2.79266357421875E-06	5.21238092687781E-08	6683.42236328125	7.10553067619912E-05
1	321	98.44113075146	-0.028839111328125	-0.0287017822265625	-2.8515625E-06	8.18449237272034E-08	10065.283203125	7.0771093305666E-05
1	322	98.5418387512058	-0.038909912109375	-0.0387451171875	-2.85919189453125E-06	1.10779723172527E-07	13551.072265625	7.04835329088382E-05
1	323	98.6425467509515	-0.048980712890625	-0.0488128662109375	-2.82867431640625E-06	1.38075705535812E-07	17256.447265625	7.01971293892711E-05
1	324	98.7432547506972	-0.059051513671875	-0.059051513671875	-2.7740478515625E-06	1.63811719744444E-07	21287.12890625	6.99150114087388E-05
1	325	98.843962750443	-0.069122314453125	-0.06903076171875	-2.70660400390625E-06	1.86838931881539E-07	25504.56640625	6.96390343364328E-05
1	326	98.9446707501887	-0.079193115234375	-0.0791015625	-2.6348876953125E-06	2.08423728054186E-07	30020.849609375	6.93700712872669E-05
1	327	99.0453787499345	-0.089263916015625	-0.08917236328125	-2.56439208984375E-06	2.28672888624715E-07	34773.296875	6.91082677803934E-05
1	328	99.1460867496802	-0.099334716796875	-0.099212646484375	-2.49786376953125E-06	2.47819684773276E-07	39719	6.88533618813381E-05
1	329	99.2467947494259	-0.109405517578125	-0.109344482421875	-2.43743896484375E-06	2.66520515879165E-07	44860.3984375	6.86048515490256E-05
1	330	99.3475027491717	-0.119476318359375	-0.119384765625	-2.3828125E-06	2.84471497025152E-07	50102.4609375	6.83621328789741E-05
1	331	99.4482107489174	-0.129547119140625	-0.12945556640625	-2.33428955078125E-06	3.02186776934832E-07	55458.23046875	6.81246019667014E-05
1	332	99.5489187486631	-0.139617919921875	-0.1395263671875	-2.2918701171875E-06	3.19776290780283E-07	60878.83203125	6.78916621836834E-05
1	333	99.6496267484089	-0.149688720703125	-0.149566650390625	-2.254638671875E-06	3.37218722279431E-07	66337.3125	6.76627241773531E-05
1	334	99.7503347481546	-0.159759521484375	-0.15966796875	-2.22259521484375E-06	3.54877272457088E-07	71838.53125	6.74372786306776E-05
1	335	99.8510427479004	-0.169830322265625	-0.169708251953125	-2.19482421875E-06	3.72479775023749E-07	77322.0234375	6.72148453304544E-05
1	336	99.9517507476461	-0.179901123046875	-0.1798095703125	-2.17193603515625E-06	3.90534864891379E-07	82787.6953125	6.69949586153962E-05
1	337	100.052458747392	-0.189971923828125	-0.18988037109375	-2.1527099609375E-06	4.08757330205844E-07	88205.28125	6.67771964799613E-05
1	338	100.153166747138	-0.200042724609375	-0.19989013671875	-2.1380615234375E-06	4.27377415235242E-07	93491.296875	6.65611369186081E-05
1	339	100.253874746883	-0.189971923828125	-0.1898193359375	-1.90704345703125E-06	3.61993699016239E-07	99535.9296875	6.63574537611566E-05
2	340	100.354582746629	-0.179901123046875	-0.1798095703125	-1.74102783203125E-06	3.13053448053324E-07	103277.828125	6.61737576592714E-05
2	341	100.455290746375	-0.169830322265625	-0.169708251953125	-1.6058349609375E-06	2.72523436706251E-07	105682.2578125	6.60052319290116E-05
2	342	100.555998746121	-0.159759521484375	-0.15966796875	-1.490478515625E-06	2.37981666373344E-07	107125.3125	6.58493154332973E-05
2	343	100.656706745866	-0.149688720703125	-0.1495361328125	-1.38946533203125E-06	2.07775272542676E-07	107621.3515625	6.5704298322089E-05
2	344	100.757414745612	-0.139617919921875	-0.1395263671875	-1.29852294921875E-06	1.81178180014285E-07	107450.0625	6.556895095855E-05
2	345	100.858122745358	-0.129547119140625	-0.12945556640625	-1.21490478515625E-06	1.57276176082632E-07	106556.1484375	6.54423856758513E-05
2	346	100.958830745103	-0.119476318359375	-0.119354248046875	-1.13677978515625E-06	1.35679485424589E-07	104993.296875	6.53239694656804E-05
2	347	101.059538744849	-0.109405517578125	-0.109283447265625	-1.060791015625E-06	1.15926894750373E-07	103020.71875	6.52133167022839E-05
2	348	101.160246744595	-0.099334716796875	-0.099273681640625	-9.86633300781251E-07	9.79467174033744E-08	100618.625	6.51102163828909E-05
2	349	101.260954744341	-0.089263916015625	-0.089202880859375	-9.0972900390625E-07	8.11504463626989E-08	98054.3515625	6.50147267151624E-05
2	350	101.361662744086	-0.079193115234375	-0.079132080078125	-8.2763671875E-07	6.54926139986856E-08	95612.09375	6.49272478767671E-05
2	351	101.462370743832	-0.069122314453125	-0.069061279296875	-7.354736328125E-07	5.07927495618787E-08	93900.4140625	6.48485365672968E-05
2	352	101.563078743578	-0.059051513671875	-0.058929443359375	-6.28662109375E-07	3.70467105881289E-08	93737.859375	6.47798515274189E-05
2	353	101.663786743324	-0.048980712890625	-0.0488189697265625	-5.01098632812499E-07	2.44631177537258E-08	97423.875	6.47229608148336E-05
2	354	101.764494743069	-0.038909912109375	-0.03876953125	-3.4759521484375E-07	1.34761037884346E-08	111536.4375	6.46802218398079E-05
2	355	101.865202742815	-0.028839111328125	-0.0287200927734375	-1.6357421875E-07	4.69786654022641E-09	175578.359375	6.46544867777266E-05
2	356	101.965910742561	-0.018768310546875	-0.018646240234375	5.24902343749994E-08	-9.78745529067737E-10	-355232.5625	6.46488915663213E-05
2	357	102.066618742307	-0.008697509765625	-0.00859375	2.94189453125E-07	-2.528190545803E-09	-29211.619140625	6.46663465886377E-05
2	358	102.167326742052	0.001373291015625	0.00146484375	5.48400878906249E-07	8.03321575926219E-10	2671.11865234375	6.47087799734436E-05
2	359	102.268034741798	0.011444091796875	0.0115692138671875	7.9681396484375E-07	9.21851128765638E-09	14519.341796875	6.4776511862874E-05
2	360	102.368742741544	0.021514892578125	0.0215789794921875	1.0150146484375E-06	2.1902978986077E-08	21259.771484375	6.48677450953983E-05
2	361	102.46945074129	0.031585693359375	0.0316986083984375	1.18621826171875E-06	3.76014668290736E-08	26722.40625	6.49785870336927E-05
2	362	102.570158741035	0.041656494140625	0.041778564453125	1.3006591796875E-06	5.43396723173828E-08	32121.0703125	6.51038135401905E-05
2	363	102.670866740781	0.051727294921875	0.0517578125	1.35986328125E-06	7.03835496551619E-08	38061.04296875	6.52377784717828E-05
2	364	102.771574740527	0.061798095703125	0.061859130859375	1.3720703125E-06	8.48750758564165E-08	45084.51953125	6.53753450023942E-05
2	365	102.872282740272	0.071868896484375	0.071929931640625	1.35223388671875E-06	9.72660885167898E-08	53193.41015625	6.5512525907252E-05
2	366	102.972990740018	0.081939697265625	0.082061767578125	1.312255859375E-06	1.07686027206455E-07	62534.88671875	6.56466872896999E-05
2	367	103.073698739764	0.092010498046875	0.092071533203125	1.2628173828125E-06	1.16269532668412E-07	72909.6171875	6.57763521303423E-05
2	368	103.17440673951	0.102081298828125	0.102081298828125	1.2109375E-06	1.23614071867451E-07	84299.390625	6.59009165246971E-05
2	369	103.275114739255	0.112152099609375	0.112152099609375	1.160888671875E-06	1.30196099235036E-07	96608.84375	6.60203513689339E-05
2	370	103.375822739001	0.122222900390625	0.122314453125	1.11480712890625E-06	1.36357016344846E-07	109718.0390625	6.61349404253997E-05
2	371	103.476530738747	0.132293701171875	0.132415771484375	1.072998046875E-06	1.42081859166865E-07	123407.2890625	6.6245105699636E-05
2	372	103.577238738493	0.142364501953125	0.14239501953125	1.03607177734375E-06	1.4753146615476E-07	137437.40625	6.63513055769727E-05
2	373	103.677946738238	0.152435302734375	0.1524658203125	1.0040283203125E-06	1.53079994902328E-07	151854.109375	6.64540348225273E-05
2	374	103.778654737984	0.162506103515625	0.16253662109375	9.765625E-07	1.58727161192473E-07	166437.515625	6.65537663735449E-05
2	375	103.87936273773	0.172576904296875	0.172637939453125	9.521484375E-07	1.64376942279887E-07	181314.109375	6.66508785798214E-05
2	376	103.980070737476	0.182647705078125	0.182586669921875	9.31701660156251E-07	1.70116308595425E-07	195971.171875	6.67457425151952E-05
2	377	104.080778737221	0.192718505859375	0.192779541015625	9.136962890625E-07	1.76141952579201E-07	210988.640625	6.68386637698859E-05
2	378	104.181486736967	0.202789306640625	0.202880859375	8.984375E-07	1.82275769589069E-07	225815.234375	6.69299115543254E-05
2	379	104.282194736713	0.212860107421875	0.212890625	8.85925292968751E-07	1.88605184803237E-07	240303.140625	6.70197623549029E-05
2	380	104.382902736459	0.222930908203125	0.22296142578125	8.746337890625E-07	1.95009590697737E-07	254919.75	6.71084126224741E-05
2	381	104.483610736204	0.233001708984375	0.23297119140625	8.648681640625E-07	2.01489356754792E-07	269371.9375	6.71960006002337E-05
2	382	104.58431873595	0.243072509765625	0.243133544921875	8.56933593750001E-07	2.08349305808042E-07	283725.0625	6.72827009111643E-05
2	383	104.685026735696	0.253143310546875	0.253143310546875	8.4991455078125E-07	2.15150180338242E-07	297845.59375	6.73686517984606E-05
2	384	104.785734735441	0.263214111328125	0.26324462890625	8.441162109375E-07	2.22209052935796E-07	311858.28125	6.74539478495717E-05
2	385	104.886442735187	0.273284912109375	0.27337646484375	8.3892822265625E-07	2.29343228852485E-07	325863.96875	6.75386982038617E-05
2	386	104.987150734933	0.283355712890625	0.28338623046875	8.349609375E-07	2.36616429560854E-07	339400.59375	6.76229828968644E-05
2	387	105.087858734679	0.293426513671875	0.29339599609375	8.30993652343751E-07	2.4381020580222E-07	353066.46875	6.77068746881559E-05
2	388	105.188566734424	0.303497314453125	0.30352783203125	8.282470703125E-07	2.51396016892613E-07	366470.15625	6.77904245094396E-05
2	389	105.28927473417	0.313568115234375	0.313568115234375	8.26416015625001E-07	2.59137721059233E-07	379431.3125	6.78737415000796E-05
2	390	105.389982733916	0.323638916015625	0.32366943359375	8.24890136718751E-07	2.66991719399812E-07	392378.84375	6.79568911436945E-05
2	391	105.490690733662	0.333709716796875	0.333709716796875	8.2366943359375E-07	2.74866494009984E-07	405150.0625	6.80399025441147E-05
2	392	105.591398733407	0.343780517578125	0.343780517578125	8.23364257812501E-07	2.83056579064578E-07	417531.5	6.81228411849588E-05
2	393	105.692106733153	0.353851318359375	0.3538818359375	8.23364257812501E-07	2.91373652316906E-07	429799.84375	6.820575799793E-05
2	394	105.792814732899	0.363922119140625	0.36395263671875	8.2427978515625E-07	2.99998788477751E-07	441540.1875	6.82887257426046E-05
2	395	105.893522732645	0.373992919921875	0.37396240234375	8.251953125E-07	3.08592007058905E-07	453180.5	6.83717807987705E-05
2	396	105.99423073239	0.384063720703125	0.384033203125	8.270263671875E-07	3.17605582722535E-07	464354.28125	6.84549740981311E-05
2	397	106.094938732136	0.394134521484375	0.3941650390625	8.29162597656249E-07	3.26826892660392E-07	475377.28125	6.85383711243048E-05
2	398	106.195646731882	0.404205322265625	0.4041748046875	8.31298828125E-07	3.35990023359045E-07	486196.78125	6.8621986429207E-05
2	399	106.296354731628	0.414276123046875	0.41424560546875	8.343505859375E-07	3.45626034459201E-07	496488.6875	6.87058563926257E-05
2	400	106.397062731373	0.424346923828125	0.424346923828125	8.3740234375E-07	3.55349101255342E-07	506742	6.87900319462642E-05
2	401	106.497770731119	0.434417724609375	0.434417724609375	8.40148925781251E-07	3.64975591082839E-07	517072.28125	6.88745058141649E-05
2	402	106.598478730865	0.444488525390625	0.44451904296875	8.43505859375E-07	3.74954424842144E-07	526989.875	6.89592852722853E-05
2	403	106.69918673061	0.454559326171875	0.454620361328125	8.47473144531249E-07	3.8527855394932E-07	536442.1875	6.90444358042441E-05
2	404	106.799894730356	0.464630126953125	0.464630126953125	8.5113525390625E-07	3.95463075619773E-07	545894.625	6.91299646859989E-05
2	405	106.900602730102	0.474700927734375	0.4747314453125	8.563232421875E-07	4.06523554374871E-07	554383.5	6.92159446771257E-05
2	406	107.001310729848	0.484771728515625	0.484771728515625	8.6090087890625E-07	4.17340402236732E-07	563098.1875	6.93024121574126E-05
2	407	107.102018729593	0.494842529296875	0.49481201171875	8.6700439453125E-07	4.290041601962E-07	570714.5625	6.9389418058563E-05
2	408	107.202726729339	0.504913330078125	0.504913330078125	8.7432861328125E-07	4.41460144884331E-07	577486.9375	6.94771006237715E-05
2	409	107.303434729085	0.514984130859375	0.514892578125	8.82873535156251E-07	4.54585006082198E-07	583200.875	6.95655835443176E-05
2	410	107.404142728831	0.525054931640625	0.5250244140625	8.93554687500001E-07	4.69138029757232E-07	587568.3125	6.96550341672264E-05
2	411	107.504850728576	0.535125732421875	0.535064697265625	9.0606689453125E-07	4.84804388634075E-07	590535.5625	6.97456489433534E-05
2	412	107.605558728322	0.545196533203125	0.545166015625	9.22546386718751E-07	5.02940906699223E-07	590936.1875	6.98377261869609E-05
2	413	107.706266728068	0.555267333984375	0.5552978515625	9.43908691406251E-07	5.24150436831405E-07	588296.1875	6.99317097314633E-05
2	414	107.806974727814	0.565338134765625	0.5653076171875	9.735107421875E-07	5.50333027149463E-07	580689.6875	7.00282616890036E-05
2	415	107.907682727559	0.575408935546875	0.575469970703125	1.0137939453125E-06	5.83407995691232E-07	567639.9375	7.01283279340714E-05
2	416	108.008390727305	0.585479736328125	0.585479736328125	1.06964111328125E-06	6.26253154223377E-07	547360.9375	7.02332399669103E-05
2	417	108.109098727051	0.595550537109375	0.59552001953125	1.14837646484375E-06	6.83881182794721E-07	518575.625	7.0344925916288E-05
2	418	108.209806726797	0.605621337890625	0.6055908203125	1.25579833984375E-06	7.60499972329853E-07	482235.71875	7.04659832990728E-05
2	419	108.310514726542	0.615692138671875	0.615631103515625	1.39984130859375E-06	8.61785849792795E-07	439786.375	7.05997081240639E-05
2	420	108.411222726288	0.625762939453125	0.625762939453125	1.5863037109375E-06	9.92650029729703E-07	394478.65625	7.07500730641186E-05
2	421	108.511930726034	0.635833740234375	0.635833740234375	1.817626953125E-06	1.15570844627655E-06	349815.34375	7.09214727976359E-05
2	422	108.612638725779	0.645904541015625	0.645843505859375	2.08984375E-06	1.34971196530387E-06	309039.125	7.11182292434387E-05
2	423	108.713346725525	0.655975341796875	0.65594482421875	2.391357421875E-06	1.56859846356383E-06	274298.125	7.13438785169274E-05
2	424	108.814054725271	0.666046142578125	0.66595458984375	2.70263671875E-06	1.7998332850766E-06	246409.21875	7.16003778507002E-05
2	425	108.914762725017	0.676116943359375	0.67608642578125	2.99835205078125E-06	2.02714500119328E-06	225486.015625	7.18874507583678E-05
2	426	109.015470724762	0.686187744140625	0.68609619140625	3.250732421875E-06	2.23031497625925E-06	211058.96875	7.22021140973084E-05
2	427	109.116178724508	0.696258544921875	0.696197509765625	3.443603515625E-06	2.39742803387344E-06	202171.21875	7.25392019376159E-05
2	428	109.216886724254	0.706329345703125	0.706268310546875	3.5699462890625E-06	2.52133986577974E-06	197837.25	7.28923623682931E-05
2	429	109.317594724	0.716400146484375	0.716278076171875	3.63494873046875E-06	2.60363390225393E-06	197053.15625	7.32551561668515E-05
2	430	109.418302723745	0.726470947265625	0.726348876953125	3.658447265625E-06	2.65730909632111E-06	198540.203125	7.36224101274274E-05
2	431	109.519010723491	0.736541748046875	0.7364501953125	3.66241455078125E-06	2.69718589152035E-06	201083.25	7.399104651995E-05
2	432	109.619718723237	0.746612548828125	0.74652099609375	3.670654296875E-06	2.74022045232414E-06	203375.46875	7.43602940929122E-05
2	433	109.720426722983	0.756683349609375	0.7568359375	3.7042236328125E-06	2.80348945125297E-06	204317.03125	7.47316444176249E-05
2	434	109.821134722728	0.766754150390625	0.76690673828125	3.785400390625E-06	2.90304910777195E-06	202595.9375	7.51087791286409E-05
2	435	109.921842722474	0.776824951171875	0.7769775390625	3.93096923828125E-06	3.05427488456189E-06	197655.453125	7.54973298171535E-05
2	436	110.02255072222	0.786895751953125	0.7867431640625	4.15863037109375E-06	3.2717739486543E-06	189183.234375	7.59046743041836E-05
2	437	110.123258721965	0.796966552734375	0.7965087890625	4.4769287109375E-06	3.56591294803366E-06	177914.109375	7.633950735908E-05
2	438	110.223966721711	0.807037353515625	0.80780029296875	4.88494873046875E-06	3.94606286135968E-06	165365.15625	7.6810916652903E-05
2	439	110.324674721457	0.817108154296875	0.81756591796875	5.37109375E-06	4.39122322859475E-06	152215.90625	7.73273495724425E-05
2	440	110.425382721203	0.827178955078125	0.82733154296875	5.908203125E-06	4.88804289489053E-06	140031	7.7895303547848E-05
2	441	110.526090720948	0.837249755859375	0.83709716796875	6.45751953125E-06	5.40557130079833E-06	129631.3828125	7.85179727245122E-05
2	442	110.626798720694	0.847320556640625	0.84716796875	6.982421875E-06	5.91528396398644E-06	121328.671875	7.91947240941226E-05
2	443	110.72750672044	0.857391357421875	0.8575439453125	7.43408203125E-06	6.37505172562669E-06	115353.0390625	7.99206536612473E-05
2	444	110.828214720186	0.867462158203125	0.8673095703125	7.781982421875E-06	6.7493879214453E-06	111450.984375	8.06868411018513E-05
2	445	110.928922719931	0.877532958984375	0.87738037109375	7.9925537109375E-06	7.01250974088907E-06	109774.71875	8.14811573945917E-05
2	446	111.029630719677	0.887603759765625	0.88775634765625	8.0596923828125E-06	7.15504256731947E-06	110147.6796875	8.2289450801909E-05
2	447	111.130338719423	0.897674560546875	0.89752197265625	8.0047607421875E-06	7.18444835001719E-06	112123.53125	8.30983553896658E-05
2	448	111.231046719169	0.907745361328125	0.9075927734375	7.8643798828125E-06	7.13765439286362E-06	115405.515625	8.38974301586859E-05
2	449	111.331754718914	0.917816162109375	0.91796875	7.6812744140625E-06	7.05116963217733E-06	119507.359375	8.46802213345654E-05
2	450	111.43246271866	0.927886962890625	0.92864990234375	7.489013671875E-06	6.95467178957188E-06	124001.6328125	8.54441022966057E-05
2	451	111.533170718406	0.937957763671875	0.9381103515625	7.3150634765625E-06	6.86233624946908E-06	128243.640625	8.61895459820516E-05
2	452	111.633878718152	0.948028564453125	0.948486328125	7.177734375E-06	6.80798257235438E-06	132142.859375	8.69193172547966E-05
2	453	111.734586717897	0.958099365234375	0.95855712890625	7.09228515625E-06	6.79836057315697E-06	135154.90625	8.76378690009005E-05
2	454	111.835294717643	0.968170166015625	0.968017578125	7.061767578125E-06	6.83591497363523E-06	137078.65625	8.83505854289979E-05
2	455	111.936002717389	0.978240966796875	0.97869873046875	7.0953369140625E-06	6.94419668434421E-06	137935.484375	8.90634546522051E-05
2	456	112.036710717134	0.988311767578125	0.9881591796875	7.177734375E-06	7.09274354449008E-06	137670.078125	8.97821591934189E-05
2	457	112.13741871688	0.998382568359375	0.99853515625	7.2967529296875E-06	7.28606437405688E-06	136846.515625	9.05110064195469E-05
2	458	112.238126716626	1.00845336914063	1.00830078125	7.421875E-06	7.48348202250781E-06	135855.265625	9.12521500140429E-05
2	459	112.338834716372	1.01852416992188	1.0186767578125	7.5347900390625E-06	7.67551500757691E-06	135196.4375	9.20052771107294E-05
2	460	112.439542716117	1.02859497070313	1.02783203125	7.6019287109375E-06	7.813506272214E-06	135206.75	9.27674700506032E-05
2	461	112.540250715863	1.03866577148438	1.03912353515625	7.6171875E-06	7.91519869380863E-06	136418.265625	9.3533810286317E-05
2	462	112.640958715609	1.04873657226563	1.048583984375	7.58056640625E-06	7.94886000221595E-06	138325.28125	9.42990809562616E-05
2	463	112.741666715355	1.05880737304688	1.05926513671875	7.501220703125E-06	7.94578136265045E-06	141212.375	9.5058509032242E-05
2	464	112.8423747151	1.06887817382813	1.06903076171875	7.391357421875E-06	7.9015881055966E-06	144632.546875	9.58084128797054E-05
2	465	112.943082714846	1.07894897460938	1.0791015625	7.2723388671875E-06	7.84759231464704E-06	148384.390625	9.65467843343504E-05
2	466	113.043790714592	1.08901977539063	1.0888671875	7.1502685546875E-06	7.78569210524438E-06	152283.40625	9.72730194916949E-05
2	467	113.144498714338	1.09909057617188	1.09893798828125	7.037353515625E-06	7.73361534811556E-06	156157.84375	9.79874239419587E-05
2	468	113.245206714083	1.10916137695313	1.10931396484375	6.9305419921875E-06	7.68814697948983E-06	160061.640625	9.86907616606914E-05
2	469	113.345914713829	1.11923217773438	1.11907958984375	6.8389892578125E-06	7.65337335906224E-06	163632.3125	9.93841167655773E-05
2	470	113.446622713575	1.12930297851563	1.12945556640625	6.756591796875E-06	7.63126990932506E-06	167163.515625	0.000100068704341538
2	471	113.547330713321	1.13937377929688	1.13922119140625	6.6864013671875E-06	7.6172900662641E-06	170378.828125	0.000100745615782216
2	472	113.648038713066	1.14944458007813	1.14959716796875	6.622314453125E-06	7.61299361329293E-06	173594.46875	0.000101415760582313
2	473	113.748746712812	1.15951538085938	1.15936279296875	6.5673828125E-06	7.6139790508023E-06	176533.46875	0.000102079917269293
2	474	113.849454712558	1.16958618164063	1.1700439453125	6.5155029296875E-06	7.62342460802756E-06	179578.453125	0.000102738689747639
2	475	113.950162712303	1.17965698242188	1.18011474609375	6.4697265625E-06	7.63501975598047E-06	182405.65625	0.000103392550954595
2	476	114.050870712049	1.18972778320313	1.1895751953125	6.427001953125E-06	7.6454016380012E-06	185090.234375	0.000104041951999534
2	477	114.151578711795	1.19979858398438	1.19964599609375	6.3873291015625E-06	7.6625337896985E-06	187816.53125	0.000104687205748633
2	478	114.252286711541	1.20986938476563	1.2103271484375	6.34765625E-06	7.68274003348779E-06	190673.09375	0.000105328464997001
2	479	114.352994711286	1.21994018554688	1.2200927734375	6.31103515625E-06	7.70004862715723E-06	193326.890625	0.000105965875263792
2	480	114.453702711032	1.23001098632813	1.2298583984375	6.2744140625E-06	7.71664053900167E-06	196011.671875	0.000106599603896029
2	481	114.554410710778	1.24008178710938	1.24053955078125	6.23779296875E-06	7.73822830524296E-06	198874.765625	0.000107229643617757
2	482	114.655118710524	1.25015258789063	1.25030517578125	6.2042236328125E-06	7.75717307988089E-06	201524.84375	0.000107856154500041
2	483	114.755826710269	1.26022338867188	1.26007080078125	6.1676025390625E-06	7.77161585574504E-06	204304.8125	0.000108479121990968
2	484	114.856534710015	1.27029418945313	1.2701416015625	6.1370849609375E-06	7.79496622271836E-06	206961.71875	0.000109098713437561
2	485	114.957242709761	1.28036499023438	1.28021240234375	6.103515625E-06	7.81379549152916E-06	209750.015625	0.000109715074358974
2	486	115.057950709507	1.29043579101563	1.29058837890625	6.072998046875E-06	7.83774066803744E-06	212512.5625	0.000110328212031163
2	487	115.158658709252	1.30050659179688	1.300048828125	6.0455322265625E-06	7.85948668635683E-06	215042.90625	0.000110938424768392
2	488	115.259366708998	1.31057739257813	1.3104248046875	6.01806640625E-06	7.88622310210485E-06	217748.484375	0.000111545879917685
2	489	115.360074708744	1.32064819335938	1.32049560546875	5.99365234375E-06	7.91459206084255E-06	220315.6875	0.000112150715722237
2	490	115.46078270849	1.33071899414063	1.33087158203125	5.9722900390625E-06	7.94835068518296E-06	222841.09375	0.000112753252324183
2	491	115.561490708235	1.34078979492188	1.3409423828125	5.950927734375E-06	7.97985103417886E-06	225333.34375	0.000113353627966717
2	492	115.662198707981	1.35086059570313	1.3507080078125	5.9326171875E-06	8.01323312771274E-06	227674.90625	0.000113952017272823
2	493	115.762906707727	1.36093139648438	1.36138916015625	5.9173583984375E-06	8.05582749308087E-06	230067.0625	0.000114548711280804
2	494	115.863614707472	1.37100219726563	1.37115478515625	5.902099609375E-06	8.09269204182783E-06	232316.453125	0.000115143862785771
2	495	115.964322707218	1.38107299804688	1.380615234375	5.8929443359375E-06	8.13588849268854E-06	234282.765625	0.00011573779192986
2	496	116.065030706964	1.39114379882813	1.39129638671875	5.8837890625E-06	8.18609441921581E-06	236462.65625	0.000116330797027331
2	497	116.16573870671	1.40121459960938	1.4013671875	5.8807373046875E-06	8.24107246444328E-06	238297.875	0.000116923190944362
2	498	116.266446706455	1.41128540039063	1.4117431640625	5.8807373046875E-06	8.30209046398522E-06	240062.28125	0.000117515424790327
2	499	116.367154706201	1.42135620117188	1.42120361328125	5.8837890625E-06	8.36206254462013E-06	241545.640625	0.000118107818707358
2	500	116.467862705947	1.43142700195313	1.4312744140625	5.8929443359375E-06	8.43442012410378E-06	242879.34375	0.000118700823804829
2	501	116.568570705693	1.44149780273438	1.441650390625	5.9051513671875E-06	8.51316326588858E-06	244134.375	0.000119294905744027
2	502	116.669278705438	1.45156860351563	1.45172119140625	5.926513671875E-06	8.60364525578916E-06	244953.65625	0.000119890675705392
2	503	116.769986705184	1.46163940429688	1.46087646484375	5.9539794921875E-06	8.69802806846565E-06	245361.359375	0.00012048890494043
2	504	116.87069470493	1.47171020507813	1.47186279296875	5.9906005859375E-06	8.81734194990713E-06	245695.359375	0.000121090364700649
2	505	116.971402704676	1.48178100585938	1.48193359375	6.0394287109375E-06	8.95003176992759E-06	245376.453125	0.000121696124551818
2	506	117.072110704421	1.49185180664063	1.49169921875	6.097412109375E-06	9.09550453798147E-06	244644.640625	0.000122307261335663
2	507	117.172818704167	1.50192260742188	1.50177001953125	6.170654296875E-06	9.26690336200409E-06	243372.90625	0.000122925004689023
2	508	117.273526703913	1.49185180664063	1.49169921875	5.9295654296875E-06	8.845127922541E-06	251569.75	0.00012353430793155
2	509	117.374234703659	1.48178100585938	1.48162841796875	5.743408203125E-06	8.50959622766823E-06	257970.25	0.000124122088891454
2	510	117.474942703404	1.47171020507813	1.4715576171875	5.5938720703125E-06	8.23170466901502E-06	263066.03125	0.000124692960525863
2	511	117.57565070315	1.46163940429688	1.4617919921875	5.4656982421875E-06	7.98971359472489E-06	267448.375	0.000125249862321652
2	512	117.676358702896	1.45156860351563	1.451416015625	5.35888671875E-06	7.77797322371043E-06	270842.84375	0.000125794918858446
2	513	117.777066702641	1.44149780273438	1.44134521484375	5.26123046875E-06	7.5832490438188E-06	273955.90625	0.000126329687191173
2	514	117.877774702387	1.43142700195313	1.4312744140625	5.1727294921875E-06	7.40359519113554E-06	276696.1875	0.000126855069538578
2	515	117.978482702133	1.42135620117188	1.42181396484375	5.0933837890625E-06	7.24184383216198E-06	279149.1875	0.000127372011775151
2	516	118.079190701879	1.41128540039063	1.41143798828125	5.023193359375E-06	7.08992592990398E-06	280984.21875	0.00012788143067155
2	517	118.179898701624	1.40121459960938	1.4007568359375	4.954833984375E-06	6.94051732352818E-06	282705.09375	0.000128383850096725
2	518	118.28060670137	1.39114379882813	1.3909912109375	4.89410400390625E-06	6.80765515426174E-06	284217.75	0.000128879793919623
2	519	118.381314701116	1.38107299804688	1.3812255859375	4.837646484375E-06	6.68188113195356E-06	285516.03125	0.000129369829664938
2	520	118.482022700862	1.37100219726563	1.370849609375	4.78424072265625E-06	6.55847406960675E-06	286534.4375	0.000129854321130551
2	521	118.582730700607	1.36093139648438	1.361083984375	4.7344970703125E-06	6.44404781269259E-06	287482.28125	0.000130333632114343
2	522	118.683438700353	1.35086059570313	1.351318359375	4.68719482421875E-06	6.33389208815061E-06	288300.03125	0.000130808053654619
2	523	118.784146700099	1.34078979492188	1.3409423828125	4.64263916015625E-06	6.22551124251913E-06	288831.9375	0.000131277847685851
2	524	118.884854699845	1.33071899414063	1.33026123046875	4.6002197265625E-06	6.11949371887022E-06	289173.40625	0.0001317432615906
2	525	118.98556269959	1.32064819335938	1.32049560546875	4.56024169921875E-06	6.02177897235379E-06	289567.03125	0.000132204528199509
2	526	119.086270699336	1.31057739257813	1.3104248046875	4.5208740234375E-06	5.92426522416645E-06	289860.9375	0.00013266179303173
2	527	119.186978699082	1.30050659179688	1.30096435546875	4.48486328125E-06	5.8346467994852E-06	290078.9375	0.000133115274365991
2	528	119.287686698828	1.29043579101563	1.290283203125	4.4488525390625E-06	5.74027944821864E-06	290026.0625	0.000133565117721446
2	529	119.388394698573	1.28036499023438	1.28021240234375	4.415283203125E-06	5.65250002182438E-06	289950.25	0.000134011468617246
2	530	119.489102698319	1.27029418945313	1.2701416015625	4.3829345703125E-06	5.56694749320741E-06	289792.5	0.000134454487124458
2	531	119.589810698065	1.26022338867188	1.2603759765625	4.351806640625E-06	5.48491243534954E-06	289621.3125	0.000134894318762235
2	532	119.69051869781	1.25015258789063	1.25	4.322509765625E-06	5.40313703822903E-06	289183.875	0.00013533110904973
2	533	119.791226697556	1.24008178710938	1.2396240234375	4.29412841796875E-06	5.32310468770447E-06	288678.84375	0.000135764988954179
2	534	119.891934697302	1.23001098632813	1.2298583984375	4.26727294921875E-06	5.24814140590024E-06	288207.125	0.000136196089442819
2	535	119.992642697048	1.21994018554688	1.21917724609375	4.24041748046875E-06	5.16982026965707E-06	287513.5	0.000136624483275227
2	536	120.093350696793	1.20986938476563	1.20941162109375	4.21478271484375E-06	5.09740721099661E-06	286945.1875	0.000137050243210979
2	537	120.194058696539	1.19979858398438	1.19964599609375	4.1900634765625E-06	5.02659304402187E-06	286307.34375	0.000137473456561565
2	538	120.294766696285	1.18972778320313	1.18988037109375	4.1656494140625E-06	4.95662470711977E-06	285641.03125	0.000137894196086563
2	539	120.395474696031	1.17965698242188	1.17950439453125	4.1412353515625E-06	4.88460545966518E-06	284819.4375	0.000138312476337887
2	540	120.496182695776	1.16958618164063	1.16973876953125	4.1162109375E-06	4.81489132653223E-06	284178.5625	0.000138728282763623
2	541	120.596890695522	1.15951538085938	1.15936279296875	4.091796875E-06	4.74387661597575E-06	283338.3125	0.000139141586259939
2	542	120.697598695268	1.14944458007813	1.1492919921875	4.06585693359375E-06	4.67285690319841E-06	282669.0625	0.000139552357723005
2	543	120.798306695014	1.13937377929688	1.13922119140625	4.0380859375E-06	4.60027331428137E-06	282119.09375	0.000139960422529839
2	544	120.899014694759	1.12930297851563	1.12884521484375	4.00726318359375E-06	4.52357971880701E-06	281699.78125	0.000140365533297881
2	545	120.999722694505	1.11923217773438	1.119384765625	3.97186279296875E-06	4.44604256699677E-06	281828.6875	0.000140767311677337
2	546	121.100430694251	1.10916137695313	1.1090087890625	3.92974853515625E-06	4.35812535215518E-06	282208.59375	0.000141165190143511
2	547	121.201138693997	1.09909057617188	1.09893798828125	3.87908935546875E-06	4.26287851951201E-06	283297.96875	0.000141558397444896
2	548	121.301846693742	1.08901977539063	1.08917236328125	3.8153076171875E-06	4.1555276766303E-06	285474.34375	0.000141945842187852
2	549	121.402554693488	1.07894897460938	1.0791015625	3.734130859375E-06	4.02950627176324E-06	288983.34375	0.000142325996421278
2	550	121.503262693234	1.06887817382813	1.06903076171875	3.6297607421875E-06	3.88032594855758E-06	294518.25	0.000142696793773212
2	551	121.603970692979	1.05880737304688	1.05865478515625	3.4954833984375E-06	3.70050997844373E-06	302863.625	0.000143055571243167
2	552	121.704678692725	1.04873657226563	1.04888916015625	3.32611083984375E-06	3.48872163158376E-06	315350.03125	0.000143399069202133
2	553	121.805386692471	1.03866577148438	1.038818359375	3.1195068359375E-06	3.24060101775103E-06	333007.25	0.000143723635119386
2	554	121.906094692217	1.02859497070313	1.0284423828125	2.87841796875E-06	2.96028701995965E-06	357294.3125	0.000144025645568036
2	555	122.006802691962	1.01852416992188	1.01898193359375	2.613525390625E-06	2.663135092007E-06	389887.90625	0.000144302190165035
2	556	122.107510691708	1.00845336914063	1.00830078125	2.34222412109375E-06	2.36166624745238E-06	430488.625	0.000144551740959287
2	557	122.208218691454	0.998382568359375	0.99822998046875	2.0880126953125E-06	2.0843169750151E-06	478076.59375	0.000144774821819738
2	558	122.3089266912	0.988311767578125	0.98876953125	1.8719482421875E-06	1.85092528681707E-06	528203.5	0.000144974212162197
2	559	122.409634690945	0.978240966796875	0.97808837890625	1.7095947265625E-06	1.67213465829263E-06	572117.125	0.000145154554047622
2	560	122.510342690691	0.968170166015625	0.96832275390625	1.6033935546875E-06	1.55260249812272E-06	603920.8125	0.0001453213772038
2	561	122.611050690437	0.958099365234375	0.9576416015625	1.5478515625E-06	1.48228696161823E-06	618690.875	0.000145480065839365
2	562	122.711758690183	0.948028564453125	0.94818115234375	1.52313232421875E-06	1.44420528158662E-06	622520.5625	0.000145634694490582
2	563	122.812466689928	0.937957763671875	0.9381103515625	1.50726318359375E-06	1.4139791346679E-06	622393.1875	0.000145787285873666
2	564	122.913174689674	0.927886962890625	0.9271240234375	1.47979736328125E-06	1.3719557045988E-06	626520.9375	0.000145937694469467
2	565	123.01388268942	0.917816162109375	0.91827392578125	1.424560546875E-06	1.30813680243591E-06	644601.5625	0.000146083941217512
2	566	123.114590689166	0.907745361328125	0.9075927734375	1.32537841796875E-06	1.20290394534095E-06	684780.125	0.000146222417242825
2	567	123.215298688911	0.897674560546875	0.89691162109375	1.16668701171875E-06	1.04641503639868E-06	768768	0.000146347898407839
2	568	123.316006688657	0.887603759765625	0.88775634765625	9.37499999999999E-07	8.32271553008468E-07	946940.125	0.000146453850902617
2	569	123.416714688403	0.877532958984375	0.8782958984375	6.3018798828125E-07	5.53491531718464E-07	1393704.625	0.000146532795042731
2	570	123.517422688148	0.867462158203125	0.8673095703125	2.4688720703125E-07	2.14127624076355E-07	3512979.25	0.000146576960105449
2	571	123.618130687894	0.857391357421875	0.8575439453125	-2.02026367187499E-07	-1.73246476720124E-07	-4244713	0.000146579215652309
2	572	123.71883868764	0.847320556640625	0.84747314453125	-6.866455078125E-07	-5.81913582209381E-07	-1234222.25	0.000146534468512982
2	573	123.819546687386	0.837249755859375	0.83740234375	-1.1773681640625E-06	-9.8593091024668E-07	-711249.375	0.000146440608659759
2	574	123.920254687131	0.827178955078125	0.82733154296875	-1.6351318359375E-06	-1.35279606183758E-06	-505972.40625	0.000146298989420757
2	575	124.020962686877	0.817108154296875	0.8172607421875	-2.0245361328125E-06	-1.65457390721713E-06	-403678.03125	0.000146114703966305
2	576	124.121670686623	0.807037353515625	0.80718994140625	-2.310791015625E-06	-1.86524721357273E-06	-349313.28125	0.000145896410685964
2	577	124.222378686369	0.796966552734375	0.797119140625	-2.4847412109375E-06	-1.98063480638666E-06	-320805.71875	0.000145654936204664
2	578	124.323086686114	0.786895751953125	0.78704833984375	-2.5494384765625E-06	-2.00653130377759E-06	-308714.375	0.000145401441841386
2	579	124.42379468586	0.776824951171875	0.7769775390625	-2.5262451171875E-06	-1.96283554032561E-06	-307562.21875	0.00014514586655423
2	580	124.524502685606	0.766754150390625	0.76690673828125	-2.4462890625E-06	-1.8760755438052E-06	-313498	0.000144895471748896
2	581	124.625210685352	0.756683349609375	0.7568359375	-2.34039306640625E-06	-1.77129345502181E-06	-323379.84375	0.000144654448376969
2	582	124.725918685097	0.746612548828125	0.74658203125	-2.23419189453125E-06	-1.66800759870966E-06	-334162	0.000144424091558903
2	583	124.826626684843	0.736541748046875	0.7364501953125	-2.14813232421875E-06	-1.58199247835E-06	-342832.78125	0.000144203426316381
2	584	124.927334684589	0.726470947265625	0.7264404296875	-2.09686279296875E-06	-1.52324594182573E-06	-346441.5625	0.000143989673233591
2	585	125.028042684335	0.716400146484375	0.716339111328125	-2.09075927734375E-06	-1.49769255131105E-06	-342621.53125	0.000143778815981932
2	586	125.12875068408	0.706329345703125	0.706268310546875	-2.13592529296875E-06	-1.50853634295345E-06	-330661.5	0.000143565979669802
2	587	125.229458683826	0.696258544921875	0.69622802734375	-2.2314453125E-06	-1.55359475684236E-06	-312007.65625	0.000143346071126871
2	588	125.330166683572	0.686187744140625	0.686126708984375	-2.36907958984375E-06	-1.62548872140178E-06	-289617.4375	0.00014311441918835
2	589	125.430874683317	0.676116943359375	0.67608642578125	-2.53326416015625E-06	-1.71270539794932E-06	-266883.53125	0.000142867560498416
2	590	125.531582683063	0.666046142578125	0.666046142578125	-2.701416015625E-06	-1.79926769305894E-06	-246554.453125	0.000142603981657885
2	591	125.632290682809	0.655975341796875	0.6558837890625	-2.84942626953125E-06	-1.86889246833744E-06	-230181	0.000142324468470179
2	592	125.732998682555	0.645904541015625	0.645904541015625	-2.95257568359375E-06	-1.90708203717804E-06	-218759.6875	0.000142032309668139
2	593	125.8337066823	0.635833740234375	0.6357421875	-2.9998779296875E-06	-1.90714888503862E-06	-211922.703125	0.00014173258387018
2	594	125.934414682046	0.625762939453125	0.62567138671875	-2.989501953125E-06	-1.87044577160123E-06	-209289.515625	0.000141430995427072
2	595	126.035122681792	0.615692138671875	0.615692138671875	-2.92999267578125E-06	-1.80397341864591E-06	-210134.359375	0.000141132928547449
2	596	126.135830681538	0.605621337890625	0.6055908203125	-2.83599853515625E-06	-1.71745466559514E-06	-213537.078125	0.000140842588734813
2	597	126.236538681283	0.595550537109375	0.59552001953125	-2.720947265625E-06	-1.62037849804619E-06	-218864.96875	0.000140562769956887
2	598	126.337246681029	0.585479736328125	0.58544921875	-2.5970458984375E-06	-1.5204384453682E-06	-225428.921875	0.000140294985612854
2	599	126.437954680775	0.575408935546875	0.575347900390625	-2.4725341796875E-06	-1.42256726576306E-06	-232695.640625	0.000140039715915918
2	600	126.538662680521	0.565338134765625	0.565338134765625	-2.3516845703125E-06	-1.32949696762807E-06	-240397.09375	0.000139796800795011
2	601	126.639370680266	0.555267333984375	0.555267333984375	-2.23846435546875E-06	-1.24294604120223E-06	-248057.265625	0.000139565658173524
2	602	126.740078680012	0.545196533203125	0.545135498046875	-2.13287353515625E-06	-1.16270507533045E-06	-255587.359375	0.00013934554590378
2	603	126.840786679758	0.535125732421875	0.53509521484375	-2.03582763671875E-06	-1.08936160359008E-06	-262839.1875	0.00013913563452661
2	604	126.941494679504	0.525054931640625	0.52496337890625	-1.9464111328125E-06	-1.0217944463875E-06	-269708.40625	0.000138935109134763
2	605	127.042202679249	0.514984130859375	0.51495361328125	-1.865234375E-06	-9.60509169090074E-07	-276079.84375	0.000138743183924817
2	606	127.142910678995	0.504913330078125	0.50494384765625	-1.79046630859375E-06	-9.04084913599945E-07	-282018.0625	0.000138559102197178
2	607	127.243618678741	0.494842529296875	0.494873046875	-1.72271728515625E-06	-8.52526341077464E-07	-287263.0625	0.000138382209115662
2	608	127.344326678486	0.484771728515625	0.48480224609375	-1.66046142578125E-06	-8.04995408998366E-07	-291968.40625	0.000138211849844083
2	609	127.445034678232	0.474700927734375	0.474761962890625	-1.602783203125E-06	-7.60940508826025E-07	-296210.96875	0.000138047529617324
2	610	127.545742677978	0.464630126953125	0.46466064453125	-1.54937744140625E-06	-7.19934689641377E-07	-299901.53125	0.000137888797326013
2	611	127.646450677724	0.454559326171875	0.454559326171875	-1.49993896484375E-06	-6.81811229696905E-07	-303051.90625	0.000137735260068439
2	612	127.747158677469	0.444488525390625	0.444488525390625	-1.4544677734375E-06	-6.46494243028428E-07	-305602.1875	0.000137586495839059
2	613	127.847866677215	0.434417724609375	0.434478759765625	-1.41204833984375E-06	-6.13504994362302E-07	-307693.96875	0.000137442155391909
2	614	127.948574676961	0.424346923828125	0.42437744140625	-1.37298583984375E-06	-5.82664199555438E-07	-309090.90625	0.000137301918584853
2	615	128.049282676707	0.414276123046875	0.414306640625	-1.33697509765625E-06	-5.53917629986245E-07	-309883.59375	0.000137165450723842
2	616	128.149990676452	0.404205322265625	0.40423583984375	-1.3031005859375E-06	-5.26759947661048E-07	-310210.78125	0.000137032518978231
2	617	128.250698676198	0.394134521484375	0.3941650390625	-1.27227783203125E-06	-5.01487420478952E-07	-309810.5	0.000136902832309715
2	618	128.351406675944	0.384063720703125	0.384063720703125	-1.24359130859375E-06	-4.7761830046511E-07	-308834.34375	0.000136776157887653
2	619	128.45211467569	0.373992919921875	0.37396240234375	-1.2164306640625E-06	-4.54899321766788E-07	-307426	0.000136652277433313
2	620	128.552822675435	0.363922119140625	0.363922119140625	-1.19110107421875E-06	-4.3346804545763E-07	-305534.1875	0.000136531059979461
2	621	128.653530675181	0.353851318359375	0.353851318359375	-1.1676025390625E-06	-4.13157664524988E-07	-303058.03125	0.000136412287247367
2	622	128.754238674927	0.343780517578125	0.34375	-1.14654541015625E-06	-3.9412498153979E-07	-299813.6875	0.000136295755510218
2	623	128.854946674673	0.333709716796875	0.33380126953125	-1.1248779296875E-06	-3.75485683434817E-07	-296744.4375	0.000136181377456523
2	624	128.955654674418	0.323638916015625	0.323638916015625	-1.10595703125E-06	-3.57930730388034E-07	-292632.4375	0.000136069051222876
2	625	129.056362674164	0.313568115234375	0.313629150390625	-1.087646484375E-06	-3.41117612379094E-07	-288355.8125	0.000135958587634377
2	626	129.15707067391	0.303497314453125	0.303497314453125	-1.0711669921875E-06	-3.25096294773175E-07	-283333.34375	0.000135849884827621
2	627	129.257778673655	0.293426513671875	0.29339599609375	-1.05499267578125E-06	-3.09530605591135E-07	-278102.4375	0.000135742826387286
2	628	129.358486673401	0.283355712890625	0.283355712890625	-1.04034423828125E-06	-2.9478746910172E-07	-272367.28125	0.000135637325001881
2	629	129.459194673147	0.273284912109375	0.273345947265625	-1.026611328125E-06	-2.80620042758528E-07	-266260.40625	0.000135533235152252
2	630	129.559902672893	0.263214111328125	0.263214111328125	-1.01318359375E-06	-2.66684224925484E-07	-259789.15625	0.00013543052773457
2	631	129.660610672638	0.253143310546875	0.253173828125	-1.0015869140625E-06	-2.53575564101993E-07	-252772.71875	0.000135329071781598
2	632	129.761318672384	0.243072509765625	0.243133544921875	-9.9090576171875E-07	-2.40922418015543E-07	-245364.953125	0.000135228750878014
2	633	129.86202667213	0.233001708984375	0.233001708984375	-9.814453125E-07	-2.28678430858054E-07	-237406.71875	0.00013512943405658
2	634	129.962734671876	0.222930908203125	0.2230224609375	-9.72595214843749E-07	-2.16910578387797E-07	-229306.5625	0.000135031034005806
2	635	130.063442671621	0.212860107421875	0.212921142578125	-9.65270996093751E-07	-2.05526589525107E-07	-220581.734375	0.0001349334634142
2	636	130.164150671367	0.202789306640625	0.202789306640625	-9.58862304687499E-07	-1.94447025592126E-07	-211489.5	0.000134836576762609
2	637	130.264858671113	0.192718505859375	0.19268798828125	-9.54589843750001E-07	-1.83937999054251E-07	-201854.21875	0.000134740213979967
2	638	130.365566670859	0.182647705078125	0.182647705078125	-9.5184326171875E-07	-1.73851972817829E-07	-191888.4375	0.000134644229547121
2	639	130.466274670604	0.172576904296875	0.172637939453125	-9.51538085937501E-07	-1.64271568792174E-07	-181430.40625	0.000134548376081511
2	640	130.56698267035	0.162506103515625	0.16259765625	-9.539794921875E-07	-1.55114818767288E-07	-170441.46875	0.000134452435304411
2	641	130.667690670096	0.152435302734375	0.1524658203125	-9.600830078125E-07	-1.46379832699495E-07	-158804.84375	0.000134356043417938
2	642	130.768398669842	0.142364501953125	0.142425537109375	-9.70458984375E-07	-1.38218140932622E-07	-146761.015625	0.000134258836624213
2	643	130.869106669587	0.132293701171875	0.132293701171875	-9.86633300781251E-07	-1.30525364738787E-07	-134086	0.000134160291054286
2	644	130.969814669333	0.122222900390625	0.122283935546875	-1.01043701171875E-06	-1.2356021272808E-07	-121020.8359375	0.000134059737320058
2	645	131.070522669079	0.112152099609375	0.112213134765625	-1.04278564453125E-06	-1.17014238298907E-07	-107609.0234375	0.000133956345962361
2	646	131.171230668824	0.102081298828125	0.10211181640625	-1.0870361328125E-06	-1.10999231139886E-07	-93935.9921875	0.000133849098347127
2	647	131.27193866857	0.092010498046875	0.092071533203125	-1.14593505859375E-06	-1.05507993453102E-07	-80346.2109375	0.000133736655698158
2	648	131.372646668316	0.081939697265625	0.08197021484375	-1.2237548828125E-06	-1.00311453365975E-07	-66982.5390625	0.000133617329993285
2	649	131.473354668062	0.071868896484375	0.0718994140625	-1.3238525390625E-06	-9.51842196172947E-08	-54310.7421875	0.000133489054860547
2	650	131.574062667807	0.061798095703125	0.0618896484375	-1.44927978515625E-06	-8.96954119866678E-08	-42703.73046875	0.000133349414682016
2	651	131.674770667553	0.051727294921875	0.051788330078125	-1.60400390625E-06	-8.30686772701483E-08	-32286.912109375	0.000133195673697628
2	652	131.775478667299	0.041656494140625	0.04176025390625	-1.79107666015625E-06	-7.47958210922661E-08	-23315.7265625	0.000133024717797525
2	653	131.876186667045	0.031585693359375	0.0316558837890625	-2.0062255859375E-06	-6.35088426292896E-08	-15778.8271484375	0.000132833505631424
2	654	131.97689466679	0.021514892578125	0.021600341796875	-2.23785400390625E-06	-4.83384106075846E-08	-9652.2568359375	0.000132619796204381
2	655	132.077602666536	0.011444091796875	0.011566162109375	-2.470703125E-06	-2.85765526797377E-08	-4681.32421875	0.000132382701849565
2	656	132.178310666282	0.001373291015625	0.001483154296875	-2.68218994140625E-06	-3.97810140384536E-09	-552.963928222656	0.000132123241201043
2	657	132.279018666028	-0.008697509765625	-0.00861511230468751	-2.8515625E-06	2.45665283671315E-08	3021.18994140625	0.000131844586576335
2	658	132.379726665773	-0.018768310546875	-0.0186431884765625	-2.96661376953125E-06	5.53071402009664E-08	6284.33349609375	0.000131551612867042
2	659	132.480434665519	-0.028839111328125	-0.028717041015625	-3.02337646484375E-06	8.68224248051774E-08	9498.3349609375	0.000131249995320104
2	660	132.581142665265	-0.038909912109375	-0.0387603759765625	-3.02886962890625E-06	1.17400119847844E-07	12796.9775390625	0.000130945249111392
2	661	132.681850665011	-0.048980712890625	-0.0488616943359375	-2.99591064453125E-06	1.46385261245996E-07	16309.462890625	0.000130641870782711
2	662	132.782558664756	-0.059051513671875	-0.0589599609375	-2.93975830078125E-06	1.73328018604479E-07	20056.05859375	0.000130342988995835
2	663	132.883266664502	-0.069122314453125	-0.069061279296875	-2.87017822265625E-06	1.98218174318754E-07	24061.669921875	0.000130050437292084
2	664	132.983974664248	-0.079193115234375	-0.07916259765625	-2.79754638671875E-06	2.21461036176152E-07	28297.15234375	0.000129765045130625
2	665	133.084682663993	-0.089263916015625	-0.089141845703125	-2.725830078125E-06	2.42985521481387E-07	32702.642578125	0.000129486914374866
2	666	133.185390663739	-0.099334716796875	-0.09930419921875	-2.65777587890625E-06	2.63928313870565E-07	37363.6484375	0.000129215826746076
2	667	133.286098663485	-0.109405517578125	-0.109344482421875	-2.59521484375E-06	2.83772408238292E-07	42133.1171875	0.00012895131658297
2	668	133.386806663231	-0.119476318359375	-0.119354248046875	-2.5396728515625E-06	3.03120742728424E-07	46995.9140625	0.000128692758153193
2	669	133.487514662976	-0.129547119140625	-0.12939453125	-2.48931884765625E-06	3.22104256156308E-07	51979.89453125	0.000128439525724389
2	670	133.588222662722	-0.139617919921875	-0.139495849609375	-2.4444580078125E-06	3.40991732628027E-07	57066.16796875	0.00012819109542761
2	671	133.688930662468	-0.149688720703125	-0.149505615234375	-2.40570068359375E-06	3.59665733640213E-07	62146.39453125	0.000127946870634332
2	672	133.789638662214	-0.159759521484375	-0.159637451171875	-2.3712158203125E-06	3.7853482126593E-07	67323.0390625	0.000127706327475607
2	673	133.890346661959	-0.169830322265625	-0.169647216796875	-2.34100341796875E-06	3.97144731323351E-07	72467.734375	0.000127469058497809
2	674	133.991054661705	-0.179901123046875	-0.179779052734375	-2.31597900390625E-06	4.1636448600002E-07	77625.515625	0.000127234554383904
2	675	134.091762661451	-0.189971923828125	-0.189788818359375	-2.29461669921875E-06	4.35492580663777E-07	82710.46875	0.00012700239312835
2	676	134.192470661197	-0.200042724609375	-0.199920654296875	-2.27813720703125E-06	4.55446667046999E-07	87756.1953125	0.000126772138173692
2	677	134.293178660942	-0.189971923828125	-0.189788818359375	-2.02972412109375E-06	3.85218925202935E-07	93504.734375	0.000126555227325298
