Potential - Start -0.2 V, Upper Vertex 1.5 V, Lower Vertex -0.2 V, Stop -0.19 V; Scan - # end cross 5, Rate 0.1 Vps, Step 0.01 V 
Scan	Index	Time (s)	Potential applied (V)	WE(1).Potential (V)	WE(1).Current (A)	WE(1).Power (W)	WE(1).Resistance (Ω)	WE(1).Charge (C)
1	1	46.3822148828962	-0.189971923828125	-0.189849853515625	-2.24609375E-07	4.26420534438421E-08	845244.625	0
1	2	46.4829228826419	-0.179901123046875	-0.17974853515625	-1.904296875E-07	3.42294583788316E-08	943910.25	-2.08988772953944E-08
1	3	46.5836308823876	-0.169830322265625	-0.16961669921875	-1.64184570312501E-07	2.78484453275496E-08	1033085.5	-3.87551217784221E-08
1	4	46.6843388821334	-0.159759521484375	-0.159637451171875	-1.4190673828125E-07	2.26536300829139E-08	1124946.25	-5.41680442722736E-08
1	5	46.7850468818791	-0.149688720703125	-0.149627685546875	-1.2176513671875E-07	1.82194366260546E-08	1228822	-6.74449793791609E-08
1	6	46.8857548816248	-0.139617919921875	-0.139556884765625	-1.03759765625E-07	1.44803884438716E-08	1345000.125	-7.88010581231902E-08
1	7	46.9864628813706	-0.129547119140625	-0.129486083984375	-8.75854492187494E-08	1.13410969504457E-08	1478397.25	-8.84360531472339E-08
1	8	47.0871708811163	-0.119476318359375	-0.119415283203125	-7.14111328125003E-08	8.52758041958168E-09	1672222.25	-9.64421715821118E-08
1	9	47.1878788808621	-0.109405517578125	-0.109283447265625	-5.58471679687506E-08	6.10317085758538E-09	1956830.625	-1.02850137295718E-07
1	10	47.2885868806078	-0.099334716796875	-0.09930419921875	-3.96728515625E-08	3.93968058176597E-09	2503077	-1.07659950288053E-07
1	11	47.3892948803535	-0.089263916015625	-0.089202880859375	-2.25830078125003E-08	2.01446925807147E-09	3950000	-1.10794779573098E-07
1	12	47.4900028800993	-0.079193115234375	-0.079132080078125	-3.66210937499945E-09	2.89790330620932E-10	21608334	-1.12116325112765E-07
1	13	47.590710879845	-0.069122314453125	-0.069091796875	1.8310546875E-08	-1.26510857345608E-09	-3773333.5	-1.113787178042E-07
1	14	47.6914188795907	-0.059051513671875	-0.05902099609375	4.51660156250006E-08	-2.66574318175117E-09	-1306756.75	-1.08182419467084E-07
1	15	47.7921268793365	-0.048980712890625	-0.04884033203125	7.87353515625006E-08	-3.84546039455813E-09	-620310.125	-1.01943491870315E-07
1	16	47.8928348790822	-0.038909912109375	-0.038751220703125	1.22680664062499E-07	-4.75402561761484E-09	-315870.65625	-9.18013896011871E-08
1	17	47.993542878828	-0.028839111328125	-0.0287109375	1.81884765625E-07	-5.2220818780313E-09	-157852.359375	-7.64653051987807E-08
1	18	48.0942508785737	-0.018768310546875	-0.0186431884765625	2.6123046875E-07	-4.87016915684535E-09	-71366.828125	-5.41526787856128E-08
1	19	48.1949588783194	-0.008697509765625	-0.00858459472656251	3.6651611328125E-07	-3.14639203580214E-09	-23422.1484375	-2.25431282530053E-08
1	20	48.2956668780652	0.001373291015625	0.00147399902343751	5.04150390624999E-07	7.43117123391812E-10	2923.72900390625	2.12984119229986E-08
1	21	48.3963748778109	0.011444091796875	0.011517333984375	6.78405761718751E-07	7.81342546218866E-09	16977.05859375	8.08448419320484E-08
1	22	48.4970828775566	0.021514892578125	0.021612548828125	8.8775634765625E-07	1.91866771359628E-08	24345.13671875	1.59707369107309E-07
1	23	48.5977908773024	0.031585693359375	0.03170166015625	1.12274169921875E-06	3.55927767259345E-08	28235.935546875	2.60943977536954E-07
1	24	48.6984988770481	0.041656494140625	0.04178466796875	1.36749267578125E-06	5.7140223219676E-08	30555.6796875	3.86337234203893E-07
1	25	48.7992068767938	0.051727294921875	0.051788330078125	1.60003662109375E-06	8.28632238381033E-08	32366.96484375	5.35764172582276E-07
1	26	48.8999148765396	0.061798095703125	0.061920166015625	1.79473876953125E-06	1.11130518121172E-07	34500.9375	7.06704724962037E-07
1	27	49.0006228762853	0.071868896484375	0.071868896484375	1.93511962890625E-06	1.39074913363402E-07	37139.25390625	8.94517995675415E-07
1	28	49.1013308760311	0.081939697265625	0.081939697265625	2.015380859375E-06	1.65139695695871E-07	40657.17578125	1.09344148313539E-06
1	29	49.2020388757768	0.092010498046875	0.092041015625	2.03887939453125E-06	1.87660518236044E-07	45142.9453125	1.29758973343996E-06
1	30	49.3027468755225	0.102081298828125	0.102142333984375	2.0184326171875E-06	2.06167399596779E-07	50604.78125	1.5018915746623E-06
1	31	49.4034548752683	0.112152099609375	0.112152099609375	1.9683837890625E-06	2.20758366253904E-07	56976.74609375	1.70264377175045E-06
1	32	49.504162875014	0.122222900390625	0.12225341796875	1.9036865234375E-06	2.32732176641548E-07	64219.3046875	1.89761794899823E-06
1	33	49.6048708747597	0.132293701171875	0.132354736328125	1.83135986328125E-06	2.42389148752409E-07	72271.2890625	2.08569258575153E-06
1	34	49.7055788745055	0.142364501953125	0.142425537109375	1.75994873046875E-06	2.50661628342641E-07	80925.9609375	2.26652923629445E-06
1	35	49.8062868742512	0.152435302734375	0.152496337890625	1.6912841796875E-06	2.57914649637314E-07	90166.0078125	2.44031252805144E-06
1	36	49.906994873997	0.162506103515625	0.16253662109375	1.62841796875E-06	2.64677566974569E-07	99812.59375	2.60747287939012E-06
1	37	50.0077028737427	0.172576904296875	0.17266845703125	1.57135009765625E-06	2.71322591061107E-07	109885.421875	2.76859395853535E-06
1	38	50.1084108734884	0.182647705078125	0.182647705078125	1.52008056640625E-06	2.77639230716886E-07	120156.59375	2.92425988845935E-06
1	39	50.2091188732342	0.192718505859375	0.192718505859375	1.47430419921875E-06	2.84125718508221E-07	130718.2734375	3.07503910335072E-06
1	40	50.3098268729799	0.202789306640625	0.202789306640625	1.43310546875E-06	2.90618459075631E-07	141503.40625	3.22143887387938E-06
1	41	50.4105348727256	0.212860107421875	0.212890625	1.396484375E-06	2.97298413443059E-07	152447.5625	3.36392008648545E-06
1	42	50.5112428724714	0.222930908203125	0.222930908203125	1.36322021484375E-06	3.03903931353489E-07	163532.5625	3.50288223671669E-06
1	43	50.6119508722171	0.233001708984375	0.2330322265625	1.3336181640625E-06	3.10775988054957E-07	174736.84375	3.6386788906384E-06
1	44	50.7126588719628	0.243072509765625	0.2430419921875	1.3067626953125E-06	3.17598193078084E-07	185987.859375	3.77163246412238E-06
1	45	50.8133668717086	0.253143310546875	0.253173828125	1.2823486328125E-06	3.24657122519056E-07	197429.796875	3.90200466426904E-06
1	46	50.9140748714543	0.263214111328125	0.263275146484375	1.26068115234375E-06	3.31905994244153E-07	208835.640625	4.03005651605781E-06
1	47	51.0147828712001	0.273284912109375	0.27325439453125	1.2408447265625E-06	3.39066247079245E-07	220216.4375	4.15601834902191E-06
1	48	51.1154908709458	0.283355712890625	0.2833251953125	1.2237548828125E-06	3.46720611332785E-07	231521.1875	4.28012072006823E-06
1	49	51.2161988706915	0.293426513671875	0.29339599609375	1.20697021484375E-06	3.541202318047E-07	243084.703125	4.40251733380137E-06
1	50	51.3169068704373	0.303497314453125	0.303466796875	1.19171142578125E-06	3.6164482253298E-07	254647.90625	4.52330050393357E-06
1	51	51.417614870183	0.313568115234375	0.3135986328125	1.177978515625E-06	3.69412418876891E-07	266217.625	4.64262393506942E-06
1	52	51.5183228699287	0.323638916015625	0.323638916015625	1.165771484375E-06	3.77289012476467E-07	277617.8125	4.76064133181353E-06
1	53	51.6190308696745	0.333709716796875	0.33367919921875	1.15478515625E-06	3.85327751928344E-07	288953.5	4.87749048261321E-06
1	54	51.7197388694202	0.343780517578125	0.34381103515625	1.14501953125E-06	3.93670347875741E-07	300266.53125	4.99329462400055E-06
1	55	51.8204468691659	0.353851318359375	0.3538818359375	1.1358642578125E-06	4.01961699481035E-07	311552.9375	5.10814652443514E-06
1	56	51.9211548689117	0.363922119140625	0.363922119140625	1.1279296875E-06	4.1047854892895E-07	322646.125	5.2221375881345E-06
1	57	52.0218628686574	0.373992919921875	0.3740234375	1.121826171875E-06	4.19589269995413E-07	333405.875	5.33542151970323E-06
1	58	52.1225708684032	0.384063720703125	0.38409423828125	1.11572265625E-06	4.2854262005676E-07	344256.03125	5.44809108760091E-06
1	59	52.2232788681489	0.394134521484375	0.394134521484375	1.11053466796875E-06	4.37700037991817E-07	354905.1875	5.56019222130999E-06
1	60	52.3239868678946	0.404205322265625	0.40423583984375	1.10626220703125E-06	4.47190814156784E-07	365406.90625	5.67181677979534E-06
1	61	52.4246948676404	0.414276123046875	0.414337158203125	1.10382080078125E-06	4.57353962701745E-07	375366.34375	5.78310346099897E-06
1	62	52.5254028673861	0.424346923828125	0.424346923828125	1.10198974609375E-06	4.67625937972116E-07	385073.40625	5.89417459195829E-06
1	63	52.6261108671318	0.434417724609375	0.434478759765625	1.10076904296875E-06	4.78260801628494E-07	394704.75	6.00509247306036E-06
1	64	52.7268188668776	0.444488525390625	0.4444580078125	1.1004638671875E-06	4.89109936552268E-07	403882.4375	6.11593304711278E-06
1	65	52.8275268666233	0.454559326171875	0.45458984375	1.1004638671875E-06	5.00259659474978E-07	413089.3125	6.22675861450261E-06
1	66	52.9282348663691	0.464630126953125	0.464599609375	1.10137939453125E-06	5.11700420702255E-07	421834.34375	6.33763056612224E-06
1	67	53.0289428661148	0.474700927734375	0.4747314453125	1.1016845703125E-06	5.23004302976915E-07	430914.125	6.44856345388689E-06
1	68	53.1296508658605	0.484771728515625	0.484771728515625	1.10382080078125E-06	5.35101094101265E-07	439176.125	6.55961957818363E-06
1	69	53.2303588656063	0.494842529296875	0.4947509765625	1.10595703125E-06	5.47173328868666E-07	447351	6.67089079797734E-06
1	70	53.331066865352	0.504913330078125	0.504852294921875	1.1090087890625E-06	5.59885620532441E-07	455228.40625	6.78242304275045E-06
1	71	53.4317748650977	0.514984130859375	0.514892578125	1.11358642578125E-06	5.73377405999054E-07	462373.25	6.89433954903507E-06
1	72	53.5324828648435	0.525054931640625	0.524993896484375	1.11907958984375E-06	5.87509930483066E-07	469130.09375	7.00676309861592E-06
1	73	53.6331908645892	0.535125732421875	0.53509521484375	1.1260986328125E-06	6.02569969032629E-07	475176.15625	7.1198169280251E-06
1	74	53.7338988643349	0.545196533203125	0.545135498046875	1.1346435546875E-06	6.18534443219687E-07	480446.5	7.23365428711986E-06
1	75	53.8346068640807	0.555267333984375	0.55523681640625	1.14593505859375E-06	6.36265326647845E-07	484527.3125	7.34849072614452E-06
1	76	53.9353148638264	0.565338134765625	0.5653076171875	1.15997314453125E-06	6.55741587252123E-07	487345.46875	7.46460227674106E-06
1	77	54.0360228635722	0.575408935546875	0.57537841796875	1.1785888671875E-06	6.78134597364988E-07	488192.65625	7.58235819375841E-06
1	78	54.1367308633179	0.585479736328125	0.585418701171875	1.2030029296875E-06	7.04260344264185E-07	486631.1875	7.70228052715538E-06
1	79	54.2374388630636	0.595550537109375	0.59552001953125	1.236572265625E-06	7.36403478640568E-07	481589.375	7.82512324803974E-06
1	80	54.3381468628094	0.605621337890625	0.6055908203125	1.28265380859375E-06	7.76763329213281E-07	472138.96875	7.95197593106423E-06
1	81	54.4388548625551	0.615692138671875	0.61566162109375	1.34735107421875E-06	8.29512316613545E-07	456942.25	8.08440745458938E-06
1	82	54.5395628623008	0.625762939453125	0.625732421875	1.43829345703125E-06	8.99986844160594E-07	435052	8.22467609395972E-06
1	83	54.6402708620466	0.635833740234375	0.63580322265625	1.56494140625E-06	9.94994820757711E-07	406279.25	8.37590050650761E-06
1	84	54.7409788617923	0.645904541015625	0.645904541015625	1.739501953125E-06	1.12355223791383E-06	371315.78125	8.54229256219696E-06
1	85	54.8416868615381	0.655975341796875	0.655914306640625	1.96990966796875E-06	1.29209183796775E-06	332966.71875	8.72907639859477E-06
1	86	54.9423948612838	0.666046142578125	0.6658935546875	2.2662353515625E-06	1.5090714668986E-06	293832.5	8.94238291948568E-06
1	87	55.0431028610295	0.676116943359375	0.676055908203125	2.62847900390625E-06	1.77699882897286E-06	257204.21875	9.18885143619264E-06
1	88	55.1438108607753	0.686187744140625	0.686065673828125	3.0462646484375E-06	2.08993742489838E-06	225215.390625	9.47459739109036E-06
1	89	55.244518860521	0.696258544921875	0.69622802734375	3.49945068359375E-06	2.43641557062801E-06	198953.53125	9.80420099949697E-06
1	90	55.3452268602667	0.706329345703125	0.70623779296875	3.95721435546875E-06	2.79473420050635E-06	178468.421875	1.01796740636928E-05
1	91	55.4459348600125	0.716400146484375	0.71630859375	4.37713623046875E-06	3.13538021146087E-06	163647.78125	1.05993412944372E-05
1	92	55.5466428597582	0.726470947265625	0.726318359375	4.72198486328125E-06	3.42966404787148E-06	153816.328125	1.1057518349844E-05
1	93	55.6473508595039	0.736541748046875	0.73638916015625	4.9652099609375E-06	3.6563267258316E-06	148309.78125	1.15453076432459E-05
1	94	55.7480588592497	0.746612548828125	0.746490478515625	5.09033203125E-06	3.79988432541722E-06	146648.6875	1.2051644262101E-05
1	95	55.8487668589954	0.756683349609375	0.75653076171875	5.1055908203125E-06	3.86253668693826E-06	148176.921875	1.25650494737783E-05
1	96	55.9494748587412	0.766754150390625	0.7672119140625	5.035400390625E-06	3.86321880796459E-06	152363.640625	1.30756889120676E-05
1	97	56.0501828584869	0.776824951171875	0.77728271484375	4.91119384765625E-06	3.81738573196344E-06	158267.578125	1.35765403683763E-05
1	98	56.1508908582326	0.786895751953125	0.78704833984375	4.7601318359375E-06	3.74645355805114E-06	165341.71875	1.40635302159353E-05
1	99	56.2515988579784	0.796966552734375	0.79742431640625	4.60113525390625E-06	3.66905692317232E-06	173310.34375	1.4534906767949E-05
1	100	56.3523068577241	0.807037353515625	0.80810546875	4.44610595703125E-06	3.59292243956588E-06	181755.796875	1.49904717545724E-05
1	101	56.4530148574698	0.817108154296875	0.8172607421875	4.3017578125E-06	3.51565768141882E-06	189982.984375	1.54309618665138E-05
1	102	56.5537228572156	0.827178955078125	0.82733154296875	4.1717529296875E-06	3.45142257174302E-06	198317.5	1.58576367539354E-05
1	103	56.6544308569613	0.837249755859375	0.83740234375	4.05609130859375E-06	3.39658026859979E-06	206455.5	1.62719425134128E-05
1	104	56.755138856707	0.847320556640625	0.8477783203125	3.953857421875E-06	3.35199433720845E-06	214418.046875	1.66752743098186E-05
1	105	56.8558468564528	0.857391357421875	0.85784912109375	3.86566162109375E-06	3.31615456161671E-06	221915.203125	1.70690182130784E-05
1	106	56.9565548561985	0.867462158203125	0.86822509765625	3.7890625E-06	3.28975920638186E-06	229139.828125	1.74544657056686E-05
1	107	57.0572628559443	0.877532958984375	0.87799072265625	3.7225341796875E-06	3.26835038322315E-06	235858.34375	1.78327045432525E-05
1	108	57.15797085569	0.887603759765625	0.88775634765625	3.665771484375E-06	3.25431187775393E-06	242174.5	1.82047351700021E-05
1	109	57.2586788554357	0.897674560546875	0.8978271484375	3.61785888671875E-06	3.24821189678914E-06	248165.34375	1.85714943654602E-05
1	110	57.3593868551815	0.907745361328125	0.90728759765625	3.5797119140625E-06	3.247828090025E-06	253452.6875	1.89339207281591E-05
1	111	57.4600948549272	0.917816162109375	0.91766357421875	3.55133056640625E-06	3.25892665387073E-06	258399.9375	1.92929965123767E-05
1	112	57.5608028546729	0.927886962890625	0.92803955078125	3.53607177734375E-06	3.28161445395381E-06	262449.3125	1.96498767763842E-05
1	113	57.6615108544187	0.937957763671875	0.9381103515625	3.53729248046875E-06	3.31837054545758E-06	265205.78125	2.00060494535137E-05
1	114	57.7622188541644	0.948028564453125	0.94757080078125	3.56109619140625E-06	3.37439064423961E-06	266089.65625	2.03634808713105E-05
1	115	57.8629268539102	0.958099365234375	0.95794677734375	3.61328125E-06	3.46133106177149E-06	265118.25	2.07247394428123E-05
1	116	57.9636348536559	0.968170166015625	0.96832275390625	3.702392578125E-06	3.58511078957235E-06	261539.734375	2.10931120818714E-05
1	117	58.0643428534016	0.978240966796875	0.97900390625	3.84033203125E-06	3.75969989363512E-06	254926.90625	2.14729188883211E-05
1	118	58.1650508531474	0.988311767578125	0.98785400390625	4.03564453125E-06	3.9866276893008E-06	244782.21875	2.18695058720186E-05
1	119	58.2657588528931	0.998382568359375	0.99822998046875	4.29473876953125E-06	4.28713701694505E-06	232430.90625	2.22889739234233E-05
1	120	58.3664668526388	1.00845336914063	1.00860595703125	4.61517333984375E-06	4.65489119960694E-06	218541.3125	2.27376240218291E-05
1	121	58.4671748523846	1.01852416992188	1.01837158203125	4.9896240234375E-06	5.08129096488119E-06	204097.859375	2.32212642004015E-05
1	122	58.5678828521303	1.02859497070313	1.0284423828125	5.3863525390625E-06	5.53955305804266E-06	190934.859375	2.37437361647608E-05
1	123	58.668590851876	1.03866577148438	1.03851318359375	5.780029296875E-06	6.00263683736557E-06	179672.640625	2.43060076172696E-05
1	124	58.7692988516218	1.04873657226563	1.04827880859375	6.1309814453125E-06	6.42697750663501E-06	170980.59375	2.49057757173432E-05
1	125	58.8700068513675	1.05880737304688	1.05865478515625	6.4056396484375E-06	6.78136075293878E-06	165269.1875	2.5537043256918E-05
1	126	58.9707148511133	1.06887817382813	1.06903076171875	6.57958984375E-06	7.03378373145824E-06	162476.8125	2.61909026448848E-05
1	127	59.071422850859	1.07894897460938	1.07879638671875	6.6497802734375E-06	7.1737586040399E-06	162230.390625	2.68570529442513E-05
1	128	59.1721308506047	1.08901977539063	1.08917236328125	6.622314453125E-06	7.21284186511184E-06	164470.046875	2.75253569270717E-05
1	129	59.2728388503505	1.09909057617188	1.0992431640625	6.5277099609375E-06	7.17554075890803E-06	168396.453125	2.81875127257081E-05
1	130	59.3735468500962	1.10916137695313	1.1090087890625	6.390380859375E-06	7.08698826201726E-06	173543.453125	2.88379906123737E-05
1	131	59.4742548498419	1.11923217773438	1.119384765625	6.2347412109375E-06	6.97907444191515E-06	179539.890625	2.94737164949765E-05
1	132	59.5749628495877	1.12930297851563	1.1297607421875	6.072998046875E-06	6.86103476255084E-06	186030.15625	3.00934607366798E-05
1	133	59.6756708493334	1.13937377929688	1.14044189453125	5.92041015625E-06	6.75188357490697E-06	192628.875	3.06973743136041E-05
1	134	59.7763788490792	1.14944458007813	1.1492919921875	5.7769775390625E-06	6.63943410472712E-06	198943.46875	3.12863849103451E-05
1	135	59.8770868488249	1.15951538085938	1.15936279296875	5.645751953125E-06	6.54547466183431E-06	205351.34375	3.18615675496403E-05
1	136	59.9777948485706	1.16958618164063	1.16943359375	5.5267333984375E-06	6.46314765617717E-06	211595.8125	3.2424144592369E-05
1	137	60.0785028483164	1.17965698242188	1.17950439453125	5.4229736328125E-06	6.39642121313955E-06	217501.40625	3.29755057464354E-05
1	138	60.1792108480621	1.18972778320313	1.18988037109375	5.328369140625E-06	6.3401216721104E-06	223310.4375	3.35168806486763E-05
1	139	60.2799188478078	1.19979858398438	1.19964599609375	5.2459716796875E-06	6.29330861556809E-06	228679.484375	3.40493388648611E-05
1	140	60.3806268475536	1.20986938476563	1.209716796875	5.1727294921875E-06	6.25753727945266E-06	233864.3125	3.45739645126741E-05
1	141	60.4813348472993	1.21994018554688	1.2200927734375	5.1055908203125E-06	6.22929428573116E-06	238971.90625	3.50915179296862E-05
1	142	60.582042847045	1.23001098632813	1.23016357421875	5.0445556640625E-06	6.20562832409632E-06	243859.65625	3.56026175722945E-05
1	143	60.6827508467908	1.24008178710938	1.240234375	4.9896240234375E-06	6.1883029047749E-06	248562.703125	3.61078782589175E-05
1	144	60.7834588465365	1.25015258789063	1.25	4.9407958984375E-06	6.17599471297581E-06	252995.671875	3.66079148079734E-05
1	145	60.8841668462823	1.26022338867188	1.2603759765625	4.8974609375E-06	6.17264186075772E-06	257352.953125	3.71033129340503E-05
1	146	60.984874846028	1.27029418945313	1.27044677734375	4.85870361328125E-06	6.17272417002823E-06	261478.5625	3.75945746782236E-05
1	147	61.0855828457737	1.28036499023438	1.28021240234375	4.82421875E-06	6.17602472630097E-06	265371.96875	3.80821475118864E-05
1	148	61.1862908455195	1.29043579101563	1.29058837890625	4.79339599609375E-06	6.1863011069363E-06	269243.03125	3.85664316127077E-05
1	149	61.2869988452652	1.30050659179688	1.30035400390625	4.765625E-06	6.19699949311325E-06	272861.1875	3.90477689506952E-05
1	150	61.3877068450109	1.31057739257813	1.31072998046875	4.74090576171875E-06	6.21404751655064E-06	276472.46875	3.95264614780899E-05
1	151	61.4884148447567	1.32064819335938	1.3201904296875	4.71893310546875E-06	6.22989000476082E-06	279764.625	4.00028002331965E-05
1	152	61.5891228445024	1.33071899414063	1.33087158203125	4.70062255859375E-06	6.25592474534642E-06	283126.6875	4.04771126341075E-05
1	153	61.6898308442481	1.34078979492188	1.34063720703125	4.6844482421875E-06	6.28014504400198E-06	286188.9375	4.09496897191275E-05
1	154	61.7905388439939	1.35086059570313	1.35101318359375	4.67132568359375E-06	6.31102284387453E-06	289214.09375	4.14207897847518E-05
1	155	61.8912468437396	1.36093139648438	1.36077880859375	4.6600341796875E-06	6.3412753661396E-06	292010.5	4.18906602135394E-05
1	156	61.9919548434854	1.37100219726563	1.3714599609375	4.6514892578125E-06	6.37933135294588E-06	294843.1875	4.23595338361338E-05
1	157	62.0926628432311	1.38107299804688	1.3812255859375	4.64599609375E-06	6.41716860627639E-06	297293.75	4.28276980528608E-05
1	158	62.1933708429768	1.39114379882813	1.3909912109375	4.64141845703125E-06	6.45617228656192E-06	299690.96875	4.32953565905336E-05
1	159	62.2940788427226	1.40121459960938	1.4013671875	4.63897705078125E-06	6.50090987619478E-06	302085.40625	4.37626622442622E-05
1	160	62.3947868424683	1.41128540039063	1.4111328125	4.6392822265625E-06	6.54664290777873E-06	304170.53125	4.42298587586265E-05
1	161	62.495494842214	1.42135620117188	1.42120361328125	4.64263916015625E-06	6.59813531456166E-06	306119.78125	4.469724080991E-05
1	162	62.5962028419598	1.43142700195313	1.43157958984375	4.649658203125E-06	6.6563552536536E-06	307889.21875	4.51651467301417E-05
1	163	62.6969108417055	1.44149780273438	1.44195556640625	4.66094970703125E-06	6.72088253850234E-06	309369.46875	4.56339730590116E-05
1	164	62.7976188414513	1.45156860351563	1.451416015625	4.67926025390625E-06	6.7915530053142E-06	310180.65625	4.61042873212136E-05
1	165	62.898326841197	1.46163940429688	1.461181640625	4.70550537109375E-06	6.87559759171563E-06	310526	4.65768498543184E-05
1	166	62.9990348409427	1.47171020507813	1.4715576171875	4.7442626953125E-06	6.98145595379174E-06	310176.25	4.70526829303708E-05
1	167	63.0997428406885	1.48178100585938	1.48193359375	4.796142578125E-06	7.10756467015017E-06	308984.46875	4.75330816698261E-05
1	168	63.2004508404342	1.49185180664063	1.49169921875	4.86297607421875E-06	7.25409745427896E-06	306746.15625	4.80194576084614E-05
1	169	63.3011588401799	1.50192260742188	1.5020751953125	4.94720458984375E-06	7.43107329981285E-06	303621	4.85134369228035E-05
1	170	63.4018668399257	1.49185180664063	1.49200439453125	4.66400146484375E-06	6.9587104007951E-06	319897.9375	4.89974008814897E-05
1	171	63.5025748396714	1.48178100585938	1.48193359375	4.45770263671875E-06	6.60601926938398E-06	332443.34375	4.94567138957791E-05
1	172	63.6032828394171	1.47171020507813	1.47216796875	4.29473876953125E-06	6.3225766098185E-06	342784.0625	4.98974332003854E-05
1	173	63.7039908391629	1.46163940429688	1.461181640625	4.1619873046875E-06	6.0814195421699E-06	351077.875	5.03232658957131E-05
1	174	63.8046988389086	1.45156860351563	1.45172119140625	4.05181884765625E-06	5.88211150898132E-06	358288.75	5.07368640683126E-05
1	175	63.9054068386544	1.44149780273438	1.44134521484375	3.9593505859375E-06	5.70679094380466E-06	364035.75	5.11402577103581E-05
1	176	64.0061148384001	1.43142700195313	1.43157958984375	3.880615234375E-06	5.55540964342072E-06	368905.3125	5.15350293426309E-05
1	177	64.1068228381458	1.42135620117188	1.42120361328125	3.8116455078125E-06	5.4171241572476E-06	372858.28125	5.19223685842007E-05
1	178	64.2075308378916	1.41128540039063	1.41143798828125	3.75274658203125E-06	5.29676890437258E-06	376108	5.23032649653032E-05
1	179	64.3082388376373	1.40121459960938	1.40106201171875	3.699951171875E-06	5.18386104886304E-06	378670.40625	5.267853703117E-05
1	180	64.408946837383	1.39114379882813	1.3909912109375	3.65325927734375E-06	5.08165157953044E-06	380753.5	5.30487996002194E-05
1	181	64.5096548371288	1.38107299804688	1.3812255859375	3.61114501953125E-06	4.98780582347536E-06	382489.65625	5.34145947312936E-05
1	182	64.6103628368745	1.37100219726563	1.370849609375	3.572998046875E-06	4.89804278913653E-06	383669.3125	5.37763444299344E-05
1	183	64.7110708366203	1.36093139648438	1.36077880859375	3.53759765625E-06	4.81388769912883E-06	384661.84375	5.41343906661496E-05
1	184	64.811778836366	1.35086059570313	1.35040283203125	3.5052490234375E-06	4.73349791718647E-06	385251.625	5.44890244782437E-05
1	185	64.9124868361117	1.34078979492188	1.34063720703125	3.475341796875E-06	4.65917219116818E-06	385756.96875	5.48405259905849E-05
1	186	65.0131948358575	1.33071899414063	1.33056640625	3.446044921875E-06	4.58519116364187E-06	386114.09375	5.51890443603043E-05
1	187	65.1139028356032	1.32064819335938	1.32080078125	3.419189453125E-06	4.51606820206507E-06	386290.625	5.55347396584693E-05
1	188	65.2146108353489	1.31057739257813	1.3104248046875	3.39385986328125E-06	4.44739816884976E-06	386116.375	5.58778010599781E-05
1	189	65.3153188350947	1.30050659179688	1.30035400390625	3.3697509765625E-06	4.38186907558702E-06	385890.25	5.62183777219616E-05
1	190	65.4160268348404	1.29043579101563	1.29058837890625	3.34625244140625E-06	4.31863463745685E-06	385681.71875	5.65565533179324E-05
1	191	65.5167348345861	1.28036499023438	1.28021240234375	3.3233642578125E-06	4.2546121221676E-06	385215.8125	5.68923969694879E-05
1	192	65.6174428343319	1.27029418945313	1.2701416015625	3.30230712890625E-06	4.19439766119467E-06	384622.5	5.72260250919499E-05
1	193	65.7181508340776	1.26022338867188	1.26068115234375	3.2818603515625E-06	4.13737916460377E-06	384136.15625	5.75575650145765E-05
1	194	65.8188588338234	1.25015258789063	1.25	3.26171875E-06	4.07714833272621E-06	383233.5625	5.78870603931136E-05
1	195	65.9195668335691	1.24008178710938	1.240234375	3.24188232421875E-06	4.02069372285041E-06	382566.125	5.82145439693704E-05
1	196	66.0202748333148	1.23001098632813	1.2298583984375	3.22174072265625E-06	3.9622846088605E-06	381737.25	5.85400121053681E-05
1	197	66.1209828330606	1.21994018554688	1.22039794921875	3.20281982421875E-06	3.90871446143137E-06	381038.59375	5.88635157328099E-05
1	198	66.2216908328063	1.20986938476563	1.21002197265625	3.18267822265625E-06	3.85111025025253E-06	380189.875	5.91850475757383E-05
1	199	66.322398832552	1.19979858398438	1.19964599609375	3.1622314453125E-06	3.79355833501904E-06	379366.90625	5.95045421505347E-05
1	200	66.4231068322978	1.18972778320313	1.1895751953125	3.13995361328125E-06	3.73521083929518E-06	378851.1875	5.98218794038985E-05
1	201	66.5238148320435	1.17965698242188	1.17950439453125	3.1158447265625E-06	3.67515258403728E-06	378550.4375	6.01368847128469E-05
1	202	66.6245228317892	1.16958618164063	1.16943359375	3.08746337890625E-06	3.61058323505858E-06	378768.4375	6.04492452112027E-05
1	203	66.725230831535	1.15951538085938	1.1590576171875	3.05419921875E-06	3.53999280378048E-06	379496.40625	6.07585025136359E-05
1	204	66.8259388312807	1.14944458007813	1.14959716796875	3.01300048828125E-06	3.46373667525768E-06	381545.625	6.10640126978979E-05
1	205	66.9266468310265	1.13937377929688	1.13983154296875	2.95989990234375E-06	3.37378719450498E-06	385091.25	6.13647716818377E-05
1	206	67.0273548307722	1.12930297851563	1.12884521484375	2.89031982421875E-06	3.26272379425063E-06	390560.65625	6.16593533777632E-05
1	207	67.1280628305179	1.11923217773438	1.11968994140625	2.7978515625E-06	3.13272607854742E-06	400196.34375	6.19457787252031E-05
1	208	67.2287708302637	1.10916137695313	1.10931396484375	2.67364501953125E-06	2.96591178994277E-06	414906.96875	6.22212901362218E-05
1	209	67.3294788300094	1.09909057617188	1.0992431640625	2.5067138671875E-06	2.7554881398828E-06	438519.59375	6.24821404926479E-05
1	210	67.4301868297551	1.08901977539063	1.08917236328125	2.28851318359375E-06	2.49258528128848E-06	475930.15625	6.27236004220322E-05
1	211	67.5308948295009	1.07894897460938	1.07879638671875	2.00897216796875E-06	2.16727198676381E-06	536989.1875	6.29399946774356E-05
1	212	67.6316028292466	1.06887817382813	1.0687255859375	1.66534423828125E-06	1.77979586624133E-06	641744.5625	6.31250077276491E-05
1	213	67.7323108289924	1.05880737304688	1.05865478515625	1.26617431640625E-06	1.3404414858087E-06	836105.0625	6.32726223557256E-05
1	214	67.8330188287381	1.04873657226563	1.04888916015625	8.2672119140625E-07	8.67138908233756E-07	1268733.875	6.33780073258094E-05
1	215	67.9337268284838	1.03866577148438	1.03851318359375	3.79638671875E-07	3.94259757285909E-07	2735530.5	6.34387542959303E-05
1	216	68.0344348282296	1.02859497070313	1.029052734375	-4.39453125000003E-08	-4.5222044775528E-08	-23416666	6.3455656345468E-05
1	217	68.1351428279753	1.01852416992188	1.0186767578125	-4.03747558593751E-07	-4.11288255008913E-07	-2523053.75	6.34331154287793E-05
1	218	68.235850827721	1.00845336914063	1.00830078125	-6.73828125000001E-07	-6.7942136183774E-07	-1496376.875	6.33788513368927E-05
1	219	68.3365588274668	0.998382568359375	0.99822998046875	-8.3648681640625E-07	-8.35006176203024E-07	-1193360.125	6.33028030279092E-05
1	220	68.4372668272125	0.988311767578125	0.98846435546875	-8.953857421875E-07	-8.85056863353384E-07	-1103953.625	6.32156006759033E-05
1	221	68.5379748269582	0.978240966796875	0.97808837890625	-8.6822509765625E-07	-8.4920083054385E-07	-1126537.875	6.31267903372645E-05
1	222	68.638682826704	0.968170166015625	0.968017578125	-7.79113769531251E-07	-7.54195809804514E-07	-1242459.875	6.30438444204628E-05
1	223	68.7393908264497	0.958099365234375	0.958251953125	-6.53991699218751E-07	-6.26688802185527E-07	-1465235.75	6.29716814728454E-05
1	224	68.8400988261955	0.948028564453125	0.9478759765625	-5.12084960937501E-07	-4.85393059079797E-07	-1851013.125	6.29129644948989E-05
1	225	68.9408068259412	0.937957763671875	0.9381103515625	-3.66821289062499E-07	-3.44118831208107E-07	-2557404.5	6.28687048447318E-05
1	226	69.0415148256869	0.927886962890625	0.92803955078125	-2.26440429687499E-07	-2.10145671530881E-07	-4098383	6.28388370387256E-05
1	227	69.1422228254327	0.917816162109375	0.91827392578125	-9.46044921875E-08	-8.68728378122796E-08	-9706452	6.28226698609069E-05
1	228	69.2429308251784	0.907745361328125	0.908203125	2.83813476562506E-08	2.5776028422797E-08	32000000	6.2819330196362E-05
1	229	69.3436388249241	0.897674560546875	0.89752197265625	1.40380859375E-07	1.25994901623017E-07	6393478	6.28278285148554E-05
1	230	69.4443468246699	0.887603759765625	0.887451171875	2.40478515625001E-07	2.13412931771018E-07	3690355.5	6.28470079391263E-05
1	231	69.5450548244156	0.877532958984375	0.877685546875	3.22570800781249E-07	2.83115724641902E-07	2720908.25	6.28753623459488E-05
1	232	69.6457628241614	0.867462158203125	0.8673095703125	3.90014648437501E-07	3.38263419052964E-07	2223787.25	6.29112400929444E-05
1	233	69.7464708239071	0.857391357421875	0.85723876953125	4.45556640625E-07	3.81948410677069E-07	1923972.625	6.29533169558272E-05
1	234	69.8471788236528	0.847320556640625	0.84716796875	4.913330078125E-07	4.16241562106734E-07	1724223.75	6.30004942649975E-05
1	235	69.9478868233986	0.837249755859375	0.83709716796875	5.2764892578125E-07	4.41693430275336E-07	1586466.125	6.30518043180928E-05
1	236	70.0485948231443	0.827178955078125	0.8270263671875	5.523681640625E-07	4.56823016747876E-07	1497237.625	6.31061848253012E-05
1	237	70.14930282289	0.817108154296875	0.8172607421875	5.63659667968749E-07	4.60656877976362E-07	1449918.875	6.31623843219131E-05
1	238	70.2500108226358	0.807037353515625	0.806884765625	5.59082031249999E-07	4.51114772204164E-07	1443231.5	6.32189185125753E-05
1	239	70.3507188223815	0.796966552734375	0.79742431640625	5.31921386718751E-07	4.2416704104653E-07	1499139.375	6.32738519925624E-05
1	240	70.4514268221272	0.786895751953125	0.78643798828125	4.7576904296875E-07	3.74162851812798E-07	1652982.625	6.33245945209637E-05
1	241	70.552134821873	0.776824951171875	0.77728271484375	3.80554199218749E-07	2.95798201932485E-07	2042502.125	6.33677118457854E-05
1	242	70.6528428216187	0.766754150390625	0.76690673828125	2.35595703124999E-07	1.80679919026261E-07	3255181.5	6.33987365290523E-05
1	243	70.7535508213645	0.756683349609375	0.7568359375	2.899169921875E-08	2.19419593605608E-08	26105264	6.34120588074438E-05
1	244	70.8542588211102	0.746612548828125	0.746490478515625	-2.484130859375E-07	-1.85437997402005E-07	-3005037	6.34010139037855E-05
1	245	70.9549668208559	0.736541748046875	0.736419677734375	-5.97229003906249E-07	-4.39811145724889E-07	-1233060.875	6.33584349998273E-05
1	246	71.0556748206017	0.726470947265625	0.72637939453125	-1.00830078125E-06	-7.32408864223544E-07	-720399.5625	6.32775845588185E-05
1	247	71.1563828203474	0.716400146484375	0.71630859375	-1.46240234375E-06	-1.04753132745827E-06	-489816.375	6.31531802355312E-05
1	248	71.2570908200931	0.706329345703125	0.706298828125	-1.9244384765625E-06	-1.35922869048954E-06	-367015.53125	6.29826390650123E-05
1	249	71.3577988198389	0.696258544921875	0.696197509765625	-2.3577880859375E-06	-1.64148605108494E-06	-295275.71875	6.27670087851584E-05
1	250	71.4585068195846	0.686187744140625	0.68609619140625	-2.7178955078125E-06	-1.8647377828529E-06	-252436.5625	6.2511426222045E-05
1	251	71.5592148193304	0.676116943359375	0.676025390625	-2.9736328125E-06	-2.01025113710784E-06	-227339.90625	6.22248335275799E-05
1	252	71.6599228190761	0.666046142578125	0.665985107421875	-3.109130859375E-06	-2.0706347640953E-06	-214202.984375	6.19185448158532E-05
1	253	71.7606308188218	0.655975341796875	0.65594482421875	-3.1304931640625E-06	-2.05343076231657E-06	-209534.03125	6.16043544141576E-05
1	254	71.8613388185676	0.645904541015625	0.645904541015625	-3.0584716796875E-06	-1.97548069991171E-06	-211185.40625	6.12927178735845E-05
1	255	71.9620468183133	0.635833740234375	0.635833740234375	-2.92449951171875E-06	-1.85949545539188E-06	-217416.25	6.09914495726116E-05
1	256	72.062754818059	0.625762939453125	0.625701904296875	-2.75909423828125E-06	-1.72637044215662E-06	-226778.03125	6.07052570558153E-05
1	257	72.1634628178048	0.615692138671875	0.61566162109375	-2.581787109375E-06	-1.58950729201024E-06	-238463.359375	6.04363231104799E-05
1	258	72.2641708175505	0.605621337890625	0.6055908203125	-2.40631103515625E-06	-1.45723993227875E-06	-251667.71875	6.01851534156594E-05
1	259	72.3648788172962	0.595550537109375	0.595489501953125	-2.24090576171875E-06	-1.33443586491921E-06	-265736.0625	5.99511477048509E-05
1	260	72.465586817042	0.585479736328125	0.58544921875	-2.08892822265625E-06	-1.22296137305966E-06	-280262.96875	5.97331236349419E-05
1	261	72.5662948167877	0.575408935546875	0.575408935546875	-1.9500732421875E-06	-1.1220895430597E-06	-295070.40625	5.95297424297314E-05
1	262	72.6670028165335	0.565338134765625	0.565277099609375	-1.8255615234375E-06	-1.03194815892493E-06	-309645.59375	5.93396252952516E-05
1	263	72.7677108162792	0.555267333984375	0.5552978515625	-1.712646484375E-06	-9.51028880535887E-07	-324233.8125	5.91614625591319E-05
1	264	72.8684188160249	0.545196533203125	0.545196533203125	-1.612548828125E-06	-8.79156004884862E-07	-338096.15625	5.89940245845355E-05
1	265	72.9691268157707	0.535125732421875	0.535125732421875	-1.52099609375E-06	-8.13924145859346E-07	-351825.84375	5.88362381677143E-05
1	266	73.0698348155164	0.525054931640625	0.5250244140625	-1.43890380859375E-06	-7.55459609536047E-07	-364878.0625	5.86871938139666E-05
1	267	73.1705428152621	0.514984130859375	0.51495361328125	-1.36474609375E-06	-7.02780880601495E-07	-377325.59375	5.85460184083786E-05
1	268	73.2712508150079	0.504913330078125	0.5048828125	-1.29669189453125E-06	-6.5467742160763E-07	-389362.21875	5.84120061830617E-05
1	269	73.3719588147536	0.494842529296875	0.494781494140625	-1.23382568359375E-06	-6.10474103268643E-07	-401014.125	5.82845859753434E-05
1	270	73.4726668144993	0.484771728515625	0.484771728515625	-1.17645263671875E-06	-5.70310987768607E-07	-412062.25	5.81632157263812E-05
1	271	73.5733748142451	0.474700927734375	0.4747314453125	-1.124267578125E-06	-5.3372514230432E-07	-422258.4375	5.80473679292481E-05
1	272	73.6740828139908	0.464630126953125	0.464569091796875	-1.07574462890625E-06	-4.99757732086437E-07	-431858.15625	5.79365878365934E-05
1	273	73.7747908137366	0.454559326171875	0.454559326171875	-1.0308837890625E-06	-4.68597818326089E-07	-440941.40625	5.78305116505362E-05
1	274	73.8754988134823	0.444488525390625	0.444488525390625	-9.89685058593751E-07	-4.39903658389085E-07	-449121.1875	5.77287682972383E-05
1	275	73.976206813228	0.434417724609375	0.43438720703125	-9.51232910156249E-07	-4.13203395055461E-07	-456657.0625	5.76310339965858E-05
1	276	74.0769148129738	0.424346923828125	0.424285888671875	-9.14916992187501E-07	-3.88186379041144E-07	-463742.5	5.75370650039986E-05
1	277	74.1776228127195	0.414276123046875	0.414276123046875	-8.81347656250001E-07	-3.65121280765379E-07	-470048.46875	5.74466175748967E-05
1	278	74.2783308124652	0.404205322265625	0.404205322265625	-8.4869384765625E-07	-3.43046565376426E-07	-476267.53125	5.7359502534382E-05
1	279	74.379038812211	0.394134521484375	0.394134521484375	-8.1787109375E-07	-3.22351212389549E-07	-481903	5.72755852772389E-05
1	280	74.4797468119567	0.384063720703125	0.384063720703125	-7.891845703125E-07	-3.03097152709597E-07	-486658.96875	5.71946620766539E-05
1	281	74.5804548117025	0.373992919921875	0.373992919921875	-7.62023925781249E-07	-2.849915290426E-07	-490788.96875	5.71165510336868E-05
1	282	74.6811628114482	0.363922119140625	0.363983154296875	-7.34863281250001E-07	-2.67477844317909E-07	-495307.34375	5.70411793887615E-05
1	283	74.7818708111939	0.353851318359375	0.35382080078125	-7.10144042968749E-07	-2.51263742256924E-07	-498238.09375	5.69684161746409E-05
1	284	74.8825788109397	0.343780517578125	0.343780517578125	-6.87255859375E-07	-2.36265179864859E-07	-500222.03125	5.68980503885541E-05
1	285	74.9832868106854	0.333709716796875	0.333770751953125	-6.64672851562501E-07	-2.21848353021414E-07	-502157.96875	5.68299765291158E-05
1	286	75.0839948104311	0.323638916015625	0.323638916015625	-6.43310546875001E-07	-2.08200333418063E-07	-503083.46875	5.67641145607922E-05
1	287	75.1847028101769	0.313568115234375	0.313568115234375	-6.23168945312499E-07	-1.95405917224889E-07	-503183.15625	5.67003407923039E-05
1	288	75.2854108099226	0.303497314453125	0.303466796875	-6.04248046875E-07	-1.8336922380513E-07	-502222.21875	5.66385351703502E-05
1	289	75.3861188096683	0.293426513671875	0.29339599609375	-5.859375E-07	-1.71911707980144E-07	-500729.1875	5.6578606745461E-05
1	290	75.4868268094141	0.283355712890625	0.28338623046875	-5.6915283203125E-07	-1.61290060418651E-07	-497908.875	5.65204427402932E-05
1	291	75.5875348091598	0.273284912109375	0.273284912109375	-5.5267333984375E-07	-1.51037284013E-07	-494478.1875	5.64639558433555E-05
1	292	75.6882428089056	0.263214111328125	0.26324462890625	-5.38024902343751E-07	-1.41632156669402E-07	-489279.65625	5.64090332773048E-05
1	293	75.7889508086513	0.253143310546875	0.25311279296875	-5.24291992187501E-07	-1.3270501142415E-07	-482770.6875	5.63555404369254E-05
1	294	75.889658808397	0.243072509765625	0.243072509765625	-5.108642578125E-07	-1.24177063298703E-07	-475806.46875	5.63034154765774E-05
1	295	75.9903668081428	0.233001708984375	0.23297119140625	-4.9896240234375E-07	-1.16243860759369E-07	-466911.34375	5.62525674467906E-05
1	296	76.0910748078885	0.222930908203125	0.22296142578125	-4.87670898437501E-07	-1.08731796899519E-07	-457196.5	5.6202887208201E-05
1	297	76.1917828076342	0.212860107421875	0.212890625	-4.78515625000001E-07	-1.01871492574901E-07	-444897.96875	5.61542365176138E-05
1	298	76.29249080738	0.202789306640625	0.202850341796875	-4.70581054687499E-07	-9.54575298806049E-08	-431063.5625	5.6106444390025E-05
1	299	76.3931988071257	0.192718505859375	0.192718505859375	-4.64782714843751E-07	-8.95722322979964E-08	-414642.15625	5.60593471163884E-05
1	300	76.4939068068715	0.182647705078125	0.18267822265625	-4.6112060546875E-07	-8.42366958409002E-08	-396161.46875	5.60127227799967E-05
1	301	76.5946148066172	0.172576904296875	0.172637939453125	-4.61730957031251E-07	-7.9712279443811E-08	-373892.9375	5.59662548766937E-05
1	302	76.6953228063629	0.162506103515625	0.162506103515625	-4.6539306640625E-07	-7.56292095616118E-08	-349180.34375	5.59195686946623E-05
1	303	76.7960308061087	0.152435302734375	0.152435302734375	-4.74853515625E-07	-7.23844379990624E-08	-321015.4375	5.58722240384668E-05
1	304	76.8967388058544	0.142364501953125	0.142425537109375	-4.925537109375E-07	-7.01522253621079E-08	-289157.375	5.58235115022399E-05
1	305	76.9974468056001	0.132293701171875	0.13232421875	-5.2032470703125E-07	-6.88515626734443E-08	-254310.859375	5.57725070393644E-05
1	306	77.0981548053459	0.122222900390625	0.122283935546875	-5.6182861328125E-07	-6.87026115997469E-08	-217653.453125	5.57180173927918E-05
1	307	77.1988628050916	0.112152099609375	0.1121826171875	-6.2408447265625E-07	-7.0011431319017E-08	-179755.5	5.56583036086522E-05
1	308	77.2995708048373	0.102081298828125	0.10205078125	-7.1136474609375E-07	-7.2595327083036E-08	-143457.75	5.55910555704031E-05
1	309	77.4002788045831	0.092010498046875	0.09210205078125	-8.2977294921875E-07	-7.64237881867302E-08	-110996.6875	5.5513453844469E-05
1	310	77.5009868043288	0.081939697265625	0.082000732421875	-9.83581542968751E-07	-8.06544093734374E-08	-83369.53125	5.54221442143898E-05
1	311	77.6016948040746	0.071868896484375	0.0718994140625	-1.17340087890625E-06	-8.43668317429547E-08	-61274.3828125	5.53135323571041E-05
1	312	77.7024028038203	0.061798095703125	0.06182861328125	-1.38946533203125E-06	-8.59087094795541E-08	-44498.1328125	5.51844823348802E-05
1	313	77.803110803566	0.051727294921875	0.051788330078125	-1.6168212890625E-06	-8.37324733993228E-08	-32030.95703125	5.50331023987383E-05
1	314	77.9038188033118	0.041656494140625	0.0417755126953125	-1.83441162109375E-06	-7.66334835589078E-08	-22773.25	5.48593197891023E-05
1	315	78.0045268030575	0.031585693359375	0.031658935546875	-2.0196533203125E-06	-6.39400710156224E-08	-15675.431640625	5.4665251809638E-05
1	316	78.1052348028032	0.021514892578125	0.02161865234375	-2.149658203125E-06	-4.64727172300172E-08	-10056.7861328125	5.44553113286383E-05
1	317	78.205942802549	0.011444091796875	0.0115509033203125	-2.22137451171875E-06	-2.56588812419523E-08	-5199.89013671875	5.42352136108093E-05
1	318	78.3066508022947	0.001373291015625	0.0014495849609375	-2.23785400390625E-06	-3.24395954542922E-09	-647.756713867188	5.4010670282878E-05
1	319	78.4073588020404	-0.008697509765625	-0.00856628417968749	-2.2100830078125E-06	1.8932199807864E-08	3876.00122070313	5.37867017555982E-05
1	320	78.5080668017862	-0.018768310546875	-0.0186614990234375	-2.15362548828125E-06	4.01898780921783E-08	8665.1552734375	5.35669714736287E-05
1	321	78.6087748015319	-0.028839111328125	-0.028729248046875	-2.0831298828125E-06	5.98467551071735E-08	13791.38671875	5.33536331204232E-05
1	322	78.7094828012777	-0.038909912109375	-0.038763427734375	-2.00714111328125E-06	7.78036692850037E-08	19312.755859375	5.31476725882385E-05
1	323	78.8101908010234	-0.048980712890625	-0.0488433837890625	-1.93115234375E-06	9.43240152651015E-08	25292.3515625	5.29493627254851E-05
1	324	78.9108988007691	-0.059051513671875	-0.058990478515625	-1.8609619140625E-06	1.09779030310619E-07	31698.91796875	5.27584124938585E-05
1	325	79.0116068005149	-0.069122314453125	-0.069091796875	-1.795654296875E-06	1.24064982287564E-07	38477.2265625	5.25742907484528E-05
1	326	79.1123148002606	-0.079193115234375	-0.079132080078125	-1.73797607421875E-06	1.3752965344338E-07	45531.16796875	5.23963572049979E-05
1	327	79.2130228000063	-0.089263916015625	-0.089202880859375	-1.6864013671875E-06	1.50431858969569E-07	52895.40625	5.22239242854994E-05
1	328	79.3137307997521	-0.099334716796875	-0.0992431640625	-1.6424560546875E-06	1.63002539466106E-07	60423.63671875	5.20563044119626E-05
1	329	79.4144387994978	-0.109405517578125	-0.1092529296875	-1.60369873046875E-06	1.75208782593472E-07	68125.59375	5.18928463861812E-05
1	330	79.5151467992436	-0.119476318359375	-0.11944580078125	-1.56982421875E-06	1.87508916837942E-07	76088.6484375	5.17330481670797E-05
1	331	79.6158547989893	-0.129547119140625	-0.129425048828125	-1.54083251953125E-06	1.99422316882192E-07	83996.8359375	5.15764149895404E-05
1	332	79.716562798735	-0.139617919921875	-0.1395263671875	-1.5155029296875E-06	2.11452601206474E-07	92066.0546875	5.14225139340851E-05
1	333	79.8172707984808	-0.149688720703125	-0.149627685546875	-1.49383544921875E-06	2.23519137421135E-07	100163.4375	5.12709812028334E-05
1	334	79.9179787982265	-0.159759521484375	-0.159637451171875	-1.47552490234375E-06	2.35549023841486E-07	108190.28125	5.11214639118407E-05
1	335	80.0186867979722	-0.169830322265625	-0.169647216796875	-1.4605712890625E-06	2.47781855478024E-07	116151.2734375	5.09736200910993E-05
1	336	80.119394797718	-0.179901123046875	-0.179718017578125	-1.448974609375E-06	2.60406835650429E-07	124031.171875	5.08271114085801E-05
1	337	80.2201027974637	-0.189971923828125	-0.1898193359375	-1.43890380859375E-06	2.7313174655319E-07	131919.40625	5.06816977576818E-05
1	338	80.3208107972094	-0.200042724609375	-0.199859619140625	-1.4324951171875E-06	2.86297932916568E-07	139518.53125	5.05371099279728E-05
1	339	80.4215187969552	-0.189971923828125	-0.18988037109375	-1.2744140625E-06	2.41986214177814E-07	148994.265625	5.04008057760075E-05
2	340	80.5222267967009	-0.179901123046875	-0.179779052734375	-1.16363525390625E-06	2.09197239087189E-07	154497.765625	5.02780421811622E-05
2	341	80.6229347964467	-0.169830322265625	-0.169708251953125	-1.07452392578125E-06	1.82355563538295E-07	157938.09375	5.01653412356973E-05
2	342	80.7236427961924	-0.159759521484375	-0.15960693359375	-9.9945068359375E-07	1.59519260023444E-07	159694.65625	5.00609057780821E-05
2	343	80.8243507959381	-0.149688720703125	-0.14959716796875	-9.326171875E-07	1.39516885155899E-07	160405.765625	4.99636189488228E-05
2	344	80.9250587956839	-0.139617919921875	-0.1395263671875	-8.73718261718751E-07	1.21906737149402E-07	159692.625	4.98726622026879E-05
2	345	81.0257667954296	-0.129547119140625	-0.12945556640625	-8.2061767578125E-07	1.0623352153516E-07	157753.828125	4.97873479616828E-05
2	346	81.1264747951753	-0.119476318359375	-0.119415283203125	-7.71179199218749E-07	9.20905804946415E-08	154847.640625	4.97071923746262E-05
2	347	81.2271827949211	-0.109405517578125	-0.109344482421875	-7.25708007812501E-07	7.93521621744731E-08	150672.84375	4.96318207297008E-05
2	348	81.3278907946668	-0.099334716796875	-0.0992431640625	-6.81457519531251E-07	6.76299976021255E-08	145633.6875	4.95609638164751E-05
2	349	81.4285987944126	-0.089263916015625	-0.089202880859375	-6.3934326171875E-07	5.70312579384336E-08	139522.6875	4.94944542879239E-05
2	350	81.5293067941583	-0.079193115234375	-0.079193115234375	-5.963134765625E-07	4.72239207738312E-08	132804.515625	4.94322339363862E-05
2	351	81.630014793904	-0.069122314453125	-0.069091796875	-5.51757812500001E-07	3.81219393830179E-08	125221.2421875	4.93744264531415E-05
2	352	81.7307227936498	-0.059051513671875	-0.05908203125	-5.0323486328125E-07	2.97321367526138E-08	117404.4921875	4.93213010486215E-05
2	353	81.8314307933955	-0.048980712890625	-0.04884033203125	-4.486083984375E-07	2.19101821130607E-08	108870.7578125	4.92733743158169E-05
2	354	81.9321387931412	-0.038909912109375	-0.0387939453125	-3.83605957031249E-07	1.48815875178343E-08	101129.671875	4.9231468437938E-05
2	355	82.032846792887	-0.028839111328125	-0.02869873046875	-3.0364990234375E-07	8.71436700577988E-09	94512.5703125	4.91968603455462E-05
2	356	82.1335547926327	-0.018768310546875	-0.0186492919921875	-2.0263671875E-07	3.7790308660135E-09	92033.1328125	4.91713690280449E-05
2	357	82.2342627923784	-0.008697509765625	-0.00860595703125	-7.53784179687494E-08	6.48703424310781E-10	114170.0390625	4.91573700855952E-05
2	358	82.3349707921242	0.001373291015625	0.0014678955078125	8.544921875E-08	1.25430513198133E-10	17178.572265625	4.91578757646494E-05
2	359	82.4356787918699	0.011444091796875	0.011553955078125	2.8228759765625E-07	3.26153837271193E-09	40929.73046875	4.91763930767775E-05
2	360	82.5363867916157	0.021514892578125	0.02159423828125	5.1300048828125E-07	1.10778541895229E-08	42093.9921875	4.92164399474859E-05
2	361	82.6370947913614	0.031585693359375	0.0316680908203125	7.672119140625E-07	2.42961348817516E-08	41276.8515625	4.92809012939688E-05
2	362	82.7378027911071	0.041656494140625	0.041717529296875	1.02630615234375E-06	4.2814956913162E-08	40648.234375	4.93712141178548E-05
2	363	82.8385107908529	0.051727294921875	0.0517578125	1.26708984375E-06	6.55818013228782E-08	40847.78515625	4.94866944791283E-05
2	364	82.9392187905986	0.061798095703125	0.06182861328125	1.46575927734375E-06	9.06258605937182E-08	42181.96875	4.96243046654854E-05
2	365	83.0399267903443	0.071868896484375	0.0718994140625	1.6070556640625E-06	1.1554635648281E-07	44739.83984375	4.97790351801086E-05
2	366	83.1406347900901	0.081939697265625	0.082000732421875	1.68670654296875E-06	1.38311165187588E-07	48615.88671875	4.99448869959451E-05
2	367	83.2413427898358	0.092010498046875	0.092041015625	1.71112060546875E-06	1.57493275310117E-07	53789.90625	5.01159811392426E-05
2	368	83.3420507895815	0.102081298828125	0.1021728515625	1.693115234375E-06	1.7299041132901E-07	60346.0703125	5.0287399062654E-05
2	369	83.4427587893273	0.112152099609375	0.112213134765625	1.64825439453125E-06	1.84955794679809E-07	68079.984375	5.04556483065244E-05
2	370	83.543466789073	0.122222900390625	0.12225341796875	1.590576171875E-06	1.94453377844184E-07	76861.0859375	5.06187388964463E-05
2	371	83.6441747888188	0.132293701171875	0.13238525390625	1.52679443359375E-06	2.02125065129621E-07	86707.9765625	5.07757104060147E-05
2	372	83.7448827885645	0.142364501953125	0.142425537109375	1.463623046875E-06	2.08457294093023E-07	97310.265625	5.0926289986819E-05
2	373	83.8455907883102	0.152435302734375	0.1524658203125	1.4044189453125E-06	2.14125876141225E-07	108561.5	5.10707068315241E-05
2	374	83.946298788056	0.162506103515625	0.162567138671875	1.34979248046875E-06	2.19431896653077E-07	120438.6171875	5.12093938596081E-05
2	375	84.0470067878017	0.172576904296875	0.172576904296875	1.30157470703125E-06	2.24621729216778E-07	132590.859375	5.13429004058708E-05
2	376	84.1477147875474	0.182647705078125	0.182647705078125	1.25823974609375E-06	2.29814602903389E-07	145161.28125	5.14717976329848E-05
2	377	84.2484227872932	0.192718505859375	0.192718505859375	1.2200927734375E-06	2.35134450576879E-07	157953.984375	5.15965912200045E-05
2	378	84.3491307870389	0.202789306640625	0.20281982421875	1.18682861328125E-06	2.40712381582853E-07	170892.265625	5.17177868459839E-05
2	379	84.4498387867847	0.212860107421875	0.212860107421875	1.1572265625E-06	2.46327346076214E-07	183939.875	5.183582106838E-05
2	380	84.5505467865304	0.222930908203125	0.22296142578125	1.131591796875E-06	2.5230130518139E-07	197033.453125	5.19510722369887E-05
2	381	84.6512547862761	0.233001708984375	0.23297119140625	1.1083984375E-06	2.58224901017456E-07	210187.21875	5.20638641319238E-05
2	382	84.7519627860219	0.243072509765625	0.243072509765625	1.0888671875E-06	2.64673673200377E-07	223234.3125	5.21745059813838E-05
2	383	84.8526707857676	0.253143310546875	0.253143310546875	1.07086181640625E-06	2.71081489700009E-07	236392.140625	5.22832560818642E-05
2	384	84.9533787855133	0.263214111328125	0.26318359375	1.0546875E-06	2.77576447160754E-07	249537.046875	5.23902854183689E-05
2	385	85.0540867852591	0.273284912109375	0.27325439453125	1.0406494140625E-06	2.84362016600426E-07	262580.65625	5.24957940797321E-05
2	386	85.1547947850048	0.283355712890625	0.28338623046875	1.02813720703125E-06	2.91359924631251E-07	275630.78125	5.25999676028732E-05
2	387	85.2555027847505	0.293426513671875	0.293365478515625	1.01654052734375E-06	2.98217884164842E-07	288592.03125	5.27029260410927E-05
2	388	85.3562107844963	0.303497314453125	0.303497314453125	1.0064697265625E-06	3.05460844174377E-07	301546.40625	5.28047930856701E-05
2	389	85.456918784242	0.313568115234375	0.313568115234375	9.9761962890625E-07	3.12821697434629E-07	314316.3125	5.29057069798E-05
2	390	85.5576267839878	0.323638916015625	0.323638916015625	9.89685058593751E-07	3.20300614475855E-07	327012.03125	5.30057732248679E-05
2	391	85.6583347837335	0.333709716796875	0.333740234375	9.82666015625E-07	3.27955149259651E-07	339627.34375	5.31050900463015E-05
2	392	85.7590427834792	0.343780517578125	0.343780517578125	9.7686767578125E-07	3.35828076458711E-07	351921.28125	5.32037593075074E-05
2	393	85.859750783225	0.353851318359375	0.35382080078125	9.716796875E-07	3.43800479640777E-07	364133.15625	5.33018755959347E-05
2	394	85.9604587829707	0.363922119140625	0.3638916015625	9.674072265625E-07	3.52031378270112E-07	376151.40625	5.3399518947117E-05
2	395	86.0611667827164	0.373992919921875	0.374053955078125	9.63439941406249E-07	3.60378493269309E-07	388248.34375	5.34967439307366E-05
2	396	86.1618747824622	0.384063720703125	0.384063720703125	9.60693359375001E-07	3.68967448594049E-07	399777.65625	5.3593630582327E-05
2	397	86.2625827822079	0.394134521484375	0.394134521484375	9.58862304687499E-07	3.77920741811977E-07	411043.9375	5.36902880412526E-05
2	398	86.3632907819537	0.404205322265625	0.404266357421875	9.5794677734375E-07	3.87265657764146E-07	422013.375	5.37868072569836E-05
2	399	86.4639987816994	0.414276123046875	0.4141845703125	9.5703125E-07	3.96387576984125E-07	432780.59375	5.38832355232444E-05
2	400	86.5647067814451	0.424346923828125	0.42431640625	9.57336425781249E-07	4.06213530368404E-07	443226.03125	5.39796310476959E-05
2	401	86.6654147811909	0.434417724609375	0.434356689453125	9.5794677734375E-07	4.1609058598624E-07	453424.65625	5.40760738658719E-05
2	402	86.7661227809366	0.444488525390625	0.44451904296875	9.59167480468751E-07	4.26368188755077E-07	463442.59375	5.41726076335181E-05
2	403	86.8668307806823	0.454559326171875	0.454559326171875	9.600830078125E-07	4.36414666182827E-07	473458.375	5.42692505405284E-05
2	404	86.9675387804281	0.464630126953125	0.464630126953125	9.6160888671875E-07	4.46792455477407E-07	483179.96875	5.43660135008395E-05
2	405	87.0682467801738	0.474700927734375	0.47467041015625	9.6405029296875E-07	4.57606148529521E-07	492371	5.44629801879637E-05
2	406	87.1689547799195	0.484771728515625	0.4847412109375	9.66796875000001E-07	4.68646277340667E-07	501388.90625	5.45602051715832E-05
2	407	87.2696627796653	0.494842529296875	0.49481201171875	9.69848632812501E-07	4.79892776183988E-07	510195.09375	5.46577211935073E-05
2	408	87.370370779411	0.504913330078125	0.504913330078125	9.7381591796875E-07	4.91692617288209E-07	518489.53125	5.47555937373545E-05
2	409	87.4710787791568	0.514984130859375	0.514984130859375	9.796142578125E-07	5.04485797137022E-07	525700.9375	5.48539574083406E-05
2	410	87.5717867789025	0.525054931640625	0.524993896484375	9.86328124999999E-07	5.17816260980908E-07	532271.0625	5.49529504496604E-05
2	411	87.6724947786482	0.535125732421875	0.53509521484375	9.94262695312501E-07	5.32025183019869E-07	538182.9375	5.5052682000678E-05
2	412	87.773202778394	0.545196533203125	0.545135498046875	1.00494384765625E-06	5.47830552477535E-07	542453.75	5.51533485122491E-05
2	413	87.8739107781397	0.555267333984375	0.555206298828125	1.016845703125E-06	5.6455911590092E-07	546008.4375	5.52551537111867E-05
2	414	87.9746187778854	0.565338134765625	0.565277099609375	1.03302001953125E-06	5.83942551202199E-07	547208.3125	5.53583740838803E-05
2	415	88.0753267776312	0.575408935546875	0.575408935546875	1.0540771484375E-06	6.0652536149064E-07	545888.875	5.54634680156596E-05
2	416	88.1760347773769	0.585479736328125	0.585479736328125	1.08123779296875E-06	6.33042816389207E-07	541490.25	5.55709884793032E-05
2	417	88.2767427771226	0.595550537109375	0.595489501953125	1.1199951171875E-06	6.66945311422751E-07	531689.375	5.56818304175977E-05
2	418	88.3774507768684	0.605621337890625	0.605499267578125	1.171875E-06	7.09569405898947E-07	516692.71875	5.57972343813162E-05
2	419	88.4781587766141	0.615692138671875	0.61566162109375	1.24481201171875E-06	7.66382981964853E-07	494582.03125	5.59189247724134E-05
2	420	88.5788667763599	0.625762939453125	0.625732421875	1.34735107421875E-06	8.43081238599552E-07	464416.78125	5.60494481760543E-05
2	421	88.6795747761056	0.635833740234375	0.635711669921875	1.4892578125E-06	9.46738566653949E-07	426864.75	5.61922824999783E-05
2	422	88.7802827758513	0.645904541015625	0.645843505859375	1.68121337890625E-06	1.08580070445896E-06	384153.21875	5.63519315619487E-05
2	423	88.8809907755971	0.655975341796875	0.655914306640625	1.9329833984375E-06	1.26787142562534E-06	339327.4375	5.65339178137947E-05
2	424	88.9816987753428	0.666046142578125	0.66595458984375	2.25128173828125E-06	1.49925142522989E-06	295811.3125	5.67446149943862E-05
2	425	89.0824067750885	0.676116943359375	0.676055908203125	2.63458251953125E-06	1.78112497906113E-06	256608.375	5.69906369491946E-05
2	426	89.1831147748343	0.686187744140625	0.686126708984375	3.0706787109375E-06	2.10687448998215E-06	223444.65625	5.7277920859633E-05
2	427	89.28382277458	0.696258544921875	0.69622802734375	3.53485107421875E-06	2.46106242229871E-06	196961.0625	5.76105339860078E-05
2	428	89.3845307743258	0.706329345703125	0.70623779296875	3.99505615234375E-06	2.82145947494428E-06	176777.953125	5.79896950512193E-05
2	429	89.4852387740715	0.716400146484375	0.71624755859375	4.40826416015625E-06	3.15740840051149E-06	162478.375	5.84128356422298E-05
2	430	89.5859467738172	0.726470947265625	0.726318359375	4.7393798828125E-06	3.44229852089484E-06	153251.78125	5.88734546909109E-05
2	431	89.686654773563	0.736541748046875	0.736419677734375	4.962158203125E-06	3.65423079529137E-06	148407.140625	5.9361966123106E-05
2	432	89.7873627733087	0.746612548828125	0.74639892578125	5.06591796875E-06	3.78119557353784E-06	147337.359375	5.98669212195091E-05
2	433	89.8880707730544	0.756683349609375	0.7568359375	5.0628662109375E-06	3.83175893148291E-06	149487.65625	6.03769476583693E-05
2	434	89.9887787728002	0.766754150390625	0.76690673828125	4.9774169921875E-06	3.81721429221216E-06	154077.265625	6.0882513935212E-05
2	435	90.0894867725459	0.776824951171875	0.7769775390625	4.84222412109375E-06	3.76229922949278E-06	160458.828125	6.13769734627567E-05
2	436	90.1901947722916	0.786895751953125	0.787353515625	4.68536376953125E-06	3.68903761227557E-06	168045.328125	6.18567282799631E-05
2	437	90.2909027720374	0.796966552734375	0.7965087890625	4.52423095703125E-06	3.6035896755493E-06	176053.96875	6.23204614385031E-05
2	438	90.3916107717831	0.807037353515625	0.80718994140625	4.368896484375E-06	3.52652932633646E-06	184758.3125	6.27682675258256E-05
2	439	90.4923187715289	0.817108154296875	0.8172607421875	4.224853515625E-06	3.45280682267912E-06	193441.203125	6.32009978289716E-05
2	440	90.5930267712746	0.827178955078125	0.8270263671875	4.0960693359375E-06	3.3875571716635E-06	201907.328125	6.3619991124142E-05
2	441	90.6937347710203	0.837249755859375	0.83740234375	3.98162841796875E-06	3.33422485709889E-06	210316.5625	6.402673170669E-05
2	442	90.7944427707661	0.847320556640625	0.8477783203125	3.880615234375E-06	3.28990131492901E-06	218464.9375	6.4422631112393E-05
2	443	90.8951507705118	0.857391357421875	0.858154296875	3.7933349609375E-06	3.25526661981712E-06	226226.875	6.4809042669367E-05
2	444	90.9958587702575	0.867462158203125	0.867919921875	3.71826171875E-06	3.22715345646429E-06	233420.875	6.51872833259404E-05
2	445	91.0965667700033	0.877532958984375	0.87738037109375	3.653564453125E-06	3.20556569022301E-06	240143.671875	6.55584808555432E-05
2	446	91.197274769749	0.887603759765625	0.887451171875	3.597412109375E-06	3.19252740155207E-06	246691.5625	6.59236029605381E-05
2	447	91.2979827694948	0.897674560546875	0.8978271484375	3.5516357421875E-06	3.18875504490279E-06	252792.578125	6.62835809634998E-05
2	448	91.3986907692405	0.907745361328125	0.90789794921875	3.515625E-06	3.19182868224743E-06	258246.53125	6.66394480504096E-05
2	449	91.4993987689862	0.917816162109375	0.91766357421875	3.49151611328125E-06	3.20403705700301E-06	262826.6875	6.69922883389518E-05
2	450	91.600106768732	0.927886962890625	0.92803955078125	3.4814453125E-06	3.23091876452963E-06	266567.34375	6.73434042255394E-05
2	451	91.7008147684777	0.937957763671875	0.93841552734375	3.49090576171875E-06	3.27592010762601E-06	268817.1875	6.76944910082966E-05
2	452	91.8015227682234	0.948028564453125	0.94818115234375	3.52264404296875E-06	3.34010451297218E-06	269167.46875	6.80476514389738E-05
2	453	91.9022307679692	0.958099365234375	0.95855712890625	3.58612060546875E-06	3.43750139109034E-06	267296.40625	6.84055994497612E-05
2	454	92.0029387677149	0.968170166015625	0.968017578125	3.6895751953125E-06	3.57157364305749E-06	262365.59375	6.87719657435082E-05
2	455	92.1036467674606	0.978240966796875	0.97808837890625	3.843994140625E-06	3.75976583200099E-06	254445.875	6.91513050696813E-05
2	456	92.2043547672064	0.988311767578125	0.98846435546875	4.05670166015625E-06	4.00990484195063E-06	243662.078125	6.95491398801096E-05
2	457	92.3050627669521	0.998382568359375	0.99822998046875	4.33349609375E-06	4.32582555731642E-06	230352.125	6.99716183589771E-05
2	458	92.4057707666979	1.00845336914063	1.00830078125	4.669189453125E-06	4.70794748252956E-06	215947.71875	7.04249396221712E-05
2	459	92.5064787664436	1.01852416992188	1.01837158203125	5.0537109375E-06	5.14655584993307E-06	201509.65625	7.0914531534072E-05
2	460	92.6071867661893	1.02859497070313	1.0284423828125	5.45654296875E-06	5.61174010726972E-06	188478.75	7.14437628630549E-05
2	461	92.7078947659351	1.03866577148438	1.03851318359375	5.8441162109375E-06	6.06919138590456E-06	177702.359375	7.20127936801873E-05
2	462	92.8086027656808	1.04873657226563	1.04888916015625	6.182861328125E-06	6.48513650958193E-06	169644.625	7.26184007362463E-05
2	463	92.9093107654265	1.05880737304688	1.05865478515625	6.4422607421875E-06	6.82013023833861E-06	164329.703125	7.32541302568279E-05
2	464	93.0100187651723	1.06887817382813	1.06903076171875	6.5948486328125E-06	7.05009597368189E-06	162100.890625	7.391059625661E-05
2	465	93.110726764918	1.07894897460938	1.0784912109375	6.6436767578125E-06	7.16514659870882E-06	162333.5	7.45772122172639E-05
2	466	93.2114347646637	1.08901977539063	1.08856201171875	6.6009521484375E-06	7.18554565537488E-06	164909.84375	7.52441264921799E-05
2	467	93.3121427644095	1.09909057617188	1.0986328125	6.4971923828125E-06	7.1380286499334E-06	169093.46875	7.59036774979904E-05
2	468	93.4128507641552	1.10916137695313	1.1090087890625	6.3507080078125E-06	7.04299054632429E-06	174627.59375	7.65506192692555E-05
2	469	93.513558763901	1.11923217773438	1.11907958984375	6.18896484375E-06	6.92594403517433E-06	180818.546875	7.71820414229296E-05
2	470	93.6142667636467	1.12930297851563	1.129150390625	6.0272216796875E-06	6.80563925925526E-06	187341.78125	7.77971727075055E-05
2	471	93.7149747633924	1.13937377929688	1.1395263671875	5.8746337890625E-06	6.69429982735892E-06	193974.03125	7.83964787842706E-05
2	472	93.8156827631382	1.14944458007813	1.14959716796875	5.7281494140625E-06	6.58506405670778E-06	200692.609375	7.89807236287743E-05
2	473	93.9163907628839	1.15951538085938	1.15966796875	5.5999755859375E-06	6.49411185804638E-06	207084.484375	7.9551144153811E-05
2	474	94.0170987626296	1.16958618164063	1.16943359375	5.48095703125E-06	6.40961525277817E-06	213363.03125	8.01091155153699E-05
2	475	94.1178067623754	1.17965698242188	1.1798095703125	5.377197265625E-06	6.34406887911609E-06	219409.765625	8.06558600743301E-05
2	476	94.2185147621211	1.18972778320313	1.190185546875	5.279541015625E-06	6.28363295618328E-06	225433.53125	8.11924692243338E-05
2	477	94.3192227618669	1.19979858398438	1.20025634765625	5.1971435546875E-06	6.23790447207284E-06	230945.40625	8.17200125311501E-05
2	478	94.4199307616126	1.20986938476563	1.2091064453125	5.120849609375E-06	6.19165211901418E-06	236114.4375	8.22395668365061E-05
2	479	94.5206387613583	1.21994018554688	1.2200927734375	5.0506591796875E-06	6.16227271166281E-06	241571	8.27517433208413E-05
2	480	94.6213467611041	1.23001098632813	1.23016357421875	4.9896240234375E-06	6.1380537772493E-06	246544.34375	8.32573132356629E-05
2	481	94.7220547608498	1.24008178710938	1.23992919921875	4.93255615234375E-06	6.1160199038568E-06	251376.609375	8.3756931417156E-05
2	482	94.8227627605955	1.25015258789063	1.2506103515625	4.88250732421875E-06	6.10611414231244E-06	256141.015625	8.4251158114057E-05
2	483	94.9234707603413	1.26022338867188	1.26007080078125	4.83795166015625E-06	6.09616154179093E-06	260455.4375	8.47406263346784E-05
2	484	95.024178760087	1.27029418945313	1.27044677734375	4.79705810546875E-06	6.09440667176386E-06	264838.75	8.52257871883921E-05
2	485	95.1248867598327	1.28036499023438	1.28021240234375	4.76043701171875E-06	6.09437029197579E-06	268927.5	8.57070481288247E-05
2	486	95.2255947595785	1.29043579101563	1.290283203125	4.7271728515625E-06	6.09939161222428E-06	272950.28125	8.6184787505772E-05
2	487	95.3263027593242	1.30050659179688	1.30096435546875	4.69757080078125E-06	6.11137193118338E-06	276944.0625	8.66593545651995E-05
2	488	95.42701075907	1.31057739257813	1.3104248046875	4.6710205078125E-06	6.12102076047449E-06	280543.59375	8.71311058290303E-05
2	489	95.5277187588157	1.32064819335938	1.32110595703125	4.6478271484375E-06	6.14027203482692E-06	284241.625	8.76003468874842E-05
2	490	95.6284267585614	1.33071899414063	1.33056640625	4.62738037109375E-06	6.1570367506647E-06	287542.03125	8.80673906067386E-05
2	491	95.7291347583072	1.34078979492188	1.3409423828125	4.6099853515625E-06	6.18172452959698E-06	290877.78125	8.85325280250981E-05
2	492	95.8298427580529	1.35086059570313	1.35009765625	4.5953369140625E-06	6.20415312369005E-06	293797.34375	8.89960501808673E-05
2	493	95.9305507577986	1.36093139648438	1.36077880859375	4.583740234375E-06	6.23745654593222E-06	296870.84375	8.94582553883083E-05
2	494	96.0312587575444	1.37100219726563	1.37115478515625	4.57489013671875E-06	6.27288272880833E-06	299713.15625	8.99194274097681E-05
2	495	96.1319667572901	1.38107299804688	1.380615234375	4.56878662109375E-06	6.30773638476967E-06	302184.21875	9.03798500075936E-05
2	496	96.2326747570359	1.39114379882813	1.39129638671875	4.56512451171875E-06	6.35144124316867E-06	304766.375	9.08397778403014E-05
2	497	96.3333827567816	1.40121459960938	1.40106201171875	4.5635986328125E-06	6.39388417766895E-06	307008.1875	9.1299443738535E-05
2	498	96.4340907565273	1.41128540039063	1.4111328125	4.5654296875E-06	6.44242754788138E-06	309090.90625	9.17591314646415E-05
2	499	96.5347987562731	1.42135620117188	1.42120361328125	4.5697021484375E-06	6.49447702016914E-06	311005.75	9.22191175050102E-05
2	500	96.6355067560188	1.43142700195313	1.43157958984375	4.57763671875E-06	6.55325084153446E-06	312733.34375	9.26797220017761E-05
2	501	96.7362147557645	1.44149780273438	1.4410400390625	4.5892333984375E-06	6.61326930639916E-06	314004.53125	9.31413160287775E-05
2	502	96.8369227555103	1.45156860351563	1.451416015625	4.6075439453125E-06	6.68746270093834E-06	315008.625	9.36044089030474E-05
2	503	96.937630755256	1.46163940429688	1.4617919921875	4.63287353515625E-06	6.77229718348826E-06	315526	9.40696991165169E-05
2	504	97.0383387550017	1.47171020507813	1.47216796875	4.67010498046875E-06	6.87517876940547E-06	315232.3125	9.45381398196332E-05
2	505	97.1390467547475	1.48178100585938	1.48223876953125	4.7210693359375E-06	6.99775182511075E-06	313962.53125	9.50110261328518E-05
2	506	97.2397547544932	1.49185180664063	1.49169921875	4.78759765625E-06	7.14165526005672E-06	311575.75	9.54898277996108E-05
2	507	97.340462754239	1.50192260742188	1.50146484375	4.87091064453125E-06	7.31350110072526E-06	308251.34375	9.5976167358458E-05
2	508	97.4411707539847	1.49185180664063	1.49200439453125	4.60357666015625E-06	6.86855673848186E-06	324096.78125	9.64532446232624E-05
2	509	97.5418787537304	1.48178100585938	1.48223876953125	4.4085693359375E-06	6.53455208521336E-06	336217.65625	9.69070460996591E-05
2	510	97.6425867534762	1.47171020507813	1.47125244140625	4.25537109375E-06	6.26072505838238E-06	345740.09375	9.73433052422479E-05
2	511	97.7432947532219	1.46163940429688	1.46148681640625	4.130859375E-06	6.03719672653824E-06	353797.28125	9.77655872702599E-05
2	512	97.8440027529676	1.45156860351563	1.451416015625	4.02740478515625E-06	5.84543977311114E-06	360384.9375	9.81763878371567E-05
2	513	97.9447107527134	1.44149780273438	1.44134521484375	3.9404296875E-06	5.67951929042465E-06	365783.78125	9.85776059678756E-05
2	514	98.0454187524591	1.43142700195313	1.4312744140625	3.8671875E-06	5.53500649402849E-06	370107.34375	9.89707477856427E-05
2	515	98.1461267522049	1.42135620117188	1.4215087890625	3.8037109375E-06	5.40700830242713E-06	373716.3125	9.93570065475069E-05
2	516	98.2468347519506	1.41128540039063	1.41082763671875	3.748779296875E-06	5.28888131157146E-06	376343.21875	9.9737306300085E-05
2	517	98.3475427516963	1.40121459960938	1.4013671875	3.6993408203125E-06	5.18413480676827E-06	378815.375	0.000100112345535308
2	518	98.4482507514421	1.39114379882813	1.39068603515625	3.656005859375E-06	5.08435596202617E-06	380384	0.000100482720881701
2	519	98.5489587511878	1.38107299804688	1.38153076171875	3.61663818359375E-06	4.9964969548455E-06	381993.09375	0.00010084892710438
2	520	98.6496667509335	1.37100219726563	1.37115478515625	3.5809326171875E-06	4.91001264890656E-06	382904.375	0.0001012113498291
2	521	98.7503747506793	1.36093139648438	1.36077880859375	3.5479736328125E-06	4.8280071496265E-06	383536.90625	0.000101570323749911
2	522	98.851082750425	1.35086059570313	1.35040283203125	3.51806640625E-06	4.75080651085591E-06	383848.03125	0.000101926125353202
2	523	98.9517907501707	1.34078979492188	1.3409423828125	3.4893798828125E-06	4.67905738332774E-06	384292.46875	0.00010227898019366
2	524	99.0524987499165	1.33071899414063	1.33056640625	3.4625244140625E-06	4.60711862615426E-06	384276.40625	0.000102629033790436
2	525	99.1532067496622	1.32064819335938	1.32049560546875	3.43719482421875E-06	4.53880056738853E-06	384178.3125	0.000102976460766513
2	526	99.253914749408	1.31057739257813	1.31072998046875	3.4136962890625E-06	4.47443426310201E-06	383962.09375	0.000103321435744874
2	527	99.3546227491537	1.30050659179688	1.30035400390625	3.39080810546875E-06	4.40925077782595E-06	383493.84375	0.000103664067864884
2	528	99.4553307488994	1.29043579101563	1.29058837890625	3.369140625E-06	4.34817366112838E-06	383061.59375	0.000104004458989948
2	529	99.5560387486452	1.28036499023438	1.280517578125	3.348388671875E-06	4.28767043558764E-06	382428	0.000104342710983474
2	530	99.6567467483909	1.27029418945313	1.2701416015625	3.32794189453125E-06	4.22695757151814E-06	381659.78125	0.00010467888932908
2	531	99.7574547481366	1.26022338867188	1.259765625	3.309326171875E-06	4.16897501054336E-06	380671.34375	0.000105013103166129
2	532	99.8581627478824	1.25015258789063	1.25	3.29071044921875E-06	4.11338805861305E-06	379857.1875	0.000105345439806115
2	533	99.9588707476281	1.24008178710938	1.23992919921875	3.27239990234375E-06	4.05754417442949E-06	378905.15625	0.000105675921076909
2	534	100.059578747374	1.23001098632813	1.229248046875	3.25439453125E-06	4.00045792048331E-06	377719.4375	0.000106004568806384
2	535	100.16028674712	1.21994018554688	1.21978759765625	3.2366943359375E-06	3.94807966586086E-06	376862.15625	0.000106331426650286
2	536	100.260994746865	1.20986938476563	1.209716796875	3.2183837890625E-06	3.89333263228764E-06	375877.125	0.000106656465504784
2	537	100.361702746611	1.19979858398438	1.19964599609375	3.1988525390625E-06	3.83749056709348E-06	375023.84375	0.000106979598058388
2	538	100.462410746357	1.18972778320313	1.18927001953125	3.17840576171875E-06	3.77998253497935E-06	374171.875	0.000107300715171732
2	539	100.563118746103	1.17965698242188	1.17950439453125	3.1561279296875E-06	3.72266663362097E-06	373718.8125	0.00010761968587758
2	540	100.663826745848	1.16958618164063	1.16912841796875	3.13018798828125E-06	3.65959158443729E-06	373501.03125	0.000107936226413585
2	541	100.764534745594	1.15951538085938	1.15966796875	3.09906005859375E-06	3.5938805922342E-06	374199.90625	0.000108249892946333
2	542	100.86524274534	1.14944458007813	1.14959716796875	3.06182861328125E-06	3.51986932400905E-06	375461	0.000108560117951129
2	543	100.965950745085	1.13937377929688	1.1395263671875	3.0126953125E-06	3.43304577654635E-06	378241.5	0.000108865999209229
2	544	101.066658744831	1.12930297851563	1.129150390625	2.947998046875E-06	3.32873310071591E-06	383022.78125	0.000109166139736772
2	545	101.167366744577	1.11923217773438	1.119384765625	2.8619384765625E-06	3.2036102766142E-06	391128.1875	0.000109458691440523
2	546	101.268074744323	1.10916137695313	1.1090087890625	2.74566650390625E-06	3.04496825265232E-06	403912.40625	0.000109741056803614
2	547	101.368782744068	1.09909057617188	1.0992431640625	2.5897216796875E-06	2.84673365058552E-06	424463.84375	0.000110009721538518
2	548	101.469490743814	1.08901977539063	1.0888671875	2.3834228515625E-06	2.59523085333058E-06	456850.21875	0.000110260138171725
2	549	101.57019874356	1.07894897460938	1.0791015625	2.11669921875E-06	2.28413318836829E-06	509803.96875	0.000110486733319703
2	550	101.670906743306	1.06887817382813	1.0693359375	1.78680419921875E-06	1.9106939816993E-06	598462.875	0.000110683293314651
2	551	101.771614743051	1.05880737304688	1.058349609375	1.3970947265625E-06	1.47861464938615E-06	757536.0625	0.000110843611764722
2	552	101.872322742797	1.04873657226563	1.04827880859375	9.625244140625E-07	1.00899387689424E-06	1089093.25	0.000110962428152561
2	553	101.973030742543	1.03866577148438	1.038818359375	5.12084960937501E-07	5.31963280536729E-07	2028605.5	0.000111036686575972
2	554	102.073738742289	1.02859497070313	1.0284423828125	7.84301757812495E-08	8.06609179448969E-08	13112840	0.000111066416138783
2	555	102.174446742034	1.01852416992188	1.01806640625	-2.99682617187499E-07	-3.05096790498283E-07	-3397149	0.000111055276647676
2	556	102.27515474178	1.00845336914063	1.00830078125	-5.9326171875E-07	-5.98186204570084E-07	-1699588.625	0.00011101031122962
2	557	102.375862741526	0.998382568359375	0.99822998046875	-7.79113769531251E-07	-7.77734726398194E-07	-1281237.75	0.000110941211460158
2	558	102.476570741272	0.988311767578125	0.9881591796875	-8.58459472656251E-07	-8.48294575916952E-07	-1151084.25	0.000110858753032517
2	559	102.577278741017	0.978240966796875	0.977783203125	-8.4716796875E-07	-8.28346571779548E-07	-1154178.75	0.000110772867628839
2	560	102.677986740763	0.968170166015625	0.968017578125	-7.6873779296875E-07	-7.44151691378647E-07	-1259229.875	0.000110691500594839
2	561	102.778694740509	0.958099365234375	0.958251953125	-6.4849853515625E-07	-6.21424987912178E-07	-1477647	0.00011062013800256
2	562	102.879402740254	0.948028564453125	0.94818115234375	-5.06591796875E-07	-4.8034075916803E-07	-1871686.75	0.000110561973997392
2	563	102.98011074	0.937957763671875	0.93841552734375	-3.60107421875E-07	-3.37930373461859E-07	-2605932.25	0.000110518332803622
2	564	103.080818739746	0.927886962890625	0.927734375	-2.17285156249999E-07	-2.01582906811382E-07	-4269663	0.000110489258076996
2	565	103.181526739492	0.917816162109375	0.91796875	-8.17871093750006E-08	-7.50780060343459E-08	-11223881	0.000110474196844734
2	566	103.282234739237	0.907745361328125	0.908203125	4.33349609374994E-08	3.93569479228972E-08	20957746	0.000110472261440009
2	567	103.382942738983	0.897674560546875	0.89752197265625	1.57775878906249E-07	1.4160731609536E-07	5688588	0.000110482389573008
2	568	103.483650738729	0.887603759765625	0.8880615234375	2.60314941406251E-07	2.31175690146301E-07	3411488.75	0.000110503438918386
2	569	103.584358738475	0.877532958984375	0.877685546875	3.47290039062501E-07	3.04811436535601E-07	2527240.75	0.000110534034320153
2	570	103.68506673822	0.867462158203125	0.86761474609375	4.20227050781249E-07	3.64595194923822E-07	2064633.25	0.000110572684207
2	571	103.785774737966	0.857391357421875	0.8575439453125	4.80041503906251E-07	4.11656657206549E-07	1786395.5	0.000110618013422936
2	572	103.886482737712	0.847320556640625	0.84716796875	5.30090332031249E-07	4.49075571395952E-07	1598157.75	0.000110668879642617
2	573	103.987190737458	0.837249755859375	0.83709716796875	5.69763183593749E-07	4.76947150218621E-07	1469201.875	0.000110724256956019
2	574	104.087898737203	0.827178955078125	0.82763671875	5.99060058593751E-07	4.95804101774411E-07	1381558.875	0.00011078311217716
2	575	104.188606736949	0.817108154296875	0.8172607421875	6.15234375E-07	5.02806869917549E-07	1328373.125	0.000110844259324949
2	576	104.289314736695	0.807037353515625	0.8074951171875	6.1614990234375E-07	4.97537996579922E-07	1310549.875	0.000110906265035737
2	577	104.390022736441	0.796966552734375	0.797119140625	5.94482421875001E-07	4.73873313922013E-07	1340862.5	0.000110967223008629
2	578	104.490730736186	0.786895751953125	0.7867431640625	5.45349121093749E-07	4.29049691774708E-07	1442641.375	0.000111024623038247
2	579	104.591438735932	0.776824951171875	0.7769775390625	4.5806884765625E-07	3.55909179461378E-07	1696202.625	0.00011107514728792
2	580	104.692146735678	0.766754150390625	0.76690673828125	3.22875976562501E-07	2.47615759008113E-07	2375236.5	0.000111114466562867
2	581	104.792854735423	0.756683349609375	0.7562255859375	1.2664794921875E-07	9.57744177298991E-08	5971084.5	0.000111137102067005
2	582	104.893562735169	0.746612548828125	0.746551513671875	-1.385498046875E-07	-1.03434565801308E-07	-5388326	0.000111136505438481
2	583	104.994270734915	0.736541748046875	0.736419677734375	-4.78515625000001E-07	-3.52388326518849E-07	-1538966.875	0.000111105437099468
2	584	105.094978734661	0.726470947265625	0.72637939453125	-8.831787109375E-07	-6.415228313017E-07	-822460.25	0.000111036868474912
2	585	105.195686734406	0.716400146484375	0.716339111328125	-1.33453369140625E-06	-9.55978634920029E-07	-536771.125	0.000110925197077449
2	586	105.296394734152	0.706329345703125	0.70623779296875	-1.8017578125E-06	-1.272469489777E-06	-391971.5625	0.000110767272417434
2	587	105.397102733898	0.696258544921875	0.696197509765625	-2.24517822265625E-06	-1.56308749410528E-06	-310085.625	0.000110563494672533
2	588	105.497810733644	0.686187744140625	0.68609619140625	-2.6214599609375E-06	-1.79857374860148E-06	-261722.9375	0.000110318440420087
2	589	105.598518733389	0.676116943359375	0.676025390625	-2.89794921875E-06	-1.95908728528593E-06	-233277.171875	0.000110040513391141
2	590	105.699226733135	0.666046142578125	0.665985107421875	-3.05389404296875E-06	-2.03384797714534E-06	-218077.34375	0.000109740816697013
2	591	105.799934732881	0.655975341796875	0.655975341796875	-3.09234619140625E-06	-2.02850287678302E-06	-212128.6875	0.000109431326563936
2	592	105.900642732627	0.645904541015625	0.64593505859375	-3.03375244140625E-06	-1.959607061508E-06	-212916.21875	0.000109122855064925
2	593	106.001350732372	0.635833740234375	0.635772705078125	-2.90740966796875E-06	-1.84845168860193E-06	-218673.25	0.000108823689515702
2	594	106.102058732118	0.625762939453125	0.625762939453125	-2.74322509765625E-06	-1.71660849446198E-06	-228112.140625	0.0001085391631932
2	595	106.202766731864	0.615692138671875	0.615692138671875	-2.56439208984375E-06	-1.57887598106754E-06	-240092.84375	0.000108271902718116
2	596	106.30347473161	0.605621337890625	0.6055908203125	-2.38525390625E-06	-1.44448779337836E-06	-253889.46875	0.000108022664790042
2	597	106.404182731355	0.595550537109375	0.595458984375	-2.21405029296875E-06	-1.31837612116215E-06	-268945.5625	0.000107791071059182
2	598	106.504890731101	0.585479736328125	0.585418701171875	-2.0556640625E-06	-1.20342417631036E-06	-284783.25	0.000107576073787641
2	599	106.605598730847	0.575408935546875	0.575439453125	-1.91131591796875E-06	-1.09984659957263E-06	-301069.78125	0.000107376319647301
2	600	106.706306730592	0.565338134765625	0.565338134765625	-1.78070068359375E-06	-1.00669797120645E-06	-317480.75	0.000107190411654301
2	601	106.807014730338	0.555267333984375	0.555206298828125	-1.6619873046875E-06	-9.22745812204084E-07	-334061.6875	0.000107017061964143
2	602	106.907722730084	0.545196533203125	0.545166015625	-1.55609130859375E-06	-8.4832811353408E-07	-350343.1875	0.000106855019112118
2	603	107.00843072983	0.535125732421875	0.535064697265625	-1.46026611328125E-06	-7.81336837007984E-07	-366415.90625	0.000106703133496922
2	604	107.109138729575	0.525054931640625	0.525054931640625	-1.3726806640625E-06	-7.20732771242183E-07	-382503.34375	0.000106560481071938
2	605	107.209846729321	0.514984130859375	0.514984130859375	-1.29364013671875E-06	-6.66204130084225E-07	-398089.15625	0.000106426225102041
2	606	107.310554729067	0.504913330078125	0.5048828125	-1.22100830078125E-06	-6.16466081737599E-07	-413496.65625	0.000106299601611681
2	607	107.411262728813	0.494842529296875	0.4947509765625	-1.15478515625E-06	-5.71331042920065E-07	-428435.53125	0.000106179970316589
2	608	107.511970728558	0.484771728515625	0.48480224609375	-1.0943603515625E-06	-5.30548334154446E-07	-443000.59375	0.000106066712760366
2	609	107.612678728304	0.474700927734375	0.474700927734375	-1.03790283203125E-06	-4.92693459364091E-07	-457365.46875	0.000105959348729812
2	610	107.71338672805	0.464630126953125	0.464630126953125	-9.86328124999999E-07	-4.58277753523362E-07	-471070.53125	0.000105857419839595
2	611	107.814094727796	0.454559326171875	0.454620361328125	-9.37805175781251E-07	-4.26345337700695E-07	-484770.59375	0.000105760533188004
2	612	107.914802727541	0.444488525390625	0.44451904296875	-8.929443359375E-07	-3.9693074427305E-07	-497812.75	0.000105668346805032
2	613	108.015510727287	0.434417724609375	0.434417724609375	-8.52050781249999E-07	-3.70145926353871E-07	-509849.59375	0.000105580475064926
2	614	108.116218727033	0.424346923828125	0.42431640625	-8.12683105468751E-07	-3.44834774068659E-07	-522117.9375	0.000105496648757253
2	615	108.216926726779	0.414276123046875	0.414337158203125	-7.763671875E-07	-3.21677759984595E-07	-533687.125	0.00010541663505137
2	616	108.317634726524	0.404205322265625	0.4041748046875	-7.4188232421875E-07	-2.9985014293743E-07	-544796.375	0.000105340186564717
2	617	108.41834272627	0.394134521484375	0.39410400390625	-7.08923339843751E-07	-2.79389524848739E-07	-555919.0625	0.000105267135950271
2	618	108.519050726016	0.384063720703125	0.384002685546875	-6.7779541015625E-07	-2.60275271557475E-07	-566546.625	0.000105197308585048
2	619	108.619758725761	0.373992919921875	0.3740234375	-6.4727783203125E-07	-2.42097087266302E-07	-577840.625	0.000105130580777768
2	620	108.720466725507	0.363922119140625	0.36395263671875	-6.18896484375001E-07	-2.25249010554762E-07	-588067.0625	0.000105066828837153
2	621	108.821174725253	0.353851318359375	0.353851318359375	-5.91430664062501E-07	-2.09278510965305E-07	-598297.25	0.000105005885416176
2	622	108.921882724999	0.343780517578125	0.34375	-5.6610107421875E-07	-1.94597234326466E-07	-607223.75	0.000104947597719729
2	623	109.022590724744	0.333709716796875	0.333740234375	-5.4168701171875E-07	-1.80782734560125E-07	-616112.75	0.000104891812952701
2	624	109.12329872449	0.323638916015625	0.3236083984375	-5.18798828125E-07	-1.67887648672149E-07	-623764.75	0.000104838414699771
2	625	109.224006724236	0.313568115234375	0.313568115234375	-4.96826171875001E-07	-1.5578883960643E-07	-631142.5625	0.0001047872719937
2	626	109.324714723982	0.303497314453125	0.303466796875	-4.7637939453125E-07	-1.44565319715184E-07	-637027.5625	0.000104738268419169
2	627	109.425422723727	0.293426513671875	0.29339599609375	-4.57153320312501E-07	-1.34126949546953E-07	-641789.0625	0.000104691258457024
2	628	109.526130723473	0.283355712890625	0.283355712890625	-4.38842773437501E-07	-1.2434860252597E-07	-645688.5	0.000104646147519816
2	629	109.626838723219	0.273284912109375	0.273284912109375	-4.21752929687499E-07	-1.15258714572519E-07	-647973.9375	0.000104602811916266
2	630	109.727546722965	0.263214111328125	0.263153076171875	-4.0557861328125E-07	-1.06729252991045E-07	-648833.75	0.000104561149782967
2	631	109.82825472271	0.253143310546875	0.253143310546875	-3.9093017578125E-07	-9.89613511137577E-08	-647541	0.000104521044704597
2	632	109.928962722456	0.243072509765625	0.243133544921875	-3.7689208984375E-07	-9.16351083901645E-08	-645101.25	0.000104482380265836
2	633	110.029670722202	0.233001708984375	0.233001708984375	-3.6468505859375E-07	-8.49722354701044E-08	-638912.1875	0.00010444504005136
2	634	110.130378721948	0.222930908203125	0.222991943359375	-3.53088378906249E-07	-7.87358658271842E-08	-631547.125	0.000104408893093932
2	635	110.231086721693	0.212860107421875	0.212890625	-3.436279296875E-07	-7.31551637045413E-08	-619538.1875	0.000104373815702274
2	636	110.331794721439	0.202789306640625	0.202789306640625	-3.34777832031249E-07	-6.788936701696E-08	-605742.9375	0.000104339655081276
2	637	110.432502721185	0.192718505859375	0.192718505859375	-3.2928466796875E-07	-6.34592467463335E-08	-585264.125	0.000104306214780081
2	638	110.53321072093	0.182647705078125	0.182647705078125	-3.2470703125E-07	-5.9306994870667E-08	-562500	0.000104273283795919
2	639	110.633918720676	0.172576904296875	0.172607421875	-3.23486328125E-07	-5.58361392677398E-08	-533584.9375	0.000104240643850062
2	640	110.734626720422	0.162506103515625	0.16253662109375	-3.265380859375E-07	-5.30743946569601E-08	-497757.03125	0.000104207916592713
2	641	110.835334720168	0.152435302734375	0.1524658203125	-3.3447265625E-07	-5.0995645040075E-08	-455839.4375	0.000104174629086629
2	642	110.936042719913	0.142364501953125	0.142425537109375	-3.50341796875001E-07	-4.98976184815092E-08	-406533.09375	0.000104140148323495
2	643	111.036750719659	0.132293701171875	0.132354736328125	-3.76281738281251E-07	-4.98026686557296E-08	-351743.71875	0.000104103557532653
2	644	111.137458719405	0.122222900390625	0.12225341796875	-4.168701171875E-07	-5.09637949619446E-08	-293265	0.000104063619801309
2	645	111.238166719151	0.112152099609375	0.11212158203125	-4.77294921875E-07	-5.35150626035374E-08	-234910.484375	0.000104018596175592
2	646	111.338874718896	0.102081298828125	0.102142333984375	-5.63659667968749E-07	-5.75735086272289E-08	-181212.796875	0.00010396618017694
2	647	111.439582718642	0.092010498046875	0.09210205078125	-6.817626953125E-07	-6.27917415840784E-08	-135094	0.000103903468698263
2	648	111.540290718388	0.081939697265625	0.08197021484375	-8.36181640625E-07	-6.8541986308901E-08	-98029.1953125	0.000103827034763526
2	649	111.640998718134	0.071868896484375	0.071929931640625	-1.02874755859375E-06	-7.39977394914604E-08	-69919.90625	0.0001037331239786
2	650	111.741706717879	0.061798095703125	0.06182861328125	-1.2493896484375E-06	-7.72480248656393E-08	-49487.05859375	0.000103618411230855
2	651	111.842414717625	0.051727294921875	0.05169677734375	-1.48529052734375E-06	-7.67847296856417E-08	-34805.8359375	0.000103480706457049
2	652	111.943122717371	0.041656494140625	0.041754150390625	-1.71356201171875E-06	-7.15483210456114E-08	-24366.875	0.000103319631307386
2	653	112.043830717117	0.031585693359375	0.031658935546875	-1.91131591796875E-06	-6.05102243866895E-08	-16563.947265625	0.000103137106634676
2	654	112.144538716862	0.021514892578125	0.0216064453125	-2.0562744140625E-06	-4.44287771017571E-08	-10507.5693359375	0.000102937323390506
2	655	112.245246716608	0.011444091796875	0.0115631103515625	-2.1405029296875E-06	-2.47508697981402E-08	-5402.05322265625	0.00010272600047756
2	656	112.345954716354	0.001373291015625	0.001495361328125	-2.166748046875E-06	-3.24007110030777E-09	-690.140869140625	0.000102509111457039
2	657	112.446662716099	-0.008697509765625	-0.0085784912109375	-2.1466064453125E-06	1.84146458082068E-08	3996.3037109375	0.000102291916846298
2	658	112.547370715845	-0.018768310546875	-0.01866455078125	-2.0947265625E-06	3.90971308661392E-08	8910.255859375	0.000102078345662449
2	659	112.648078715591	-0.028839111328125	-0.0287109375	-2.0263671875E-06	5.81789016962375E-08	14168.6748046875	0.000101870835351292
2	660	112.748786715337	-0.038909912109375	-0.0387908935546875	-1.95098876953125E-06	7.5680596012262E-08	19882.685546875	0.000101670557342004
2	661	112.849494715082	-0.048980712890625	-0.0488525390625	-1.8756103515625E-06	9.16283298124654E-08	26046.208984375	0.000101477875432465
2	662	112.950202714828	-0.059051513671875	-0.059051513671875	-1.80511474609375E-06	1.06594754356593E-07	32713.44140625	0.000101292534964159
2	663	113.050910714574	-0.069122314453125	-0.069000244140625	-1.74072265625E-06	1.20110286161434E-07	39638.8515625	0.000101113990240265
2	664	113.15161871432	-0.079193115234375	-0.079193115234375	-1.68365478515625E-06	1.33333870167007E-07	47036.43359375	0.000100941557320766
2	665	113.252326714065	-0.089263916015625	-0.0892333984375	-1.63299560546875E-06	1.45717748978313E-07	54643.9921875	0.000100774552265648
2	666	113.353034713811	-0.099334716796875	-0.0992431640625	-1.58905029296875E-06	1.57702373826396E-07	62454.390625	0.000100612305686809
2	667	113.453742713557	-0.109405517578125	-0.109283447265625	-1.55120849609375E-06	1.69521413795337E-07	70450.5234375	0.000100454184575938
2	668	113.554450713303	-0.119476318359375	-0.119476318359375	-1.51947021484375E-06	1.8154069891807E-07	78630.25	0.000100299563200679
2	669	113.655158713048	-0.129547119140625	-0.129425048828125	-1.49169921875E-06	1.93063243614233E-07	86763.5	0.000100147939519957
2	670	113.755866712794	-0.139617919921875	-0.1395263671875	-1.4691162109375E-06	2.04980452167547E-07	94972.9921875	9.99988478724845E-05
2	671	113.85657471254	-0.149688720703125	-0.149566650390625	-1.44927978515625E-06	2.16763908156281E-07	103200.6796875	9.98518953565508E-05
2	672	113.957282712286	-0.159759521484375	-0.159637451171875	-1.43310546875E-06	2.28777309985162E-07	111392.671875	9.97067545540631E-05
2	673	114.057990712031	-0.169830322265625	-0.169708251953125	-1.4208984375E-06	2.41138195633539E-07	119437.28125	9.95630471152253E-05
2	674	114.158698711777	-0.179901123046875	-0.179840087890625	-1.41204833984375E-06	2.53942886274672E-07	127361.1484375	9.94203946902417E-05
2	675	114.259406711523	-0.189971923828125	-0.189849853515625	-1.4056396484375E-06	2.66860467945662E-07	135062.96875	9.92785135167651E-05
2	676	114.360114711268	-0.200042724609375	-0.19989013671875	-1.402587890625E-06	2.803634799875E-07	142515.234375	9.91371052805334E-05
2	677	114.460822711014	-0.189971923828125	-0.189788818359375	-1.2310791015625E-06	2.33645039315888E-07	154164.609375	9.90044936770573E-05
