Potential - Start -0.2 V, Upper Vertex 1.5 V, Lower Vertex -0.2 V, Stop -0.19 V; Scan - # end cross 5, Rate 0.1 Vps, Step 0.01 V 
Scan	Index	Time (s)	Potential applied (V)	WE(1).Potential (V)	WE(1).Current (A)	WE(1).Power (W)	WE(1).Resistance (Ω)	WE(1).Charge (C)
1	1	63.9161868386271	-0.189971923828125	-0.189727783203125	-1.85546875000001E-07	3.52033957540243E-08	1022532.9375	0
1	2	64.0168948383729	-0.179901123046875	-0.1796875	-1.64184570312501E-07	2.9501915577157E-08	1094423.75	-1.76103771565295E-08
1	3	64.1176028381186	-0.169830322265625	-0.16961669921875	-1.48925781250001E-07	2.5260298741614E-08	1138934.5	-3.33767360416459E-08
1	4	64.2183108378644	-0.159759521484375	-0.15960693359375	-1.3580322265625E-07	2.16751345760713E-08	1175280.875	-4.77139785459713E-08
1	5	64.3190188376101	-0.149688720703125	-0.149505615234375	-1.24511718750001E-07	1.86152000480888E-08	1200735.375	-6.08218755360213E-08
1	6	64.4197268373558	-0.139617919921875	-0.13946533203125	-1.141357421875E-07	1.59179780467866E-08	1221925.125	-7.28387306025979E-08
1	7	64.5204348371016	-0.129547119140625	-0.129364013671875	-1.04675292968751E-07	1.35412152602044E-08	1235860.125	-8.38567402183799E-08
1	8	64.6211428368473	-0.119476318359375	-0.119293212890625	-9.55200195312506E-08	1.13948894764349E-08	1248881.875	-9.39373734354376E-08
1	9	64.721850836593	-0.109405517578125	-0.10931396484375	-8.57543945312497E-08	9.37415300938937E-09	1274733.125	-1.03065268319824E-07
1	10	64.8225588363388	-0.099334716796875	-0.09918212890625	-7.53784179687494E-08	7.4761921098343E-09	1315789.5	-1.11178948714041E-07
1	11	64.9232668360845	-0.089263916015625	-0.089141845703125	-6.34765625000006E-08	5.65841773436659E-09	1404326.875	-1.1817085265875E-07
1	12	65.0239748358302	-0.079193115234375	-0.079071044921875	-5.00488281250003E-08	3.95741306391528E-09	1579878.125	-1.2388730397106E-07
1	13	65.124682835576	-0.069122314453125	-0.06903076171875	-3.23486328124997E-08	2.23305063329349E-09	2133962.5	-1.28036347746274E-07
1	14	65.2253908353217	-0.059051513671875	-0.0589599609375	-9.46044921874972E-09	5.57787704913437E-10	6232258	-1.30141600607203E-07
1	15	65.3260988350675	-0.048980712890625	-0.0487945556640625	2.04467773437494E-08	-9.97691373960663E-10	-2386418	-1.2958840045485E-07
1	16	65.4268068348132	-0.038909912109375	-0.038739013671875	6.22558593750003E-08	-2.41173059301047E-09	-622254.9375	-1.25423994745688E-07
1	17	65.5275148345589	-0.028839111328125	-0.0286590576171875	1.1871337890625E-07	-3.40221339989455E-09	-241413.890625	-1.16311468900676E-07
1	18	65.6282228343047	-0.018768310546875	-0.018621826171875	1.95922851562499E-07	-3.64844132683118E-09	-95046.734375	-1.00468277253185E-07
1	19	65.7289308340504	-0.008697509765625	-0.008544921875	3.0029296875E-07	-2.56597987302598E-09	-28455.28515625	-7.54818216819331E-08
1	20	65.8296388337961	0.001373291015625	0.0015380859375	4.376220703125E-07	6.73100353232314E-10	3514.64453125	-3.83248526247826E-08
1	21	65.9303468335419	0.011444091796875	0.011590576171875	6.1065673828125E-07	7.07786318443482E-09	18980.509765625	1.44601779439313E-08
1	22	66.0310548332876	0.021514892578125	0.021661376953125	8.19091796875E-07	1.77426553449322E-08	26445.603515625	8.64537383904462E-08
1	23	66.1317628330333	0.031585693359375	0.0317169189453125	1.05499267578125E-06	3.34611165442311E-08	30063.642578125	1.80821373874096E-07
1	24	66.2324708327791	0.041656494140625	0.04180908203125	1.3067626953125E-06	5.46345475527232E-08	31994.396484375	2.99745209986213E-07
1	25	66.3331788325248	0.051727294921875	0.05181884765625	1.55487060546875E-06	8.05716027230119E-08	33326.79296875	4.43839894614939E-07
1	26	66.4338868322706	0.061798095703125	0.061920166015625	1.77764892578125E-06	1.10072313930232E-07	34832.6171875	6.11645589287946E-07
1	27	66.5345948320163	0.071868896484375	0.07196044921875	1.9561767578125E-06	1.40767355105709E-07	36786.2734375	7.996586077752E-07
1	28	66.635302831762	0.081939697265625	0.082000732421875	2.0758056640625E-06	1.7021758935698E-07	39503.0859375	1.00268505320855E-06
1	29	66.7360108315078	0.092010498046875	0.092071533203125	2.12890625E-06	1.9601164069627E-07	43248.28125	1.21440916700521E-06
1	30	66.8367188312535	0.102081298828125	0.1021728515625	2.12432861328125E-06	2.17048707895628E-07	48096.5390625	1.42857652463135E-06
1	31	66.9374268309992	0.112152099609375	0.11224365234375	2.0745849609375E-06	2.32858994309026E-07	54104.1484375	1.64000857694191E-06
1	32	67.038134830745	0.122222900390625	0.122283935546875	1.99951171875E-06	2.44508157720702E-07	61156.90234375	1.8451556798027E-06
1	33	67.1388428304907	0.132293701171875	0.13238525390625	1.91162109375E-06	2.53070425060287E-07	69252.875	2.04209686671675E-06
1	34	67.2395508302365	0.142364501953125	0.142486572265625	1.8212890625E-06	2.59509221223198E-07	78233.9140625	2.23006372834789E-06
1	35	67.3402588299822	0.152435302734375	0.152496337890625	1.73492431640625E-06	2.64569592900443E-07	87897.984375	2.40913323068526E-06
1	36	67.4409668297279	0.162506103515625	0.16259765625	1.65374755859375E-06	2.68895462340879E-07	98320.7265625	2.57976648754266E-06
1	37	67.5416748294737	0.172576904296875	0.172637939453125	1.580810546875E-06	2.72907868748007E-07	109208.5	2.74263948085718E-06
1	38	67.6423828292194	0.182647705078125	0.182708740234375	1.51458740234375E-06	2.76728343351351E-07	120632.6875	2.89850504486822E-06
1	39	67.7430908289651	0.192718505859375	0.192779541015625	1.45538330078125E-06	2.80568116295399E-07	132459.640625	3.04805507767014E-06
1	40	67.8437988287109	0.202789306640625	0.20281982421875	1.40289306640625E-06	2.84534536376668E-07	144572.546875	3.19198056786263E-06
1	41	67.9445068284566	0.212860107421875	0.21295166015625	1.35589599609375E-06	2.88740295673051E-07	157056.046875	3.33089678861143E-06
1	42	68.0452148282023	0.222930908203125	0.2230224609375	1.31378173828125E-06	2.93002813123167E-07	169756.109375	3.46532556250168E-06
1	43	68.1459228279481	0.233001708984375	0.233062744140625	1.2762451171875E-06	2.97445154728848E-07	182615.984375	3.59574391950446E-06
1	44	68.2466308276938	0.243072509765625	0.2431640625	1.241455078125E-06	3.01877264519135E-07	195870.21875	3.72252020497399E-06
1	45	68.3473388274396	0.253143310546875	0.253173828125	1.21063232421875E-06	3.06500396618503E-07	209125.296875	3.84599252356566E-06
1	46	68.4480468271853	0.263214111328125	0.263275146484375	1.182861328125E-06	3.11417977627571E-07	222574.828125	3.96651466871845E-06
1	47	68.548754826931	0.273284912109375	0.273284912109375	1.15692138671875E-06	3.16169149527923E-07	236217.359375	4.08433197662816E-06
1	48	68.6494628266768	0.283355712890625	0.283416748046875	1.13311767578125E-06	3.21144511872262E-07	250121.203125	4.1996445361292E-06
1	49	68.7501708264225	0.293426513671875	0.293426513671875	1.11419677734375E-06	3.26934866734518E-07	263352.53125	4.31280568591319E-06
1	50	68.8508788261682	0.303497314453125	0.303497314453125	1.0943603515625E-06	3.32135414282675E-07	277328.5	4.42401551481453E-06
1	51	68.951586825914	0.313568115234375	0.31365966796875	1.07574462890625E-06	3.37417702667153E-07	291574.46875	4.53328902949579E-06
1	52	69.0522948256597	0.323638916015625	0.32366943359375	1.0601806640625E-06	3.43148087722511E-07	305296.46875	4.64084132545395E-06
1	53	69.1530028254055	0.333709716796875	0.333770751953125	1.044921875E-06	3.48764359614506E-07	319421.71875	4.74684156870353E-06
1	54	69.2537108251512	0.343780517578125	0.34381103515625	1.03118896484375E-06	3.54534137159135E-07	333412.25	4.85138207295677E-06
1	55	69.3544188248969	0.353851318359375	0.353851318359375	1.0186767578125E-06	3.60460091997084E-07	347363.71875	4.95460108140833E-06
1	56	69.4551268246427	0.363922119140625	0.363922119140625	1.0076904296875E-06	3.66720854572122E-07	361144.75	5.05663683725288E-06
1	57	69.5558348243884	0.373992919921875	0.3740234375	9.97314453125001E-07	3.73018963273353E-07	375030.625	5.15759666086524E-06
1	58	69.6565428241341	0.384063720703125	0.38409423828125	9.8876953125E-07	3.79780686898812E-07	388456.78125	5.25760424352484E-06
1	59	69.7572508238799	0.394134521484375	0.3941650390625	9.808349609375E-07	3.8661082157887E-07	401866.84375	5.35678145752172E-06
1	60	69.8579588236256	0.404205322265625	0.404266357421875	9.7381591796875E-07	3.93681006016777E-07	415136.34375	5.45520606465288E-06
1	61	69.9586668233713	0.414276123046875	0.414306640625	9.68017578125E-07	4.01056070131744E-07	427995	5.55298493054579E-06
1	62	70.0593748231171	0.424346923828125	0.424407958984375	9.63134765625E-07	4.0876204820961E-07	440652.71875	5.65022628506995E-06
1	63	70.1600828228628	0.434417724609375	0.4344482421875	9.58862304687499E-07	4.16576028783311E-07	453087.21875	5.74700652578031E-06
1	64	70.2607908226086	0.444488525390625	0.44451904296875	9.5550537109375E-07	4.24740335347451E-07	465218.78125	5.84340250497917E-06
1	65	70.3614988223543	0.454559326171875	0.45458984375	9.53369140625E-07	4.33391932119775E-07	476824.59375	5.93952199778869E-06
1	66	70.4622068221	0.464630126953125	0.46466064453125	9.51538085937501E-07	4.42142294332371E-07	488325.84375	6.03544185651117E-06
1	67	70.5629148218458	0.474700927734375	0.47467041015625	9.5062255859375E-07	4.51232381237787E-07	499325.875	6.13122301729163E-06
1	68	70.6636228215915	0.484771728515625	0.4847412109375	9.4970703125E-07	4.60362116427859E-07	510411.34375	6.22691231910721E-06
1	69	70.7643308213372	0.494842529296875	0.494873046875	9.50012207031251E-07	4.70135432806273E-07	520912.3125	6.32257069810294E-06
1	70	70.865038821083	0.504913330078125	0.504913330078125	9.51538085937501E-07	4.80444271033775E-07	530628.625	6.41832139081089E-06
1	71	70.9657468208287	0.514984130859375	0.515045166015625	9.53369140625E-07	4.91028174565145E-07	540236.875	6.51424124953337E-06
1	72	71.0664548205744	0.525054931640625	0.525054931640625	9.56115722656251E-07	5.02013278946833E-07	549154.125	6.6103912104154E-06
1	73	71.1671628203202	0.535125732421875	0.535186767578125	9.600830078125E-07	5.13823692926962E-07	557438.0625	6.70687950332649E-06
1	74	71.2678708200659	0.545196533203125	0.545196533203125	9.65576171875E-07	5.26428777902765E-07	564633.375	6.80384437146131E-06
1	75	71.3685788198117	0.555267333984375	0.55523681640625	9.722900390625E-07	5.39851214398368E-07	571060.9375	6.90142360326718E-06
1	76	71.4692868195574	0.565338134765625	0.565338134765625	9.81750488281249E-07	5.55020960746333E-07	575847.125	6.99981728757848E-06
1	77	71.5699948193031	0.575408935546875	0.575408935546875	9.9334716796875E-07	5.71580812902539E-07	579262.6875	7.09927144271205E-06
1	78	71.6707028190489	0.585479736328125	0.58551025390625	1.00799560546875E-06	5.901917461415E-07	580865.875	7.2000470936473E-06
1	79	71.7714108187946	0.595550537109375	0.595489501953125	1.02752685546875E-06	6.11881489476218E-07	579536.6875	7.30254396330565E-06
1	80	71.8721188185403	0.605621337890625	0.6055908203125	1.05438232421875E-06	6.38524284113373E-07	574356	7.40737641535816E-06
1	81	71.9728268182861	0.615692138671875	0.61566162109375	1.09100341796875E-06	6.71688894726685E-07	564307.75	7.51540483179269E-06
1	82	72.0735348180318	0.625762939453125	0.625701904296875	1.141357421875E-06	7.14149507530237E-07	548208.5625	7.62781337471097E-06
1	83	72.1742428177776	0.635833740234375	0.635772705078125	1.2109375E-06	7.69881012274709E-07	525025.1875	7.74626096244901E-06
1	84	72.2749508175233	0.645904541015625	0.6458740234375	1.30645751953125E-06	8.43806958528148E-07	494370.46875	7.87302178650862E-06
1	85	72.375658817269	0.655975341796875	0.65594482421875	1.43402099609375E-06	9.40638642532576E-07	457416.46875	8.01101577962982E-06
1	86	72.4763668170148	0.666046142578125	0.666015625	1.597900390625E-06	1.06422658063821E-06	416806.75	8.16368537925882E-06
1	87	72.5770748167605	0.676116943359375	0.67608642578125	1.79962158203125E-06	1.21669961572479E-06	375682.5625	8.33476406114642E-06
1	88	72.6777828165062	0.686187744140625	0.68609619140625	2.034912109375E-06	1.39614542149502E-06	337162.5625	8.5278479673434E-06
1	89	72.778490816252	0.696258544921875	0.696197509765625	2.29339599609375E-06	1.59665648880036E-06	303566.21875	8.74579563969746E-06
1	90	72.8791988159977	0.706329345703125	0.706268310546875	2.56256103515625E-06	1.80985557562963E-06	275610.34375	8.99031238077441E-06
1	91	72.9799068157434	0.716400146484375	0.71630859375	2.8204345703125E-06	2.02030150830979E-06	253971.015625	9.2613681772491E-06
1	92	73.0806148154892	0.726470947265625	0.7264404296875	3.046875E-06	2.2133731363283E-06	238421.46875	9.55681025516242E-06
1	93	73.1813228152349	0.736541748046875	0.736480712890625	3.22418212890625E-06	2.37454787566094E-06	228424.046875	9.87258317763917E-06
1	94	73.2820308149807	0.746612548828125	0.746551513671875	3.3392333984375E-06	2.49290951614967E-06	223569.75	1.02030771813588E-05
1	95	73.3827388147264	0.756683349609375	0.7568359375	3.38897705078125E-06	2.56489943240013E-06	223322.84375	1.05418694147374E-05
1	96	73.4834468144721	0.766754150390625	0.76629638671875	3.38470458984375E-06	2.59368675870064E-06	226399.78125	1.08829517557751E-05
1	97	73.5841548142179	0.776824951171875	0.77667236328125	3.3441162109375E-06	2.5972824460041E-06	232250.421875	1.12217749119736E-05
1	98	73.6848628139636	0.786895751953125	0.78704833984375	3.287353515625E-06	2.58730597124668E-06	239417.015625	1.15556958917296E-05
1	99	73.7855708137093	0.796966552734375	0.79681396484375	3.23333740234375E-06	2.57636838796316E-06	246437	1.18840389404795E-05
1	100	73.8862788134551	0.807037353515625	0.8074951171875	3.19549560546875E-06	2.58034697253606E-06	252697.9375	1.22077562991763E-05
1	101	73.9869868132008	0.817108154296875	0.81756591796875	3.18603515625E-06	2.60479350799869E-06	256609.203125	1.25290916912491E-05
1	102	74.0876948129466	0.827178955078125	0.82794189453125	3.2147216796875E-06	2.66160259343451E-06	257547	1.28513947856845E-05
1	103	74.1884028126923	0.837249755859375	0.83740234375	3.28521728515625E-06	2.75104866886977E-06	254900.140625	1.31786928250222E-05
1	104	74.289110812438	0.847320556640625	0.84808349609375	3.40118408203125E-06	2.88448791252449E-06	249349.5	1.35153804876609E-05
1	105	74.3898188121838	0.857391357421875	0.8575439453125	3.55712890625E-06	3.0503942980431E-06	241077.5625	1.38657587740454E-05
1	106	74.4905268119295	0.867462158203125	0.8673095703125	3.74481201171875E-06	3.24791130879021E-06	231602.96875	1.42334411066258E-05
1	107	74.5912348116752	0.877532958984375	0.8782958984375	3.9459228515625E-06	3.46568776876666E-06	222583.140625	1.46207003126619E-05
1	108	74.691942811421	0.887603759765625	0.887451171875	4.140625E-06	3.67460233974271E-06	214327.84375	1.50278901855927E-05
1	109	74.7926508111667	0.897674560546875	0.8978271484375	4.30877685546875E-06	3.86853662348585E-06	208371.703125	1.54533518070821E-05
1	110	74.8933588109124	0.907745361328125	0.90789794921875	4.432373046875E-06	4.02414207201218E-06	204833.390625	1.58935035869945E-05
1	111	74.9940668106582	0.917816162109375	0.91796875	4.49920654296875E-06	4.13013094657799E-06	204029.03125	1.6343243260053E-05
1	112	75.0947748104039	0.927886962890625	0.927734375	4.5111083984375E-06	4.18511035604752E-06	205655.53125	1.67969501490006E-05
1	113	75.1954828101497	0.937957763671875	0.9381103515625	4.48028564453125E-06	4.20300239056814E-06	209386.28125	1.72497020685114E-05
1	114	75.2961908098954	0.948028564453125	0.94818115234375	4.42230224609375E-06	4.19314346800093E-06	214408.953125	1.76979829120683E-05
1	115	75.3968988096411	0.958099365234375	0.95855712890625	4.35638427734375E-06	4.1758430597838E-06	220035.03125	1.8140024621971E-05
1	116	75.4976068093869	0.968170166015625	0.96832275390625	4.298095703125E-06	4.16194370700396E-06	225291.125	1.85758126463043E-05
1	117	75.5983148091326	0.978240966796875	0.97869873046875	4.26116943359375E-06	4.17040064348839E-06	229678.453125	1.90068058145698E-05
1	118	75.6990228088783	0.988311767578125	0.98846435546875	4.2535400390625E-06	4.20447258875356E-06	232386.296875	1.94355561689008E-05
1	119	75.7997308086241	0.998382568359375	0.99822998046875	4.28009033203125E-06	4.2725146158773E-06	233226.390625	1.98652578546898E-05
1	120	75.9004388083698	1.00845336914063	1.00860595703125	4.34539794921875E-06	4.38279403169872E-06	232109	2.02995852305321E-05
1	121	76.0011468081155	1.01852416992188	1.01837158203125	4.4476318359375E-06	4.5293418224901E-06	228969.390625	2.0742349079228E-05
1	122	76.1018548078613	1.02859497070313	1.02935791015625	4.57855224609375E-06	4.7129692575254E-06	224821.703125	2.11968545045238E-05
1	123	76.202562807607	1.03866577148438	1.038818359375	4.72808837890625E-06	4.91162472826545E-06	219712.140625	2.16654807445593E-05
1	124	76.3032708073528	1.04873657226563	1.048583984375	4.8779296875E-06	5.11491907673189E-06	214964.96875	2.21491827687714E-05
1	125	76.4039788070985	1.05880737304688	1.0589599609375	5.0140380859375E-06	5.30966553924372E-06	211199.03125	2.26472820941126E-05
1	126	76.5046868068442	1.06887817382813	1.0693359375	5.108642578125E-06	5.46285536984215E-06	209319	2.31569993047742E-05
1	127	76.60539480659	1.07894897460938	1.07879638671875	5.157470703125E-06	5.56386066818959E-06	209171.59375	2.36739397223573E-05
1	128	76.7061028063357	1.08901977539063	1.0888671875	5.1544189453125E-06	5.61247770747286E-06	211249.265625	2.41931847995147E-05
1	129	76.8068108060814	1.09909057617188	1.0992431640625	5.108642578125E-06	5.61564047529828E-06	215173.234375	2.47099706029985E-05
1	130	76.9075188058272	1.10916137695313	1.1090087890625	5.0262451171875E-06	5.5741502364981E-06	220643.59375	2.52203026320785E-05
1	131	77.0082268055729	1.11923217773438	1.119384765625	4.92706298828125E-06	5.51527909919969E-06	227191.078125	2.57214924204163E-05
1	132	77.1089348053187	1.12930297851563	1.129150390625	4.82269287109375E-06	5.445545866678E-06	234132.75	2.62124303844757E-05
1	133	77.2096428050644	1.13937377929688	1.1395263671875	4.72015380859375E-06	5.37873984285397E-06	241417.203125	2.6692950996221E-05
1	134	77.3103508048101	1.14944458007813	1.14959716796875	4.62249755859375E-06	5.31400974068674E-06	248696.125	2.71633907686919E-05
1	135	77.4110588045559	1.15951538085938	1.15936279296875	4.53399658203125E-06	5.25654695593403E-06	255704.375	2.76244572887663E-05
1	136	77.5117668043016	1.16958618164063	1.1700439453125	4.4537353515625E-06	5.21106585438247E-06	262710.71875	2.80770254903473E-05
1	137	77.6124748040473	1.17965698242188	1.17950439453125	4.383544921875E-06	5.17041053171852E-06	269075.46875	2.85220176010625E-05
1	138	77.7131828037931	1.18972778320313	1.190185546875	4.322509765625E-06	5.14458815814578E-06	275345.96875	2.89604031422641E-05
1	139	77.8138908035388	1.19979858398438	1.1993408203125	4.2718505859375E-06	5.12340511704679E-06	280754.375	2.93931625492405E-05
1	140	77.9145988032845	1.20986938476563	1.209716796875	4.23248291015625E-06	5.12010547026875E-06	285817.3125	2.98213908536127E-05
1	141	78.0153068030303	1.21994018554688	1.2200927734375	4.20501708984375E-06	5.13051054440439E-06	290151.6875	3.02462522085989E-05
1	142	78.116014802776	1.23001098632813	1.2298583984375	4.19158935546875E-06	5.1550609896367E-06	293411	3.06690562865697E-05
1	143	78.2167228025218	1.24008178710938	1.23992919921875	4.195556640625E-06	5.20219282407197E-06	295533.90625	3.10913819703273E-05
1	144	78.3174308022675	1.25015258789063	1.25030517578125	4.22088623046875E-06	5.27739575773012E-06	296218.625	3.15151846734807E-05
1	145	78.4181388020132	1.26022338867188	1.26007080078125	4.27093505859375E-06	5.38168023922481E-06	295033.96875	3.19427817885298E-05
1	146	78.518846801759	1.27029418945313	1.270751953125	4.34600830078125E-06	5.5226983022294E-06	292395.21875	3.2376676244894E-05
1	147	78.6195548015047	1.28036499023438	1.280517578125	4.443359375E-06	5.68979930903879E-06	288186.84375	3.28192581946496E-05
1	148	78.7202628012504	1.29043579101563	1.290283203125	4.55963134765625E-06	5.88321563554928E-06	282979.71875	3.32725940097589E-05
1	149	78.8209708009962	1.30050659179688	1.3006591796875	4.68505859375E-06	6.09366452408722E-06	277618.53125	3.37381025019567E-05
1	150	78.9216788007419	1.31057739257813	1.3104248046875	4.81414794921875E-06	6.30857857686351E-06	272202.875	3.42164239555132E-05
1	151	79.0223868004877	1.32064819335938	1.32080078125	4.9359130859375E-06	6.51935761197819E-06	267589.96875	3.47073801094666E-05
1	152	79.1230948002334	1.33071899414063	1.33087158203125	5.0445556640625E-06	6.71365569360205E-06	263823.34375	3.52099341398571E-05
1	153	79.2238027999791	1.34078979492188	1.34063720703125	5.126953125E-06	6.87338388161152E-06	261488.09375	3.57221106241923E-05
1	154	79.3245107997249	1.35086059570313	1.3507080078125	5.18798828125E-06	7.00745749782072E-06	260352.9375	3.62415084964596E-05
1	155	79.4252187994706	1.36093139648438	1.3616943359375	5.224609375E-06	7.11432085154229E-06	260630.859375	3.67658249160741E-05
1	156	79.5259267992163	1.37100219726563	1.370849609375	5.242919921875E-06	7.18725505066686E-06	261466.8125	3.72929061995819E-05
1	157	79.6266347989621	1.38107299804688	1.3812255859375	5.2520751953125E-06	7.25430027159746E-06	262986.65625	3.78213735530153E-05
1	158	79.7273427987078	1.39114379882813	1.3909912109375	5.2520751953125E-06	7.30559031580924E-06	264846.03125	3.83502992917784E-05
1	159	79.8280507984535	1.40121459960938	1.4013671875	5.2520751953125E-06	7.36008541935007E-06	266821.625	3.88792250305414E-05
1	160	79.9287587981993	1.41128540039063	1.41143798828125	5.2581787109375E-06	7.42159318178892E-06	268427.15625	3.94084563595243E-05
1	161	80.029466797945	1.42135620117188	1.4208984375	5.267333984375E-06	7.48434649722185E-06	269756.65625	3.99384589400142E-05
1	162	80.1301747976908	1.43142700195313	1.431884765625	5.2825927734375E-06	7.56406370783225E-06	271057.1875	4.0469691157341E-05
1	163	80.2308827974365	1.44149780273438	1.441650390625	5.303955078125E-06	7.64644846640294E-06	271806.6875	4.10027641919442E-05
1	164	80.3315907971822	1.45156860351563	1.451416015625	5.3375244140625E-06	7.74696854932699E-06	271926.8125	4.15386057284195E-05
1	165	80.432298796928	1.46163940429688	1.4617919921875	5.38330078125E-06	7.86926557339029E-06	271541.96875	4.2078441765625E-05
1	166	80.5330067966737	1.47171020507813	1.47216796875	5.438232421875E-06	8.00599082140252E-06	270707.09375	4.26233491452876E-05
1	167	80.6337147964194	1.48178100585938	1.48193359375	5.5084228515625E-06	8.16311694507021E-06	269030.46875	4.31745575042441E-05
1	168	80.7344227961652	1.49185180664063	1.49169921875	5.5938720703125E-06	8.34437378216535E-06	266666.6875	4.37336020695511E-05
1	169	80.8351307959109	1.50192260742188	1.5020751953125	5.6976318359375E-06	8.55827147461241E-06	263631.5	4.43021745013539E-05
1	170	80.9358387956567	1.49185180664063	1.49200439453125	5.3680419921875E-06	8.00914222054416E-06	277942.03125	4.48593782493845E-05
1	171	81.0365467954024	1.48178100585938	1.48162841796875	5.1239013671875E-06	7.59171780373435E-06	289160.21875	4.53876891697291E-05
1	172	81.1372547951481	1.47171020507813	1.47186279296875	4.92706298828125E-06	7.25196059647715E-06	298730.25	4.58937938674353E-05
1	173	81.2379627948939	1.46163940429688	1.461181640625	4.7698974609375E-06	6.96968618285609E-06	306334	4.63820761069655E-05
1	174	81.3386707946396	1.45156860351563	1.45172119140625	4.63958740234375E-06	6.73538716000621E-06	312898.78125	4.68558791908436E-05
1	175	81.4393787943853	1.44149780273438	1.44195556640625	4.52911376953125E-06	6.53078041068511E-06	318374.78125	4.73175605293363E-05
1	176	81.5400867941311	1.43142700195313	1.4312744140625	4.43389892578125E-06	6.3461261561315E-06	322802.65625	4.77688845421653E-05
1	177	81.6407947938768	1.42135620117188	1.4215087890625	4.34906005859375E-06	6.18222702541971E-06	326854.25	4.8211142711807E-05
1	178	81.7415027936225	1.41128540039063	1.4111328125	4.27154541015625E-06	6.02771751800901E-06	330356.53125	4.86452227050904E-05
1	179	81.8422107933683	1.40121459960938	1.4007568359375	4.1961669921875E-06	5.87780959904194E-06	333818.1875	4.90716083731968E-05
1	180	81.942918793114	1.39114379882813	1.39129638671875	4.1217041015625E-06	5.73451188756735E-06	337553.6875	4.94904452352785E-05
1	181	82.0436267928598	1.38107299804688	1.3812255859375	4.0411376953125E-06	5.58172314413241E-06	341791.25	4.99014749948401E-05
1	182	82.1443347926055	1.37100219726563	1.370849609375	3.95233154296875E-06	5.41805229659076E-06	346845.8125	5.03039809700567E-05
1	183	82.2450427923512	1.36093139648438	1.36077880859375	3.848876953125E-06	5.23747030456434E-06	353552.15625	5.06968026456889E-05
1	184	82.345750792097	1.35086059570313	1.35101318359375	3.7286376953125E-06	5.03743876834051E-06	362334.25	5.10783611389343E-05
1	185	82.4464587918427	1.34078979492188	1.34063720703125	3.5882568359375E-06	4.81055030832067E-06	373617.96875	5.14467938046437E-05
1	186	82.5471667915884	1.33071899414063	1.33056640625	3.42681884765625E-06	4.5596098061651E-06	388280.375	5.18000306328759E-05
1	187	82.6478747913342	1.32064819335938	1.32080078125	3.2476806640625E-06	4.28953899245244E-06	406690.5	5.21361180290114E-05
1	188	82.7485827910799	1.31057739257813	1.3104248046875	3.0584716796875E-06	4.00789713239647E-06	428457.40625	5.24536590091884E-05
1	189	82.8492907908256	1.30050659179688	1.3006591796875	2.86834716796875E-06	3.73074203707802E-06	453452.5	5.27520969626494E-05
1	190	82.9499987905714	1.29043579101563	1.29058837890625	2.69073486328125E-06	3.47263107869367E-06	479641.59375	5.3032021241961E-05
1	191	83.0507067903171	1.28036499023438	1.280517578125	2.5347900390625E-06	3.24584311783838E-06	505177	5.32951453351416E-05
1	192	83.1514147900629	1.27029418945313	1.27044677734375	2.412109375E-06	3.06445645037456E-06	526695.375	5.35442413820419E-05
1	193	83.2521227898086	1.26022338867188	1.26007080078125	2.3248291015625E-06	2.92944901048031E-06	542005.8125	5.37827654625289E-05
1	194	83.3528307895543	1.25015258789063	1.25	2.2698974609375E-06	2.83737153949915E-06	550685.6875	5.40141300007235E-05
1	195	83.4535387893001	1.24008178710938	1.23992919921875	2.24212646484375E-06	2.78007792076096E-06	553014.875	5.4241329053184E-05
1	196	83.5542467890458	1.23001098632813	1.2298583984375	2.2314453125E-06	2.74436160907499E-06	551148.8125	5.44665890629403E-05
1	197	83.6549547887915	1.21994018554688	1.2200927734375	2.23236083984375E-06	2.72368743026163E-06	546548.1875	5.46913615835365E-05
1	198	83.7556627885373	1.20986938476563	1.20941162109375	2.23846435546875E-06	2.70722466666484E-06	540286.3125	5.49164833500981E-05
1	199	83.856370788283	1.19979858398438	1.19964599609375	2.2454833984375E-06	2.69378506345674E-06	534248.4375	5.51422708667815E-05
1	200	83.9570787880288	1.18972778320313	1.190185546875	2.2509765625E-06	2.67907967099745E-06	528741.875	5.53686841158196E-05
1	201	84.0577867877745	1.17965698242188	1.17950439453125	2.25433349609375E-06	2.6589962089929E-06	523216.5	5.55955448362511E-05
1	202	84.1584947875202	1.16958618164063	1.16973876953125	2.25341796875E-06	2.63591027760413E-06	519095.34375	5.58225292479619E-05
1	203	84.259202787266	1.15951538085938	1.15997314453125	2.2467041015625E-06	2.60611636804242E-06	516299.9375	5.60491280339193E-05
1	204	84.3599107870117	1.14944458007813	1.1492919921875	2.23419189453125E-06	2.56773887485906E-06	514410.59375	5.62747591175139E-05
1	205	84.4606187867574	1.13937377929688	1.13983154296875	2.2125244140625E-06	2.52190511673689E-06	515172.4375	5.64986694371328E-05
1	206	84.5613267865032	1.12930297851563	1.12945556640625	2.17803955078125E-06	2.45999876824499E-06	518565.25	5.67197494092397E-05
1	207	84.6620347862489	1.11923217773438	1.119384765625	2.1282958984375E-06	2.38238180827466E-06	525953.5625	5.69365911360364E-05
1	208	84.7627427859946	1.10916137695313	1.109619140625	2.05780029296875E-06	2.28337444241333E-06	539225.875	5.71473792660981E-05
1	209	84.8634507857404	1.09909057617188	1.0992431640625	1.96136474609375E-06	2.15601676245569E-06	560448.125	5.73497600271367E-05
1	210	84.9641587854861	1.08901977539063	1.0894775390625	1.834716796875E-06	1.99888268070936E-06	593812.375	5.75409067096189E-05
1	211	85.0648667852319	1.07894897460938	1.0784912109375	1.676025390625E-06	1.80757865564374E-06	643481.4375	5.77176870137919E-05
1	212	85.1655747849776	1.06887817382813	1.0687255859375	1.48529052734375E-06	1.58736793309799E-06	719539.8125	5.7876870414475E-05
1	213	85.2662827847233	1.05880737304688	1.0589599609375	1.26861572265625E-06	1.34341325974674E-06	834736.5625	5.80155428906437E-05
1	214	85.3669907844691	1.04873657226563	1.048583984375	1.038818359375E-06	1.08928827557975E-06	1009400.6875	5.81317290198058E-05
1	215	85.4676987842148	1.03866577148438	1.03851318359375	8.135986328125E-07	8.44932856125524E-07	1276444.125	5.82250067964196E-05
1	216	85.5684067839605	1.02859497070313	1.02874755859375	6.0882568359375E-07	6.26327903319179E-07	1689724.375	5.82966313231736E-05
1	217	85.6691147837063	1.01852416992188	1.0186767578125	4.43115234374999E-07	4.51391173328375E-07	2298898	5.83496002946049E-05
1	218	85.769822783452	1.00845336914063	1.00860595703125	3.253173828125E-07	3.28117067738276E-07	3100375.25	5.83882938371971E-05
1	219	85.8705307831978	0.998382568359375	0.99822998046875	2.60009765624999E-07	2.5954952320717E-07	3839202	5.84177687414922E-05
1	220	85.9712387829435	0.988311767578125	0.98876953125	2.410888671875E-07	2.38381318240499E-07	4101266	5.84430017624982E-05
1	221	86.0719467826892	0.978240966796875	0.9783935546875	2.545166015625E-07	2.49017404030383E-07	3844124.5	5.84679582971148E-05
1	222	86.172654782435	0.968170166015625	0.9686279296875	2.850341796875E-07	2.76092038120623E-07	3398287.25	5.84951267228462E-05
1	223	86.2733627821807	0.958099365234375	0.95855712890625	3.16162109375E-07	3.03059437101183E-07	3031853.25	5.85253983445E-05
1	224	86.3740707819264	0.948028564453125	0.94818115234375	3.3294677734375E-07	3.15693853281118E-07	2847846	5.85580819461029E-05
1	225	86.4747787816722	0.937957763671875	0.9381103515625	3.2073974609375E-07	3.00889269055915E-07	2924833.75	5.85909983783495E-05
1	226	86.5754867814179	0.927886962890625	0.927734375	2.69165039062499E-07	2.49713650646299E-07	3446712	5.86207024753094E-05
1	227	86.6761947811636	0.917816162109375	0.91766357421875	1.71813964843751E-07	1.57667415123797E-07	5341030	5.86429086979479E-05
1	228	86.7769027809094	0.907745361328125	0.9075927734375	2.65502929687494E-08	2.40968542897235E-08	34183908	5.86528949497733E-05
1	229	86.8776107806551	0.897674560546875	0.89752197265625	-1.6326904296875E-07	-1.46537544765124E-07	-5497196.5	5.86460118938703E-05
1	230	86.9783187804009	0.887603759765625	0.88775634765625	-3.8330078125E-07	-3.40277694022006E-07	-2316082.75	5.86184905841947E-05
1	231	87.0790267801466	0.877532958984375	0.877685546875	-6.17370605468751E-07	-5.41857218649966E-07	-1421651.125	5.85681009397376E-05
1	232	87.1797347798923	0.867462158203125	0.8673095703125	-8.45947265625E-07	-7.33698129806726E-07	-1025252.5625	5.84944173169788E-05
1	233	87.2804427796381	0.857391357421875	0.858154296875	-1.04461669921875E-06	-8.96442259090691E-07	-821501.6875	5.83992223255336E-05
1	234	87.3811507793838	0.847320556640625	0.84716796875	-1.19384765625E-06	-1.01138948593871E-06	-709611.4375	5.82865068281535E-05
1	235	87.4818587791295	0.837249755859375	0.83740234375	-1.28326416015625E-06	-1.07460846265894E-06	-652556.5	5.81617714487948E-05
1	236	87.5825667788753	0.827178955078125	0.8270263671875	-1.31011962890625E-06	-1.08350343452912E-06	-631260.1875	5.80311861995142E-05
1	237	87.683274778621	0.817108154296875	0.81756591796875	-1.285400390625E-06	-1.05089952739945E-06	-636039.9375	5.79004918108694E-05
1	238	87.7839827783667	0.807037353515625	0.80718994140625	-1.2261962890625E-06	-9.89773297987995E-07	-658287.75	5.77740211156197E-05
1	239	87.8846907781125	0.796966552734375	0.797119140625	-1.15386962890625E-06	-9.19771537155611E-07	-690822.5625	5.76541751797777E-05
1	240	87.9853987778582	0.786895751953125	0.78643798828125	-1.087646484375E-06	-8.55366465657426E-07	-723064	5.75413068872876E-05
1	241	88.086106777604	0.776824951171875	0.7769775390625	-1.04248046875E-06	-8.09983873750753E-07	-745316.1875	5.74340447201394E-05
1	242	88.1868147773497	0.766754150390625	0.76690673828125	-1.029052734375E-06	-7.89187424743432E-07	-745255.0625	5.73297365917824E-05
1	243	88.2875227770954	0.756683349609375	0.75653076171875	-1.058349609375E-06	-8.00674001766311E-07	-714821.25	5.72246281080879E-05
1	244	88.3882307768412	0.746612548828125	0.746551513671875	-1.1346435546875E-06	-8.47069827614177E-07	-657961.3125	5.71142008993775E-05
1	245	88.4889387765869	0.736541748046875	0.736480712890625	-1.25946044921875E-06	-9.27568294173398E-07	-584758.9375	5.69936491956469E-05
1	246	88.5896467763326	0.726470947265625	0.726409912109375	-1.42791748046875E-06	-1.03725346889405E-06	-508719.8125	5.68583272979595E-05
1	247	88.6903547760784	0.716400146484375	0.716339111328125	-1.62994384765625E-06	-1.1675924724841E-06	-439487	5.67043534829281E-05
1	248	88.7910627758241	0.706329345703125	0.706298828125	-1.84661865234375E-06	-1.30426451505627E-06	-382482.25	5.65292939427309E-05
1	249	88.8917707755699	0.696258544921875	0.69622802734375	-2.05535888671875E-06	-1.43099850902217E-06	-338737.9375	5.63328139833175E-05
1	250	88.9924787753156	0.686187744140625	0.686126708984375	-2.22991943359375E-06	-1.53000723912555E-06	-307691.28125	5.61170345463324E-05
1	251	89.0931867750613	0.676116943359375	0.67608642578125	-2.35076904296875E-06	-1.58932300564629E-06	-287602.25	5.58863757760264E-05
1	252	89.1938947748071	0.666046142578125	0.665985107421875	-2.40447998046875E-06	-1.60134788984578E-06	-276976.78125	5.56469312869012E-05
1	253	89.2946027745528	0.655975341796875	0.655975341796875	-2.38922119140625E-06	-1.56727014655189E-06	-274556.125	5.54055477550719E-05
1	254	89.3953107742985	0.645904541015625	0.645904541015625	-2.31597900390625E-06	-1.49590130149591E-06	-278890.5	5.516862438526E-05
1	255	89.4960187740443	0.635833740234375	0.635833740234375	-2.20458984375E-06	-1.40175245633145E-06	-288413.65625	5.49409960513003E-05
1	256	89.59672677379	0.625762939453125	0.625762939453125	-2.07305908203125E-06	-1.2972435570191E-06	-301854.84375	5.472559860209E-05
1	257	89.6974347735357	0.615692138671875	0.615753173828125	-1.93572998046875E-06	-1.19193180125876E-06	-318098.71875	5.45237380720209E-05
1	258	89.7981427732815	0.605621337890625	0.605621337890625	-1.800537109375E-06	-1.09044367491151E-06	-336355.9375	5.4335603635991E-05
1	259	89.8988507730272	0.595550537109375	0.595550537109375	-1.6741943359375E-06	-9.97067331809376E-07	-355723.65625	5.41606386832427E-05
1	260	89.999558772773	0.585479736328125	0.585540771484375	-1.55792236328125E-06	-9.1222705123073E-07	-375847.21875	5.39978864253499E-05
1	261	90.1002667725187	0.575408935546875	0.575439453125	-1.451416015625E-06	-8.35202001780999E-07	-396467.625	5.38463536940981E-05
1	262	90.2009747722644	0.565338134765625	0.565338134765625	-1.35498046875E-06	-7.66022139941924E-07	-417229.75	5.37050400453154E-05
1	263	90.3016827720102	0.555267333984375	0.555267333984375	-1.2677001953125E-06	-7.03912519384176E-07	-438011.5625	5.35729777766392E-05
1	264	90.4023907717559	0.545196533203125	0.545196533203125	-1.18896484375E-06	-6.48219497634273E-07	-458547.25	5.34492755832616E-05
1	265	90.5030987715016	0.535125732421875	0.53515625	-1.11663818359375E-06	-5.97575876781775E-07	-479256.65625	5.33331804035697E-05
1	266	90.6038067712474	0.525054931640625	0.52508544921875	-1.0498046875E-06	-5.51237121726444E-07	-500174.46875	5.32240919710603E-05
1	267	90.7045147709931	0.514984130859375	0.515045166015625	-9.89685058593751E-07	-5.09732501541293E-07	-520413.1875	5.31213954673149E-05
1	268	90.8052227707389	0.504913330078125	0.5048828125	-9.3414306640625E-07	-4.71632773724195E-07	-540477	5.30245233676396E-05
1	269	90.9059307704846	0.494842529296875	0.494842529296875	-8.819580078125E-07	-4.36430326544723E-07	-561072.6875	5.29330754943658E-05
1	270	91.0066387702303	0.484771728515625	0.48480224609375	-8.343505859375E-07	-4.04495011707695E-07	-581053.4375	5.28466516698245E-05
1	271	91.1073467699761	0.474700927734375	0.47467041015625	-7.9071044921875E-07	-3.75326834500811E-07	-600308.75	5.27648226125166E-05
1	272	91.2080547697218	0.464630126953125	0.46466064453125	-7.4920654296875E-07	-3.48126803828563E-07	-620203.6875	5.26872827322222E-05
1	273	91.3087627694675	0.454559326171875	0.454559326171875	-7.10449218750001E-07	-3.22941332342452E-07	-639819.5625	5.26137810084037E-05
1	274	91.4094707692133	0.444488525390625	0.444549560546875	-6.7474365234375E-07	-2.99957008564888E-07	-658842.125	5.25440336787142E-05
1	275	91.510178768959	0.434417724609375	0.4344482421875	-6.4117431640625E-07	-2.78557052979522E-07	-677582.125	5.24777715327218E-05
1	276	91.6108867687047	0.424346923828125	0.42437744140625	-6.09130859375E-07	-2.58501387406795E-07	-696693.4375	5.24148126714863E-05
1	277	91.7115947684505	0.414276123046875	0.414306640625	-5.78918457031249E-07	-2.3984975427993E-07	-715656.3125	5.23549897479825E-05
1	278	91.8123027681962	0.404205322265625	0.404205322265625	-5.5084228515625E-07	-2.22653383730176E-07	-733795	5.2298102673376E-05
1	279	91.913010767942	0.394134521484375	0.3941650390625	-5.23681640625E-07	-2.06416999048997E-07	-752680.625	5.22439950145781E-05
1	280	92.0137187676877	0.384063720703125	0.38409423828125	-4.974365234375E-07	-1.91062511589735E-07	-772147.25	5.21925758221187E-05
1	281	92.1144267674334	0.373992919921875	0.37408447265625	-4.7332763671875E-07	-1.77064507056457E-07	-790328.875	5.21436959388666E-05
1	282	92.2151347671792	0.363922119140625	0.364013671875	-4.49523925781251E-07	-1.63632847716144E-07	-809776	5.20972280355636E-05
1	283	92.3158427669249	0.353851318359375	0.353912353515625	-4.2755126953125E-07	-1.51315674656871E-07	-827765.875	5.20530629728455E-05
1	284	92.4165507666706	0.343780517578125	0.34381103515625	-4.071044921875E-07	-1.39967013979003E-07	-844527.75	5.20110334036872E-05
1	285	92.5172587664164	0.333709716796875	0.333770751953125	-3.8787841796875E-07	-1.29462463860364E-07	-860503.5625	5.19710047228727E-05
1	286	92.6179667661621	0.323638916015625	0.32366943359375	-3.692626953125E-07	-1.19519043551009E-07	-876528.9375	5.19328787049744E-05
1	287	92.7186747659078	0.313568115234375	0.31365966796875	-3.51562499999999E-07	-1.10270967468296E-07	-892187.5625	5.18965825904161E-05
1	288	92.8193827656536	0.303497314453125	0.303466796875	-3.35083007812501E-07	-1.01686566722492E-07	-905646.625	5.18620072398335E-05
1	289	92.9200907653993	0.293426513671875	0.29345703125	-3.2012939453125E-07	-9.3944215961983E-08	-916682.625	5.1829014410032E-05
1	290	93.0207987651451	0.283355712890625	0.2833251953125	-3.05786132812499E-07	-8.66369163077252E-08	-926546.9375	5.17974949616473E-05
1	291	93.1215067648908	0.273284912109375	0.2733154296875	-2.9266357421875E-07	-7.99894692704584E-08	-933889.5	5.17673615831882E-05
1	292	93.2222147646365	0.263214111328125	0.263214111328125	-2.8106689453125E-07	-7.39807717309304E-08	-936482.125	5.17384723934811E-05
1	293	93.3229227643823	0.253143310546875	0.253143310546875	-2.69775390625E-07	-6.82918326333493E-08	-938348.5	5.17107364430558E-05
1	294	93.423630764128	0.243072509765625	0.2431640625	-2.60314941406251E-07	-6.32992396276677E-08	-934114.875	5.16840445925482E-05
1	295	93.5243387638737	0.233001708984375	0.23309326171875	-2.520751953125E-07	-5.87570276877614E-08	-924697.375	5.16582440468483E-05
1	296	93.6250467636195	0.222930908203125	0.222991943359375	-2.45361328125E-07	-5.47135989847902E-08	-908830.875	5.16331929247826E-05
1	297	93.7257547633652	0.212860107421875	0.212890625	-2.40173339843749E-07	-5.11306517125831E-08	-886404.0625	5.1608745707199E-05
1	298	93.826462763111	0.202789306640625	0.202850341796875	-2.3681640625E-07	-4.80382880141406E-08	-856572.1875	5.15847277711146E-05
1	299	93.9271707628567	0.192718505859375	0.192779541015625	-2.3651123046875E-07	-4.55945254884682E-08	-815096.8125	5.15608917339705E-05
1	300	94.0278787626024	0.182647705078125	0.1827392578125	-2.38952636718751E-07	-4.36660236857733E-08	-764751	5.1536950195441E-05
1	301	94.1285867623482	0.172576904296875	0.17266845703125	-2.4566650390625E-07	-4.24188542069714E-08	-702857.1875	5.15125502715819E-05
1	302	94.2292947620939	0.162506103515625	0.16259765625	-2.57568359375E-07	-4.18800105705941E-08	-631279.625	5.14872081112117E-05
1	303	94.3300027618396	0.152435302734375	0.152496337890625	-2.7587890625E-07	-4.20705212889061E-08	-552765.5	5.14603489136789E-05
1	304	94.4307107615854	0.142364501953125	0.1424560546875	-3.0364990234375E-07	-4.32567652808302E-08	-469145.75	5.14311650476884E-05
1	305	94.5314187613311	0.132293701171875	0.13238525390625	-3.4332275390625E-07	-4.54508679581522E-08	-385600.03125	5.13985905854497E-05
1	306	94.6321267610768	0.122222900390625	0.122314453125	-4.00390624999999E-07	-4.89735576536532E-08	-305487.8125	5.13611412316095E-05
1	307	94.7328347608226	0.112152099609375	0.112274169921875	-4.791259765625E-07	-5.37934710109766E-08	-234331.21875	5.1316852477612E-05
1	308	94.8335427605683	0.102081298828125	0.1021728515625	-5.859375E-07	-5.98668989937323E-08	-174375.015625	5.12632213940378E-05
1	309	94.9342507603141	0.092010498046875	0.092071533203125	-7.2479248046875E-07	-6.67327526571171E-08	-127031.578125	5.11972211825196E-05
1	310	95.0349587600598	0.081939697265625	0.082000732421875	-8.99658203125001E-07	-7.37726324473442E-08	-91146.5390625	5.11154248670209E-05
1	311	95.1356667598055	0.071868896484375	0.072021484375	-1.1083984375E-06	-7.98285029190993E-08	-64977.97265625	5.10143108840566E-05
1	312	95.2363747595513	0.061798095703125	0.0618896484375	-1.3427734375E-06	-8.31037780812949E-08	-46090.91015625	5.08908851770684E-05
1	313	95.337082759297	0.051727294921875	0.051788330078125	-1.5887451171875E-06	-8.22784542720001E-08	-32597.005859375	5.07432705489919E-05
1	314	95.4377907590427	0.041656494140625	0.0417877197265625	-1.82586669921875E-06	-7.629880371951E-08	-22886.513671875	5.05713323946111E-05
1	315	95.5384987587885	0.031585693359375	0.0317169189453125	-2.03521728515625E-06	-6.45508251295723E-08	-15584.046875	5.03769115312025E-05
1	316	95.6392067585342	0.021514892578125	0.021661376953125	-2.193603515625E-06	-4.7516468981712E-08	-9874.791015625	5.01639733556658E-05
1	317	95.73991475828	0.011444091796875	0.01158447265625	-2.2900390625E-06	-2.65288946366127E-08	-5058.6357421875	4.99382040288765E-05
1	318	95.8406227580257	0.001373291015625	0.001513671875	-2.32147216796875E-06	-3.51394691122664E-09	-652.031066894531	4.97059954795986E-05
1	319	95.9413307577714	-0.008697509765625	-0.008544921875	-2.29766845703125E-06	1.96333953539352E-08	3718.95361328125	4.94734013045672E-05
1	320	96.0420387575172	-0.018768310546875	-0.018609619140625	-2.23419189453125E-06	4.15774614737074E-08	8329.462890625	4.92452054459136E-05
1	321	96.1427467572629	-0.028839111328125	-0.0286712646484375	-2.1484375E-06	6.15984205865061E-08	13345.1708984375	4.90245220134966E-05
1	322	96.2434547570086	-0.038909912109375	-0.03873291015625	-2.05413818359375E-06	7.95627457250703E-08	18856.0390625	4.88129080622457E-05
1	323	96.3441627567544	-0.048980712890625	-0.048797607421875	-1.95953369140625E-06	9.56205497004703E-08	24902.6640625	4.86108001496177E-05
1	324	96.4448707565001	-0.059051513671875	-0.058990478515625	-1.8707275390625E-06	1.10355109939064E-07	31533.443359375	4.84179327031597E-05
1	325	96.5455787562458	-0.069122314453125	-0.06903076171875	-1.78955078125E-06	1.23534050544549E-07	38574.3515625	4.82336217828561E-05
1	326	96.6462867559916	-0.079193115234375	-0.079071044921875	-1.7169189453125E-06	1.35758568831079E-07	46054.0390625	4.80570597574115E-05
1	327	96.7469947557373	-0.089263916015625	-0.089141845703125	-1.6522216796875E-06	1.47282079865363E-07	53952.71875	4.78874098917004E-05
1	328	96.8477027554831	-0.099334716796875	-0.099212646484375	-1.59576416015625E-06	1.58319991783173E-07	62172.5	4.77238609164488E-05
1	329	96.9484107552288	-0.109405517578125	-0.109283447265625	-1.54541015625E-06	1.68887737572732E-07	70714.8515625	4.7565688873874E-05
1	330	97.0491187549745	-0.119476318359375	-0.11932373046875	-1.50299072265625E-06	1.79342450223885E-07	79390.8671875	4.74121916340664E-05
1	331	97.1498267547203	-0.129547119140625	-0.129425048828125	-1.4654541015625E-06	1.89666465644223E-07	88317.375	4.72627179988194E-05
1	332	97.250534754466	-0.139617919921875	-0.13946533203125	-1.43280029296875E-06	1.99825961999522E-07	97337.6015625	4.71167768409941E-05
1	333	97.3512427542117	-0.149688720703125	-0.149566650390625	-1.40472412109375E-06	2.10099884156989E-07	106474.0390625	4.69738988613244E-05
1	334	97.4519507539575	-0.159759521484375	-0.159576416015625	-1.38031005859375E-06	2.20264922745628E-07	115609.1171875	4.68336584162898E-05
1	335	97.5526587537032	-0.169830322265625	-0.169586181640625	-1.3604736328125E-06	2.30717517979429E-07	124652.3203125	4.66956516902428E-05
1	336	97.6533667534489	-0.179901123046875	-0.1796875	-1.34307861328125E-06	2.41334419115447E-07	133787.78125	4.65595148853026E-05
1	337	97.7540747531947	-0.189971923828125	-0.189788818359375	-1.329345703125E-06	2.52294938718478E-07	142768.59375	4.64249496872071E-05
1	338	97.8547827529404	-0.200042724609375	-0.1998291015625	-1.318359375E-06	2.6344656589572E-07	151574.078125	4.62916250398848E-05
1	339	97.9554907526862	-0.189971923828125	-0.1898193359375	-1.1737060546875E-06	2.22792095883051E-07	161726.484375	4.61661402368918E-05
2	340	98.0561987524319	-0.179901123046875	-0.179718017578125	-1.0723876953125E-06	1.92727398484749E-07	167586.796875	4.60530391137581E-05
2	341	98.1569067521776	-0.169830322265625	-0.16961669921875	-9.9029541015625E-07	1.67970625852831E-07	171278.90625	4.59491748188157E-05
2	342	98.2576147519234	-0.159759521484375	-0.159515380859375	-9.2132568359375E-07	1.46965604130855E-07	173136.8125	4.58529175375588E-05
2	343	98.3583227516691	-0.149688720703125	-0.1495361328125	-8.6181640625E-07	1.28872684967973E-07	173512.75	4.5763128582621E-05
2	344	98.4590307514148	-0.139617919921875	-0.13946533203125	-8.08105468750001E-07	1.12702693400024E-07	172583.09375	4.56790439784527E-05
2	345	98.5597387511606	-0.129547119140625	-0.12939453125	-7.6019287109375E-07	9.83647936436682E-08	170212.765625	4.56000743724871E-05
2	346	98.6604467509063	-0.119476318359375	-0.1192626953125	-7.1624755859375E-07	8.54216111179085E-08	166510.4375	4.55257286375854E-05
2	347	98.7611547506521	-0.109405517578125	-0.109283447265625	-6.7474365234375E-07	7.3738313233207E-08	161962.90625	4.54556866316125E-05
2	348	98.8618627503978	-0.099334716796875	-0.0992431640625	-6.3629150390625E-07	6.31475813861471E-08	155971.234375	4.5389671868179E-05
2	349	98.9625707501435	-0.089263916015625	-0.089141845703125	-5.9783935546875E-07	5.3292502855129E-08	149106.6875	4.53275279141963E-05
2	350	99.0632787498893	-0.079193115234375	-0.079071044921875	-5.5877685546875E-07	4.41830678710176E-08	141507.375	4.52692875114735E-05
2	351	99.163986749635	-0.069122314453125	-0.06903076171875	-5.17578125E-07	3.57288101326958E-08	133372.65625	4.52150889032055E-05
2	352	99.2646947493807	-0.059051513671875	-0.0589599609375	-4.7271728515625E-07	2.78713905288441E-08	124725.6328125	4.51652231276967E-05
2	353	99.3654027491265	-0.048980712890625	-0.048797607421875	-4.19921875E-07	2.049118208447E-08	116206.3984375	4.5120275899535E-05
2	354	99.4661107488722	-0.038909912109375	-0.0387237548828125	-3.56140136718749E-07	1.37910838304833E-08	108731.796875	4.50811967311893E-05
2	355	99.5668187486179	-0.028839111328125	-0.0286651611328125	-2.7618408203125E-07	7.9168609445901E-09	103790.0625	4.50493571406696E-05
2	356	99.6675267483637	-0.018768310546875	-0.01861572265625	-1.739501953125E-07	3.23820836811706E-09	107017.5546875	4.50266925327014E-05
2	357	99.7682347481094	-0.008697509765625	-0.0085479736328125	-4.425048828125E-08	3.78252013044644E-10	193172.421875	4.50157021987252E-05
2	358	99.8689427478552	0.001373291015625	0.0015228271484375	1.190185546875E-07	1.81244685926174E-10	12794.8720703125	4.50194675067905E-05
2	359	99.9696507476009	0.011444091796875	0.01158447265625	3.1890869140625E-07	3.69438901692831E-09	36325.359375	4.50415209343191E-05
2	360	100.070358747347	0.021514892578125	0.0216644287109375	5.51757812500001E-07	1.19535181752894E-08	39264.3828125	4.50853622169234E-05
2	361	100.171066747092	0.031585693359375	0.0317108154296875	8.0902099609375E-07	2.56547156851639E-08	39196.52734375	4.5153883547755E-05
2	362	100.271774746838	0.041656494140625	0.0417877197265625	1.07696533203125E-06	4.50039259192181E-08	38801.36328125	4.52488493465353E-05
2	363	100.372482746584	0.051727294921875	0.05181884765625	1.3336181640625E-06	6.91065551450265E-08	38855.8359375	4.53702305094339E-05
2	364	100.47319074633	0.061798095703125	0.0618896484375	1.55853271484375E-06	9.64570361361439E-08	39710.203125	4.55158624390606E-05
2	365	100.573898746075	0.071868896484375	0.071990966796875	1.73187255859375E-06	1.24679175428355E-07	41568.28125	4.5681546907872E-05
2	366	100.674606745821	0.081939697265625	0.08209228515625	1.844482421875E-06	1.51417779648E-07	44506.94921875	4.58616304968018E-05
2	367	100.775314745567	0.092010498046875	0.09210205078125	1.89208984375E-06	1.74265352370639E-07	48677.421875	4.60497831227258E-05
2	368	100.876022745313	0.102081298828125	0.1021728515625	1.8829345703125E-06	1.9238478898842E-07	54262.5625	4.62398711533751E-05
2	369	100.976730745058	0.112152099609375	0.112152099609375	1.834716796875E-06	2.05767335614837E-07	61127.74609375	4.64270706288517E-05
2	370	101.077438744804	0.122222900390625	0.122283935546875	1.763916015625E-06	2.15698591432556E-07	69325.2578125	4.66082747152541E-05
2	371	101.17814674455	0.132293701171875	0.13238525390625	1.6827392578125E-06	2.22769870106276E-07	78672.46875	4.67818281322252E-05
2	372	101.278854744295	0.142364501953125	0.14239501953125	1.6009521484375E-06	2.27967618116054E-07	88943.9609375	4.69471742690075E-05
2	373	101.379562744041	0.152435302734375	0.152557373046875	1.5234375E-06	2.32411622391737E-07	100140.2265625	4.71044986625202E-05
2	374	101.480270743787	0.162506103515625	0.162567138671875	1.45172119140625E-06	2.36002151154935E-07	111982.34375	4.72543106297962E-05
2	375	101.580978743533	0.172576904296875	0.172637939453125	1.38702392578125E-06	2.39452930372863E-07	124466.453125	4.73972540930845E-05
2	376	101.681686743278	0.182647705078125	0.182708740234375	1.32904052734375E-06	2.42827326246697E-07	137474.171875	4.75340166303795E-05
2	377	101.782394743024	0.192718505859375	0.19287109375	1.2786865234375E-06	2.46621652877366E-07	150835.328125	4.76653258374427E-05
2	378	101.88310274277	0.202789306640625	0.202880859375	1.23291015625E-06	2.50133865620228E-07	164554.46875	4.77917965326924E-05
2	379	101.983810742516	0.212860107421875	0.21295166015625	1.1932373046875E-06	2.54101848895516E-07	178465.484375	4.79139634990133E-05
2	380	102.084518742261	0.222930908203125	0.22296142578125	1.15753173828125E-06	2.58084924098512E-07	192617.984375	4.80323324154597E-05
2	381	102.185226742007	0.233001708984375	0.233123779296875	1.12579345703125E-06	2.62449219690097E-07	207075.09375	4.8147307097679E-05
2	382	102.285934741753	0.243072509765625	0.243133544921875	1.0980224609375E-06	2.66966083017905E-07	221428.59375	4.82592877233401E-05
2	383	102.386642741499	0.253143310546875	0.253204345703125	1.07269287109375E-06	2.71610474555928E-07	236045.53125	4.83685907965992E-05
2	384	102.487350741244	0.263214111328125	0.26324462890625	1.0498046875E-06	2.76355422101915E-07	250755.828125	4.84754673379939E-05
2	385	102.58805874099	0.273284912109375	0.2733154296875	1.029052734375E-06	2.81255978507033E-07	265599.0625	4.85801465401892E-05
2	386	102.688766740736	0.283355712890625	0.283447265625	1.0107421875E-06	2.86492110035397E-07	280434.78125	4.86828575958498E-05
2	387	102.789474740482	0.293426513671875	0.29345703125	9.9334716796875E-07	2.9150470481909E-07	295422.4375	4.87837714899797E-05
2	388	102.890182740227	0.303497314453125	0.30352783203125	9.77783203125E-07	2.9678440682801E-07	310424.46875	4.88830264657736E-05
2	389	102.990890739973	0.313568115234375	0.313629150390625	9.63439941406249E-07	3.02162845855491E-07	325530.59375	4.89807753183413E-05
2	390	103.091598739719	0.323638916015625	0.323699951171875	9.50012207031251E-07	3.07518888575942E-07	340732.4375	4.90771235490683E-05
2	391	103.192306739464	0.333709716796875	0.333740234375	9.3841552734375E-07	3.13187001665938E-07	355642.28125	4.91722130391281E-05
2	392	103.29301473921	0.343780517578125	0.34381103515625	9.28344726562499E-07	3.1917517162583E-07	370348.46875	4.92662111355457E-05
2	393	103.393722738956	0.353851318359375	0.353912353515625	9.185791015625E-07	3.25096493725141E-07	385282.40625	4.93592124257702E-05
2	394	103.494430738702	0.363922119140625	0.363983154296875	9.0972900390625E-07	3.31126017272254E-07	400100.65625	4.94512751174625E-05
2	395	103.595138738447	0.373992919921875	0.374053955078125	9.02099609375E-07	3.37433931463238E-07	414648.1875	4.95425083499867E-05
2	396	103.695846738193	0.384063720703125	0.38409423828125	8.95080566406251E-07	3.43795278467951E-07	429116.96875	4.96330030728132E-05
2	397	103.796554737939	0.394134521484375	0.3941650390625	8.892822265625E-07	3.50523947645343E-07	443239.53125	4.97228538733907E-05
2	398	103.897262737685	0.404205322265625	0.404205322265625	8.837890625E-07	3.57232238457073E-07	457355	4.98121335112955E-05
2	399	103.99797073743	0.414276123046875	0.414276123046875	8.7921142578125E-07	3.64236313998845E-07	471190.5625	4.99009074701462E-05
2	400	104.098678737176	0.424346923828125	0.42437744140625	8.758544921875E-07	3.71692891576458E-07	484529.625	4.99892812513281E-05
2	401	104.199386736922	0.434417724609375	0.4344482421875	8.72192382812501E-07	3.78922436539142E-07	498110.59375	5.00773021485656E-05
2	402	104.300094736668	0.444488525390625	0.444488525390625	8.697509765625E-07	3.865943369874E-07	511052.625	5.01650174555834E-05
2	403	104.400802736413	0.454559326171875	0.45458984375	8.6700439453125E-07	3.94131376424411E-07	524322.4375	5.02524708281271E-05
2	404	104.501510736159	0.464630126953125	0.46466064453125	8.6517333984375E-07	4.02012005906727E-07	537072.3125	5.03396913700271E-05
2	405	104.602218735905	0.474700927734375	0.47467041015625	8.6334228515625E-07	4.09803021739208E-07	549805.5625	5.04267300129868E-05
2	406	104.702926735651	0.484771728515625	0.484832763671875	8.62731933593749E-07	4.18280677649818E-07	561973.875	5.0513644964667E-05
2	407	104.803634735396	0.494842529296875	0.49481201171875	8.61511230468751E-07	4.26286078436533E-07	574353.5625	5.06004689668771E-05
2	408	104.904342735142	0.504913330078125	0.504913330078125	8.6212158203125E-07	4.35296669820673E-07	585663.75	5.06872602272779E-05
2	409	105.005050734888	0.514984130859375	0.514984130859375	8.6334228515625E-07	4.44607564986654E-07	596500.5625	5.07741424371488E-05
2	410	105.105758734633	0.525054931640625	0.525054931640625	8.6517333984375E-07	4.5426352812683E-07	606878.3125	5.08611810801085E-05
2	411	105.206466734379	0.535125732421875	0.53515625	8.685302734375E-07	4.64799398969262E-07	616163.0625	5.09484780195635E-05
2	412	105.307174734125	0.545196533203125	0.54510498046875	8.7249755859375E-07	4.75602746519144E-07	624763.9375	5.10361460328568E-05
2	413	105.407882733871	0.555267333984375	0.555267333984375	8.77990722656249E-07	4.8751957137938E-07	632429.625	5.11242906213738E-05
2	414	105.508590733616	0.565338134765625	0.5653076171875	8.8653564453125E-07	5.01165345667687E-07	637659.1875	5.12131409777794E-05
2	415	105.609298733362	0.575408935546875	0.575439453125	8.97216796875E-07	5.16293937380397E-07	641360.5625	5.13029626745265E-05
2	416	105.710006733108	0.585479736328125	0.585479736328125	9.130859375E-07	5.34593311840581E-07	641209.9375	5.1394115871517E-05
2	417	105.810714732854	0.595550537109375	0.595550537109375	9.3353271484375E-07	5.55965925741475E-07	637953.5625	5.14871026098263E-05
2	418	105.911422732599	0.605621337890625	0.605621337890625	9.63439941406249E-07	5.83479788929253E-07	628603.125	5.15826213813853E-05
2	419	106.012130732345	0.615692138671875	0.615692138671875	1.0040283203125E-06	6.18172293798125E-07	613221.9375	5.168169082026E-05
2	420	106.112838732091	0.625762939453125	0.625732421875	1.060791015625E-06	6.63771288600401E-07	589873.4375	5.17856642545667E-05
2	421	106.213546731837	0.635833740234375	0.635833740234375	1.1395263671875E-06	7.24549295227916E-07	557980.6875	5.18964588991366E-05
2	422	106.314254731582	0.645904541015625	0.6458740234375	1.24725341796875E-06	8.05568561190739E-07	517837.0625	5.20166431670077E-05
2	423	106.414962731328	0.655975341796875	0.65594482421875	1.38916015625E-06	9.11212396204064E-07	472188.0625	5.21493966516573E-05
2	424	106.515670731074	0.666046142578125	0.666015625	1.56951904296875E-06	1.04532421119075E-06	424343.78125	5.22983791597653E-05
2	425	106.61637873082	0.676116943359375	0.676116943359375	1.78619384765625E-06	1.20767595035431E-06	378523.84375	5.24673523614183E-05
2	426	106.717086730565	0.686187744140625	0.6861572265625	2.03582763671875E-06	1.39689780098706E-06	337040.9375	5.26598050782923E-05
2	427	106.817794730311	0.696258544921875	0.6961669921875	2.30682373046875E-06	1.60593458531366E-06	301785.9375	5.28784767084289E-05
2	428	106.918502730057	0.706329345703125	0.706298828125	2.581787109375E-06	1.82351323019248E-06	273569.75	5.3124636906432E-05
2	429	107.019210729802	0.716400146484375	0.716339111328125	2.84027099609375E-06	2.03459717340593E-06	252208.015625	5.33976599399466E-05
2	430	107.119918729548	0.726470947265625	0.726409912109375	3.06121826171875E-06	2.22369931179855E-06	237294.390625	5.36948209628463E-05
2	431	107.220626729294	0.736541748046875	0.736480712890625	3.22723388671875E-06	2.37679546444269E-06	228208.046875	5.40114706382155E-05
2	432	107.32133472904	0.746612548828125	0.746551513671875	3.32916259765625E-06	2.48539140557114E-06	224246.03125	5.43416135769803E-05
2	433	107.422042728785	0.756683349609375	0.7562255859375	3.3660888671875E-06	2.54552242040518E-06	224660.03125	5.46787450730335E-05
2	434	107.522750728531	0.766754150390625	0.7666015625	3.35418701171875E-06	2.57132501246815E-06	228550.640625	5.50171389477327E-05
2	435	107.623458728277	0.776824951171875	0.77667236328125	3.31024169921875E-06	2.57097326539224E-06	234627.078125	5.53527170268353E-05
2	436	107.724166728023	0.786895751953125	0.7867431640625	3.25531005859375E-06	2.56109296969953E-06	241679.953125	5.56833183509298E-05
2	437	107.824874727768	0.796966552734375	0.797119140625	3.20648193359375E-06	2.5559479581716E-06	248596.1875	5.60086955374572E-05
2	438	107.925582727514	0.807037353515625	0.806884765625	3.17718505859375E-06	2.56362204709149E-06	253962.171875	5.63301400688943E-05
2	439	108.02629072726	0.817108154296875	0.8172607421875	3.177490234375E-06	2.59683793046861E-06	257203.25	5.66501221328508E-05
2	440	108.126998727006	0.827178955078125	0.82763671875	3.21624755859375E-06	2.66188453679206E-06	257329.921875	5.6972072343342E-05
2	441	108.227706726751	0.837249755859375	0.83740234375	3.29803466796875E-06	2.76178184321907E-06	253909.515625	5.73000943404622E-05
2	442	108.328414726497	0.847320556640625	0.8477783203125	3.42315673828125E-06	2.90207799480413E-06	247659.8125	5.76385318709072E-05
2	443	108.429122726243	0.857391357421875	0.8575439453125	3.58642578125E-06	3.07551772493753E-06	239108.25	5.799149221275E-05
2	444	108.529830725989	0.867462158203125	0.86761474609375	3.77685546875E-06	3.27685552292678E-06	229718.8125	5.83622640988324E-05
2	445	108.630538725734	0.877532958984375	0.87738037109375	3.9752197265625E-06	3.4877796224464E-06	220712.4375	5.87526119488757E-05
2	446	108.73124672548	0.887603759765625	0.88775634765625	4.16046142578125E-06	3.69347594642022E-06	213379.3125	5.91622774663847E-05
2	447	108.831954725226	0.897674560546875	0.89752197265625	4.3133544921875E-06	3.8713305912097E-06	208079.796875	5.95889650867321E-05
2	448	108.932662724971	0.907745361328125	0.90789794921875	4.41864013671875E-06	4.01167426389293E-06	205470	6.00286584813148E-05
2	449	109.033370724717	0.917816162109375	0.91827392578125	4.46533203125E-06	4.10039820053498E-06	205645.15625	6.04760025453288E-05
2	450	109.134078724463	0.927886962890625	0.92803955078125	4.46136474609375E-06	4.14032319895341E-06	208016.953125	6.09254966548178E-05
2	451	109.234786724209	0.937957763671875	0.9381103515625	4.41925048828125E-06	4.14574424212333E-06	212278.171875	6.13726733718067E-05
2	452	109.335494723954	0.948028564453125	0.94879150390625	4.3560791015625E-06	4.13301086155116E-06	217808.609375	6.18145422777161E-05
2	453	109.4362027237	0.958099365234375	0.958251953125	4.29168701171875E-06	4.11251721743611E-06	223280.96875	6.22499937890097E-05
2	454	109.536910723446	0.968170166015625	0.96832275390625	4.24041748046875E-06	4.10609254686278E-06	228355.546875	6.26796172582544E-05
2	455	109.637618723192	0.978240966796875	0.977783203125	4.2132568359375E-06	4.11965174862416E-06	232073	6.31052971584722E-05
2	456	109.738326722937	0.988311767578125	0.98846435546875	4.2181396484375E-06	4.16948068959755E-06	234336.5625	6.35298492852598E-05
2	457	109.839034722683	0.998382568359375	0.99822998046875	4.2596435546875E-06	4.25210373578011E-06	234345.90625	6.39567369944416E-05
2	458	109.939742722429	1.00845336914063	1.00830078125	4.3389892578125E-06	4.37500602856744E-06	232381.5	6.43897146801464E-05
2	459	110.040450722175	1.01852416992188	1.01837158203125	4.45465087890625E-06	4.53648999609868E-06	228608.609375	6.48325076326728E-05
2	460	110.14115872192	1.02859497070313	1.029052734375	4.59625244140625E-06	4.72978626930853E-06	223889.515625	6.528825906571E-05
2	461	110.241866721666	1.03866577148438	1.038818359375	4.75067138671875E-06	4.93508468935033E-06	218667.6875	6.57589116599411E-05
2	462	110.342574721412	1.04873657226563	1.0491943359375	4.89990234375E-06	5.14094972459134E-06	214125.5625	6.62448583170772E-05
2	463	110.443282721158	1.05880737304688	1.05865478515625	5.0262451171875E-06	5.32105832462548E-06	210625.375	6.67446802253835E-05
2	464	110.543990720903	1.06887817382813	1.06842041015625	5.1116943359375E-06	5.46143837709678E-06	209014.9375	6.72551686875522E-05
2	465	110.644698720649	1.07894897460938	1.0797119140625	5.145263671875E-06	5.5554023674631E-06	209845.796875	6.77716452628374E-05
2	466	110.745406720395	1.08901977539063	1.08917236328125	5.126953125E-06	5.58413557882886E-06	212440.484375	6.82888930896297E-05
2	467	110.84611472014	1.09909057617188	1.09893798828125	5.06591796875E-06	5.56712939214776E-06	216927.71875	6.88021464156918E-05
2	468	110.946822719886	1.10916137695313	1.10870361328125	4.9774169921875E-06	5.51848006580258E-06	222746.796875	6.93078691256233E-05
2	469	111.047530719632	1.11923217773438	1.11907958984375	4.874267578125E-06	5.45469310964108E-06	229589.296875	6.98039366398007E-05
2	470	111.148238719378	1.12930297851563	1.1297607421875	4.76593017578125E-06	5.38436052011093E-06	237049.375	7.02893594279885E-05
2	471	111.248946719123	1.13937377929688	1.1395263671875	4.66217041015625E-06	5.31266596226487E-06	244419.71875	7.07641011103988E-05
2	472	111.349654718869	1.14944458007813	1.14959716796875	4.56390380859375E-06	5.24665074408404E-06	251889.015625	7.12286710040644E-05
2	473	111.450362718615	1.15951538085938	1.1590576171875	4.4744873046875E-06	5.18618844580487E-06	259036.984375	7.16837894287892E-05
2	474	111.551070718361	1.16958618164063	1.16943359375	4.39483642578125E-06	5.13946906721685E-06	266092.65625	7.21303949831054E-05
2	475	111.651778718106	1.17965698242188	1.1798095703125	4.3243408203125E-06	5.10189875058131E-06	272829.9375	7.25694408174604E-05
2	476	111.752486717852	1.18972778320313	1.18988037109375	4.263916015625E-06	5.07354980072705E-06	279058.125	7.3001894634217E-05
2	477	111.853194717598	1.19979858398438	1.19964599609375	4.215087890625E-06	5.05661319039064E-06	284607.59375	7.34288478270173E-05
2	478	111.953902717344	1.20986938476563	1.209716796875	4.17724609375E-06	5.05328443978215E-06	289596.75	7.38514354452491E-05
2	479	112.054610717089	1.21994018554688	1.2200927734375	4.15283203125E-06	5.06684045831207E-06	293797.78125	7.42708871257491E-05
2	480	112.155318716835	1.23001098632813	1.23046875	4.14398193359375E-06	5.09903975398629E-06	296929.09375	7.46886653359979E-05
2	481	112.256026716581	1.24008178710938	1.23992919921875	4.1546630859375E-06	5.15148803970078E-06	298442.78125	7.51065381336957E-05
2	482	112.356734716327	1.25015258789063	1.25	4.188232421875E-06	5.23529024576419E-06	298455.28125	7.55266373744234E-05
2	483	112.457442716072	1.26022338867188	1.26068115234375	4.24560546875E-06	5.35235449206084E-06	296937.90625	7.59513131924905E-05
2	484	112.558150715818	1.27029418945313	1.270751953125	4.32830810546875E-06	5.50020604350721E-06	293590.9375	7.63830394134857E-05
2	485	112.658858715564	1.28036499023438	1.28082275390625	4.43084716796875E-06	5.67513006899389E-06	289069.5	7.68241006880999E-05
2	486	112.759566715309	1.29043579101563	1.2908935546875	4.54742431640625E-06	5.87024078413378E-06	283873.5625	7.72761923144571E-05
2	487	112.860274715055	1.30050659179688	1.30096435546875	4.6722412109375E-06	6.07841911914875E-06	278445.46875	7.77404420659877E-05
2	488	112.960982714801	1.31057739257813	1.31072998046875	4.794921875E-06	6.2848475863575E-06	273357.96875	7.82171482569538E-05
2	489	113.061690714547	1.32064819335938	1.32110595703125	4.9090576171875E-06	6.48538525638287E-06	269116	7.87057797424495E-05
2	490	113.162398714292	1.33071899414063	1.33087158203125	5.0079345703125E-06	6.66491723677609E-06	265752.59375	7.92051432654262E-05
2	491	113.263106714038	1.34078979492188	1.34124755859375	5.0811767578125E-06	6.81511619404773E-06	263963.96875	7.97131724539213E-05
2	492	113.363814713784	1.35086059570313	1.35040283203125	5.133056640625E-06	6.93169431542628E-06	263079.65625	8.02274953457527E-05
2	493	113.46452271353	1.36093139648438	1.36077880859375	5.16357421875E-06	7.02648230799241E-06	263534.28125	8.07459728093818E-05
2	494	113.565230713275	1.37100219726563	1.370849609375	5.17578125E-06	7.0952173700789E-06	264858.5	8.12666039564647E-05
2	495	113.665938713021	1.38107299804688	1.38092041015625	5.1788330078125E-06	7.15155601938022E-06	266647.03125	8.17879990790971E-05
2	496	113.766646712767	1.39114379882813	1.39129638671875	5.1788330078125E-06	7.20529169484507E-06	268650.5625	8.23095469968393E-05
2	497	113.867354712513	1.40121459960938	1.40167236328125	5.1788330078125E-06	7.25902691556257E-06	270654.09375	8.28311021905392E-05
2	498	113.968062712258	1.41128540039063	1.41082763671875	5.181884765625E-06	7.31074624127359E-06	272261.5	8.33528029033914E-05
2	499	114.068770712004	1.42135620117188	1.4215087890625	5.1910400390625E-06	7.37910841053235E-06	273838.9375	8.38751220726408E-05
2	500	114.16947871175	1.43142700195313	1.431884765625	5.206298828125E-06	7.45481975172879E-06	275029.3125	8.4398670878727E-05
2	501	114.270186711496	1.44149780273438	1.44195556640625	5.230712890625E-06	7.54245547796017E-06	275670.9375	8.49242132971995E-05
2	502	114.370894711241	1.45156860351563	1.4520263671875	5.267333984375E-06	7.64830747357337E-06	275666.28125	8.54528334457427E-05
2	503	114.471602710987	1.46163940429688	1.4617919921875	5.3131103515625E-06	7.76666183810448E-06	275129.25	8.59856008901261E-05
2	504	114.572310710733	1.47171020507813	1.4715576171875	5.37109375E-06	7.90387366578216E-06	273977.28125	8.65235924720764E-05
2	505	114.673018710478	1.48178100585938	1.48101806640625	5.4443359375E-06	8.06315983936656E-06	272029.15625	8.70681906235404E-05
2	506	114.773726710224	1.49185180664063	1.49200439453125	5.52978515625E-06	8.25046390673378E-06	269812.375	8.76207850524224E-05
2	507	114.87443470997	1.50192260742188	1.50177001953125	5.633544921875E-06	8.46028888190631E-06	266576.375	8.81829037098214E-05
2	508	114.975142709716	1.49185180664063	1.49139404296875	5.31005859375E-06	7.9193896453944E-06	280862.0625	8.87339556356892E-05
2	509	115.075850709461	1.48178100585938	1.48162841796875	5.0689697265625E-06	7.51032939660945E-06	292293.8125	8.92565803951584E-05
2	510	115.176558709207	1.47171020507813	1.47186279296875	4.8773193359375E-06	7.17874445399502E-06	301777.03125	8.97574136615731E-05
2	511	115.277266708953	1.46163940429688	1.4617919921875	4.72412109375E-06	6.90568231220823E-06	309431.53125	9.02408864931203E-05
2	512	115.377974708699	1.45156860351563	1.45172119140625	4.5977783203125E-06	6.6746920310834E-06	315744.0625	9.07102803466842E-05
2	513	115.478682708444	1.44149780273438	1.441650390625	4.4915771484375E-06	6.47528349873028E-06	320967.53125	9.11679671844468E-05
2	514	115.57939070819	1.43142700195313	1.4312744140625	4.4000244140625E-06	6.29764235782204E-06	325287.84375	9.16156932362355E-05
2	515	115.680098707936	1.42135620117188	1.4215087890625	4.31976318359375E-06	6.14058080827817E-06	329071.03125	9.2054768174421E-05
2	516	115.780806707682	1.41128540039063	1.41082763671875	4.246826171875E-06	5.99153918301454E-06	332207.5625	9.24861305975355E-05
2	517	115.881514707427	1.40121459960938	1.40106201171875	4.183349609375E-06	5.86113219469553E-06	334913.90625	9.29106245166622E-05
2	518	115.982222707173	1.39114379882813	1.3909912109375	4.129638671875E-06	5.74429077460081E-06	336831.21875	9.33292176341638E-05
2	519	116.082930706919	1.38107299804688	1.380615234375	4.0496826171875E-06	5.59105319553055E-06	340919.375	9.37410804908723E-05
2	520	116.183638706665	1.37100219726563	1.3714599609375	3.958740234375E-06	5.42925363333779E-06	346438.46875	9.41443358897232E-05
2	521	116.28434670641	1.36093139648438	1.3604736328125	3.858642578125E-06	5.2495815907605E-06	352578.28125	9.45379724726081E-05
2	522	116.385054706156	1.35086059570313	1.3507080078125	3.7432861328125E-06	5.05608659295831E-06	360834.84375	9.49207606026903E-05
2	523	116.485762705902	1.34078979492188	1.3409423828125	3.60870361328125E-06	4.8390634219686E-06	371585.625	9.52909613260999E-05
2	524	116.586470705647	1.33071899414063	1.33026123046875	3.4527587890625E-06	4.59307102573803E-06	385274.90625	9.56465373747051E-05
2	525	116.687178705393	1.32064819335938	1.32049560546875	3.27728271484375E-06	4.32763727076235E-06	402923.9375	9.59854223765433E-05
2	526	116.787886705139	1.31057739257813	1.31072998046875	3.08746337890625E-06	4.04683078158996E-06	424532.96875	9.63059137575328E-05
2	527	116.888594704885	1.30050659179688	1.3006591796875	2.89337158203125E-06	3.76329012397036E-06	449530.65625	9.66070729191415E-05
2	528	116.98930270463	1.29043579101563	1.290283203125	2.70751953125E-06	3.49346692019026E-06	476555.4375	9.68890963122249E-05
2	529	117.090010704376	1.28036499023438	1.280517578125	2.542724609375E-06	3.25600353789923E-06	503600.59375	9.71534682321362E-05
2	530	117.190718704122	1.27029418945313	1.27044677734375	2.4078369140625E-06	3.05902835862071E-06	527629.9375	9.74027498159558E-05
2	531	117.291426703868	1.26022338867188	1.259765625	2.30712890625E-06	2.90644152300956E-06	546031.75	9.76401643129066E-05
2	532	117.392134703613	1.25015258789063	1.25030517578125	2.2418212890625E-06	2.80296058008389E-06	557718.5	9.78692260105163E-05
2	533	117.492842703359	1.24008178710938	1.23992919921875	2.20550537109375E-06	2.73467048828024E-06	562197.3125	9.80931654339656E-05
2	534	117.593550703105	1.23001098632813	1.22955322265625	2.18963623046875E-06	2.6922743927571E-06	561533.125	9.83144782367162E-05
2	535	117.694258702851	1.21994018554688	1.21978759765625	2.18719482421875E-06	2.66791289504908E-06	557695	9.85348669928499E-05
2	536	117.794966702596	1.20986938476563	1.209716796875	2.19207763671875E-06	2.65179301095486E-06	551858.5625	9.87553794402629E-05
2	537	117.895674702342	1.19979858398438	1.19964599609375	2.198486328125E-06	2.63740525952016E-06	545669.0625	9.89764666883275E-05
2	538	117.996382702088	1.18972778320313	1.190185546875	2.20428466796875E-06	2.62350772572972E-06	539941.875	9.9198157840874E-05
2	539	118.097090701834	1.17965698242188	1.18011474609375	2.20733642578125E-06	2.6049101506942E-06	534632.9375	9.94203073787503E-05
2	540	118.197798701579	1.16958618164063	1.1700439453125	2.2064208984375E-06	2.58160912380845E-06	530290.5	9.96425515040755E-05
2	541	118.298506701325	1.15951538085938	1.15936279296875	2.20123291015625E-06	2.55202735388593E-06	526687.9375	9.98644973151386E-05
2	542	118.399214701071	1.14944458007813	1.14959716796875	2.1893310546875E-06	2.51684878094238E-06	525090.625	0.000100085577287246
2	543	118.499922700816	1.13937377929688	1.1395263671875	2.16888427734375E-06	2.47150092036463E-06	525397.5	0.000100305034720805
2	544	118.600630700562	1.12930297851563	1.12945556640625	2.137451171875E-06	2.4141559151758E-06	528412.375	0.000100521872809622
2	545	118.701338700308	1.11923217773438	1.11907958984375	2.09136962890625E-06	2.34040908253519E-06	535094.125	0.000100734810985159
2	546	118.802046700054	1.10916137695313	1.1090087890625	2.0257568359375E-06	2.24658219849516E-06	547454.0625	0.00010094212484546
2	547	118.902754699799	1.09909057617188	1.0992431640625	1.9354248046875E-06	2.12750251193938E-06	567959.625	0.000101141587947495
2	548	119.003462699545	1.08901977539063	1.0888671875	1.8157958984375E-06	1.97716053662589E-06	599663.875	0.000101330479083117
2	549	119.104170699291	1.07894897460938	1.07940673828125	1.6632080078125E-06	1.7952778534891E-06	648990.8125	0.000101505655038636
2	550	119.204878699037	1.06887817382813	1.0687255859375	1.478271484375E-06	1.57986653448461E-06	722956.25	0.000101663841633126
2	551	119.305586698782	1.05880737304688	1.05865478515625	1.265869140625E-06	1.34011838781589E-06	836306.6875	0.000101802019344177
2	552	119.406294698528	1.04873657226563	1.048583984375	1.0357666015625E-06	1.08608821847156E-06	1012374.8125	0.000101917918073013
2	553	119.507002698274	1.03866577148438	1.03851318359375	8.05053710937501E-07	8.36058859476907E-07	1289992.5	0.000102010613773018
2	554	119.60771069802	1.02859497070313	1.02813720703125	5.9234619140625E-07	6.09013113717083E-07	1735703.375	0.000102080979559105
2	555	119.708418697765	1.01852416992188	1.0186767578125	4.119873046875E-07	4.19681867924737E-07	2472592.75	0.000102131547464523
2	556	119.809126697511	1.00845336914063	1.00860595703125	2.79541015625E-07	2.8194673973303E-07	3608078.75	0.000102166370197665
2	557	119.909834697257	0.998382568359375	0.99884033203125	2.001953125E-07	1.99963139380088E-07	4989329.5	0.000102190526376944
2	558	120.010542697003	0.988311767578125	0.9881591796875	1.68457031249999E-07	1.66462356787633E-07	5865942.5	0.000102209087344818
2	559	120.111250696748	0.978240966796875	0.977783203125	1.739501953125E-07	1.70085570516676E-07	5621053	0.000102226331364363
2	560	120.211958696494	0.968170166015625	0.96832275390625	2.00805664062501E-07	1.94444695011953E-07	4822188.5	0.000102245205198415
2	561	120.31266669624	0.958099365234375	0.958251953125	2.33154296875E-07	2.23420556721976E-07	4109947.75	0.00010226705489913
2	562	120.413374695985	0.948028564453125	0.94818115234375	2.54211425781251E-07	2.41038463855148E-07	3729892	0.000102291596704163
2	563	120.514082695731	0.937957763671875	0.93841552734375	2.5054931640625E-07	2.35119358649172E-07	3745432.5	0.000102317011624109
2	564	120.614790695477	0.927886962890625	0.9283447265625	2.093505859375E-07	1.94349496496216E-07	4434402.5	0.000102340170997195
2	565	120.715498695223	0.917816162109375	0.9173583984375	1.24511718750001E-07	1.14221869296216E-07	7367647.5	0.000102356978459284
2	566	120.816206694968	0.907745361328125	0.9075927734375	-9.76562499999944E-09	-8.86321060988848E-09	-92937504	0.000102362755569629
2	567	120.916914694714	0.897674560546875	0.89752197265625	-1.8951416015625E-07	-1.7009311648053E-07	-4735910	0.000102352722024079
2	568	121.01762269446	0.887603759765625	0.8880615234375	-4.03442382812499E-07	-3.58281653234371E-07	-2201210.25	0.000102322868769988
2	569	121.118330694206	0.877532958984375	0.877685546875	-6.3751220703125E-07	-5.59535237698583E-07	-1376735.375	0.000102270452771336
2	570	121.219038693951	0.867462158203125	0.86761474609375	-8.697509765625E-07	-7.54608777242538E-07	-997543.875	0.000102194549981505
2	571	121.319746693697	0.857391357421875	0.85784912109375	-1.0797119140625E-06	-9.26229859032901E-07	-794516.6875	0.000102096390037332
2	572	121.420454693443	0.847320556640625	0.84747314453125	-1.24298095703125E-06	-1.0533930208112E-06	-681807	0.000101979436294641
2	573	121.521162693189	0.837249755859375	0.83770751953125	-1.34765625E-06	-1.12894167614286E-06	-621603.3125	0.000101848985650577
2	574	121.621870692934	0.827178955078125	0.82733154296875	-1.3885498046875E-06	-1.14879105694854E-06	-595824.1875	0.000101711208117194
2	575	121.72257869268	0.817108154296875	0.81787109375	-1.37359619140625E-06	-1.1234246812819E-06	-595423.25	0.000101572120911442
2	576	121.823286692426	0.807037353515625	0.80718994140625	-1.3201904296875E-06	-1.06564448287827E-06	-611419.3125	0.000101436475233641
2	577	121.923994692172	0.796966552734375	0.79742431640625	-1.24847412109375E-06	-9.95563596006832E-07	-638719.1875	0.000101307137811091
2	578	122.024702691917	0.786895751953125	0.78704833984375	-1.177978515625E-06	-9.27125995531242E-07	-668134.75	0.000101184952654876
2	579	122.125410691663	0.776824951171875	0.777587890625	-1.12579345703125E-06	-8.75403372901928E-07	-690702.0625	0.000101068952062633
2	580	122.226118691409	0.766754150390625	0.76690673828125	-1.1041259765625E-06	-8.46761679440533E-07	-694582.625	0.000100956662208773
2	581	122.326826691154	0.756683349609375	0.75653076171875	-1.12274169921875E-06	-8.49388584356348E-07	-673824.4375	0.000100844532425981
2	582	122.4275346909	0.746612548828125	0.746551513671875	-1.18804931640625E-06	-8.86939972133405E-07	-628384.3125	0.000100728175311815
2	583	122.528242690646	0.736541748046875	0.73651123046875	-1.30279541015625E-06	-9.59523390520189E-07	-565331.5	0.000100602752354462
2	584	122.628950690392	0.726470947265625	0.726409912109375	-1.4630126953125E-06	-1.06274683275842E-06	-496516.5	0.000100463483249769
2	585	122.729658690137	0.716400146484375	0.71630859375	-1.6595458984375E-06	-1.18874697818683E-06	-431629.28125	0.000100306249805726
2	586	122.830366689883	0.706329345703125	0.706298828125	-1.87530517578125E-06	-1.32452578327502E-06	-376631.4375	0.000100128250778653
2	587	122.931074689629	0.696258544921875	0.69622802734375	-2.088623046875E-06	-1.45415788210812E-06	-333343.09375	9.99286567093804E-05
2	588	123.031782689375	0.686187744140625	0.686126708984375	-2.27325439453125E-06	-1.55974043991591E-06	-301825.75	9.97090173768811E-05
2	589	123.13249068912	0.676116943359375	0.67608642578125	-2.4072265625E-06	-1.62749313403765E-06	-280857	9.94733345578425E-05
2	590	123.233198688866	0.666046142578125	0.666015625	-2.4737548828125E-06	-1.6475594293297E-06	-269232.65625	9.9227559985593E-05
2	591	123.333906688612	0.655975341796875	0.655914306640625	-2.471923828125E-06	-1.62137018833164E-06	-265345.6875	9.89785257843323E-05
2	592	123.434614688358	0.645904541015625	0.6458740234375	-2.408447265625E-06	-1.55555346736946E-06	-268170.3125	9.87327803159133E-05
2	593	123.535322688103	0.635833740234375	0.635833740234375	-2.30133056640625E-06	-1.46326362937543E-06	-276289.625	9.8495620477479E-05
2	594	123.636030687849	0.625762939453125	0.625762939453125	-2.17010498046875E-06	-1.35797120037751E-06	-288356.09375	9.8270465969108E-05
2	595	123.736738687595	0.615692138671875	0.61566162109375	-2.03033447265625E-06	-1.2499989452408E-06	-303231.625	9.80589538812637E-05
2	596	123.837446687341	0.605621337890625	0.605621337890625	-1.89300537109375E-06	-1.14644444693113E-06	-319925.84375	9.7861404356081E-05
2	597	123.938154687086	0.595550537109375	0.59552001953125	-1.76239013671875E-06	-1.04953858226509E-06	-337904.78125	9.76773371803574E-05
2	598	124.038862686832	0.585479736328125	0.58544921875	-1.64215087890625E-06	-9.61395926424302E-07	-356513.65625	9.75059083430097E-05
2	599	124.139570686578	0.575408935546875	0.575469970703125	-1.53228759765625E-06	-8.81785467754526E-07	-375562.65625	9.73460628301837E-05
2	600	124.240278686323	0.565338134765625	0.565338134765625	-1.43218994140625E-06	-8.09671576007531E-07	-394736.84375	9.71967892837711E-05
2	601	124.340986686069	0.555267333984375	0.5552978515625	-1.34185791015625E-06	-7.45130819268525E-07	-413827.625	9.7057105449494E-05
2	602	124.441694685815	0.545196533203125	0.545166015625	-1.25885009765625E-06	-6.86282248807402E-07	-433066.6875	9.69261454883963E-05
2	603	124.542402685561	0.535125732421875	0.535125732421875	-1.18408203125E-06	-6.33632737390144E-07	-451933.03125	9.68031381489709E-05
2	604	124.643110685306	0.525054931640625	0.52508544921875	-1.11602783203125E-06	-5.86009946346167E-07	-470494.96875	9.66873121797107E-05
2	605	124.743818685052	0.514984130859375	0.5150146484375	-1.05316162109375E-06	-5.42393649993755E-07	-489017.71875	9.65780855040066E-05
2	606	124.844526684798	0.504913330078125	0.50494384765625	-9.9609375E-07	-5.02971374771732E-07	-506924.03125	9.64748978731222E-05
2	607	124.945234684544	0.494842529296875	0.494873046875	-9.42382812500001E-07	-4.6635983608212E-07	-525129.5625	9.6377290901728E-05
2	608	125.045942684289	0.484771728515625	0.484832763671875	-8.93554687500001E-07	-4.33224585094649E-07	-542588.8125	9.62848425842822E-05
2	609	125.146650684035	0.474700927734375	0.4747314453125	-8.47473144531249E-07	-4.02322143600031E-07	-560172.875	9.61971745709889E-05
2	610	125.247358683781	0.464630126953125	0.46466064453125	-8.0413818359375E-07	-3.73651346308179E-07	-577836.8125	9.61140103754587E-05
2	611	125.348066683527	0.454559326171875	0.454620361328125	-7.647705078125E-07	-3.47680241929993E-07	-594453.3125	9.60350080276839E-05
2	612	125.448774683272	0.444488525390625	0.444549560546875	-7.27233886718751E-07	-3.23291516224344E-07	-611288.3125	9.59598837653175E-05
2	613	125.549482683018	0.434417724609375	0.4344482421875	-6.9244384765625E-07	-3.00831004551583E-07	-627412.9375	9.58883974817581E-05
2	614	125.650190682764	0.424346923828125	0.42437744140625	-6.60400390625E-07	-2.80259001783634E-07	-642606.3125	9.58202726906165E-05
2	615	125.75089868251	0.414276123046875	0.414276123046875	-6.2896728515625E-07	-2.60566110910077E-07	-658660.875	9.57553493208252E-05
2	616	125.851606682255	0.404205322265625	0.404266357421875	-5.9967041015625E-07	-2.42426551722019E-07	-674147.625	9.56934818532318E-05
2	617	125.952314682001	0.394134521484375	0.394134521484375	-5.71594238281251E-07	-2.25285020860611E-07	-689535.5	9.56345029408112E-05
2	618	126.053022681747	0.384063720703125	0.38409423828125	-5.450439453125E-07	-2.09348229418538E-07	-704703.3125	9.55782743403688E-05
2	619	126.153730681492	0.373992919921875	0.3740234375	-5.19409179687499E-07	-1.9427120889759E-07	-720094	9.55246796365827E-05
2	620	126.254438681238	0.363922119140625	0.363983154296875	-4.94995117187499E-07	-1.80169877239678E-07	-735326.75	9.54735951381736E-05
2	621	126.355146680984	0.353851318359375	0.353851318359375	-4.7271728515625E-07	-1.672716223311E-07	-748547.5	9.54248680500314E-05
2	622	126.45585468073	0.343780517578125	0.343841552734375	-4.51049804687501E-07	-1.55089665554442E-07	-762313.9375	9.53783528530039E-05
2	623	126.556562680475	0.333709716796875	0.333740234375	-4.302978515625E-07	-1.43607692848491E-07	-775602.875	9.5333976787515E-05
2	624	126.657270680221	0.323638916015625	0.323699951171875	-4.11071777343749E-07	-1.33063906559983E-07	-787453.625	9.52916088863276E-05
2	625	126.757978679967	0.313568115234375	0.313629150390625	-3.924560546875E-07	-1.2308565544572E-07	-799144.625	9.52511472860351E-05
2	626	126.858686679713	0.303497314453125	0.303497314453125	-3.753662109375E-07	-1.13922631328478E-07	-808536.625	9.52124828472733E-05
2	627	126.959394679458	0.293426513671875	0.29345703125	-3.582763671875E-07	-1.051387172879E-07	-819080.0625	9.51755428104661E-05
2	628	127.060102679204	0.283355712890625	0.28338623046875	-3.436279296875E-07	-9.73794271885708E-08	-824689.1875	9.51401962083764E-05
2	629	127.16081067895	0.273284912109375	0.273345947265625	-3.2928466796875E-07	-9.00086263300182E-08	-830120.5	9.51063120737672E-05
2	630	127.261518678696	0.263214111328125	0.263275146484375	-3.16162109375E-07	-8.323762301643E-08	-832722	9.50738176470622E-05
2	631	127.362226678441	0.253143310546875	0.253204345703125	-3.04260253906249E-07	-7.70400205851729E-08	-832196.5625	9.50425746850669E-05
2	632	127.462934678187	0.243072509765625	0.24310302734375	-2.94189453125E-07	-7.15183432475897E-08	-826348.5625	9.5012437668629E-05
2	633	127.563642677933	0.233001708984375	0.233062744140625	-2.8564453125E-07	-6.65730937043918E-08	-815918.8125	9.49832392507233E-05
2	634	127.664350677678	0.222930908203125	0.2230224609375	-2.78625488281251E-07	-6.21397404643176E-08	-800438.125	9.49548266362399E-05
2	635	127.765058677424	0.212860107421875	0.212890625	-2.728271484375E-07	-5.80823424911614E-08	-780313.1875	9.49270615819842E-05
2	636	127.86576667717	0.202789306640625	0.202850341796875	-2.69775390625E-07	-5.47240261994375E-08	-751923.125	9.48997403611429E-05
2	637	127.966474676916	0.192718505859375	0.19281005859375	-2.7008056640625E-07	-5.20742489129589E-08	-713898.3125	9.48725573834963E-05
2	638	128.067182676661	0.182647705078125	0.182708740234375	-2.734375E-07	-4.99594179359519E-08	-668192	9.48451852309518E-05
2	639	128.167890676407	0.172576904296875	0.172698974609375	-2.81372070312499E-07	-4.85926641147216E-08	-613774.4375	9.48172528296709E-05
2	640	128.268598676153	0.162506103515625	0.162567138671875	-2.95410156250001E-07	-4.80239847888697E-08	-550309.9375	9.47882072068751E-05
2	641	128.369306675899	0.152435302734375	0.15252685546875	-3.16162109375E-07	-4.82232103138358E-08	-482432.4375	9.47574080782942E-05
2	642	128.470014675644	0.142364501953125	0.1424560546875	-3.460693359375E-07	-4.92996719003713E-08	-411640.21875	9.47240623645484E-05
2	643	128.57072267539	0.132293701171875	0.13238525390625	-3.887939453125E-07	-5.14705824627981E-08	-340502.375	9.46870641200803E-05
2	644	128.671430675136	0.122222900390625	0.122344970703125	-4.4708251953125E-07	-5.4698293894262E-08	-273651.875	9.46449727052823E-05
2	645	128.772138674882	0.112152099609375	0.1123046875	-5.2642822265625E-07	-5.91203566102649E-08	-213333.34375	9.45959545788355E-05
2	646	128.872846674627	0.102081298828125	0.1021728515625	-6.304931640625E-07	-6.44192823529011E-08	-162052.28125	9.45376959862188E-05
2	647	128.973554674373	0.092010498046875	0.09210205078125	-7.66906738281251E-07	-7.06336820144315E-08	-120095.5	9.4467330200132E-05
2	648	129.074262674119	0.081939697265625	0.082061767578125	-9.37805175781251E-07	-7.69579528991926E-08	-87504.0703125	9.43814957281575E-05
2	649	129.174970673865	0.071868896484375	0.071929931640625	-1.14349365234375E-06	-8.22514181209044E-08	-62903.66015625	9.42766928346828E-05
2	650	129.27567867361	0.061798095703125	0.061920166015625	-1.375732421875E-06	-8.51855759265163E-08	-45008.875	9.41498365136795E-05
2	651	129.376386673356	0.051727294921875	0.051849365234375	-1.622314453125E-06	-8.41159675246672E-08	-31960.123046875	9.39988749451004E-05
2	652	129.477094673102	0.041656494140625	0.041796875	-1.864013671875E-06	-7.79099451619913E-08	-22423.052734375	9.38233206397854E-05
2	653	129.577802672847	0.031585693359375	0.031707763671875	-2.08038330078125E-06	-6.59643006883925E-08	-15241.3095703125	9.3624708824791E-05
2	654	129.678510672593	0.021514892578125	0.0216552734375	-2.24945068359375E-06	-4.87124651726845E-08	-9626.9169921875	9.3406684754882E-05
2	655	129.779218672339	0.011444091796875	0.0115875244140625	-2.35687255859375E-06	-2.73103193393354E-08	-4916.4833984375	9.31747345020995E-05
2	656	129.879926672085	0.001373291015625	0.00151672363281249	-2.398681640625E-06	-3.63813712489502E-09	-632.315551757813	9.29352754610591E-05
2	657	129.98063467183	-0.008697509765625	-0.0085418701171875	-2.3828125E-06	2.0353674301532E-08	3584.78491210938	9.26945067476481E-05
2	658	130.081342671576	-0.018768310546875	-0.0186126708984375	-2.32330322265625E-06	4.32428777230598E-08	8011.29736328125	9.24575360841118E-05
2	659	130.182050671322	-0.028839111328125	-0.0286712646484375	-2.23968505859375E-06	6.4214603412438E-08	12801.4716796875	9.22277686186135E-05
2	660	130.282758671068	-0.038909912109375	-0.038739013671875	-2.1441650390625E-06	8.30628366088604E-08	18067.1796875	9.20070233405568E-05
2	661	130.383466670813	-0.048980712890625	-0.0488006591796875	-2.04833984375E-06	9.99603315676723E-08	23824.4921875	9.17959187063389E-05
2	662	130.484174670559	-0.059051513671875	-0.058929443359375	-1.9580078125E-06	1.15384303001065E-07	30096.634765625	9.1594185505528E-05
2	663	130.584882670305	-0.069122314453125	-0.06903076171875	-1.8743896484375E-06	1.2939054272465E-07	36828.39453125	9.1401205281727E-05
2	664	130.685590670051	-0.079193115234375	-0.079132080078125	-1.80023193359375E-06	1.42456087814935E-07	43956.60546875	9.12161704036407E-05
2	665	130.786298669796	-0.089263916015625	-0.089141845703125	-1.734619140625E-06	1.54627144866026E-07	51389.8671875	9.10381786525249E-05
2	666	130.887006669542	-0.099334716796875	-0.0992431640625	-1.67724609375E-06	1.66455208727712E-07	59170.30859375	9.08663787413388E-05
2	667	130.987714669288	-0.109405517578125	-0.10931396484375	-1.62689208984375E-06	1.7784202555049E-07	67191.8984375	9.06999994185753E-05
2	668	131.088422669034	-0.119476318359375	-0.119384765625	-1.583251953125E-06	1.890161627216E-07	75404.78125	9.05383567442186E-05
2	669	131.189130668779	-0.129547119140625	-0.129425048828125	-1.54571533203125E-06	2.00054287802232E-07	83731.4921875	9.03808031580411E-05
2	670	131.289838668525	-0.139617919921875	-0.1395263671875	-1.51397705078125E-06	2.11239722602841E-07	92158.8359375	9.02267347555608E-05
2	671	131.390546668271	-0.149688720703125	-0.149505615234375	-1.4862060546875E-06	2.2219613526886E-07	100595.484375	9.00756640476175E-05
2	672	131.491254668016	-0.159759521484375	-0.159576416015625	-1.46331787109375E-06	2.33511016745069E-07	109051.09375	8.99271399248391E-05
2	673	131.591962667762	-0.169830322265625	-0.169647216796875	-1.444091796875E-06	2.44986125608193E-07	117476.7578125	8.97807403816842E-05
2	674	131.692670667508	-0.179901123046875	-0.179718017578125	-1.42791748046875E-06	2.5662248503977E-07	125860.2265625	8.96361234481446E-05
2	675	131.793378667254	-0.189971923828125	-0.189788818359375	-1.416015625E-06	2.68743917786196E-07	134030.171875	8.94929253263399E-05
2	676	131.894086666999	-0.200042724609375	-0.19989013671875	-1.407470703125E-06	2.81339509911049E-07	142020.8125	8.93507458386011E-05
2	677	131.994794666745	-0.189971923828125	-0.18975830078125	-1.2506103515625E-06	2.3731369935831E-07	151732.546875	8.92169045982882E-05
