Potential - Start -0.2 V, Upper Vertex 1.5 V, Lower Vertex -0.2 V, Stop -0.19 V; Scan - # end cross 5, Rate 0.1 Vps, Step 0.01 V 
Scan	Index	Time (s)	Potential applied (V)	WE(1).Potential (V)	WE(1).Current (A)	WE(1).Power (W)	WE(1).Resistance (Ω)	WE(1).Charge (C)
1	1	58.4714288523738	-0.189971923828125	-0.189727783203125	-1.91650390625001E-07	3.63614027776293E-08	989968.1875	0
1	2	58.5721368521196	-0.179901123046875	-0.17974853515625	-1.6021728515625E-07	2.87988211056245E-08	1121904.75	-1.77179444449393E-08
1	3	58.6728448518653	-0.169830322265625	-0.169647216796875	-1.35192871093751E-07	2.29350938241168E-08	1254853.375	-3.25930287203846E-08
1	4	58.773552851611	-0.159759521484375	-0.15966796875	-1.129150390625E-07	1.80289152496016E-08	1414054	-4.50862529532969E-08
1	5	58.8742608513568	-0.149688720703125	-0.149566650390625	-9.33837890624997E-08	1.39671003651642E-08	1601634	-5.54742243252804E-08
1	6	58.9749688511025	-0.139617919921875	-0.139556884765625	-7.56835937500006E-08	1.05621662527255E-08	1843951.625	-6.39874428998155E-08
1	7	59.0756768508483	-0.129547119140625	-0.129425048828125	-5.67626953124997E-08	7.3465145078444E-09	2280107.5	-7.0656639650224E-08
1	8	59.176384850594	-0.119476318359375	-0.11944580078125	-3.75366210937506E-08	4.48359172011692E-09	3182114	-7.54049906959153E-08
1	9	59.2770928503397	-0.109405517578125	-0.109344482421875	-1.73950195312494E-08	1.90204940686556E-09	6285965	-7.81710198793917E-08
1	10	59.3778008500855	-0.099334716796875	-0.09930419921875	6.71386718749945E-09	-6.66715183061939E-10	-14790910	-7.87088580977979E-08
1	11	59.4785088498312	-0.089263916015625	-0.089141845703125	3.509521484375E-08	-3.12845238603643E-09	-2540000	-7.6603605236869E-08
1	12	59.5792168495769	-0.079193115234375	-0.0792236328125	7.08007812499994E-08	-5.6090949662746E-09	-1118965.5	-7.12713159600753E-08
1	13	59.6799248493227	-0.069122314453125	-0.069122314453125	1.171875E-07	-8.10027067643659E-09	-589843.75	-6.18053519474415E-08
1	14	59.7806328490684	-0.059051513671875	-0.058990478515625	1.77612304687499E-07	-1.04774349196646E-08	-332130.59375	-4.69610057507452E-08
1	15	59.8813408488141	-0.048980712890625	-0.048834228515625	2.5909423828125E-07	-1.26526664701032E-08	-188480.5625	-2.49710829791638E-08
1	16	59.9820488485599	-0.038909912109375	-0.038775634765625	3.67431640625E-07	-1.42473943753885E-08	-105531.5625	6.57699983364068E-09
1	17	60.0827568483056	-0.028839111328125	-0.0287017822265625	5.0628662109375E-07	-1.45313272525982E-08	-56690.78125	5.05722077548398E-08
1	18	60.1834648480514	-0.018768310546875	-0.018621826171875	6.79931640625001E-07	-1.26615695705823E-08	-27387.79296875	1.10303041367388E-07
1	19	60.2841728477971	-0.008697509765625	-0.008563232421875	8.85925292968751E-07	-7.5863839654744E-09	-9665.86328125	1.89150199503274E-07
1	20	60.3848808475428	0.001373291015625	0.001507568359375	1.11480712890625E-06	1.68064795413869E-09	1352.31323242188	2.89895069727208E-07
1	21	60.4855888472886	0.011444091796875	0.0115447998046875	1.35101318359375E-06	1.55971751070183E-08	8545.2900390625	4.14058973774445E-07
1	22	60.5862968470343	0.021514892578125	0.0215972900390625	1.571044921875E-06	3.39303127816493E-08	13747.0869140625	5.61196316084533E-07
1	23	60.68700484678	0.031585693359375	0.031695556640625	1.7535400390625E-06	5.55794237300233E-08	18075.18359375	7.28602458366368E-07
1	24	60.7877128465258	0.041656494140625	0.041741943359375	1.8841552734375E-06	7.86483056458565E-08	22154.1953125	9.1177497552053E-07
1	25	60.8884208462715	0.051727294921875	0.0517578125	1.95465087890625E-06	1.01168446065003E-07	26479.314453125	1.10507414774474E-06
1	26	60.9891288460173	0.061798095703125	0.06182861328125	1.97174072265625E-06	1.21909991435132E-07	31357.376953125	1.30278374399495E-06
1	27	61.089836845763	0.071868896484375	0.071929931640625	1.94732666015625E-06	1.40071065857228E-07	36937.78515625	1.50012442645675E-06
1	28	61.1905448455087	0.081939697265625	0.08203125	1.89697265625E-06	1.55611033392233E-07	43243.2421875	1.69370025560056E-06
1	29	61.2912528452545	0.092010498046875	0.09210205078125	1.83258056640625E-06	1.68784424658952E-07	50258.1171875	1.88149817859085E-06
1	30	61.3919608450002	0.102081298828125	0.102142333984375	1.76239013671875E-06	1.80014637862769E-07	57956.7109375	2.06251934287138E-06
1	31	61.4926688447459	0.112152099609375	0.11212158203125	1.69281005859375E-06	1.89800530847606E-07	66234	2.23650249608909E-06
1	32	61.5933768444917	0.122222900390625	0.122283935546875	1.627197265625E-06	1.98980075083455E-07	75150.0390625	2.40367808146402E-06
1	33	61.6940848442374	0.132293701171875	0.13238525390625	1.5673828125E-06	2.07498374038551E-07	84462.6171875	2.56453790825617E-06
1	34	61.7947928439831	0.142364501953125	0.142425537109375	1.51275634765625E-06	2.15455131069575E-07	94149.6875	2.71963540399156E-06
1	35	61.8955008437289	0.152435302734375	0.152496337890625	1.463623046875E-06	2.23197147874998E-07	104191	2.86950785266527E-06
1	36	61.9962088434746	0.162506103515625	0.162567138671875	1.41998291015625E-06	2.30842545079213E-07	114485.2890625	3.01470890917699E-06
1	37	62.0969168432204	0.172576904296875	0.172637939453125	1.380615234375E-06	2.38346572700721E-07	125044.2109375	3.15573038278671E-06
1	38	62.1976248429661	0.182647705078125	0.1826171875	1.34613037109375E-06	2.4582655555605E-07	135660.84375	3.29303293256089E-06
1	39	62.2983328427118	0.192718505859375	0.192779541015625	1.31500244140625E-06	2.53505561431666E-07	146600.140625	3.4270315154572E-06
1	40	62.3990408424576	0.202789306640625	0.202789306640625	1.28692626953125E-06	2.60974871935105E-07	157576.484375	3.55804900209478E-06
1	41	62.4997488422033	0.212860107421875	0.212921142578125	1.26129150390625E-06	2.6855562396122E-07	168812	3.68636210623663E-06
1	42	62.600456841949	0.222930908203125	0.2230224609375	1.2384033203125E-06	2.76191769899015E-07	180088.703125	3.81223162548849E-06
1	43	62.7011648416948	0.233001708984375	0.233001708984375	1.217041015625E-06	2.83572632042706E-07	191449.34375	3.93587333746837E-06
1	44	62.8018728414405	0.243072509765625	0.24310302734375	1.19842529296875E-06	2.91340796820805E-07	202852.0625	4.05750142817851E-06
1	45	62.9025808411862	0.253143310546875	0.253143310546875	1.18133544921875E-06	2.99047144380893E-07	214285.71875	4.1773319026106E-06
1	46	63.003288840932	0.263214111328125	0.26324462890625	1.16607666015625E-06	3.06963414686834E-07	225752.421875	4.29553347203182E-06
1	47	63.1039968406777	0.273284912109375	0.2733154296875	1.15203857421875E-06	3.14869907924731E-07	237245.046875	4.41225984104676E-06
1	48	63.2047048404235	0.283355712890625	0.2833251953125	1.138916015625E-06	3.22683604281337E-07	248767.421875	4.52761878477759E-06
1	49	63.3054128401692	0.293426513671875	0.293365478515625	1.12701416015625E-06	3.30627045741494E-07	260303.28125	4.64171716885176E-06
1	50	63.4061208399149	0.303497314453125	0.30352783203125	1.1163330078125E-06	3.38838134439357E-07	271897.21875	4.75467868454871E-06
1	51	63.5068288396607	0.313568115234375	0.313629150390625	1.10687255859375E-06	3.47147505408429E-07	283347.125	4.86662611365318E-06
1	52	63.6075368394064	0.323638916015625	0.32366943359375	1.09771728515625E-06	3.55297515852726E-07	294856.84375	4.97763585372013E-06
1	53	63.7082448391521	0.333709716796875	0.333770751953125	1.08978271484375E-06	3.63737598263469E-07	306272.75	5.0877852117992E-06
1	54	63.8089528388979	0.343780517578125	0.34381103515625	1.08367919921875E-06	3.72580871044192E-07	317262.75	5.19722789249499E-06
1	55	63.9096608386436	0.353851318359375	0.35382080078125	1.0772705078125E-06	3.81160703000205E-07	328441.9375	5.30604029336246E-06
1	56	64.0103688383894	0.363922119140625	0.363983154296875	1.0723876953125E-06	3.90331052813053E-07	339413.78125	5.41428426004131E-06
1	57	64.1110768381351	0.373992919921875	0.37396240234375	1.068115234375E-06	3.99434952669253E-07	350114.28125	5.52206711290637E-06
1	58	64.2117848378808	0.384063720703125	0.384063720703125	1.064453125E-06	4.08817783181803E-07	360808.5	5.62945024285E-06
1	59	64.3124928376266	0.394134521484375	0.3941650390625	1.06231689453125E-06	4.187281774648E-07	371042.8125	5.73654187974171E-06
1	60	64.4132008373723	0.404205322265625	0.40423583984375	1.05987548828125E-06	4.28439648203494E-07	381399.375	5.84340250497917E-06
1	61	64.513908837118	0.414276123046875	0.414276123046875	1.05804443359375E-06	4.38322530271762E-07	391548.90625	5.95004848946701E-06
1	62	64.6146168368638	0.424346923828125	0.42425537109375	1.0565185546875E-06	4.48233635097495E-07	401559.8125	6.05652530794032E-06
1	63	64.7153248366095	0.434417724609375	0.434417724609375	1.0552978515625E-06	4.58440098327628E-07	411654.125	6.16286342847161E-06
1	64	64.8160328363552	0.444488525390625	0.4444580078125	1.05438232421875E-06	4.68628655880821E-07	421534	6.26909422862809E-06
1	65	64.916740836101	0.454559326171875	0.45452880859375	1.0546875E-06	4.79385846574587E-07	430960.65625	6.37529456071206E-06
1	66	65.0174488358467	0.464630126953125	0.464599609375	1.05438232421875E-06	4.89865612962603E-07	440636.75	6.48149443804868E-06
1	67	65.1181568355925	0.474700927734375	0.474700927734375	1.05499267578125E-06	5.00805981573649E-07	449956.65625	6.58771023154259E-06
1	68	65.2188648353382	0.484771728515625	0.48480224609375	1.055908203125E-06	5.11906705469301E-07	459132.9375	6.69400242259144E-06
1	69	65.3195728350839	0.494842529296875	0.494842529296875	1.05743408203125E-06	5.23263338436664E-07	467965.40625	6.80041739542503E-06
1	70	65.4202808348297	0.504913330078125	0.504913330078125	1.0595703125E-06	5.34991158929188E-07	476526.5	6.90701699568308E-06
1	71	65.5209888345754	0.514984130859375	0.51495361328125	1.0614013671875E-06	5.46572437087889E-07	485163.90625	7.01381668477552E-06
1	72	65.6216968343211	0.525054931640625	0.5250244140625	1.0650634765625E-06	5.59184286430536E-07	492951.3125	7.12089240550995E-06
1	73	65.7224048340669	0.535125732421875	0.535064697265625	1.0687255859375E-06	5.71837290408439E-07	500656.8125	7.2283373810933E-06
1	74	65.8231128338126	0.545196533203125	0.545135498046875	1.07330322265625E-06	5.85095676797209E-07	507904.46875	7.33619708626065E-06
1	75	65.9238208335584	0.555267333984375	0.5552978515625	1.0784912109375E-06	5.98883843849762E-07	514884	7.44454837331432E-06
1	76	66.0245288333041	0.565338134765625	0.565338134765625	1.085205078125E-06	6.13507836533245E-07	520950.5	7.5534994721238E-06
1	77	66.1252368330498	0.575408935546875	0.57537841796875	1.09375E-06	6.29320140888012E-07	526060.25	7.66321863920894E-06
1	78	66.2259448327956	0.585479736328125	0.58551025390625	1.104736328125E-06	6.46834394046891E-07	530000	7.77392142481403E-06
1	79	66.3266528325413	0.595550537109375	0.59552001953125	1.11907958984375E-06	6.66434289087192E-07	532151.625	7.88589932199102E-06
1	80	66.427360832287	0.605621337890625	0.6055908203125	1.13739013671875E-06	6.88793022618484E-07	532439	7.99952158558881E-06
1	81	66.5280688320328	0.615692138671875	0.61566162109375	1.16180419921875E-06	7.15278247298556E-07	529918.5625	8.11529480415629E-06
1	82	66.6287768317785	0.625762939453125	0.625732421875	1.19354248046875E-06	7.46838168197428E-07	524264.9375	8.23389564175159E-06
1	83	66.7294848315242	0.635833740234375	0.635772705078125	1.23504638671875E-06	7.85208783327107E-07	514776.375	8.35618538985727E-06
1	84	66.83019283127	0.645904541015625	0.645843505859375	1.2872314453125E-06	8.31350007501896E-07	501730.6875	8.48319177748635E-06
1	85	66.9309008310157	0.655975341796875	0.656005859375	1.34796142578125E-06	8.84270605183701E-07	486665.15625	8.61588432599092E-06
1	86	67.0316088307615	0.666046142578125	0.665924072265625	1.41387939453125E-06	9.41536256959807E-07	470990.75	8.75495425134432E-06
1	87	67.1323168305072	0.676116943359375	0.676116943359375	1.478271484375E-06	9.99484313979337E-07	457369.96875	8.9005852714763E-06
1	88	67.2330248302529	0.686187744140625	0.686126708984375	1.53594970703125E-06	1.05385606730124E-06	446711.71875	9.05236356629757E-06
1	89	67.3337328299987	0.696258544921875	0.69622802734375	1.58172607421875E-06	1.10124199181882E-06	440169.8125	9.2093514467706E-06
1	90	67.4344408297444	0.706329345703125	0.706268310546875	1.61529541015625E-06	1.14083195512649E-06	437237.875	9.37033382797381E-06
1	91	67.5351488294901	0.716400146484375	0.71636962890625	1.63665771484375E-06	1.17245178898884E-06	437702.78125	9.53408289205981E-06
1	92	67.6358568292359	0.726470947265625	0.72637939453125	1.6522216796875E-06	1.20013976356859E-06	439638	9.69969096331624E-06
1	93	67.7365648289816	0.736541748046875	0.73651123046875	1.6668701171875E-06	1.22766846288869E-06	441852.8125	9.86682061920874E-06
1	94	67.8372728287274	0.746612548828125	0.746490478515625	1.68731689453125E-06	1.25956592000875E-06	442412.75	1.00357174233068E-05
1	95	67.9379808284731	0.756683349609375	0.7568359375	1.72027587890625E-06	1.30196656300541E-06	439950.34375	1.0207303603238E-05
1	96	68.0386888282188	0.766754150390625	0.7672119140625	1.7724609375E-06	1.35985317228915E-06	432851.25	1.03831762316986E-05
1	97	68.1393968279646	0.776824951171875	0.77728271484375	1.851806640625E-06	1.43937722896226E-06	419742.9375	1.05656727100722E-05
1	98	68.2401048277103	0.786895751953125	0.787353515625	1.96533203125E-06	1.54741098867817E-06	400621.15625	1.07578807728714E-05
1	99	68.340812827456	0.796966552734375	0.797119140625	2.119140625E-06	1.68920757914748E-06	376152.0625	1.09635502667516E-05
1	100	68.4415208272018	0.807037353515625	0.80718994140625	2.3150634765625E-06	1.86869601748185E-06	348668.59375	1.11868303065421E-05
1	101	68.5422288269475	0.817108154296875	0.81756591796875	2.54913330078125E-06	2.0840845991188E-06	320723.09375	1.14317626866978E-05
1	102	68.6429368266932	0.827178955078125	0.82733154296875	2.8106689453125E-06	2.32535489885777E-06	294353.96875	1.17016497824807E-05
1	103	68.743644826439	0.837249755859375	0.8367919921875	3.0804443359375E-06	2.57769102063321E-06	271646.53125	1.19982905744109E-05
1	104	68.8443528261847	0.847320556640625	0.84747314453125	3.33465576171875E-06	2.82603127743641E-06	254141.125	1.23213167171343E-05
1	105	68.9450608259305	0.857391357421875	0.8575439453125	3.54827880859375E-06	3.04280501950416E-06	241678.859375	1.26678996821283E-05
1	106	69.0457688256762	0.867462158203125	0.86761474609375	3.70452880859375E-06	3.21410379910958E-06	234203.8125	1.303310818912E-05
1	107	69.1464768254219	0.877532958984375	0.877685546875	3.79119873046875E-06	3.32748027176422E-06	231506.078125	1.3410547580861E-05
1	108	69.2471848251677	0.887603759765625	0.887451171875	3.8134765625E-06	3.38427412316378E-06	232714.46875	1.37934739541379E-05
1	109	69.3478928249134	0.897674560546875	0.89752197265625	3.78387451171875E-06	3.39611051458633E-06	237196.546875	1.41760301630711E-05
1	110	69.4486008246591	0.907745361328125	0.908203125	3.72039794921875E-06	3.37887695422978E-06	244114.515625	1.45539006553008E-05
1	111	69.5493088244049	0.917816162109375	0.91796875	3.6383056640625E-06	3.33985076395038E-06	252306.671875	1.49244406202342E-05
1	112	69.6500168241506	0.927886962890625	0.9283447265625	3.55010986328125E-06	3.29572571899917E-06	261497.46875	1.5286406778614E-05
1	113	69.7507248238963	0.937957763671875	0.93780517578125	3.46588134765625E-06	3.25032146974991E-06	270582.03125	1.56396890815813E-05
1	114	69.8514328236421	0.948028564453125	0.94818115234375	3.38836669921875E-06	3.21278525916568E-06	279834.28125	1.59848277689889E-05
1	115	69.9521408233878	0.958099365234375	0.95855712890625	3.321533203125E-06	3.18387924380659E-06	288588.75	1.63226977747399E-05
1	116	70.0528488231336	0.968170166015625	0.9686279296875	3.2672119140625E-06	3.1647127798351E-06	296469.28125	1.66544687090209E-05
1	117	70.1535568228793	0.978240966796875	0.97869873046875	3.22509765625E-06	3.15639886139252E-06	303463.28125	1.69813829415943E-05
1	118	70.254264822625	0.988311767578125	0.98846435546875	3.194580078125E-06	3.15772831527283E-06	309419.1875	1.73046391864773E-05
1	119	70.3549728223708	0.998382568359375	0.99853515625	3.1732177734375E-06	3.16856949211797E-06	314675.90625	1.76252833625767E-05
1	120	70.4556808221165	1.00845336914063	1.00860595703125	3.15704345703125E-06	3.18421280098846E-06	319478	1.79440357896965E-05
1	121	70.5563888218622	1.01852416992188	1.01806640625	3.14178466796875E-06	3.19854530062003E-06	324040.8125	1.82612075150246E-05
1	122	70.657096821608	1.02859497070313	1.02874755859375	3.123779296875E-06	3.21358015753503E-06	329327.875	1.8576703951112E-05
1	123	70.7578048213537	1.03866577148438	1.03851318359375	3.1011962890625E-06	3.22063306157361E-06	334875.03125	1.88901558431098E-05
1	124	70.8585128210995	1.04873657226563	1.048583984375	3.07464599609375E-06	3.22402456731652E-06	341042.1875	1.92011339095188E-05
1	125	70.9592208208452	1.05880737304688	1.05926513671875	3.04473876953125E-06	3.22518553730333E-06	347900.1875	1.95092707144795E-05
1	126	71.0599288205909	1.06887817382813	1.0687255859375	3.0126953125E-06	3.21974448524998E-06	354740.6875	1.98142861336237E-05
1	127	71.1606368203367	1.07894897460938	1.07879638671875	2.98126220703125E-06	3.21617494591919E-06	361858.9375	2.01161055883858E-05
1	128	71.2613448200824	1.08901977539063	1.08917236328125	2.95074462890625E-06	3.2138693768502E-06	369117.8125	2.04148054763209E-05
1	129	71.3620528198281	1.09909057617188	1.09893798828125	2.921142578125E-06	3.21015454574081E-06	376201.40625	2.07104785658885E-05
1	130	71.4627608195739	1.10916137695313	1.10870361328125	2.8955078125E-06	3.21026004712621E-06	382904.71875	2.1003370420658E-05
1	131	71.5634688193196	1.11923217773438	1.11907958984375	2.87109375E-06	3.21298239214229E-06	389774.65625	2.12937429751037E-05
1	132	71.6641768190653	1.12930297851563	1.12884521484375	2.84942626953125E-06	3.21656125379377E-06	396165.8125	2.1581792680081E-05
1	133	71.7648848188111	1.13937377929688	1.13922119140625	2.82958984375E-06	3.2235284379567E-06	402610.03125	2.1867754185223E-05
1	134	71.8655928185568	1.14944458007813	1.14959716796875	2.81219482421875E-06	3.23289100379043E-06	408790.03125	2.215184031229E-05
1	135	71.9663008183026	1.15951538085938	1.15966796875	2.79693603515625E-06	3.24351685776492E-06	414620.875	2.24342838919256E-05
1	136	72.0670088180483	1.16958618164063	1.16943359375	2.78411865234375E-06	3.25584187521599E-06	420037.28125	2.27153122978052E-05
1	137	72.167716817794	1.17965698242188	1.1798095703125	2.77191162109375E-06	3.27032785207848E-06	425630.3125	2.29950801440282E-05
1	138	72.2684248175398	1.18972778320313	1.18988037109375	2.762451171875E-06	3.28698615703615E-06	430733.5625	2.3273756596609E-05
1	139	72.3691328172855	1.19979858398438	1.199951171875	2.7545166015625E-06	3.3052854178095E-06	435630.40625	2.35515581152868E-05
1	140	72.4698408170312	1.20986938476563	1.21002197265625	2.74810791015625E-06	3.32527088175993E-06	440310.96875	2.38286374951713E-05
1	141	72.570548816777	1.21994018554688	1.219482421875	2.742919921875E-06	3.34494257003826E-06	444592.8125	2.41051329794573E-05
1	142	72.6712568165227	1.23001098632813	1.23016357421875	2.73895263671875E-06	3.36935977429675E-06	449136.5	2.43811664404348E-05
1	143	72.7719648162685	1.24008178710938	1.24053955078125	2.73681640625E-06	3.39512894242944E-06	453278.3125	2.46568943111924E-05
1	144	72.8726728160142	1.25015258789063	1.25030517578125	2.73529052734375E-06	3.41994791597244E-06	457101.40625	2.4932436645031E-05
1	145	72.9733808157599	1.26022338867188	1.26007080078125	2.7362060546875E-06	3.44781324201904E-06	460517.53125	2.52079480560496E-05
1	146	73.0740888155057	1.27029418945313	1.27044677734375	2.7374267578125E-06	3.47775494446978E-06	464102.5625	2.54835667874431E-05
1	147	73.1747968152514	1.28036499023438	1.2799072265625	2.7410888671875E-06	3.508339432301E-06	466933.875	2.57594329013955E-05
1	148	73.2755048149971	1.29043579101563	1.29058837890625	2.74627685546875E-06	3.5443129036139E-06	469941.125	2.60357428487623E-05
1	149	73.3762128147429	1.30050659179688	1.30035400390625	2.75238037109375E-06	3.5790687888948E-06	472447.0625	2.63126221398124E-05
1	150	73.4769208144886	1.31057739257813	1.3104248046875	2.76092529296875E-06	3.61798493031529E-06	474632.46875	2.65902399405604E-05
1	151	73.5776288142343	1.32064819335938	1.32049560546875	2.77069091796875E-06	3.6586850455933E-06	476594.34375	2.68687781499466E-05
1	152	73.6783368139801	1.33071899414063	1.33056640625	2.781982421875E-06	3.70161228602228E-06	478279.9375	2.71483786491444E-05
1	153	73.7790448137258	1.34078979492188	1.34124755859375	2.7947998046875E-06	3.74851833839784E-06	479908.3125	2.7429190595285E-05
1	154	73.8797528134716	1.35086059570313	1.3507080078125	2.8082275390625E-06	3.79309540221584E-06	480982.40625	2.77113267657114E-05
1	155	73.9804608132173	1.36093139648438	1.3604736328125	2.82379150390625E-06	3.84169379685773E-06	481789.71875	2.79949217656394E-05
1	156	74.081168812963	1.37100219726563	1.37054443359375	2.84088134765625E-06	3.89355409424752E-06	482436.375	2.82801593129989E-05
1	157	74.1818768127088	1.38107299804688	1.38092041015625	2.8607177734375E-06	3.95042343370733E-06	482718.15625	2.85672576865181E-05
1	158	74.2825848124545	1.39114379882813	1.39129638671875	2.88330078125E-06	4.01152601625654E-06	482535.96875	2.88564933725866E-05
1	159	74.3832928122002	1.40121459960938	1.40106201171875	2.9095458984375E-06	4.07645438826876E-06	481539.75	2.91481846943498E-05
1	160	74.484000811946	1.41128540039063	1.41082763671875	2.940673828125E-06	4.14878377341665E-06	479763.40625	2.94427682092646E-05
1	161	74.5847088116917	1.42135620117188	1.42120361328125	2.978515625E-06	4.23307710661902E-06	477151.65625	2.97408223559614E-05
1	162	74.6854168114374	1.43142700195313	1.4312744140625	3.02337646484375E-06	4.32728120358661E-06	473402.65625	3.00430419883924E-05
1	163	74.7861248111832	1.44149780273438	1.44073486328125	3.0755615234375E-06	4.43106864622678E-06	468446.15625	3.03501474263612E-05
1	164	74.8868328109289	1.45156860351563	1.451416015625	3.13812255859375E-06	4.55472127214307E-06	462510.9375	3.06630317936651E-05
1	165	74.9875408106747	1.46163940429688	1.46148681640625	3.2098388671875E-06	4.69113683720934E-06	455314.71875	3.09826755255926E-05
1	166	75.0882488104204	1.47171020507813	1.47186279296875	3.29559326171875E-06	4.85066084365826E-06	446615.4375	3.13102500513196E-05
1	167	75.1889568101661	1.48178100585938	1.48193359375	3.39599609375E-06	5.03264027429395E-06	436376.71875	3.16471996484324E-05
1	168	75.2896648099119	1.49185180664063	1.49169921875	3.5150146484375E-06	5.24334473084309E-06	424379.21875	3.19951977871824E-05
1	169	75.3903728096576	1.50192260742188	1.50177001953125	3.65203857421875E-06	5.48452180737513E-06	411214.1875	3.23560852848459E-05
1	170	75.4910808094033	1.49185180664063	1.49169921875	3.31390380859375E-06	4.94334790346329E-06	450133.53125	3.27068482874893E-05
1	171	75.5917888091491	1.48178100585938	1.48193359375	3.0633544921875E-06	4.53968777947011E-06	483761.71875	3.30279690388124E-05
1	172	75.6924968088948	1.47171020507813	1.47216796875	2.86529541015625E-06	4.21819595430861E-06	513792.75	3.33265015797224E-05
1	173	75.7932048086406	1.46163940429688	1.4617919921875	2.70294189453125E-06	3.95113875129027E-06	540815.1875	3.36068842443638E-05
1	174	75.8939128083863	1.45156860351563	1.45111083984375	2.5689697265625E-06	3.72785962099442E-06	564861	3.38723475579172E-05
1	175	75.994620808132	1.44149780273438	1.441650390625	2.457275390625E-06	3.54253188561415E-06	586686.5625	3.41254381055478E-05
1	176	76.0953288078778	1.43142700195313	1.43157958984375	2.36297607421875E-06	3.38278800882108E-06	605837.5625	3.43681567755993E-05
1	177	76.1960368076235	1.42135620117188	1.42120361328125	2.2821044921875E-06	3.24333495882456E-06	622760.125	3.46020533470437E-05
1	178	76.2967448073692	1.41128540039063	1.41143798828125	2.213134765625E-06	3.12370229949011E-06	637755.125	3.48284083884209E-05
1	179	76.397452807115	1.40121459960938	1.4013671875	2.15362548828125E-06	3.01802015201247E-06	650701.4375	3.50482914655004E-05
1	180	76.4981608068607	1.39114379882813	1.39129638671875	2.10113525390625E-06	2.92330173579103E-06	662164.1875	3.52625356754288E-05
1	181	76.5988688066064	1.38107299804688	1.380615234375	2.05535888671875E-06	2.83765984931961E-06	671714.9375	3.54718322341796E-05
1	182	76.6995768063522	1.37100219726563	1.370849609375	2.01446533203125E-06	2.76152900369198E-06	680503	3.56767632183619E-05
1	183	76.8002848060979	1.36093139648438	1.36077880859375	1.97845458984375E-06	2.69223892246373E-06	687798.875	3.58778233930934E-05
1	184	76.9009928058437	1.35086059570313	1.3507080078125	1.94580078125E-06	2.62820867646951E-06	694165.625	3.60754238499794E-05
1	185	77.0017008055894	1.34078979492188	1.34033203125	1.91680908203125E-06	2.56916041507793E-06	699251.75	3.62699247489218E-05
1	186	77.1024088053351	1.33071899414063	1.33087158203125	1.89117431640625E-06	2.51691017183475E-06	703727.625	3.64616716979071E-05
1	187	77.2031168050809	1.32064819335938	1.32049560546875	1.86798095703125E-06	2.4666605895618E-06	706910.625	3.66509593732189E-05
1	188	77.3038248048266	1.31057739257813	1.31072998046875	1.8487548828125E-06	2.42321857513161E-06	708979.875	3.6838111554971E-05
1	189	77.4045328045723	1.30050659179688	1.3006591796875	1.83074951171875E-06	2.38118104789464E-06	710451.75	3.70233901776373E-05
1	190	77.5052408043181	1.29043579101563	1.2908935546875	1.81610107421875E-06	2.3443931240763E-06	710804.875	3.72070244338829E-05
1	191	77.6059488040638	1.28036499023438	1.280517578125	1.80145263671875E-06	2.30679188462091E-06	710825	3.73891816707328E-05
1	192	77.7066568038096	1.27029418945313	1.26983642578125	1.78863525390625E-06	2.27127429752727E-06	709947.125	3.7569956475636E-05
1	193	77.8073648035553	1.26022338867188	1.2603759765625	1.77703857421875E-06	2.23973665924859E-06	709256.4375	3.77495016437024E-05
1	194	77.908072803301	1.25015258789063	1.25	1.7657470703125E-06	2.20718379750906E-06	707915.6875	3.79278972104657E-05
1	195	78.0087808030468	1.24008178710938	1.240234375	1.75506591796875E-06	2.17669298763212E-06	706659.6875	3.81051831936929E-05
1	196	78.1094888027925	1.23001098632813	1.2298583984375	1.74468994140625E-06	2.1457215098053E-06	704915.1875	3.82814105250873E-05
1	197	78.2101968025382	1.21994018554688	1.2200927734375	1.734619140625E-06	2.11639621738868E-06	703377.9375	3.84566083084792E-05
1	198	78.310904802284	1.20986938476563	1.209716796875	1.72454833984375E-06	2.0862150904577E-06	701468.8125	3.86307910957839E-05
1	199	78.4116128020297	1.19979858398438	1.19964599609375	1.7156982421875E-06	2.0582303932315E-06	699217.375	3.88040207326412E-05
1	200	78.5123208017754	1.18972778320313	1.18988037109375	1.7059326171875E-06	2.02985575015191E-06	697495.5	3.89763117709663E-05
1	201	78.6130288015212	1.17965698242188	1.17950439453125	1.69647216796875E-06	2.00099634639628E-06	695268.9375	3.91476387449075E-05
1	202	78.7137368012669	1.16958618164063	1.16943359375	1.68731689453125E-06	1.9732049167942E-06	693072.875	3.93180234823376E-05
1	203	78.8144448010127	1.15951538085938	1.15936279296875	1.6778564453125E-06	1.9452443211776E-06	690978.5625	3.94874732592143E-05
1	204	78.9151528007584	1.14944458007813	1.1492919921875	1.6680908203125E-06	1.9171234271198E-06	688986.4375	3.96559553337283E-05
1	205	79.0158608005041	1.13937377929688	1.13983154296875	1.6583251953125E-06	1.89021125152067E-06	687339	3.98234551539645E-05
1	206	79.1165688002499	1.12930297851563	1.12884521484375	1.64825439453125E-06	1.86062413831678E-06	684873.1875	3.99899545300286E-05
1	207	79.2172767999956	1.11923217773438	1.119384765625	1.63818359375E-06	1.83375777851325E-06	683308.5	4.01554389100056E-05
1	208	79.3179847997413	1.10916137695313	1.10870361328125	1.627197265625E-06	1.80407937477867E-06	681357.875	4.03198646381497E-05
1	209	79.4186927994871	1.09909057617188	1.09954833984375	1.6143798828125E-06	1.77508866272547E-06	681096.4375	4.04830898332875E-05
1	210	79.5194007992328	1.08901977539063	1.08917236328125	1.6015625E-06	1.74437752775702E-06	680068.625	4.06450271839276E-05
1	211	79.6201087989785	1.07894897460938	1.0791015625	1.5850830078125E-06	1.71046542618569E-06	680785.5625	4.0805487515172E-05
1	212	79.7208167987243	1.06887817382813	1.06903076171875	1.56585693359375E-06	1.67394921390951E-06	682712.9375	4.09641506848857E-05
1	213	79.82152479847	1.05880737304688	1.05865478515625	1.54296875E-06	1.63347112902557E-06	686115.5625	4.1120689274976E-05
1	214	79.9222327982158	1.04873657226563	1.048583984375	1.51458740234375E-06	1.5881720401012E-06	692323.25	4.1274652176071E-05
1	215	80.0229407979615	1.03866577148438	1.03851318359375	1.4813232421875E-06	1.53837368088716E-06	701071.3125	4.14255082432646E-05
1	216	80.1236487977072	1.02859497070313	1.02874755859375	1.44317626953125E-06	1.48466392602131E-06	712835.75	4.15727663494181E-05
1	217	80.224356797453	1.01852416992188	1.01806640625	1.4013671875E-06	1.4266848893385E-06	726480.875	4.17160008510109E-05
1	218	80.3250647971987	1.00845336914063	1.00830078125	1.358642578125E-06	1.36992036914307E-06	742138.375	4.18549789173994E-05
1	219	80.4257727969444	0.998382568359375	0.99853515625	1.31988525390625E-06	1.31795172819693E-06	756531.8125	4.19898533436935E-05
1	220	80.5264807966902	0.988311767578125	0.98785400390625	1.28570556640625E-06	1.27008934214246E-06	768336.125	4.21210570493713E-05
1	221	80.6271887964359	0.978240966796875	0.97808837890625	1.25732421875E-06	1.2297742841838E-06	777912.625	4.22491066274233E-05
1	222	80.7278967961817	0.968170166015625	0.96832275390625	1.23382568359375E-06	1.19474145776621E-06	784813.3125	4.23745477746706E-05
1	223	80.8286047959274	0.958099365234375	0.958251953125	1.212158203125E-06	1.16155297291698E-06	790533.75	4.24977115471847E-05
1	224	80.9293127956731	0.948028564453125	0.948486328125	1.18896484375E-06	1.12771681415325E-06	797741.3125	4.26186161348596E-05
1	225	81.0300207954189	0.937957763671875	0.93780517578125	1.15936279296875E-06	1.08725646441599E-06	808897.0625	4.27368649980053E-05
1	226	81.1307287951646	0.927886962890625	0.927734375	1.11785888671875E-06	1.0370761174272E-06	829920.8125	4.28515340900049E-05
1	227	81.2314367949103	0.917816162109375	0.91796875	1.05926513671875E-06	9.72372276919486E-07	866609.125	4.29611609433778E-05
1	228	81.3321447946561	0.907745361328125	0.90789794921875	9.771728515625E-07	8.87173200680991E-07	929106.8125	4.30637010140345E-05
1	229	81.4328527944018	0.897674560546875	0.89752197265625	8.63037109375001E-07	7.74594752783742E-07	1039957.625	4.31563639722299E-05
1	230	81.5335607941475	0.887603759765625	0.88775634765625	7.122802734375E-07	6.32331307315326E-07	1246358.25	4.32356864621397E-05
1	231	81.6342687938933	0.877532958984375	0.87799072265625	5.19409179687499E-07	4.5603644593939E-07	1690364.25	4.3297706724843E-05
1	232	81.734976793639	0.867462158203125	0.8673095703125	2.86865234375E-07	2.4880097271307E-07	3023404.25	4.33383065683302E-05
1	233	81.8356847933848	0.857391357421875	0.8575439453125	2.34985351562494E-08	2.01510257369364E-08	36493508	4.33539353252854E-05
1	234	81.9363927931305	0.847320556640625	0.8477783203125	-2.5177001953125E-07	-2.13445161989512E-07	-3367272.75	4.33424429502338E-05
1	235	82.0371007928762	0.837249755859375	0.83740234375	-5.17578125E-07	-4.33421092793651E-07	-1617924.625	4.33037021139171E-05
1	236	82.137808792622	0.827178955078125	0.82733154296875	-7.489013671875E-07	-6.19589741290838E-07	-1104727	4.32399283454288E-05
1	237	82.2385167923677	0.817108154296875	0.8172607421875	-9.2620849609375E-07	-7.56953852487641E-07	-882372.3125	4.31555818067864E-05
1	238	82.3392247921134	0.807037353515625	0.806884765625	-1.03729248046875E-06	-8.36975459606037E-07	-777875.875	4.30567088187672E-05
1	239	82.4399327918592	0.796966552734375	0.797119140625	-1.085205078125E-06	-8.65037748098985E-07	-734533.1875	4.29498359153513E-05
1	240	82.5406407916049	0.786895751953125	0.78704833984375	-1.08123779296875E-06	-8.50986396017106E-07	-727914.1875	4.2840743844863E-05
1	241	82.6413487913507	0.776824951171875	0.777587890625	-1.041259765625E-06	-8.09671007573343E-07	-746776.0625	4.27338673034683E-05
1	242	82.7420567910964	0.766754150390625	0.7672119140625	-9.796142578125E-07	-7.51571690216224E-07	-783177.5625	4.26321093982551E-05
1	243	82.8427647908421	0.756683349609375	0.75714111328125	-9.1064453125E-07	-6.89486398641748E-07	-831434.3125	4.25369289587252E-05
1	244	82.9434727905879	0.746612548828125	0.74652099609375	-8.43505859375E-07	-6.29694852705143E-07	-885021.6875	4.2448598833289E-05
1	245	83.0441807903336	0.736541748046875	0.736480712890625	-7.843017578125E-07	-5.77623097797186E-07	-939027.25	4.23666315327864E-05
1	246	83.1448887900793	0.726470947265625	0.726409912109375	-7.36083984374999E-07	-5.34698699539149E-07	-986857.4375	4.229007390677E-05
1	247	83.2455967898251	0.716400146484375	0.7164306640625	-7.0343017578125E-07	-5.03958915487601E-07	-1018481.625	4.22175908170175E-05
1	248	83.3463047895708	0.706329345703125	0.70623779296875	-6.85729980468749E-07	-4.84288420921075E-07	-1029906.5625	4.21476397605147E-05
1	249	83.4470127893165	0.696258544921875	0.696197509765625	-6.82373046875E-07	-4.75066400440483E-07	-1020259.4375	4.20787509938236E-05
1	250	83.5477207890623	0.686187744140625	0.686126708984375	-6.903076171875E-07	-4.73638493758699E-07	-993943.4375	4.20096293964889E-05
1	251	83.648428788808	0.676116943359375	0.67608642578125	-7.037353515625E-07	-4.75785896014713E-07	-960711.1875	4.19394345954061E-05
1	252	83.7491367885538	0.666046142578125	0.665985107421875	-7.1746826171875E-07	-4.77823164146685E-07	-928243.3125	4.18678719142918E-05
1	253	83.8498447882995	0.655975341796875	0.6558837890625	-7.2509765625E-07	-4.75579810199633E-07	-904545.4375	4.17952323914506E-05
1	254	83.9505527880452	0.645904541015625	0.645782470703125	-7.21435546875E-07	-4.65890423129167E-07	-895135.375	4.1722392779775E-05
1	255	84.051260787791	0.635833740234375	0.635772705078125	-7.061767578125E-07	-4.48967909960629E-07	-900302.5	4.16505063185468E-05
1	256	84.1519687875367	0.625762939453125	0.625701904296875	-6.805419921875E-07	-4.25816409688196E-07	-919417.0625	4.15806825913023E-05
1	257	84.2526767872824	0.615692138671875	0.615631103515625	-6.4666748046875E-07	-3.98108596755264E-07	-952005.6875	4.15138492826372E-05
1	258	84.3533847870282	0.605621337890625	0.605560302734375	-6.09741210937501E-07	-3.69235067410045E-07	-993143.125	4.14505848311819E-05
1	259	84.4540927867739	0.595550537109375	0.595550537109375	-5.71289062499999E-07	-3.40231480322473E-07	-1042468	4.13911147916224E-05
1	260	84.5548007865196	0.585479736328125	0.585418701171875	-5.33142089843749E-07	-3.12111353650835E-07	-1098053.75	4.13355046475772E-05
1	261	84.6555087862654	0.575408935546875	0.57537841796875	-4.96520996093749E-07	-2.85687463019713E-07	-1158819.875	4.12836561736185E-05
1	262	84.7562167860111	0.565338134765625	0.565338134765625	-4.62646484375E-07	-2.61551690527995E-07	-1221965.75	4.12353583669756E-05
1	263	84.8569247857569	0.555267333984375	0.55517578125	-4.302978515625E-07	-2.38890947912296E-07	-1290212.875	4.11903929489199E-05
1	264	84.9576327855026	0.545196533203125	0.545135498046875	-4.01611328125E-07	-2.18932584061804E-07	-1357370.875	4.11485052609351E-05
1	265	85.0583407852483	0.535125732421875	0.53515625	-3.74755859375001E-07	-2.00552932483333E-07	-1428013.125	4.1109411540674E-05
1	266	85.1590487849941	0.525054931640625	0.525054931640625	-3.50036621093749E-07	-1.83788444019228E-07	-1500000.125	4.10729153372813E-05
1	267	85.2597567847398	0.514984130859375	0.5150146484375	-3.27453613281251E-07	-1.68643396136758E-07	-1572786.625	4.10388020100072E-05
1	268	85.3604647844855	0.504913330078125	0.5048828125	-3.0670166015625E-07	-1.54848393663087E-07	-1646169.25	4.10068678320386E-05
1	269	85.4611727842313	0.494842529296875	0.494842529296875	-2.880859375E-07	-1.42557169624524E-07	-1717690.625	4.09769199904986E-05
1	270	85.561880783977	0.484771728515625	0.4847412109375	-2.70690917968749E-07	-1.31215045939825E-07	-1790755.375	4.09487838624045E-05
1	271	85.6625887837228	0.474700927734375	0.47467041015625	-2.54211425781251E-07	-1.20666641123535E-07	-1867227	4.09223503083922E-05
1	272	85.7632967834685	0.464630126953125	0.464630126953125	-2.398681640625E-07	-1.1144997813517E-07	-1937022.875	4.08974738093093E-05
1	273	85.8640047832142	0.454559326171875	0.454559326171875	-2.26745605468751E-07	-1.03069325518845E-07	-2004710.75	4.08739761041943E-05
1	274	85.96471278296	0.444488525390625	0.444580078125	-2.1392822265625E-07	-9.51082270717052E-08	-2078174.125	4.08517880714498E-05
1	275	86.0654207827057	0.434417724609375	0.434417724609375	-2.0294189453125E-07	-8.81615562775551E-08	-2140601.5	4.08307969337329E-05
1	276	86.1661287824514	0.424346923828125	0.424346923828125	-1.922607421875E-07	-8.15852558844199E-08	-2207142.75	4.08108971896581E-05
1	277	86.2668367821972	0.414276123046875	0.41424560546875	-1.8280029296875E-07	-7.57242162308103E-08	-2266110.25	4.07920088036917E-05
1	278	86.3675447819429	0.404205322265625	0.404205322265625	-1.74560546874999E-07	-7.05583005355948E-08	-2315559.5	4.07740153605118E-05
1	279	86.4682527816886	0.394134521484375	0.394134521484375	-1.66931152343749E-07	-6.57933298953139E-08	-2361060.5	4.07568186346907E-05
1	280	86.5689607814344	0.384063720703125	0.384063720703125	-1.59606933593751E-07	-6.12992323567596E-08	-2406309.75	4.07403786084615E-05
1	281	86.6696687811801	0.373992919921875	0.37396240234375	-1.52587890625E-07	-5.7062134573016E-08	-2450800	4.07246552640572E-05
1	282	86.7703767809259	0.363922119140625	0.363983154296875	-1.4617919921875E-07	-5.32067616632048E-08	-2489979.25	4.07096122216899E-05
1	283	86.8710847806716	0.353851318359375	0.353851318359375	-1.4068603515625E-07	-4.97819350187001E-08	-2515184.5	4.06951694458257E-05
1	284	86.9717927804173	0.343780517578125	0.343780517578125	-1.3458251953125E-07	-4.62668481304718E-08	-2554421.75	4.06813087465707E-05
1	285	87.0725007801631	0.333709716796875	0.333740234375	-1.28784179687499E-07	-4.29804636326026E-08	-2591469.25	4.06680446758401E-05
1	286	87.1732087799088	0.323638916015625	0.323638916015625	-1.2176513671875E-07	-3.94079364696154E-08	-2657894.75	4.06554281653371E-05
1	287	87.2739167796545	0.313568115234375	0.313629150390625	-1.15356445312501E-07	-3.61791414604795E-08	-2718783.25	4.06434883188922E-05
1	288	87.3746247794003	0.303497314453125	0.303466796875	-1.08947753906249E-07	-3.30620260058367E-08	-2785434.25	4.0632196032675E-05
1	289	87.475332779146	0.293426513671875	0.293426513671875	-1.02844238281249E-07	-3.01772260513644E-08	-2853116	4.06215294788126E-05
1	290	87.5760407788918	0.283355712890625	0.283355712890625	-9.67407226562494E-08	-2.74120353083163E-08	-2929022.25	4.06114813813474E-05
1	291	87.6767487786375	0.273284912109375	0.273284912109375	-9.06372070312494E-08	-2.47697808930525E-08	-3015151.5	4.06020444643218E-05
1	292	87.7774567783832	0.263214111328125	0.263214111328125	-8.51440429687503E-08	-2.24111129654148E-08	-3091398	4.05931932618842E-05
1	293	87.878164778129	0.253143310546875	0.253204345703125	-8.02612304687506E-08	-2.03224921335732E-08	-3154752.75	4.05848659283947E-05
1	294	87.9788727778747	0.243072509765625	0.243072509765625	-7.56835937500006E-08	-1.83966015754322E-08	-3211693.5	4.05770115321502E-05
1	295	88.0795807776204	0.233001708984375	0.2330322265625	-7.20214843749997E-08	-1.67833267283868E-08	-3235593.25	4.05695755034685E-05
1	296	88.1802887773662	0.222930908203125	0.22296142578125	-6.866455078125E-08	-1.53095456312258E-08	-3247111.25	4.05624923587311E-05
1	297	88.2809967771119	0.212860107421875	0.21282958984375	-6.62231445312494E-08	-1.40942448823012E-08	-3213825	4.05557002522983E-05
1	298	88.3817047768576	0.202789306640625	0.20281982421875	-6.53076171875003E-08	-1.32456792201197E-08	-3105607.5	4.05490754928906E-05
1	299	88.4824127766034	0.192718505859375	0.1927490234375	-6.53076171875003E-08	-1.2587979547618E-08	-2951401.75	4.05424980272073E-05
1	300	88.5831207763491	0.182647705078125	0.18267822265625	-6.65283203125006E-08	-1.21532748309505E-08	-2745871.75	4.05358587158844E-05
1	301	88.6838287760949	0.172576904296875	0.172607421875	-6.89697265624997E-08	-1.19046870139528E-08	-2502655	4.05290375056211E-05
1	302	88.7845367758406	0.162506103515625	0.16253662109375	-7.26318359375006E-08	-1.18053327113898E-08	-2237815.25	4.05219070671592E-05
1	303	88.8852447755863	0.152435302734375	0.15240478515625	-7.96508789062497E-08	-1.21391741103594E-08	-1913410.125	4.05142382078338E-05
1	304	88.9859527753321	0.142364501953125	0.1424560546875	-8.88061523437497E-08	-1.26509744902137E-08	-1604123.75	4.05057580792345E-05
1	305	89.0866607750778	0.132293701171875	0.13232421875	-1.025390625E-07	-1.3568401513453E-08	-1290476.25	4.04961210733745E-05
1	306	89.1873687748235	0.122222900390625	0.122283935546875	-1.2176513671875E-07	-1.48899204077679E-08	-1004260.625	4.04848287871573E-05
1	307	89.2880767745693	0.112152099609375	0.1121826171875	-1.48925781250001E-07	-1.670688298816E-08	-753278.6875	4.04711972805671E-05
1	308	89.388784774315	0.102081298828125	0.102081298828125	-1.86767578124999E-07	-1.90654763088105E-08	-546568.625	4.04542915930506E-05
1	309	89.4894927740607	0.092010498046875	0.09197998046875	-2.3956298828125E-07	-2.20349978263812E-08	-383949.0625	4.04328275180887E-05
1	310	89.5902007738065	0.081939697265625	0.082000732421875	-3.11889648437499E-07	-2.55751793076797E-08	-262915.875	4.04050588258542E-05
1	311	89.6909087735522	0.071868896484375	0.0718994140625	-4.0924072265625E-07	-2.94241662146533E-08	-175689.796875	4.03687445214018E-05
1	312	89.791616773298	0.061798095703125	0.061920166015625	-5.38024902343751E-07	-3.33145919739763E-08	-115087.921875	4.0321046981262E-05
1	313	89.8923247730437	0.051727294921875	0.05181884765625	-7.01904296875E-07	-3.63718726248408E-08	-73826.0859375	4.02586119889747E-05
1	314	89.9930327727894	0.041656494140625	0.0417022705078125	-8.9874267578125E-07	-3.74796087498908E-08	-46400.6796875	4.01780125685036E-05
1	315	90.0937407725352	0.031585693359375	0.0316925048828125	-1.124267578125E-06	-3.56308547111439E-08	-28189.46875	4.00761455239262E-05
1	316	90.1944487722809	0.021514892578125	0.0216278076171875	-1.36077880859375E-06	-2.9430662351615E-08	-15893.6982421875	3.99510136048775E-05
1	317	90.2951567720266	0.011444091796875	0.0115386962890625	-1.58966064453125E-06	-1.83426109856555E-08	-7258.5908203125	3.98024494643323E-05
1	318	90.3958647717724	0.001373291015625	0.0014801025390625	-1.78680419921875E-06	-2.64465338517539E-09	-828.351806640625	3.96324285247829E-05
1	319	90.4965727715181	-0.008697509765625	-0.0085906982421875	-1.9342041015625E-06	1.6616162668015E-08	4441.46435546875	3.94450617022812E-05
1	320	90.5972807712639	-0.018768310546875	-0.0186614990234375	-2.0233154296875E-06	3.77580988697446E-08	9223.228515625	3.92457841371652E-05
1	321	90.6979887710096	-0.028839111328125	-0.0287017822265625	-2.05596923828125E-06	5.9009980901692E-08	13960.2197265625	3.90403765777592E-05
1	322	90.7986967707553	-0.038909912109375	-0.0387603759765625	-2.04315185546875E-06	7.91933345567486E-08	18970.873046875	3.88339685741812E-05
1	323	90.8994047705011	-0.048980712890625	-0.048797607421875	-2.0001220703125E-06	9.76011733655469E-08	24397.314453125	3.86303727282211E-05
1	324	91.0001127702468	-0.059051513671875	-0.058990478515625	-1.94061279296875E-06	1.14477671786517E-07	30397.86328125	3.84319428121671E-05
1	325	91.1008207699925	-0.069122314453125	-0.069000244140625	-1.8731689453125E-06	1.29249116298524E-07	36836.10546875	3.82399048248772E-05
1	326	91.2015287697383	-0.079193115234375	-0.0791015625	-1.8072509765625E-06	1.42956366744329E-07	43769	3.80545789084863E-05
1	327	91.302236769484	-0.089263916015625	-0.08917236328125	-1.7449951171875E-06	1.55605334839493E-07	51101.78515625	3.7875710404478E-05
1	328	91.4029447692297	-0.099334716796875	-0.099273681640625	-1.689453125E-06	1.67718226862235E-07	58760.83984375	3.77027718059253E-05
1	329	91.5036527689755	-0.109405517578125	-0.109375	-1.6400146484375E-06	1.79376598907766E-07	66691.4765625	3.75351191905793E-05
1	330	91.6043607687212	-0.119476318359375	-0.119415283203125	-1.5966796875E-06	1.90667961419422E-07	74789.7578125	3.73721377400216E-05
1	331	91.705068768467	-0.129547119140625	-0.129486083984375	-1.5606689453125E-06	2.02084905254196E-07	82968.3203125	3.72131544281729E-05
1	332	91.8057767682127	-0.139617919921875	-0.139556884765625	-1.53045654296875E-06	2.13585749975209E-07	91186.4453125	3.70575035049114E-05
1	333	91.9064847679584	-0.149688720703125	-0.149566650390625	-1.50543212890625E-06	2.25162438027837E-07	99351.3046875	3.69046356354374E-05
1	334	92.0071927677042	-0.159759521484375	-0.15960693359375	-1.4849853515625E-06	2.37013949799803E-07	107480.4765625	3.67540560546331E-05
1	335	92.1079007674499	-0.169830322265625	-0.169677734375	-1.47064208984375E-06	2.49535219154495E-07	115376.640625	3.6605226341635E-05
1	336	92.2086087671956	-0.179901123046875	-0.179718017578125	-1.45965576171875E-06	2.62326437905358E-07	123123.5625	3.64576735591982E-05
1	337	92.3093167669414	-0.189971923828125	-0.189849853515625	-1.45263671875E-06	2.75782866765439E-07	130693.28125	3.63110302714631E-05
1	338	92.4100247666871	-0.200042724609375	-0.199920654296875	-1.4495849609375E-06	2.89801960207114E-07	137915.796875	3.61648926627822E-05
1	339	92.5107327664329	-0.189971923828125	-0.189788818359375	-1.2689208984375E-06	2.40827006336986E-07	149567.109375	3.6028002796229E-05
2	340	92.6114407661786	-0.179901123046875	-0.17974853515625	-1.14013671875E-06	2.04937890657675E-07	157655.25	3.59066980308853E-05
2	341	92.7121487659243	-0.169830322265625	-0.169647216796875	-1.03668212890625E-06	1.75870226826191E-07	163644.40625	3.57970857294276E-05
2	342	92.8128567656701	-0.159759521484375	-0.15966796875	-9.48181152343749E-07	1.51394161207463E-07	168393.953125	3.56971395376604E-05
2	343	92.9135647654158	-0.149688720703125	-0.1495361328125	-8.70666503906251E-07	1.30196099235036E-07	171749.03125	3.56055534211919E-05
2	344	93.0142727651615	-0.139617919921875	-0.139495849609375	-8.02001953125001E-07	1.1187594139983E-07	173934.5625	3.55213269358501E-05
2	345	93.1149807649073	-0.129547119140625	-0.129425048828125	-7.3883056640625E-07	9.56231787085926E-08	175175.5625	3.54437397618312E-05
2	346	93.215688764653	-0.119476318359375	-0.11944580078125	-6.805419921875E-07	8.12878795386496E-08	175515.703125	3.53722716681659E-05
2	347	93.3163967643987	-0.109405517578125	-0.10931396484375	-6.2408447265625E-07	6.82211478419958E-08	175158.921875	3.53065770468675E-05
2	348	93.4171047641445	-0.099334716796875	-0.099273681640625	-5.682373046875E-07	5.64110074208202E-08	174704.625	3.5246539482614E-05
2	349	93.5178127638902	-0.089263916015625	-0.089202880859375	-5.108642578125E-07	4.55705624347047E-08	174611.703125	3.51922026311513E-05
2	350	93.618520763636	-0.079193115234375	-0.079132080078125	-4.473876953125E-07	3.54027172022597E-08	176875.859375	3.5143948480254E-05
2	351	93.7192287633817	-0.069122314453125	-0.06903076171875	-3.76281738281251E-07	2.59750141395898E-08	183455	3.51024755218532E-05
2	352	93.8199367631274	-0.059051513671875	-0.058990478515625	-2.91748046875E-07	1.72103575835081E-08	202196.65625	3.50688387698028E-05
2	353	93.9206447628732	-0.048980712890625	-0.0488525390625	-1.873779296875E-07	9.153887425839E-09	260716.625	3.50447116943542E-05
2	354	94.0213527626189	-0.038909912109375	-0.0387542724609375	-5.76782226562503E-08	2.23527751863628E-09	671904.8125	3.50323716702405E-05
2	355	94.1220607623646	-0.028839111328125	-0.028717041015625	1.02844238281249E-07	-2.9533819834171E-09	-279228.5	3.5034645406995E-05
2	356	94.2227687621104	-0.018768310546875	-0.0186187744140625	2.9754638671875E-07	-5.53994894403331E-09	-62574.35546875	3.50548070855439E-05
2	357	94.3234767618561	-0.008697509765625	-0.00858459472656251	5.218505859375E-07	-4.47987513751968E-09	-16450.29296875	3.50960654031951E-05
2	358	94.4241847616019	0.001373291015625	0.00144348144531251	7.68432617187501E-07	1.10921816176557E-09	1878.47497558594	3.51610397046898E-05
2	359	94.5248927613476	0.011444091796875	0.0115325927734375	1.01959228515625E-06	1.17585416958832E-08	11310.9853515625	3.52510724042077E-05
2	360	94.6256007610933	0.021514892578125	0.0216033935546875	1.25335693359375E-06	2.7076763942091E-08	17236.42578125	3.53655232174788E-05
2	361	94.7263087608391	0.031585693359375	0.031658935546875	1.44622802734375E-06	4.57860416247513E-08	21890.6953125	3.55014599335846E-05
2	362	94.8270167605848	0.041656494140625	0.041748046875	1.58660888671875E-06	6.6237817009096E-08	26312.75390625	3.56541750079487E-05
2	363	94.9277247603305	0.051727294921875	0.051788330078125	1.6656494140625E-06	8.62612026253373E-08	31091.974609375	3.58179386239499E-05
2	364	95.0284327600763	0.061798095703125	0.06182861328125	1.6912841796875E-06	1.04569757297668E-07	36557.19921875	3.59869736712426E-05
2	365	95.129140759822	0.071868896484375	0.071929931640625	1.67388916015625E-06	1.20402731340619E-07	42971.7421875	3.61564234481193E-05
2	366	95.2298487595677	0.081939697265625	0.081939697265625	1.630859375E-06	1.33632113374915E-07	50243.265625	3.63228318747133E-05
2	367	95.3305567593135	0.092010498046875	0.092041015625	1.573486328125E-06	1.44825278880489E-07	58494.95703125	3.64841835107654E-05
2	368	95.4312647590592	0.102081298828125	0.102081298828125	1.50970458984375E-06	1.54112598238498E-07	67616.734375	3.66394342563581E-05
2	369	95.531972758805	0.112152099609375	0.11224365234375	1.44744873046875E-06	1.62466918141035E-07	77545.859375	3.67883367289323E-05
2	370	95.6326807585507	0.122222900390625	0.1221923828125	1.38824462890625E-06	1.69632926372287E-07	88019.34375	3.69311273971107E-05
2	371	95.7333887582964	0.132293701171875	0.13232421875	1.3336181640625E-06	1.76469981738592E-07	99221.96875	3.70681846106891E-05
2	372	95.8340967580422	0.142364501953125	0.14239501953125	1.28448486328125E-06	1.82904244638848E-07	110857.6875	3.72000140487216E-05
2	373	95.9348047577879	0.152435302734375	0.1524658203125	1.241455078125E-06	1.89279461437764E-07	122812.1953125	3.73272050637752E-05
2	374	96.0355127575336	0.162506103515625	0.16253662109375	1.2030029296875E-06	1.95532024349632E-07	135109.09375	3.74502960767131E-05
2	375	96.1362207572794	0.172576904296875	0.172607421875	1.16943359375E-06	2.01852898840116E-07	147599.171875	3.75697563868016E-05
2	376	96.2369287570251	0.182647705078125	0.182647705078125	1.13983154296875E-06	2.08187614703093E-07	160240.96875	3.76860371034127E-05
2	377	96.3376367567708	0.192718505859375	0.192779541015625	1.11358642578125E-06	2.14676688869986E-07	173115.921875	3.77995056624059E-05
2	378	96.4383447565166	0.202789306640625	0.20281982421875	1.0906982421875E-06	2.21215216811288E-07	185954.109375	3.79105003958102E-05
2	379	96.5390527562623	0.212860107421875	0.21282958984375	1.07025146484375E-06	2.2778117170219E-07	198859.4375	3.80193123419303E-05
2	380	96.6397607560081	0.222930908203125	0.22296142578125	1.05194091796875E-06	2.34542241628333E-07	211952.421875	3.81261743314099E-05
2	381	96.7404687557538	0.233001708984375	0.233001708984375	1.03607177734375E-06	2.41406496570562E-07	224889.53125	3.82313119189348E-05
2	382	96.8411767554995	0.243072509765625	0.243011474609375	1.021728515625E-06	2.48291740945206E-07	237843.484375	3.83349324692972E-05
2	383	96.9418847552453	0.253143310546875	0.253143310546875	1.00860595703125E-06	2.55321850772816E-07	250983.359375	3.84371669497341E-05
2	384	97.042592754991	0.263214111328125	0.26324462890625	9.967041015625E-07	2.62377000126435E-07	264115.125	3.85381426895037E-05
2	385	97.1433007547367	0.273284912109375	0.273284912109375	9.869384765625E-07	2.69715371814527E-07	276901.6875	3.86380270356312E-05
2	386	97.2440087544825	0.283355712890625	0.28338623046875	9.77478027343751E-07	2.77003806559151E-07	289915.71875	3.87369436793961E-05
2	387	97.3447167542282	0.293426513671875	0.29339599609375	9.6954345703125E-07	2.84460156763089E-07	302612.53125	3.88349835702684E-05
2	388	97.445424753974	0.303497314453125	0.303466796875	9.6160888671875E-07	2.91816348862994E-07	315582.375	3.89322267437819E-05
2	389	97.5461327537197	0.313568115234375	0.313568115234375	9.5550537109375E-07	2.99616004895142E-07	328169.90625	3.90287605114281E-05
2	390	97.6468407534654	0.323638916015625	0.323638916015625	9.4940185546875E-07	3.07263377408162E-07	340887.1875	3.91246794606559E-05
2	391	97.7475487532112	0.333709716796875	0.333709716796875	9.4482421875E-07	3.15297000952341E-07	353197.6875	3.92200599890202E-05
2	392	97.8482567529569	0.343780517578125	0.34381103515625	9.3994140625E-07	3.23162225868145E-07	365779.21875	3.93149675801396E-05
2	393	97.9489647527026	0.353851318359375	0.3538818359375	9.368896484375E-07	3.31548221765843E-07	377719.875	3.94094713556115E-05
2	394	98.0496727524484	0.363922119140625	0.36395263671875	9.344482421875E-07	3.4009488558695E-07	389484	3.95037022826727E-05
2	395	98.1503807521941	0.373992919921875	0.373992919921875	9.31701660156251E-07	3.4844981655624E-07	401408.4375	3.95976712752599E-05
2	396	98.2510887519398	0.384063720703125	0.38409423828125	9.3109130859375E-07	3.57626788627385E-07	412520.5	3.96914692828432E-05
2	397	98.3517967516856	0.394134521484375	0.3941650390625	9.30175781250001E-07	3.66642751714608E-07	423753.28125	3.97851908928715E-05
2	398	98.4525047514313	0.404205322265625	0.4041748046875	9.295654296875E-07	3.75706918021024E-07	434799.75	3.98788361053448E-05
2	399	98.5532127511771	0.414276123046875	0.414306640625	9.2926025390625E-07	3.84998685376559E-07	445845.65625	3.99724340240937E-05
2	400	98.6539207509228	0.424346923828125	0.424346923828125	9.295654296875E-07	3.94458226082861E-07	456500.3125	4.00660355808213E-05
2	401	98.7546287506685	0.434417724609375	0.434417724609375	9.3048095703125E-07	4.04217416871688E-07	466874.375	4.01596953452099E-05
2	402	98.8553367504143	0.444488525390625	0.44451904296875	9.30175781250001E-07	4.13480847782921E-07	477887.15625	4.02533878514078E-05
2	403	98.95604475016	0.454559326171875	0.45458984375	9.31396484375E-07	4.23403378135845E-07	488073.40625	4.03471240133513E-05
2	404	99.0567527499057	0.464630126953125	0.46453857421875	9.326171875E-07	4.33236664321157E-07	498102.09375	4.04409838665742E-05
2	405	99.1574607496515	0.474700927734375	0.4747314453125	9.344482421875E-07	4.43611952505307E-07	508033.96875	4.05350001528859E-05
2	406	99.2581687493972	0.484771728515625	0.484710693359375	9.35974121093749E-07	4.53676648248802E-07	517867.65625	4.06291837862227E-05
2	407	99.358876749143	0.494842529296875	0.494842529296875	9.38720703125E-07	4.64518933540603E-07	527145.625	4.07235820603091E-05
2	408	99.4595847488887	0.504913330078125	0.504852294921875	9.4146728515625E-07	4.75301902724823E-07	536239.875	4.08182568207849E-05
2	409	99.5602927486344	0.514984130859375	0.515045166015625	9.4512939453125E-07	4.86784301756416E-07	544946.75	4.09132553613745E-05
2	410	99.6610007483802	0.525054931640625	0.5250244140625	9.4879150390625E-07	4.98138660987024E-07	553361.25	4.10086213378236E-05
2	411	99.7617087481259	0.535125732421875	0.535125732421875	9.53063964843751E-07	5.10009044774051E-07	561479.375	4.11043874919415E-05
2	412	99.8624167478716	0.545196533203125	0.545196533203125	9.58251953125E-07	5.22435641414631E-07	568949.0625	4.12006302212831E-05
2	413	99.9631247476174	0.555267333984375	0.555267333984375	9.6466064453125E-07	5.35644574028993E-07	575608.9375	4.12974550272338E-05
2	414	100.063832747363	0.565338134765625	0.5653076171875	9.72900390625001E-07	5.49987987596978E-07	581054	4.13950183428824E-05
2	415	100.164540747109	0.575408935546875	0.575347900390625	9.8236083984375E-07	5.65199229640712E-07	585678.8125	4.14934729633387E-05
2	416	100.265248746855	0.585479736328125	0.58544921875	9.94262695312501E-07	5.8209030839862E-07	588827.5	4.15930044255219E-05
2	417	100.3659567466	0.595550537109375	0.595550537109375	1.0101318359375E-06	6.01584531523258E-07	589577.0625	4.16939328715671E-05
2	418	100.466664746346	0.605621337890625	0.605560302734375	1.02996826171875E-06	6.23707876457047E-07	587940.8125	4.17966621171217E-05
2	419	100.567372746092	0.615692138671875	0.61566162109375	1.055908203125E-06	6.50082199626922E-07	583063.5625	4.19016942032613E-05
2	420	100.668080745838	0.625762939453125	0.625762939453125	1.09039306640625E-06	6.82327595313836E-07	573887.5	4.20097676396836E-05
2	421	100.768788745583	0.635833740234375	0.63580322265625	1.1346435546875E-06	7.21410003734491E-07	560355.0625	4.21218101109844E-05
2	422	100.869496745329	0.645904541015625	0.645843505859375	1.18804931640625E-06	7.67293897752097E-07	543616.75	4.22387638536748E-05
2	423	100.970204745075	0.655975341796875	0.655975341796875	1.25152587890625E-06	8.20970115000819E-07	524140.46875	4.23616074840538E-05
2	424	101.07091274482	0.666046142578125	0.66595458984375	1.31988525390625E-06	8.78983598795458E-07	504554.9375	4.2491086787777E-05
2	425	101.171620744566	0.676116943359375	0.67596435546875	1.3861083984375E-06	9.36959850150743E-07	487670.65625	4.26273472839966E-05
2	426	101.272328744312	0.686187744140625	0.68609619140625	1.44561767578125E-06	9.91832735053322E-07	474604.1875	4.27699342253618E-05
2	427	101.373036744058	0.696258544921875	0.696136474609375	1.49322509765625E-06	1.03948843843682E-06	466196.59375	4.29179162892979E-05
2	428	101.473744743803	0.706329345703125	0.70623779296875	1.5289306640625E-06	1.07978860341973E-06	461916.1875	4.30700965807773E-05
2	429	101.574452743549	0.716400146484375	0.716339111328125	1.55426025390625E-06	1.11337737962458E-06	460887.53125	4.322534732637E-05
2	430	101.675160743295	0.726470947265625	0.72637939453125	1.5728759765625E-06	1.14250462956988E-06	461816.09375	4.33828099630773E-05
2	431	101.775868743041	0.736541748046875	0.736419677734375	1.59149169921875E-06	1.17200579552446E-06	462722.90625	4.35421497968491E-05
2	432	101.876576742786	0.746612548828125	0.746490478515625	1.6162109375E-06	1.20648599022388E-06	461876.90625	4.37036687799264E-05
2	433	101.977284742532	0.756683349609375	0.75714111328125	1.6522216796875E-06	1.25096494230093E-06	458256.40625	4.38682473031804E-05
2	434	102.077992742278	0.766754150390625	0.76690673828125	1.7071533203125E-06	1.30922740027017E-06	449231.34375	4.40374060417525E-05
2	435	102.178700742024	0.776824951171875	0.77728271484375	1.78741455078125E-06	1.38932637128164E-06	434864.28125	4.42133714386728E-05
2	436	102.279408741769	0.786895751953125	0.787353515625	1.90032958984375E-06	1.49623110701214E-06	414324.75	4.43990647909231E-05
2	437	102.380116741515	0.796966552734375	0.797119140625	2.05169677734375E-06	1.63544677889149E-06	388517.03125	4.45980622316711E-05
2	438	102.480824741261	0.807037353515625	0.80718994140625	2.2430419921875E-06	1.81056088877085E-06	359863.9375	4.48143218818586E-05
2	439	102.581532741007	0.817108154296875	0.8172607421875	2.47100830078125E-06	2.01945795197389E-06	330739.78125	4.50516927230638E-05
2	440	102.682240740752	0.827178955078125	0.82733154296875	2.72613525390625E-06	2.25541748477553E-06	303481.5	4.53133907285519E-05
2	441	102.782948740498	0.837249755859375	0.83770751953125	2.98675537109375E-06	2.50202742790862E-06	280474.09375	4.56010566267651E-05
2	442	102.883656740244	0.847320556640625	0.84747314453125	3.23150634765625E-06	2.73861473942816E-06	262253.28125	4.59141701867338E-05
2	443	102.984364739989	0.857391357421875	0.8575439453125	3.436279296875E-06	2.94676056000753E-06	249555.953125	4.62499192508403E-05
2	444	103.085072739735	0.867462158203125	0.86761474609375	3.58367919921875E-06	3.10925270241569E-06	242101.6875	4.66034034616314E-05
2	445	103.185780739481	0.877532958984375	0.877685546875	3.663330078125E-06	3.21525180879689E-06	239586.8125	4.69683182018343E-05
2	446	103.286488739227	0.887603759765625	0.88775634765625	3.68194580078125E-06	3.26867052535817E-06	241110.65625	4.73381842311937E-05
2	447	103.387196738972	0.897674560546875	0.89752197265625	3.65234375E-06	3.27805855704355E-06	245738.640625	4.77074936497957E-05
2	448	103.487904738718	0.907745361328125	0.90789794921875	3.5906982421875E-06	3.25998735206667E-06	252847.203125	4.8072211939143E-05
2	449	103.588612738464	0.917816162109375	0.91796875	3.5107421875E-06	3.22275150210771E-06	261474.28125	4.84297961520497E-05
2	450	103.68932073821	0.927886962890625	0.92803955078125	3.4271240234375E-06	3.18050638270506E-06	270792.53125	4.87791439809371E-05
2	451	103.790028737955	0.937957763671875	0.9381103515625	3.3465576171875E-06	3.13944042318326E-06	280321	4.91202263219748E-05
2	452	103.890736737701	0.948028564453125	0.9478759765625	3.2733154296875E-06	3.10269683723163E-06	289576.75	4.94535634061322E-05
2	453	103.991444737447	0.958099365234375	0.958251953125	3.21044921875E-06	3.07641926156066E-06	298479.09375	4.9780046538217E-05
2	454	104.092152737193	0.968170166015625	0.96832275390625	3.15948486328125E-06	3.05940102407476E-06	306481.21875	5.01007998536807E-05
2	455	104.192860736938	0.978240966796875	0.97808837890625	3.1207275390625E-06	3.05234743791516E-06	313416.78125	5.04170347994659E-05
2	456	104.293568736684	0.988311767578125	0.98846435546875	3.092041015625E-06	3.05637217934418E-06	319680.21875	5.07298718730453E-05
2	457	104.39427673643	0.998382568359375	0.9979248046875	3.072509765625E-06	3.06613378597831E-06	324791.40625	5.10402824147604E-05
2	458	104.494984736176	1.00845336914063	1.00830078125	3.05694580078125E-06	3.08232074530679E-06	329839.28125	5.13489248987753E-05
2	459	104.595692735921	1.01852416992188	1.0186767578125	3.0419921875E-06	3.09880670101847E-06	334871.59375	5.16560285177547E-05
2	460	104.696400735667	1.02859497070313	1.02813720703125	3.02398681640625E-06	3.10907330458576E-06	339993.96875	5.1961476856377E-05
2	461	104.797108735413	1.03866577148438	1.038818359375	3.0010986328125E-06	3.11759617943608E-06	346146.03125	5.22648624610156E-05
2	462	104.897816735158	1.04873657226563	1.0491943359375	2.9730224609375E-06	3.11927828988701E-06	352904.9375	5.25656832905952E-05
2	463	104.998524734904	1.05880737304688	1.05865478515625	2.94189453125E-06	3.11445069201E-06	359854.78125	5.28635246155318E-05
2	464	105.09923273465	1.06887817382813	1.0687255859375	2.90924072265625E-06	3.10917994283955E-06	367355.5	5.31581499672029E-05
2	465	105.199940734396	1.07894897460938	1.07940673828125	2.87689208984375E-06	3.10533664560353E-06	375198.90625	5.34495047759265E-05
2	466	105.300648734141	1.08901977539063	1.08917236328125	2.8448486328125E-06	3.09853044200281E-06	382857.78125	5.37376181455329E-05
2	467	105.401356733887	1.09909057617188	1.09893798828125	2.81494140625E-06	3.09344591187255E-06	390394.625	5.40226137673017E-05
2	468	105.502064733633	1.10916137695313	1.10870361328125	2.7874755859375E-06	3.09048414237623E-06	397744.6875	5.43047171959188E-05
2	469	105.602772733379	1.11923217773438	1.11968994140625	2.7618408203125E-06	3.09240522256005E-06	405414.375	5.45841467101127E-05
2	470	105.703480733124	1.12930297851563	1.1297607421875	2.7392578125E-06	3.09470578940818E-06	412433.15625	5.48611496924423E-05
2	471	105.80418873287	1.13937377929688	1.1395263671875	2.718505859375E-06	3.09780898533063E-06	419173.78125	5.51359698874876E-05
2	472	105.904896732616	1.14944458007813	1.14959716796875	2.7001953125E-06	3.10413679471822E-06	425745.9375	5.54088219359983E-05
2	473	106.005604732362	1.15951538085938	1.15966796875	2.6837158203125E-06	3.1122192467592E-06	432112.8125	5.56799241167028E-05
2	474	106.106312732107	1.16958618164063	1.16973876953125	2.6690673828125E-06	3.12211136588303E-06	438257.5	5.59494583285414E-05
2	475	106.207020731853	1.17965698242188	1.17950439453125	2.6568603515625E-06	3.13377836391737E-06	443946.71875	5.62176392122637E-05
2	476	106.307728731599	1.18972778320313	1.18988037109375	2.64556884765625E-06	3.14791054734087E-06	449763.53125	5.64846377528738E-05
2	477	106.408436731345	1.19979858398438	1.19964599609375	2.63580322265625E-06	3.16203067995957E-06	455134.90625	5.6750577641651E-05
2	478	106.50914473109	1.20986938476563	1.209716796875	2.62786865234375E-06	3.17897661261668E-06	460341.4375	5.70156225876417E-05
2	479	106.609852730836	1.21994018554688	1.2200927734375	2.6214599609375E-06	3.19842433782469E-06	465424.90625	5.72799472138286E-05
2	480	106.710560730582	1.23001098632813	1.2298583984375	2.6171875E-06	3.21876996167703E-06	469916.0625	5.7543733419152E-05
2	481	106.811268730327	1.24008178710938	1.23992919921875	2.6129150390625E-06	3.23982976624393E-06	474538.65625	5.78070903429762E-05
2	482	106.911976730073	1.25015258789063	1.24969482421875	2.6104736328125E-06	3.26229519487242E-06	478723.4375	5.80701089347713E-05
2	483	107.012684729819	1.26022338867188	1.26007080078125	2.60986328125E-06	3.2886125609366E-06	482811.03125	5.83329747314565E-05
2	484	107.113392729565	1.27029418945313	1.2701416015625	2.611083984375E-06	3.31644650941598E-06	486442.25	5.85958696319722E-05
2	485	107.21410072931	1.28036499023438	1.280517578125	2.61322021484375E-06	3.34627429765533E-06	490015.1875	5.88589355174918E-05
2	486	107.314808729056	1.29043579101563	1.29058837890625	2.6177978515625E-06	3.37849928655487E-06	493005.40625	5.91223360970616E-05
2	487	107.415516728802	1.30050659179688	1.30096435546875	2.6239013671875E-06	3.4136021440645E-06	495813	5.93862787354738E-05
2	488	107.516224728548	1.31057739257813	1.31072998046875	2.6324462890625E-06	3.45042622029723E-06	497913.28125	5.96509562456049E-05
2	489	107.616932728293	1.32064819335938	1.32080078125	2.64251708984375E-06	3.49023866874631E-06	499826.78125	5.99165723542683E-05
2	490	107.717640728039	1.33071899414063	1.33087158203125	2.6544189453125E-06	3.53269069819362E-06	501379.625	6.0183294408489E-05
2	491	107.818348727785	1.34078979492188	1.34063720703125	2.6690673828125E-06	3.57825092578423E-06	502286.78125	6.0451351600932E-05
2	492	107.919056727531	1.35086059570313	1.3507080078125	2.68524169921875E-06	3.62697755917907E-06	503011.6875	6.07209622103255E-05
2	493	108.019764727276	1.36093139648438	1.361083984375	2.70294189453125E-06	3.67893085240212E-06	503556.53125	6.09922790317796E-05
2	494	108.120472727022	1.37100219726563	1.3714599609375	2.72247314453125E-06	3.73376269635628E-06	503755.21875	6.12654694123194E-05
2	495	108.221180726768	1.38107299804688	1.3812255859375	2.74383544921875E-06	3.78985578208813E-06	503392.28125	6.15407188888639E-05
2	496	108.321888726514	1.39114379882813	1.39129638671875	2.7679443359375E-06	3.85103112421348E-06	502646.09375	6.18182602920569E-05
2	497	108.422596726259	1.40121459960938	1.40045166015625	2.79388427734375E-06	3.91269986721454E-06	501256.15625	6.20983191765845E-05
2	498	108.523304726005	1.41128540039063	1.4111328125	2.82470703125E-06	3.986036972492E-06	499567.84375	6.23812375124544E-05
2	499	108.624012725751	1.42135620117188	1.42120361328125	2.86102294921875E-06	4.06609615311027E-06	496746.65625	6.26675391686149E-05
2	500	108.724720725496	1.43142700195313	1.431884765625	2.90313720703125E-06	4.15695785704884E-06	493219.8125	6.29577916697599E-05
2	501	108.825428725242	1.44149780273438	1.441650390625	2.95257568359375E-06	4.25658163294429E-06	488268.75	6.32526498520747E-05
2	502	108.926136724988	1.45156860351563	1.451416015625	3.01116943359375E-06	4.37045946455328E-06	482010.75	6.35529431747273E-05
2	503	109.026844724734	1.46163940429688	1.46148681640625	3.0792236328125E-06	4.50024435849627E-06	474628.375	6.38596247881651E-05
2	504	109.127552724479	1.47171020507813	1.47216796875	3.15704345703125E-06	4.64769846075797E-06	466312.21875	6.4173640566878E-05
2	505	109.228260724225	1.48178100585938	1.48223876953125	3.2470703125E-06	4.81293363918667E-06	456484.96875	6.44961182842962E-05
2	506	109.328968723971	1.49185180664063	1.4923095703125	3.3514404296875E-06	5.00138685310958E-06	445274.09375	6.48283748887479E-05
2	507	109.429676723717	1.50192260742188	1.5020751953125	3.47198486328125E-06	5.21518222740269E-06	432627.21875	6.51719601592049E-05
2	508	109.530384723462	1.49185180664063	1.49169921875	3.170166015625E-06	4.72893407277297E-06	470542.96875	6.55064213788137E-05
2	509	109.631092723208	1.48178100585938	1.48193359375	2.94830322265625E-06	4.36918935520225E-06	502639.5	6.58145145280287E-05
2	510	109.731800722954	1.47171020507813	1.47186279296875	2.7728271484375E-06	4.08122105000075E-06	530816.6875	6.6102591517847E-05
2	511	109.8325087227	1.46163940429688	1.4617919921875	2.63092041015625E-06	3.84585837309714E-06	555620	6.63746905047446E-05
2	512	109.933216722445	1.45156860351563	1.45172119140625	2.513427734375E-06	3.6487963370746E-06	577586.1875	6.66337291477248E-05
2	513	110.033924722191	1.44149780273438	1.44134521484375	2.41455078125E-06	3.4802010304702E-06	596941.375	6.68818756821565E-05
2	514	110.134632721937	1.43142700195313	1.4312744140625	2.33001708984375E-06	3.33489356307837E-06	614276.375	6.71207817504182E-05
2	515	110.235340721683	1.42135620117188	1.4208984375	2.25799560546875E-06	3.20838216794073E-06	629274.25	6.73518079565838E-05
2	516	110.336048721428	1.41128540039063	1.41143798828125	2.196044921875E-06	3.09958090838336E-06	642718.25	6.7576089350041E-05
2	517	110.436756721174	1.40121459960938	1.4013671875	2.14202880859375E-06	3.00176884593384E-06	654224.25	6.7794528149534E-05
2	518	110.53746472092	1.39114379882813	1.39129638671875	2.09442138671875E-06	2.91396077045647E-06	664286.8125	6.80078519508243E-05
2	519	110.638172720665	1.38107299804688	1.38092041015625	2.05230712890625E-06	2.83407280221581E-06	672862.5	6.82166501064785E-05
2	520	110.738880720411	1.37100219726563	1.37115478515625	2.01507568359375E-06	2.76298055723601E-06	680448.3125	6.84214610373601E-05
2	521	110.839588720157	1.36093139648438	1.3604736328125	1.981201171875E-06	2.69537190433766E-06	686691.3125	6.86226921970956E-05
2	522	110.940296719903	1.35086059570313	1.3507080078125	1.95068359375E-06	2.63480387729942E-06	692428.0625	6.88206782797351E-05
2	523	111.041004719648	1.34078979492188	1.34063720703125	1.9232177734375E-06	2.57833721661882E-06	697080.3125	6.90157394274138E-05
2	524	111.141712719394	1.33071899414063	1.3311767578125	1.898193359375E-06	2.52683094004169E-06	701286.1875	6.92081666784361E-05
2	525	111.24242071914	1.32064819335938	1.32080078125	1.87530517578125E-06	2.47690445576154E-06	704312.5	6.93981783115305E-05
2	526	111.343128718886	1.31057739257813	1.3104248046875	1.854248046875E-06	2.42985265686002E-06	706714.9375	6.95859780535102E-05
2	527	111.443836718631	1.30050659179688	1.30035400390625	1.83502197265625E-06	2.38617826653353E-06	708631.3125	6.97717478033155E-05
2	528	111.544544718377	1.29043579101563	1.29058837890625	1.817626953125E-06	2.34580807045859E-06	710040.3125	6.99556694598868E-05
2	529	111.645252718123	1.28036499023438	1.280517578125	1.8011474609375E-06	2.30640080189914E-06	710945.5	7.01378885423765E-05
2	530	111.745960717869	1.27029418945313	1.26983642578125	1.785888671875E-06	2.26778638534597E-06	711039	7.03185141901486E-05
2	531	111.846668717614	1.26022338867188	1.2603759765625	1.771240234375E-06	2.2324284145725E-06	711578.25	7.04976264387369E-05
2	532	111.94737671736	1.25015258789063	1.25030517578125	1.7584228515625E-06	2.19856519834138E-06	711037.8125	7.06753562553786E-05
2	533	112.048084717106	1.24008178710938	1.2396240234375	1.7462158203125E-06	2.16465105040697E-06	709891.6875	7.08518346073106E-05
2	534	112.148792716852	1.23001098632813	1.23016357421875	1.7352294921875E-06	2.1346161247493E-06	708934.25	7.10271342541091E-05
2	535	112.249500716597	1.21994018554688	1.2200927734375	1.724853515625E-06	2.10448138204811E-06	707360.25	7.12013643351384E-05
2	536	112.350208716343	1.20986938476563	1.21002197265625	1.715087890625E-06	2.07529387807881E-06	705516.0625	7.13745830580592E-05
2	537	112.450916716089	1.19979858398438	1.19964599609375	1.70684814453125E-06	2.04761363420403E-06	702842.8125	7.15468850103207E-05
2	538	112.551624715834	1.18972778320313	1.1895751953125	1.69891357421875E-06	2.02098522095184E-06	700197.625	7.1718379331287E-05
2	539	112.65233271558	1.17965698242188	1.17950439453125	1.6925048828125E-06	1.99631699615566E-06	696898.6875	7.18891533324495E-05
2	540	112.753040715326	1.16958618164063	1.16943359375	1.68487548828125E-06	1.97035001292534E-06	694077.1875	7.20592215657234E-05
2	541	112.853748715072	1.15951538085938	1.15997314453125	1.67816162109375E-06	1.94662220565078E-06	691216.625	7.22285622032359E-05
2	542	112.954456714817	1.14944458007813	1.14898681640625	1.67083740234375E-06	1.91977005670196E-06	687671.25	7.23971970728599E-05
2	543	113.055164714563	1.13937377929688	1.1395263671875	1.66412353515625E-06	1.89631259672751E-06	684760.6875	7.25651261745952E-05
2	544	113.155872714309	1.12930297851563	1.12945556640625	1.65557861328125E-06	1.86990246220375E-06	682212	7.27322840248235E-05
2	545	113.256580714055	1.11923217773438	1.11907958984375	1.6473388671875E-06	1.84350335530326E-06	679325.6875	7.28985978639685E-05
2	546	113.3572887138	1.10916137695313	1.1090087890625	1.63848876953125E-06	1.8170983366872E-06	676848.625	7.3064053140115E-05
2	547	113.457996713546	1.09909057617188	1.09893798828125	1.6278076171875E-06	1.78885954937869E-06	675103.125	7.32285261619836E-05
2	548	113.558704713292	1.08901977539063	1.08856201171875	1.61590576171875E-06	1.7590135712453E-06	673654.4375	7.33918568585068E-05
2	549	113.659412713038	1.07894897460938	1.07879638671875	1.6015625E-06	1.72775969531358E-06	673590	7.35538706067018E-05
2	550	113.760120712783	1.06887817382813	1.06903076171875	1.58416748046875E-06	1.69352369994158E-06	674821.8125	7.37142836442217E-05
2	551	113.860828712529	1.05880737304688	1.05926513671875	1.5625E-06	1.65510175520467E-06	677929.6875	7.38727321731858E-05
2	552	113.961536712275	1.04873657226563	1.04888916015625	1.53533935546875E-06	1.61040065904672E-06	683164.4375	7.40287214284763E-05
2	553	114.062244712021	1.03866577148438	1.03851318359375	1.50299072265625E-06	1.56087560299056E-06	690964.5	7.41817129892297E-05
2	554	114.162952711766	1.02859497070313	1.0284423828125	1.46514892578125E-06	1.50682126331958E-06	701937.125	7.43311757105403E-05
2	555	114.263660711512	1.01852416992188	1.01837158203125	1.424560546875E-06	1.45073192925338E-06	714867.1875	7.44766803109087E-05
2	556	114.364368711258	1.00845336914063	1.00860595703125	1.38397216796875E-06	1.39588257752621E-06	728776.1875	7.46181030990556E-05
2	557	114.465076711003	0.998382568359375	0.99884033203125	1.3458251953125E-06	1.34426443310076E-06	742176.9375	7.47555604903027E-05
2	558	114.565784710749	0.988311767578125	0.98876953125	1.3128662109375E-06	1.29812212890101E-06	753138.125	7.48894308344461E-05
2	559	114.666492710495	0.978240966796875	0.97869873046875	1.285400390625E-06	1.2580196653289E-06	761396.0625	7.50202671042643E-05
2	560	114.767200710241	0.968170166015625	0.96832275390625	1.26312255859375E-06	1.22311030281708E-06	766610.3125	7.51485931687057E-05
2	561	114.867908709986	0.958099365234375	0.95855712890625	1.24237060546875E-06	1.19088315386762E-06	771554.9375	7.52747582737356E-05
2	562	114.968616709732	0.948028564453125	0.94757080078125	1.21826171875E-06	1.15438922421163E-06	777805.625	7.53986605559476E-05
2	563	115.069324709478	0.937957763671875	0.93780517578125	1.18682861328125E-06	1.11301403649122E-06	790177.4375	7.5519761594478E-05
2	564	115.170032709224	0.927886962890625	0.927734375	1.14227294921875E-06	1.05972583241964E-06	812182.75	7.56370427552611E-05
2	565	115.270740708969	0.917816162109375	0.91827392578125	1.0797119140625E-06	9.91471210909367E-07	850480.5625	7.5748932431452E-05
2	566	115.371448708715	0.907745361328125	0.90789794921875	9.9151611328125E-07	9.00195459507813E-07	915666.375	7.58532260078937E-05
2	567	115.472156708461	0.897674560546875	0.89813232421875	8.6883544921875E-07	7.80329173721839E-07	1033719.75	7.59469039621763E-05
2	568	115.572864708207	0.887603759765625	0.88775634765625	7.07092285156249E-07	6.27725682988967E-07	1255502.75	7.60262555559166E-05
2	569	115.673572707952	0.877532958984375	0.8770751953125	5.02624511718749E-07	4.408395000155E-07	1744990.875	7.60871698730625E-05
2	570	115.774280707698	0.867462158203125	0.8673095703125	2.5787353515625E-07	2.23656172693154E-07	3363313.75	7.6125463237986E-05
2	571	115.874988707444	0.857391357421875	0.8575439453125	-1.89208984374994E-08	-1.62255027191804E-08	-45322580	7.61374976718798E-05
2	572	115.97569670719	0.847320556640625	0.84808349609375	-3.04565429687501E-07	-2.58296893207444E-07	-2784569.25	7.61212068027817E-05
2	573	116.076404706935	0.837249755859375	0.83740234375	-5.7830810546875E-07	-4.84276597489952E-07	-1448021.125	7.6076750701759E-05
2	574	116.177112706681	0.827178955078125	0.82733154296875	-8.1298828125E-07	-6.72610838137189E-07	-1017642.625	7.6006690505892E-05
2	575	116.277820706427	0.817108154296875	0.81756591796875	-9.9090576171875E-07	-8.10130757145089E-07	-825069.3125	7.59158574510366E-05
2	576	116.378528706172	0.807037353515625	0.80657958984375	-1.10015869140625E-06	-8.87365501966997E-07	-733148.4375	7.58105670684017E-05
2	577	116.479236705918	0.796966552734375	0.7965087890625	-1.1444091796875E-06	-9.11531913061481E-07	-696000.0625	7.5697542342823E-05
2	578	116.579944705664	0.786895751953125	0.78704833984375	-1.1358642578125E-06	-8.93980029559316E-07	-692907.0625	7.55827204557136E-05
2	579	116.68065270541	0.776824951171875	0.7769775390625	-1.09100341796875E-06	-8.47685100779927E-07	-712167.875	7.54705906729214E-05
2	580	116.781360705155	0.766754150390625	0.7666015625	-1.0260009765625E-06	-7.86533973951009E-07	-747174.3125	7.5363990617916E-05
2	581	116.882068704901	0.756683349609375	0.7568359375	-9.53369140625E-07	-7.21544040516164E-07	-793854.0625	7.52643245505169E-05
2	582	116.982776704647	0.746612548828125	0.746490478515625	-8.831787109375E-07	-6.59284467019461E-07	-845231.5	7.51718471292406E-05
2	583	117.083484704393	0.736541748046875	0.7364501953125	-8.2244873046875E-07	-6.0569254856091E-07	-895436	7.50859617255628E-05
2	584	117.184192704138	0.726470947265625	0.7264404296875	-7.72705078124999E-07	-5.6132421377697E-07	-940126.4375	7.50056351535022E-05
2	585	117.284900703884	0.716400146484375	0.716400146484375	-7.39440917968751E-07	-5.29735586951574E-07	-968840.3125	7.49294922570698E-05
2	586	117.38560870363	0.706329345703125	0.706268310546875	-7.21130371093751E-07	-5.0931151918121E-07	-979390.625	7.48559468775056E-05
2	587	117.486316703376	0.696258544921875	0.696197509765625	-7.17773437499999E-07	-4.99712086821091E-07	-969940.4375	7.47834928915836E-05
2	588	117.587024703121	0.686187744140625	0.68609619140625	-7.23876953125E-07	-4.96649192882614E-07	-947807.75	7.47109006624669E-05
2	589	117.687732702867	0.676116943359375	0.67608642578125	-7.3822021484375E-07	-4.99100679007825E-07	-915833	7.46372825233266E-05
2	590	117.788440702613	0.666046142578125	0.665924072265625	-7.48596191406251E-07	-4.98508200053038E-07	-889563.8125	7.45624129194766E-05
2	591	117.889148702359	0.655975341796875	0.655914306640625	-7.51953125E-07	-4.93216816721542E-07	-872280.875	7.44868520996533E-05
2	592	117.989856702104	0.645904541015625	0.6458740234375	-7.4462890625E-07	-4.80936478197691E-07	-867377.0625	7.44114950066432E-05
2	593	118.09056470185	0.635833740234375	0.6357421875	-7.2509765625E-07	-4.60975172700273E-07	-876767.6875	7.43374912417494E-05
2	594	118.191272701596	0.625762939453125	0.625701904296875	-6.9549560546875E-07	-4.35172921697813E-07	-899649	7.42659540264867E-05
2	595	118.291980701341	0.615692138671875	0.6156005859375	-6.591796875E-07	-4.05791382718235E-07	-933888.9375	7.41977419238538E-05
2	596	118.392688701087	0.605621337890625	0.6055908203125	-6.18896484375001E-07	-3.74798020175149E-07	-978501	7.41333860787563E-05
2	597	118.493396700833	0.595550537109375	0.59552001953125	-5.77697753906251E-07	-3.44030553378616E-07	-1030850.5625	7.40731338737532E-05
2	598	118.594104700579	0.585479736328125	0.58544921875	-5.3741455078125E-07	-3.1462894867218E-07	-1089381	7.40169853088446E-05
2	599	118.694812700324	0.575408935546875	0.575408935546875	-4.9896240234375E-07	-2.87107411622856E-07	-1153211.125	7.39647948648781E-05
2	600	118.79552070007	0.565338134765625	0.5653076171875	-4.63256835937501E-07	-2.61882604490893E-07	-1220289.875	7.39163442631252E-05
2	601	118.896228699816	0.555267333984375	0.555267333984375	-4.29687500000001E-07	-2.38591439938318E-07	-1292258.5	7.38713788450696E-05
2	602	118.996936699562	0.545196533203125	0.545135498046875	-3.9947509765625E-07	-2.17768047150457E-07	-1364629.5	7.38296294002794E-05
2	603	119.097644699307	0.535125732421875	0.535125732421875	-3.71704101562501E-07	-1.98908423953981E-07	-1439655.25	7.37907976144925E-05
2	604	119.198352699053	0.525054931640625	0.52496337890625	-3.460693359375E-07	-1.81673726729059E-07	-1516931.25	7.37546579330228E-05
2	605	119.299060698799	0.514984130859375	0.5150146484375	-3.2196044921875E-07	-1.6581434181262E-07	-1599620.875	7.37210139050148E-05
2	606	119.399768698545	0.504913330078125	0.504913330078125	-3.0059814453125E-07	-1.51776006873661E-07	-1679695.375	7.36896690796129E-05
2	607	119.50047669829	0.494842529296875	0.494842529296875	-2.8045654296875E-07	-1.38781814484901E-07	-1764417.875	7.36604124540463E-05
2	608	119.601184698036	0.484771728515625	0.484771728515625	-2.61840820312501E-07	-1.26933031197041E-07	-1851398.625	7.36331057851203E-05
2	609	119.701892697782	0.474700927734375	0.474639892578125	-2.44750976562499E-07	-1.16168571651087E-07	-1939276.875	7.3607596277725E-05
2	610	119.802600697528	0.464630126953125	0.464630126953125	-2.2857666015625E-07	-1.06203600580557E-07	-2032710.375	7.35837602405809E-05
2	611	119.903308697273	0.454559326171875	0.454559326171875	-2.1331787109375E-07	-9.69656213101189E-08	-2130901.5	7.35615103621967E-05
2	612	120.004016697019	0.444488525390625	0.44451904296875	-1.9989013671875E-07	-8.88549749333833E-08	-2223816.75	7.35407011234201E-05
2	613	120.104724696765	0.434417724609375	0.4344482421875	-1.8768310546875E-07	-8.15385945429625E-08	-2314796.75	7.35211870050989E-05
2	614	120.20543269651	0.424346923828125	0.424346923828125	-1.77612304687499E-07	-7.53692361854519E-08	-2389175.25	7.35027933842503E-05
2	615	120.306140696256	0.414276123046875	0.414306640625	-1.6937255859375E-07	-7.0172177402128E-08	-2446126.25	7.34853238100186E-05
2	616	120.406848696002	0.404205322265625	0.404205322265625	-1.62353515624999E-07	-6.56241567753568E-08	-2489661.75	7.34686182113364E-05
2	617	120.507556695748	0.394134521484375	0.39410400390625	-1.556396484375E-07	-6.1338205625816E-08	-2532157	7.34526038286276E-05
2	618	120.608264695493	0.384063720703125	0.38409423828125	-1.4923095703125E-07	-5.73187506347494E-08	-2573824.25	7.34372515580617E-05
2	619	120.708972695239	0.373992919921875	0.37396240234375	-1.42517089843749E-07	-5.3296030699812E-08	-2623983	7.34225613996387E-05
2	620	120.809680694985	0.363922119140625	0.36395263671875	-1.3458251953125E-07	-4.89816649462682E-08	-2704308.25	7.34086061129346E-05
2	621	120.910388694731	0.353851318359375	0.3538818359375	-1.26037597656251E-07	-4.46024124300948E-08	-2807748.25	7.33954875613563E-05
2	622	121.011096694476	0.343780517578125	0.343902587890625	-1.16577148437499E-07	-4.00911837061813E-08	-2950000	7.33832712285221E-05
2	623	121.111804694222	0.333709716796875	0.33367919921875	-1.07727050781251E-07	-3.59462752896889E-08	-3097450.5	7.33719716663472E-05
2	624	121.212512693968	0.323638916015625	0.323638916015625	-9.79614257812497E-08	-3.17041290998077E-08	-3303738.25	7.33616179786623E-05
2	625	121.313220693714	0.313568115234375	0.31365966796875	-8.88061523437497E-08	-2.78549094900882E-08	-3531958.75	7.33522101654671E-05
2	626	121.413928693459	0.303497314453125	0.30340576171875	-7.96508789062497E-08	-2.41665336631058E-08	-3809195.5	7.33437336748466E-05
2	627	121.514636693205	0.293426513671875	0.29345703125	-7.08007812499994E-08	-2.07769872417884E-08	-4144827.75	7.33361521270126E-05
2	628	121.615344692951	0.283355712890625	0.2833251953125	-6.37817382812503E-08	-1.80709722741312E-08	-4442105.5	7.33293782104738E-05
2	629	121.716052692697	0.273284912109375	0.2733154296875	-5.61523437500003E-08	-1.53473020958472E-08	-4867391.5	7.3323339165654E-05
2	630	121.816760692442	0.263214111328125	0.26318359375	-4.94384765624994E-08	-1.30113955165712E-08	-5323457	7.33180204406381E-05
2	631	121.917468692188	0.253143310546875	0.253204345703125	-4.425048828125E-08	-1.12044160616165E-08	-5722069	7.33133056201041E-05
2	632	122.018176691934	0.243072509765625	0.24298095703125	-3.90625000000006E-08	-9.49144318695971E-09	-6220312.5	7.33091073925607E-05
2	633	122.118884691679	0.233001708984375	0.23297119140625	-3.509521484375E-08	-8.17617440418417E-09	-6638260.5	7.33053748263046E-05
2	634	122.219592691425	0.222930908203125	0.22296142578125	-3.204345703125E-08	-7.14445480554105E-09	-6958095.5	7.3301991506014E-05
2	635	122.320300691171	0.212860107421875	0.212860107421875	-2.99072265625006E-08	-6.36605568260507E-09	-7117347	7.32988773961551E-05
2	636	122.421008690917	0.202789306640625	0.20281982421875	-2.80761718749994E-08	-5.69440405939758E-09	-7223913.5	7.32959524611942E-05
2	637	122.521716690662	0.192718505859375	0.192718505859375	-2.77709960937497E-08	-5.3519850773398E-09	-6939560.5	7.32931439415552E-05
2	638	122.622424690408	0.182647705078125	0.18267822265625	-2.86865234375003E-08	-5.24040322247288E-09	-6368085	7.3290299042128E-05
2	639	122.723132690154	0.172576904296875	0.172637939453125	-3.14331054687506E-08	-5.426546323406E-09	-5492233.5	7.32872722437605E-05
2	640	122.8238406899	0.162506103515625	0.162567138671875	-3.509521484375E-08	-5.7053286539599E-09	-4632174	7.3283925303258E-05
2	641	122.924548689645	0.152435302734375	0.15240478515625	-4.18090820312494E-08	-6.37190389340958E-09	-3645255.5	7.32800544938073E-05
2	642	123.025256689391	0.142364501953125	0.14239501953125	-5.15747070312503E-08	-7.34398097890221E-09	-2760946.75	7.32753469492309E-05
2	643	123.125964689137	0.132293701171875	0.132293701171875	-6.62231445312494E-08	-8.7609048904369E-09	-1997695.875	7.32694170437753E-05
2	644	123.226672688883	0.122222900390625	0.12225341796875	-8.75854492187494E-08	-1.07076205679846E-08	-1395818.875	7.32616754248738E-05
2	645	123.327380688628	0.112152099609375	0.11224365234375	-1.16577148437499E-07	-1.30850450474895E-08	-962827.25	7.3251394496765E-05
2	646	123.428088688374	0.102081298828125	0.1021728515625	-1.56555175781251E-07	-1.59956883294399E-08	-652631.5625	7.32376356609166E-05
2	647	123.52879668812	0.092010498046875	0.092132568359375	-2.12707519531249E-07	-1.95972909011743E-08	-433142.03125	7.32190455892123E-05
2	648	123.629504687866	0.081939697265625	0.08197021484375	-2.89306640625001E-07	-2.37145272308226E-08	-283333.34375	7.31937689124607E-05
2	649	123.730212687611	0.071868896484375	0.071929931640625	-3.92761230468749E-07	-2.82512875315888E-08	-183139.09375	7.31594191165641E-05
2	650	123.830920687357	0.061798095703125	0.06182861328125	-5.279541015625E-07	-3.26426707886185E-08	-117109.8203125	7.31130567146465E-05
2	651	123.931628687103	0.051727294921875	0.051788330078125	-6.988525390625E-07	-3.61924072933562E-08	-74104.8046875	7.30512838345021E-05
2	652	124.032336686848	0.041656494140625	0.0417510986328125	-9.033203125E-07	-3.77146136543161E-08	-46219.59375	7.2970608016476E-05
2	653	124.133044686594	0.031585693359375	0.0316864013671875	-1.1358642578125E-06	-3.59914515968285E-08	-27896.294921875	7.28679297026247E-05
2	654	124.23375268634	0.021514892578125	0.021600341796875	-1.37725830078125E-06	-2.97492483980477E-08	-15683.5810546875	7.27413789718412E-05
2	655	124.334460686086	0.011444091796875	0.0114959716796875	-1.607666015625E-06	-1.84816819626121E-08	-7150.72216796875	7.2591079515405E-05
2	656	124.435168685831	0.001373291015625	0.00147705078125	-1.80511474609375E-06	-2.66624611278132E-09	-818.258728027344	7.24192286725156E-05
2	657	124.535876685577	-0.008697509765625	-0.0085906982421875	-1.95068359375E-06	1.67577329790447E-08	4403.9423828125	7.22301119822077E-05
2	658	124.636584685323	-0.018768310546875	-0.018634033203125	-2.03521728515625E-06	3.79243054737799E-08	9155.794921875	7.20294046914205E-05
2	659	124.737292685069	-0.028839111328125	-0.0286773681640625	-2.064208984375E-06	5.91960827023286E-08	13892.6669921875	7.18229857739061E-05
2	660	124.838000684814	-0.038909912109375	-0.038787841796875	-2.04864501953125E-06	7.9462516566764E-08	18933.412109375	7.1615882916376E-05
2	661	124.93870868456	-0.048980712890625	-0.0488494873046875	-2.0025634765625E-06	9.78241914140199E-08	24393.478515625	7.14118941687047E-05
2	662	125.039416684306	-0.059051513671875	-0.05902099609375	-1.9415283203125E-06	1.14590939404025E-07	30399.244140625	7.1213289629668E-05
2	663	125.140124684052	-0.069122314453125	-0.069122314453125	-1.873779296875E-06	1.29519960978541E-07	36889.25	7.10211752448231E-05
2	664	125.240832683797	-0.079193115234375	-0.0791015625	-1.80755615234375E-06	1.4298051098649E-07	43761.609375	7.08358056726865E-05
2	665	125.341540683543	-0.089263916015625	-0.089202880859375	-1.74560546875E-06	1.55713038907379E-07	51101.3984375	7.06568898749538E-05
2	666	125.442248683289	-0.099334716796875	-0.099273681640625	-1.6912841796875E-06	1.67900012115751E-07	58697.22265625	7.04838239471428E-05
2	667	125.542956683035	-0.109405517578125	-0.10931396484375	-1.6424560546875E-06	1.79543377498703E-07	66555.1875	7.0315960329026E-05
2	668	125.64366468278	-0.119476318359375	-0.119384765625	-1.60125732421875E-06	1.91165725027531E-07	74556.890625	7.01526296325028E-05
2	669	125.744372682526	-0.129547119140625	-0.129486083984375	-1.5667724609375E-06	2.02875227728327E-07	82645.109375	6.99931042618118E-05
2	670	125.845080682272	-0.139617919921875	-0.139556884765625	-1.53839111328125E-06	2.14693059774618E-07	90716.1328125	6.9836743932683E-05
2	671	125.945788682017	-0.149688720703125	-0.149566650390625	-1.51580810546875E-06	2.26714334417011E-07	98671.234375	6.9682952016592E-05
2	672	126.046496681763	-0.159759521484375	-0.159637451171875	-1.49871826171875E-06	2.39251562561549E-07	106515.984375	6.95311609888449E-05
2	673	126.147204681509	-0.169830322265625	-0.16973876953125	-1.48590087890625E-06	2.5221498844985E-07	114232.90625	6.9380876084324E-05
2	674	126.247912681255	-0.179901123046875	-0.179779052734375	-1.47857666015625E-06	2.65817106992472E-07	121589.265625	6.92316025379114E-05
2	675	126.348620681	-0.189971923828125	-0.189788818359375	-1.4752197265625E-06	2.79980213235831E-07	128651.21875	6.90828674123622E-05
2	676	126.449328680746	-0.200042724609375	-0.199920654296875	-1.475830078125E-06	2.95048891985061E-07	135463.203125	6.89342705300078E-05
2	677	126.550036680492	-0.189971923828125	-0.18988037109375	-1.2841796875E-06	2.43840503344472E-07	147861.21875	6.87952924636193E-05
