Potential - Start -0.2 V, Upper Vertex 1.5 V, Lower Vertex -0.2 V, Stop -0.19 V; Scan - # end cross 5, Rate 0.1 Vps, Step 0.01 V 
Scan	Index	Time (s)	Potential applied (V)	WE(1).Potential (V)	WE(1).Current (A)	WE(1).Power (W)	WE(1).Resistance (Ω)	WE(1).Charge (C)
1	1	66.3085788325869	-0.189971923828125	-0.189788818359375	-1.8463134765625E-07	3.50409656846296E-08	1027933.875	0
1	2	66.4092868323327	-0.179901123046875	-0.17974853515625	-1.51977539062501E-07	2.73177391818535E-08	1182731	-1.69496026103388E-08
1	3	66.5099948320784	-0.169830322265625	-0.169708251953125	-1.263427734375E-07	2.14414104249272E-08	1343236.75	-3.09641450257914E-08
1	4	66.6107028318241	-0.159759521484375	-0.159637451171875	-1.04675292968751E-07	1.67100964176825E-08	1525073	-4.2596827398711E-08
1	5	66.7114108315699	-0.149688720703125	-0.1495361328125	-8.544921875E-08	1.27777450842359E-08	1750000	-5.21703569233978E-08
1	6	66.8121188313156	-0.139617919921875	-0.139556884765625	-6.74438476562497E-08	9.41225231088083E-09	2069230.875	-5.98691300979226E-08
1	7	66.9128268310614	-0.129547119140625	-0.129425048828125	-5.00488281250003E-08	6.47757181226893E-09	2585975.75	-6.57853576058187E-08
1	8	67.0135348308071	-0.119476318359375	-0.119415283203125	-3.35693359375E-08	4.00869160088746E-09	3557272.75	-6.99958704331038E-08
1	9	67.1142428305528	-0.109405517578125	-0.109283447265625	-1.64794921875003E-08	1.80093562285322E-09	6631481.5	-7.25160234082978E-08
1	10	67.2149508302986	-0.099334716796875	-0.099273681640625	1.22070312500028E-09	-1.21183688084336E-10	-81325000	-7.3284368795612E-08
1	11	67.3156588300443	-0.089263916015625	-0.089202880859375	2.10571289062503E-08	-1.87835635934164E-09	-4236232	-7.21625923461033E-08
1	12	67.41636682979	-0.079193115234375	-0.07904052734375	4.48608398437494E-08	-3.5458245228881E-09	-1761904.75	-6.88433559048462E-08
1	13	67.5170748295358	-0.069122314453125	-0.06903076171875	7.20214843749997E-08	-4.9716981642689E-09	-958474.5625	-6.29578664756991E-08
1	14	67.6177828292815	-0.059051513671875	-0.059051513671875	1.080322265625E-07	-6.37946628856412E-09	-546610.1875	-5.38914406433832E-08
1	15	67.7184908290272	-0.048980712890625	-0.0488372802734375	1.55029296875001E-07	-7.57120943717382E-09	-315019.6875	-4.06452400625312E-08
1	16	67.819198828773	-0.038909912109375	-0.0387725830078125	2.17590332031251E-07	-8.43653857884874E-09	-178190.75	-2.1882350154101E-08
1	17	67.9199068285187	-0.028839111328125	-0.0287078857421875	3.021240234375E-07	-8.67334204457393E-09	-95020.203125	4.28734558965971E-09
1	18	68.0206148282645	-0.018768310546875	-0.01864013671875	4.15649414062499E-07	-7.74776154344181E-09	-44845.81640625	4.04301090384251E-08
1	19	68.1213228280102	-0.008697509765625	-0.0085906982421875	5.65185546875E-07	-4.8553383535932E-09	-15199.7841796875	8.98190677389721E-08
1	20	68.2220308277559	0.001373291015625	0.00145568847656249	7.5714111328125E-07	1.10216158422105E-09	1922.61193847656	1.56403501705427E-07
1	21	68.3227388275017	0.011444091796875	0.0115509033203125	9.918212890625E-07	1.14564313591359E-08	11646.154296875	2.44470754751092E-07
1	22	68.4234468272474	0.021514892578125	0.021630859375	1.260986328125E-06	2.72762168407326E-08	17153.919921875	3.57908618298097E-07
1	23	68.5241548269931	0.031585693359375	0.0316650390625	1.54937744140625E-06	4.90610965186988E-08	20437.265625	4.99421673794131E-07
1	24	68.6248628267389	0.041656494140625	0.0417327880859375	1.83074951171875E-06	7.64022800581188E-08	22795.466796875	6.69624569127336E-07
1	25	68.7255708264846	0.051727294921875	0.0517578125	2.07763671875E-06	1.07533935533866E-07	24911.869140625	8.66427456003294E-07
1	26	68.8262788262304	0.061798095703125	0.061859130859375	2.26409912109375E-06	1.40055206543366E-07	27321.7421875	1.0850512808247E-06
1	27	68.9269868259761	0.071868896484375	0.0718994140625	2.3785400390625E-06	1.71015628325222E-07	30228.3828125	1.31882666210004E-06
1	28	69.0276948257218	0.081939697265625	0.082000732421875	2.42401123046875E-06	1.98770692350081E-07	33828.52734375	1.56065436840436E-06
1	29	69.1284028254676	0.092010498046875	0.092041015625	2.41180419921875E-06	2.21984905124373E-07	38162.72265625	1.80415702288883E-06
1	30	69.2291108252133	0.102081298828125	0.102142333984375	2.3602294921875E-06	2.41079334273309E-07	43276.44140625	2.04444791052083E-06
1	31	69.329818824959	0.112152099609375	0.112152099609375	2.2845458984375E-06	2.56216623029104E-07	49091.63671875	2.27833106691833E-06
1	32	69.4305268247048	0.122222900390625	0.12225341796875	2.19970703125E-06	2.68921695578683E-07	55577.13671875	2.50413108915382E-06
1	33	69.5312348244505	0.132293701171875	0.13238525390625	2.11181640625E-06	2.79573356465335E-07	62687.859375	2.72123361355625E-06
1	34	69.6319428241962	0.142364501953125	0.142425537109375	2.027587890625E-06	2.88780313439929E-07	70243.828125	2.92966910819814E-06
1	35	69.732650823942	0.152435302734375	0.15252685546875	1.9488525390625E-06	2.97252341852072E-07	78264.953125	3.12989868689328E-06
1	36	69.8333588236877	0.162506103515625	0.16253662109375	1.87774658203125E-06	3.05202576100783E-07	86559.40625	3.3225833249162E-06
1	37	69.9340668234335	0.172576904296875	0.172607421875	1.81365966796875E-06	3.13051117473151E-07	95170.7890625	3.50846039509634E-06
1	38	70.0347748231792	0.182647705078125	0.1827392578125	1.7559814453125E-06	3.20886755389438E-07	104066.734375	3.68820610674447E-06
1	39	70.1354828229249	0.192718505859375	0.192779541015625	1.70440673828125E-06	3.28574742525234E-07	113106.5390625	3.86245028494159E-06
1	40	70.2361908226707	0.202789306640625	0.20281982421875	1.658935546875E-06	3.36465006967046E-07	122259.015625	4.03180820285343E-06
1	41	70.3368988224164	0.212860107421875	0.212921142578125	1.61773681640625E-06	3.44450370448612E-07	131616.6875	4.19680191043881E-06
1	42	70.4376068221621	0.222930908203125	0.222930908203125	1.58111572265625E-06	3.5247956020612E-07	140995.953125	4.35787660535425E-06
1	43	70.5383148219079	0.233001708984375	0.233001708984375	1.549072265625E-06	3.60936468268847E-07	150413.71875	4.51549431090825E-06
1	44	70.6390228216536	0.243072509765625	0.2430419921875	1.51947021484375E-06	3.69295065638653E-07	159951.796875	4.67000745629775E-06
1	45	70.7397308213993	0.253143310546875	0.253143310546875	1.49261474609375E-06	3.77845424281986E-07	169597.21875	4.82167797599686E-06
1	46	70.8404388211451	0.263214111328125	0.263153076171875	1.46881103515625E-06	3.86522117423738E-07	179160.609375	4.97079781780485E-06
1	47	70.9411468208908	0.273284912109375	0.273284912109375	1.4471435546875E-06	3.95482487647314E-07	188844.375	5.11762800670112E-06
1	48	71.0418548206366	0.283355712890625	0.2833251953125	1.42791748046875E-06	4.04564985956313E-07	198418.46875	5.26239864484523E-06
1	49	71.1425628203823	0.293426513671875	0.29339599609375	1.409912109375E-06	4.13662576193019E-07	208095.234375	5.40529481440899E-06
1	50	71.243270820128	0.303497314453125	0.30352783203125	1.3934326171875E-06	4.22945589662049E-07	217827.421875	5.54645430383971E-06
1	51	71.3439788198738	0.313568115234375	0.313568115234375	1.37939453125E-06	4.32534108085747E-07	227323.015625	5.68607720197178E-06
1	52	71.4446868196195	0.323638916015625	0.323638916015625	1.365966796875E-06	4.42080022367008E-07	236930.296875	5.82431721340981E-06
1	53	71.5453948193652	0.333709716796875	0.333740234375	1.35467529296875E-06	4.52109645721066E-07	246361.796875	5.96131258134847E-06
1	54	71.646102819111	0.343780517578125	0.34381103515625	1.343994140625E-06	4.62080009810961E-07	255812.90625	6.09720109423506E-06
1	55	71.7468108188567	0.353851318359375	0.353851318359375	1.33453369140625E-06	4.72226474812487E-07	265149.78125	6.23207597527653E-06
1	56	71.8475188186025	0.363922119140625	0.36395263671875	1.32598876953125E-06	4.82597101836291E-07	274476.4375	6.36604363535298E-06
1	57	71.9482268183482	0.373992919921875	0.374053955078125	1.3189697265625E-06	4.93365803322376E-07	283595.5625	6.49922776574385E-06
1	58	72.0489348180939	0.384063720703125	0.384063720703125	1.31256103515625E-06	5.04107049437152E-07	292606.375	6.63173614157131E-06
1	59	72.1496428178397	0.394134521484375	0.394134521484375	1.307373046875E-06	5.15280873969459E-07	301470.59375	6.76366016705288E-06
1	60	72.2503508175854	0.404205322265625	0.40423583984375	1.30279541015625E-06	5.26636540598702E-07	310283.46875	6.89509261064813E-06
1	61	72.3510588173311	0.414276123046875	0.414276123046875	1.2994384765625E-06	5.38326276000589E-07	318811.65625	7.02612533132196E-06
1	62	72.4517668170769	0.424346923828125	0.424346923828125	1.2969970703125E-06	5.50376739738567E-07	327176.46875	7.15686655894388E-06
1	63	72.5524748168226	0.434417724609375	0.434417724609375	1.295166015625E-06	5.6264303793796E-07	335414.71875	7.28739223632147E-06
1	64	72.6531828165683	0.444488525390625	0.444549560546875	1.2939453125E-06	5.7522282759237E-07	343561.34375	7.41776420909446E-06
1	65	72.7538908163141	0.454559326171875	0.454559326171875	1.292724609375E-06	5.87620036185399E-07	351628.90625	7.54801340008271E-06
1	66	72.8545988160598	0.464630126953125	0.464599609375	1.292724609375E-06	6.00599378230982E-07	359395.65625	7.67820074543124E-06
1	67	72.9553068158056	0.474700927734375	0.4747314453125	1.2939453125E-06	6.14276530086499E-07	366886.8125	7.80845039116684E-06
1	68	73.0560148155513	0.484771728515625	0.484771728515625	1.2957763671875E-06	6.28155703452649E-07	374116.84375	7.93885283201234E-06
1	69	73.156722815297	0.494842529296875	0.494842529296875	1.29852294921875E-06	6.42564316422067E-07	381081.09375	8.0694862845121E-06
1	70	73.2574308150428	0.504913330078125	0.5048828125	1.30157470703125E-06	6.57142663840204E-07	387901.53125	8.20041168481112E-06
1	71	73.3581388147885	0.514984130859375	0.514923095703125	1.30615234375E-06	6.72567978199368E-07	394229	8.33172089187428E-06
1	72	73.4588468145342	0.525054931640625	0.525054931640625	1.31195068359375E-06	6.88846171215118E-07	400209.375	8.46355305839097E-06
1	73	73.55955481428	0.535125732421875	0.535125732421875	1.31988525390625E-06	7.06304547293257E-07	405433.53125	8.59607644088101E-06
1	74	73.6602628140257	0.545196533203125	0.545166015625	1.3299560546875E-06	7.25046845673205E-07	409912.8125	8.72950658958871E-06
1	75	73.7609708137715	0.555267333984375	0.555328369140625	1.3421630859375E-06	7.45341196761728E-07	413756.25	8.8640590547584E-06
1	76	73.8616788135172	0.565338134765625	0.56536865234375	1.3592529296875E-06	7.68478969348507E-07	415940.75	9.00008581083966E-06
1	77	73.9623868132629	0.575408935546875	0.57537841796875	1.3836669921875E-06	7.96132098912494E-07	415835.9375	9.1382025857456E-06
1	78	74.0630948130087	0.585479736328125	0.585540771484375	1.41632080078125E-06	8.29313535177789E-07	413423.84375	9.27919336390914E-06
1	79	74.1638028127544	0.595550537109375	0.595489501953125	1.46392822265625E-06	8.71753854880808E-07	406775.09375	9.42422502703266E-06
1	80	74.2645108125001	0.605621337890625	0.605621337890625	1.5313720703125E-06	9.27431585751037E-07	395476.28125	9.57505108090118E-06
1	81	74.3652188122459	0.615692138671875	0.615692138671875	1.6290283203125E-06	1.00297984317876E-06	377950.5625	9.73418991634389E-06
1	82	74.4659268119916	0.625762939453125	0.625732421875	1.77001953125E-06	1.10755854620948E-06	353517.25	9.90534499578644E-06
1	83	74.5666348117373	0.635833740234375	0.63580322265625	1.96502685546875E-06	1.24937037071504E-06	323559.5625	1.00934194051661E-05
1	84	74.6673428114831	0.645904541015625	0.645843505859375	2.227783203125E-06	1.43879924507928E-06	289904.125	1.03045440482674E-05
1	85	74.7680508112288	0.655975341796875	0.655975341796875	2.56866455078125E-06	1.68498058883415E-06	255376.03125	1.05460649137967E-05
1	86	74.8687588109746	0.666046142578125	0.665985107421875	2.99285888671875E-06	1.99319924831798E-06	222524.734375	1.08261101559037E-05
1	87	74.9694668107203	0.676116943359375	0.676055908203125	3.4906005859375E-06	2.35984111895959E-06	193678.96875	1.11525778265786E-05
1	88	75.070174810466	0.686187744140625	0.68609619140625	4.04296875E-06	2.77386538982682E-06	169701.09375	1.15319235192146E-05
1	89	75.1708828102118	0.696258544921875	0.696197509765625	4.61212158203125E-06	3.21094739774708E-06	150949.515625	1.19677415568731E-05
1	90	75.2715908099575	0.706329345703125	0.706207275390625	5.157470703125E-06	3.64224342774833E-06	136929	1.24596799651044E-05
1	91	75.3722988097032	0.716400146484375	0.71624755859375	5.621337890625E-06	4.02626938011963E-06	127415.859375	1.30024354803027E-05
1	92	75.473006809449	0.726470947265625	0.726318359375	5.9722900390625E-06	4.33778359365533E-06	121614.7265625	1.3586221029982E-05
1	93	75.5737148091947	0.736541748046875	0.736358642578125	6.182861328125E-06	4.55280360256438E-06	119096.7421875	1.41982818604447E-05
1	94	75.6744228089404	0.746612548828125	0.746429443359375	6.256103515625E-06	4.66973961010808E-06	119312.1953125	1.48246335811564E-05
1	95	75.7751308086862	0.756683349609375	0.7562255859375	6.2164306640625E-06	4.70102349936496E-06	121649.4921875	1.5452675143024E-05
1	96	75.8758388084319	0.766754150390625	0.76690673828125	6.1004638671875E-06	4.67848667540238E-06	125712.859375	1.60728795890464E-05
1	97	75.9765468081777	0.776824951171875	0.7769775390625	5.94482421875E-06	4.61899480797001E-06	130698.15625	1.66794088727329E-05
1	98	76.0772548079234	0.786895751953125	0.78704833984375	5.7830810546875E-06	4.55156396128586E-06	136095	1.72699546965305E-05
1	99	76.1779628076691	0.796966552734375	0.79742431640625	5.6427001953125E-06	4.49962635684642E-06	141319.625	1.78452901309356E-05
1	100	76.2786708074149	0.807037353515625	0.80718994140625	5.5328369140625E-06	4.46605008619372E-06	145890.796875	1.84080217877636E-05
1	101	76.3793788071606	0.817108154296875	0.8172607421875	5.4656982421875E-06	4.46690046373988E-06	149525.40625	1.89618422155036E-05
1	102	76.4800868069063	0.827178955078125	0.82733154296875	5.45654296875E-06	4.51437017545686E-06	151621.921875	1.95118209376233E-05
1	103	76.5807948066521	0.837249755859375	0.83709716796875	5.499267578125E-06	4.6034210754442E-06	152219.765625	2.00634895008989E-05
1	104	76.6815028063978	0.847320556640625	0.84716796875	5.5938720703125E-06	4.73894897368154E-06	151445.734375	2.06220738618867E-05
1	105	76.7822108061436	0.857391357421875	0.85784912109375	5.72509765625E-06	4.91127002533176E-06	149840.078125	2.11920287256362E-05
1	106	76.8829188058893	0.867462158203125	0.8673095703125	5.877685546875E-06	5.09777282786672E-06	147559.71875	2.17762753891293E-05
1	107	76.983626805635	0.877532958984375	0.87738037109375	6.0211181640625E-06	5.28281088918447E-06	145717.1875	2.23754286707845E-05
1	108	77.0843348053808	0.887603759765625	0.88775634765625	6.1279296875E-06	5.44010845260345E-06	144870.515625	2.2987182092038E-05
1	109	77.1850428051265	0.897674560546875	0.897216796875	6.18896484375E-06	5.55284304937231E-06	144970.421875	2.36073865380604E-05
1	110	77.2857508048722	0.907745361328125	0.9075927734375	6.195068359375E-06	5.62259901926154E-06	146502.46875	2.4230972485384E-05
1	111	77.386458804618	0.917816162109375	0.91796875	6.158447265625E-06	5.65326172363712E-06	149058.484375	2.48530213866616E-05
1	112	77.4871668043637	0.927886962890625	0.92803955078125	6.09130859375E-06	5.65297523280606E-06	152354.71875	2.54698443313828E-05
1	113	77.5878748041094	0.937957763671875	0.9381103515625	6.0150146484375E-06	5.64274751013727E-06	155961.4375	2.60794458881719E-05
1	114	77.6885828038552	0.948028564453125	0.9478759765625	5.938720703125E-06	5.6291705732292E-06	159609.453125	2.66813658527099E-05
1	115	77.7892908036009	0.958099365234375	0.95794677734375	5.8807373046875E-06	5.63343337489641E-06	162895.6875	2.72765228146454E-05
1	116	77.8899988033467	0.968170166015625	0.96771240234375	5.8502197265625E-06	5.66133030588389E-06	165414.71875	2.78672232525423E-05
1	117	77.9907068030924	0.978240966796875	0.97869873046875	5.865478515625E-06	5.74053592572454E-06	166857.453125	2.84571542579215E-05
1	118	78.0914148028381	0.988311767578125	0.98846435546875	5.9234619140625E-06	5.85513089390588E-06	166872.75	2.90507759928005E-05
1	119	78.1921228025839	0.998382568359375	0.99853515625	6.036376953125E-06	6.02753425482661E-06	165419.625	2.96530015475582E-05
1	120	78.2928308023296	1.00845336914063	1.00830078125	6.195068359375E-06	6.24649192104698E-06	162758.625	3.02689022646518E-05
1	121	78.3935388020753	1.01852416992188	1.01837158203125	6.3934326171875E-06	6.51089021630469E-06	159284.015625	3.09027855109889E-05
1	122	78.4942468018211	1.02859497070313	1.0284423828125	6.6009521484375E-06	6.78869901094004E-06	155802.125	3.15571051032748E-05
1	123	78.5949548015668	1.03866577148438	1.03790283203125	6.793212890625E-06	7.05069487594301E-06	152785.265625	3.22315536323003E-05
1	124	78.6956628013126	1.04873657226563	1.04888916015625	6.9427490234375E-06	7.28217401047004E-06	151076.921875	3.29232134390622E-05
1	125	78.7963708010583	1.05880737304688	1.05865478515625	7.0343017578125E-06	7.44689714338165E-06	150498.921875	3.36270131811034E-05
1	126	78.897078800804	1.06887817382813	1.0693359375	7.0587158203125E-06	7.5481384556042E-06	151491.578125	3.43366555171087E-05
1	127	78.9977868005498	1.07894897460938	1.0791015625	7.0220947265625E-06	7.57755287850159E-06	153672.328125	3.50456793967169E-05
1	128	79.0984948002955	1.08901977539063	1.08917236328125	6.9427490234375E-06	7.56184999772813E-06	156879.125	3.57488643203396E-05
1	129	79.1992028000412	1.09909057617188	1.0986328125	6.8359375E-06	7.51018478695187E-06	160714.296875	3.64426778105553E-05
1	130	79.299910799787	1.10916137695313	1.109619140625	6.7169189453125E-06	7.45322176953778E-06	165197.640625	3.712511897902E-05
1	131	79.4006187995327	1.11923217773438	1.11907958984375	6.5948486328125E-06	7.38016024115495E-06	169689.96875	3.77954165742267E-05
1	132	79.5013267992784	1.12930297851563	1.1297607421875	6.475830078125E-06	7.3161386353604E-06	174458.0625	3.84535778721329E-05
1	133	79.6020347990242	1.13937377929688	1.13983154296875	6.3629150390625E-06	7.25265135770314E-06	179136.6875	3.91000612580683E-05
1	134	79.7027427987699	1.14944458007813	1.1492919921875	6.2591552734375E-06	7.19359695722233E-06	183617.75	3.97356343455613E-05
1	135	79.8034507985157	1.15951538085938	1.15936279296875	6.16455078125E-06	7.14695033821044E-06	188069.3125	4.03612175432499E-05
1	136	79.9041587982614	1.16958618164063	1.1700439453125	6.0821533203125E-06	7.11638631401001E-06	192373.3125	4.09778876928613E-05
1	137	80.0048667980071	1.17965698242188	1.17919921875	6.005859375E-06	7.08210427546874E-06	196341.46875	4.15865652030334E-05
1	138	80.1055747977529	1.18972778320313	1.1895751953125	5.9356689453125E-06	7.0609244176012E-06	200411.3125	4.21878721681423E-05
1	139	80.2062827974986	1.19979858398438	1.199951171875	5.8746337890625E-06	7.04927333572414E-06	204259.75	4.278256528778E-05
1	140	80.3069907972443	1.20986938476563	1.2091064453125	5.8197021484375E-06	7.03663909007446E-06	207760.890625	4.33714230894111E-05
1	141	80.4076987969901	1.21994018554688	1.21978759765625	5.7708740234375E-06	7.03924024492153E-06	211369.65625	4.39550531154964E-05
1	142	80.5084067967358	1.23001098632813	1.23016357421875	5.72509765625E-06	7.04280682839453E-06	214872.0625	4.4533924665302E-05
1	143	80.6091147964815	1.24008178710938	1.2396240234375	5.6854248046875E-06	7.04778904037084E-06	218035.4375	4.51084888482001E-05
1	144	80.7098227962273	1.25015258789063	1.25	5.6488037109375E-06	7.0610039983876E-06	221285.796875	4.56792113254778E-05
1	145	80.810530795973	1.26022338867188	1.2603759765625	5.6182861328125E-06	7.08115294401068E-06	224334.59375	4.62465541204438E-05
1	146	80.9112387957188	1.27029418945313	1.2701416015625	5.5908203125E-06	7.10113363311393E-06	227183.40625	4.68109792564064E-05
1	147	81.0119467954645	1.28036499023438	1.280517578125	5.5633544921875E-06	7.1239733188122E-06	230170.046875	4.73726358904969E-05
1	148	81.1126547952102	1.29043579101563	1.29058837890625	5.5419921875E-06	7.15243049853598E-06	232874.46875	4.79318332509138E-05
1	149	81.213362794956	1.30050659179688	1.3006591796875	5.523681640625E-06	7.1844269768917E-06	235469.625	4.84890369989444E-05
1	150	81.3140707947017	1.31057739257813	1.31103515625	5.5084228515625E-06	7.22173626854783E-06	238005.546875	4.90445454488508E-05
1	151	81.4147787944474	1.32064819335938	1.32080078125	5.4962158203125E-06	7.25940572010586E-06	240310.953125	4.95986751047894E-05
1	152	81.5154867941932	1.33071899414063	1.33056640625	5.487060546875E-06	7.30089777789544E-06	242491.671875	5.01517242810223E-05
1	153	81.6161947939389	1.34078979492188	1.34124755859375	5.48095703125E-06	7.35132016416173E-06	244710.46875	5.07040094817057E-05
1	154	81.7169027936847	1.35086059570313	1.3507080078125	5.4779052734375E-06	7.39905044611078E-06	246573.8125	5.12558326590806E-05
1	155	81.8176107934304	1.36093139648438	1.36077880859375	5.4779052734375E-06	7.45421721148887E-06	248412.265625	5.18074994033668E-05
1	156	81.9183187931761	1.37100219726563	1.37054443359375	5.48095703125E-06	7.51189509173855E-06	250055.671875	5.23593225807417E-05
1	157	82.0190267929219	1.38107299804688	1.38153076171875	5.487060546875E-06	7.58054238758632E-06	251779.765625	5.29116077814251E-05
1	158	82.1197347926676	1.39114379882813	1.39129638671875	5.4931640625E-06	7.64261858421378E-06	253277.78125	5.34645041625481E-05
1	159	82.2204427924133	1.40121459960938	1.40106201171875	5.5023193359375E-06	7.70909082348226E-06	254631.171875	5.40181717951782E-05
1	160	82.3211507921591	1.41128540039063	1.4111328125	5.511474609375E-06	7.77742297941586E-06	256035.4375	5.45727598364465E-05
1	161	82.4218587919048	1.42135620117188	1.42120361328125	5.523681640625E-06	7.85027623351198E-06	257292.828125	5.51284247194417E-05
1	162	82.5225667916505	1.43142700195313	1.43157958984375	5.5389404296875E-06	7.92943410488078E-06	258457.296875	5.56854720343836E-05
1	163	82.6232747913963	1.44149780273438	1.441650390625	5.55419921875E-06	8.0072131822817E-06	259560.4375	5.6244054576382E-05
1	164	82.723982791142	1.45156860351563	1.451416015625	5.5755615234375E-06	8.09245921118418E-06	260317.46875	5.68044815736357E-05
1	165	82.8246907908878	1.46163940429688	1.46148681640625	5.596923828125E-06	8.17982981970999E-06	261123.234375	5.73670622543432E-05
1	166	82.9253987906335	1.47171020507813	1.4715576171875	5.62744140625E-06	8.28110387374181E-06	261496.75	5.79322550038341E-05
1	167	83.0261067903792	1.48178100585938	1.48162841796875	5.6671142578125E-06	8.39655785966897E-06	261443.1875	5.85009802307468E-05
1	168	83.126814790125	1.49185180664063	1.49200439453125	5.718994140625E-06	8.53276469570119E-06	260885.8125	5.9074314776808E-05
1	169	83.2275227898707	1.50192260742188	1.50177001953125	5.7891845703125E-06	8.69402356329374E-06	259409.609375	5.96537975070532E-05
1	170	83.3282307896164	1.49185180664063	1.49200439453125	5.5023193359375E-06	8.209484803956E-06	271159.1875	6.0222369938856E-05
1	171	83.4289387893622	1.48178100585938	1.48223876953125	5.291748046875E-06	7.84363419370493E-06	280103.8125	6.07658948865719E-05
1	172	83.5296467891079	1.47171020507813	1.47216796875	5.126953125E-06	7.54773600419867E-06	287142.875	6.1290520534385E-05
1	173	83.6303547888537	1.46163940429688	1.46209716796875	4.99267578125E-06	7.29977682567551E-06	292848.40625	6.18000849499367E-05
1	174	83.7310627885994	1.45156860351563	1.451416015625	4.8785400390625E-06	7.08079096511938E-06	297510.3125	6.2297134718392E-05
1	175	83.8317707883451	1.44149780273438	1.44134521484375	4.78302001953125E-06	6.89398302711197E-06	301346.28125	6.27836343483068E-05
1	176	83.9324787880909	1.43142700195313	1.4312744140625	4.70062255859375E-06	6.72788064548513E-06	304486.15625	6.32611772743985E-05
1	177	84.0331867878366	1.42135620117188	1.4215087890625	4.62860107421875E-06	6.57959662930807E-06	307114.15625	6.37309422018006E-05
1	178	84.1338947875823	1.41128540039063	1.4111328125	4.5654296875E-06	6.44242754788138E-06	309090.90625	6.41938968328759E-05
1	179	84.2346027873281	1.40121459960938	1.40106201171875	4.50836181640625E-06	6.31649436400039E-06	310769.65625	6.46507978672162E-05
1	180	84.3353107870738	1.39114379882813	1.39129638671875	4.45648193359375E-06	6.20028686171281E-06	312196.125	6.51022128295153E-05
1	181	84.4360187868195	1.38107299804688	1.38092041015625	4.4097900390625E-06	6.08956906944513E-06	313148.78125	6.55486655887216E-05
1	182	84.5367267865653	1.37100219726563	1.3714599609375	4.36614990234375E-06	5.98799988438259E-06	314111.96875	6.59905708744191E-05
1	183	84.637434786311	1.36093139648438	1.36077880859375	4.326171875E-06	5.88696275372058E-06	314545.71875	6.64282633806579E-05
1	184	84.7381427860568	1.35086059570313	1.35040283203125	4.28924560546875E-06	5.79220932195312E-06	314834.5625	6.6862085077446E-05
1	185	84.8388507858025	1.34078979492188	1.34063720703125	4.2547607421875E-06	5.7040906540351E-06	315091.09375	6.7292305175215E-05
1	186	84.9395587855482	1.33071899414063	1.33087158203125	4.222412109375E-06	5.61948809263413E-06	315192.28125	6.77191637805663E-05
1	187	85.040266785294	1.32064819335938	1.32049560546875	4.19281005859375E-06	5.53658719582018E-06	314942.84375	6.81429082760587E-05
1	188	85.1409747850397	1.31057739257813	1.31072998046875	4.163818359375E-06	5.45764123671688E-06	314790.40625	6.85636987327598E-05
1	189	85.2416827847854	1.30050659179688	1.30096435546875	4.136962890625E-06	5.38204085387406E-06	314473.3125	6.89816733938642E-05
1	190	85.3423907845312	1.29043579101563	1.29058837890625	4.11224365234375E-06	5.30721354152774E-06	313840.46875	6.93970578140579E-05
1	191	85.4430987842769	1.28036499023438	1.28021240234375	4.08843994140625E-06	5.23407106811646E-06	313129.8125	6.98099902365357E-05
1	192	85.5438067840226	1.27029418945313	1.27044677734375	4.066162109375E-06	5.16584259457886E-06	312443.71875	7.02206089044921E-05
1	193	85.6445147837684	1.26022338867188	1.2603759765625	4.0447998046875E-06	5.09796882397495E-06	311604.03125	7.06290302332491E-05
1	194	85.7452227835141	1.25015258789063	1.25030517578125	4.02435302734375E-06	5.03166938869981E-06	310684.75	7.10353415342979E-05
1	195	85.8459307832599	1.24008178710938	1.240234375	4.00482177734375E-06	4.96691745865974E-06	309685.28125	7.14396446710452E-05
1	196	85.9466387830056	1.23001098632813	1.23016357421875	3.985595703125E-06	4.90293450639001E-06	308652.40625	7.18419905751944E-05
1	197	86.0473467827513	1.21994018554688	1.21978759765625	3.96697998046875E-06	4.83887288282858E-06	307485.1875	7.22424374544062E-05
1	198	86.1480547824971	1.20986938476563	1.21002197265625	3.9495849609375E-06	4.77908452012343E-06	306366.875	7.26410653442144E-05
1	199	86.2487627822428	1.19979858398438	1.19903564453125	3.931884765625E-06	4.71446992378333E-06	304951.875	7.30379324522801E-05
1	200	86.3494707819885	1.18972778320313	1.18988037109375	3.9141845703125E-06	4.65741140942555E-06	303991.875	7.34330096747726E-05
1	201	86.4501787817343	1.17965698242188	1.17950439453125	3.89495849609375E-06	4.59412058262387E-06	302828.5	7.38262315280735E-05
1	202	86.55088678148	1.16958618164063	1.16973876953125	3.8751220703125E-06	4.53288021162734E-06	301858.59375	7.42174888728186E-05
1	203	86.6515947812258	1.15951538085938	1.15936279296875	3.85223388671875E-06	4.46613648819039E-06	300958.5625	7.460659253411E-05
1	204	86.7523027809715	1.14944458007813	1.14959716796875	3.82568359375E-06	4.3979948713968E-06	300494.59375	7.49932078178972E-05
1	205	86.8530107807172	1.13937377929688	1.1395263671875	3.7939453125E-06	4.3233008000243E-06	300353.9375	7.53768836148083E-05
1	206	86.953718780463	1.12930297851563	1.12945556640625	3.75396728515625E-06	4.2399392441439E-06	300869.875	7.57569505367428E-05
1	207	87.0544267802087	1.11923217773438	1.11968994140625	3.70208740234375E-06	4.1451899051026E-06	302448.28125	7.61323972255923E-05
1	208	87.1551347799544	1.10916137695313	1.109619140625	3.634033203125E-06	4.03239300794667E-06	305340.9375	7.65017975936644E-05
1	209	87.2558427797002	1.09909057617188	1.0992431640625	3.54278564453125E-06	3.89438309866819E-06	310276.5	7.68631798564456E-05
1	210	87.3565507794459	1.08901977539063	1.0894775390625	3.4222412109375E-06	3.72845488527673E-06	318352.0625	7.72138955653645E-05
1	211	87.4572587791916	1.07894897460938	1.07879638671875	3.26446533203125E-06	3.52169331563346E-06	330466.5	7.75505977799185E-05
1	212	87.5579667789374	1.06887817382813	1.0687255859375	3.06365966796875E-06	3.27421139445505E-06	348839.53125	7.7869241067674E-05
1	213	87.6586747786831	1.05880737304688	1.05865478515625	2.821044921875E-06	2.98651252705895E-06	375270.46875	7.81655617174692E-05
1	214	87.7593827784289	1.04873657226563	1.048583984375	2.54241943359375E-06	2.66594042841461E-06	412435.46875	7.84356379881501E-05
1	215	87.8600907781746	1.03866577148438	1.03851318359375	2.24578857421875E-06	2.33228092838544E-06	462427	7.86767413956113E-05
1	216	87.9607987779203	1.02859497070313	1.02874755859375	1.95526123046875E-06	2.01147031475557E-06	526143.25	7.88882825872861E-05
1	217	88.0615067776661	1.01852416992188	1.01837158203125	1.700439453125E-06	1.73167916273087E-06	598887.3125	7.90723570389673E-05
1	218	88.1622147774118	1.00845336914063	1.00921630859375	1.5045166015625E-06	1.51838264628168E-06	670791.0625	7.92337450548075E-05
1	219	88.2629227771575	0.998382568359375	0.99822998046875	1.3848876953125E-06	1.38243638048152E-06	720802.125	7.93792351032607E-05
1	220	88.3636307769033	0.988311767578125	0.9881591796875	1.33880615234375E-06	1.32295349430933E-06	738089.8125	7.95163869042881E-05
1	221	88.464338776649	0.978240966796875	0.9783935546875	1.3543701171875E-06	1.32510695038945E-06	722397.5	7.96519962023012E-05
1	222	88.5650467763948	0.968170166015625	0.96832275390625	1.40594482421875E-06	1.36140829454234E-06	688734.5625	7.9790988820605E-05
1	223	88.6657547761405	0.958099365234375	0.95855712890625	1.46484375E-06	1.40413646931847E-06	654375	7.99355475464836E-05
1	224	88.7664627758862	0.948028564453125	0.94818115234375	1.51275634765625E-06	1.43436705002387E-06	626790.4375	8.00854759290814E-05
1	225	88.867170775632	0.937957763671875	0.93780517578125	1.53594970703125E-06	1.44042155625357E-06	610570.25	8.02389913587831E-05
1	226	88.9678787753777	0.927886962890625	0.927734375	1.52587890625E-06	1.41561019972869E-06	608000.0625	8.03931689006276E-05
1	227	89.0685867751234	0.917816162109375	0.9185791015625	1.47491455078125E-06	1.35482559926459E-06	622801.625	8.05442687124014E-05
1	228	89.1692947748692	0.907745361328125	0.9075927734375	1.37664794921875E-06	1.24943574064673E-06	659277.375	8.06878597359173E-05
1	229	89.2700027746149	0.897674560546875	0.89813232421875	1.22772216796875E-06	1.10265693820111E-06	731543.625	8.08190015959553E-05
1	230	89.3707107743606	0.887603759765625	0.88775634765625	1.0357666015625E-06	9.19508352126286E-07	857100.8125	8.09329721960239E-05
1	231	89.4714187741064	0.877532958984375	0.87799072265625	8.1298828125E-07	7.13796168838599E-07	1079955	8.10260680736974E-05
1	232	89.5721267738521	0.867462158203125	0.86761474609375	5.8349609375E-07	5.06249818954529E-07	1486924.625	8.10963829280809E-05
1	233	89.6728347735979	0.857391357421875	0.8575439453125	3.72924804687499E-07	3.19799397630049E-07	2299509	8.11445424915291E-05
1	234	89.7735427733436	0.847320556640625	0.848388671875	2.06604003906249E-07	1.75280490566365E-07	4106351.75	8.11737263575196E-05
1	235	89.8742507730893	0.837249755859375	0.8380126953125	9.918212890625E-08	8.31158786240849E-08	8449231	8.11891222838312E-05
1	236	89.9749587728351	0.827178955078125	0.82733154296875	5.24902343749994E-08	4.3426826579207E-08	15761628	8.11967620393261E-05
1	237	90.0756667725808	0.817108154296875	0.8172607421875	5.67626953124997E-08	4.63899212377328E-08	14397850	8.12022626632825E-05
1	238	90.1763747723265	0.807037353515625	0.80718994140625	9.64355468749997E-08	7.78417970082046E-08	8370253.5	8.12099751783535E-05
1	239	90.2770827720723	0.796966552734375	0.797119140625	1.4678955078125E-07	1.17008760014414E-07	5430353.5	8.12222206150182E-05
1	240	90.377790771818	0.786895751953125	0.78704833984375	1.84020996093751E-07	1.44833421700241E-07	4276948.5	8.12388825579546E-05
1	241	90.4784987715637	0.776824951171875	0.7769775390625	1.83715820312499E-07	1.42743061815054E-07	4229236	8.12573998700827E-05
1	242	90.5792067713095	0.766754150390625	0.76690673828125	1.25732421874999E-07	9.64250332913252E-08	6099515	8.12729776953347E-05
1	243	90.6799147710552	0.756683349609375	0.7568359375	-7.01904296875056E-09	-5.31226396205398E-09	-107826088	8.12789585324936E-05
1	244	90.780622770801	0.746612548828125	0.746551513671875	-2.2918701171875E-07	-1.71099912904538E-07	-3257390.25	8.12670623417944E-05
1	245	90.8813307705467	0.736541748046875	0.73651123046875	-5.48095703125E-07	-4.03678626526016E-07	-1343764	8.12279249657877E-05
1	246	90.9820387702924	0.726470947265625	0.7264404296875	-9.600830078125E-07	-6.97443056196789E-07	-756643.375	8.11519785202108E-05
1	247	91.0827467700382	0.716400146484375	0.71630859375	-1.4520263671875E-06	-1.04009893675538E-06	-493316.53125	8.10305209597573E-05
1	248	91.1834547697839	0.706329345703125	0.706268310546875	-1.98822021484375E-06	-1.40421695959958E-06	-355226.40625	8.08572949608788E-05
1	249	91.2841627695296	0.696258544921875	0.696197509765625	-2.5262451171875E-06	-1.7587655065654E-06	-275585.90625	8.06299722171389E-05
1	250	91.3848707692754	0.686187744140625	0.68609619140625	-3.01025390625E-06	-2.06532354241062E-06	-227919.71875	8.03511866251938E-05
1	251	91.4855787690211	0.676116943359375	0.67608642578125	-3.39630126953125E-06	-2.2961930881138E-06	-199065.5	8.00285924924538E-05
1	252	91.5862867687669	0.666046142578125	0.665985107421875	-3.64501953125E-06	-2.42752867052332E-06	-182710.984375	7.96740350779146E-05
1	253	91.6869947685126	0.655975341796875	0.65594482421875	-3.7457275390625E-06	-2.45699061451887E-06	-175118.140625	7.93018771219067E-05
1	254	91.7877027682583	0.645904541015625	0.6458740234375	-3.71002197265625E-06	-2.39620680986263E-06	-174089	7.89264522609301E-05
1	255	91.8884107680041	0.635833740234375	0.635833740234375	-3.57086181640625E-06	-2.27047439693706E-06	-178061.703125	7.85598313086666E-05
1	256	91.9891187677498	0.625762939453125	0.625762939453125	-3.369140625E-06	-2.10828329727519E-06	-185733.703125	7.8210374340415E-05
1	257	92.0898267674955	0.615692138671875	0.615692138671875	-3.1378173828125E-06	-1.93192931874364E-06	-196216.703125	7.78827234171331E-05
1	258	92.1905347672413	0.605621337890625	0.605621337890625	-2.89947509765625E-06	-1.75598393070686E-06	-208872.75	7.75787193560973E-05
1	259	92.291242766987	0.595550537109375	0.59552001953125	-2.6702880859375E-06	-1.5902099903542E-06	-223017.140625	7.7298260293901E-05
1	260	92.3919507667327	0.585479736328125	0.585479736328125	-2.45635986328125E-06	-1.43814895636751E-06	-238352.59375	7.70401093177497E-05
1	261	92.4926587664785	0.575408935546875	0.57537841796875	-2.26104736328125E-06	-1.3009578196943E-06	-254474.296875	7.68025711295195E-05
1	262	92.5933667662242	0.565338134765625	0.565338134765625	-2.0843505859375E-06	-1.17836293611617E-06	-271229.875	7.65837612561882E-05
1	263	92.69407476597	0.555267333984375	0.5552978515625	-1.9256591796875E-06	-1.06931429399992E-06	-288367.6875	7.63818461564369E-05
1	264	92.7947827657157	0.545196533203125	0.545166015625	-1.7828369140625E-06	-9.71942085925548E-07	-305785.6875	7.61951087042689E-05
1	265	92.8954907654614	0.535125732421875	0.53509521484375	-1.654052734375E-06	-8.85075678525027E-07	-323505.5625	7.6022042776458E-05
1	266	92.9961987652072	0.525054931640625	0.52508544921875	-1.5374755859375E-06	-8.07306037131639E-07	-341524.40625	7.58613387006335E-05
1	267	93.0969067649529	0.514984130859375	0.51495361328125	-1.4324951171875E-06	-7.37668528927315E-07	-359480.1875	7.57117886678316E-05
1	268	93.1976147646986	0.504913330078125	0.50494384765625	-1.3360595703125E-06	-6.74635032282822E-07	-377935.125	7.55723813199438E-05
1	269	93.2983227644444	0.494842529296875	0.4947509765625	-1.248779296875E-06	-6.17834757576929E-07	-396187.6875	7.54422217141837E-05
1	270	93.3990307641901	0.484771728515625	0.484771728515625	-1.168212890625E-06	-5.6631654388184E-07	-414968.65625	7.53205167711712E-05
1	271	93.4997387639359	0.474700927734375	0.4747314453125	-1.09405517578125E-06	-5.19382410857361E-07	-433919.125	7.52066043787636E-05
1	272	93.6004467636816	0.464630126953125	0.464630126953125	-1.02630615234375E-06	-4.76852733299893E-07	-452720.8125	7.50998369767331E-05
1	273	93.7011547634273	0.454559326171875	0.454620361328125	-9.63134765625E-07	-4.37860677493518E-07	-472021.53125	7.4999661592301E-05
1	274	93.8018627631731	0.444488525390625	0.444549560546875	-9.0484619140625E-07	-4.02248957698248E-07	-491298.5	7.49055980122648E-05
1	275	93.9025707629188	0.434417724609375	0.4344482421875	-8.50830078125001E-07	-3.69641639963447E-07	-510616.9375	7.48171951272525E-05
1	276	94.0032787626645	0.424346923828125	0.424346923828125	-7.99560546875E-07	-3.39291062800839E-07	-530725.1875	7.47340891393833E-05
1	277	94.1039867624103	0.414276123046875	0.414276123046875	-7.51342773437499E-07	-3.11263363528269E-07	-551381	7.46559962863103E-05
1	278	94.204694762156	0.404205322265625	0.404266357421875	-7.07092285156249E-07	-2.85853616333043E-07	-571730.6875	7.45825600461103E-05
1	279	94.3054027619017	0.394134521484375	0.394195556640625	-6.64672851562501E-07	-2.62011070617518E-07	-593067.0625	7.45134821045212E-05
1	280	94.4061107616475	0.384063720703125	0.384063720703125	-6.25000000000001E-07	-2.40039810250892E-07	-614501.9375	7.44485441828147E-05
1	281	94.5068187613932	0.373992919921875	0.373992919921875	-5.8624267578125E-07	-2.19250608779475E-07	-637949	7.4387549830135E-05
1	282	94.607526761139	0.363922119140625	0.3638916015625	-5.50537109375E-07	-2.00335819044994E-07	-660975.625	7.43303098715842E-05
1	283	94.7082347608847	0.353851318359375	0.3538818359375	-5.16662597656251E-07	-1.82837496254251E-07	-684938	7.42765769246034E-05
1	284	94.8089427606304	0.343780517578125	0.34381103515625	-4.8370361328125E-07	-1.66302640991489E-07	-710788.625	7.42261981940828E-05
1	285	94.9096507603762	0.333709716796875	0.33367919921875	-4.52880859375E-07	-1.51116921642824E-07	-736792.5	7.41790427127853E-05
1	286	95.0103587601219	0.323638916015625	0.32366943359375	-4.241943359375E-07	-1.37298741265113E-07	-763021.625	7.41348776500672E-05
1	287	95.1110667598676	0.313568115234375	0.3135986328125	-3.9642333984375E-07	-1.24317821814657E-07	-791070.0625	7.40935574867763E-05
1	288	95.2117747596134	0.303497314453125	0.303466796875	-3.69873046874999E-07	-1.12244187278066E-07	-820462.0625	7.40549658075906E-05
1	289	95.3124827593591	0.293426513671875	0.29339599609375	-3.436279296875E-07	-1.00819057990975E-07	-853818.8125	7.40190444048494E-05
1	290	95.4131907591049	0.283355712890625	0.283355712890625	-3.17993164062499E-07	-9.01051819823806E-08	-891074.8125	7.39857277949341E-05
1	291	95.5138987588506	0.273284912109375	0.2733154296875	-2.93579101562499E-07	-8.02396940002836E-08	-930977.1875	7.39549286663532E-05
1	292	95.6146067585963	0.263214111328125	0.263153076171875	-2.69775390625E-07	-7.09922218788961E-08	-975452.5625	7.39265669835731E-05
1	293	95.7153147583421	0.253143310546875	0.253204345703125	-2.471923828125E-07	-6.25901890316527E-08	-1024320.9375	7.39005336072296E-05
1	294	95.8160227580878	0.243072509765625	0.243072509765625	-2.2430419921875E-07	-5.45221823244901E-08	-1083673.5	7.38767921575345E-05
1	295	95.9167307578335	0.233001708984375	0.233001708984375	-2.03857421875001E-07	-4.74991246335321E-08	-1142964.125	7.38552334951237E-05
1	296	96.0174387575793	0.222930908203125	0.222930908203125	-1.84326171875E-07	-4.10920009130677E-08	-1209437.125	7.38356829970144E-05
1	297	96.118146757325	0.212860107421875	0.212921142578125	-1.64794921875E-07	-3.50883198052543E-08	-1292037.125	7.38181042834185E-05
1	298	96.2188547570707	0.202789306640625	0.202850341796875	-1.4678955078125E-07	-2.97763094181391E-08	-1381912.75	7.38024173188023E-05
1	299	96.3195627568165	0.192718505859375	0.19268798828125	-1.3092041015625E-07	-2.52267913225523E-08	-1471794.875	7.37884329282679E-05
1	300	96.4202707565622	0.182647705078125	0.182708740234375	-1.16882324218751E-07	-2.13554205430455E-08	-1563185.5	7.37759546609595E-05
1	301	96.520978756308	0.172576904296875	0.172637939453125	-1.0833740234375E-07	-1.87031456988507E-08	-1593521.125	7.3764611443039E-05
1	302	96.6216867560537	0.162506103515625	0.16253662109375	-1.04675292968751E-07	-1.70135674437688E-08	-1552769.75	7.37538866815157E-05
1	303	96.7223947557994	0.152435302734375	0.1524658203125	-1.080322265625E-07	-1.6471222608061E-08	-1411299.5	7.37431764719076E-05
1	304	96.8231027555452	0.142364501953125	0.142486572265625	-1.202392578125E-07	-1.71324785469551E-08	-1185025.5	7.37316804588772E-05
1	305	96.9238107552909	0.132293701171875	0.132354736328125	-1.434326171875E-07	-1.8983985938803E-08	-922766	7.37184018362314E-05
1	306	97.0245187550366	0.122222900390625	0.12225341796875	-1.81884765625E-07	-2.22360334589666E-08	-672147.6875	7.37020236556418E-05
1	307	97.1252267547824	0.112152099609375	0.11224365234375	-2.410888671875E-07	-2.7060693241765E-08	-465569.65625	7.36807269277051E-05
1	308	97.2259347545281	0.102081298828125	0.102142333984375	-3.28674316406249E-07	-3.3571559754364E-08	-310770.65625	7.36520378268324E-05
1	309	97.3266427542738	0.092010498046875	0.092041015625	-4.50439453125E-07	-4.14589038655322E-08	-204336.046875	7.36128058633767E-05
1	310	97.4273507540196	0.081939697265625	0.08197021484375	-6.1309814453125E-07	-5.02557853110375E-08	-133698.359375	7.35592475393787E-05
1	311	97.5280587537653	0.071868896484375	0.071929931640625	-8.2061767578125E-07	-5.9026969978504E-08	-87653.40625	7.34870554879308E-05
1	312	97.6287667535111	0.061798095703125	0.061859130859375	-1.068115234375E-06	-6.6072679771878E-08	-57914.28515625	7.33919514459558E-05
1	313	97.7294747532568	0.051727294921875	0.05181884765625	-1.3433837890625E-06	-6.96125965760075E-08	-38573.37890625	7.32705229893327E-05
1	314	97.8301827530025	0.041656494140625	0.0417694091796875	-1.62261962890625E-06	-6.77758578149223E-08	-25741.958984375	7.31211766833439E-05
1	315	97.9308907527483	0.031585693359375	0.0316558837890625	-1.88018798828125E-06	-5.95190137175905E-08	-16836.5546875	7.29447929188609E-05
1	316	98.031598752494	0.021514892578125	0.0216094970703125	-2.08526611328125E-06	-4.50615473823746E-08	-10362.9443359375	7.27451188140549E-05
1	317	98.1323067522397	0.011444091796875	0.01153564453125	-2.222900390625E-06	-2.56425884970213E-08	-5189.45654296875	7.2528186137788E-05
1	318	98.2330147519855	0.001373291015625	0.00147094726562499	-2.28759765625E-06	-3.36493566344132E-09	-643.009582519531	7.23010598449036E-05
1	319	98.3337227517312	-0.008697509765625	-0.0086181640625	-2.28759765625E-06	1.97148910530132E-08	3767.34252929688	7.20706811989658E-05
1	320	98.434430751477	-0.018768310546875	-0.0186492919921875	-2.2418212890625E-06	4.18083772046884E-08	8318.8125	7.18426090315916E-05
1	321	98.5351387512227	-0.028839111328125	-0.0287353515625	-2.1661376953125E-06	6.22447231535261E-08	13265.708984375	7.16206486686133E-05
1	322	98.6358467509684	-0.038909912109375	-0.0387420654296875	-2.0758056640625E-06	8.04210031901675E-08	18663.62890625	7.14070483809337E-05
1	323	98.7365547507142	-0.048980712890625	-0.0488494873046875	-1.98211669921875E-06	9.68253743849345E-08	24645.111328125	7.12027176632546E-05
1	324	98.8372627504599	-0.059051513671875	-0.05902099609375	-1.890869140625E-06	1.11600975571946E-07	31213.6875	7.10077001713216E-05
1	325	98.9379707502056	-0.069122314453125	-0.06903076171875	-1.805419921875E-06	1.24629508491125E-07	38235.296875	7.08215738995932E-05
1	326	99.0386787499514	-0.079193115234375	-0.079132080078125	-1.72821044921875E-06	1.36756881374822E-07	45788.453125	7.06436403561383E-05
1	327	99.1393867496971	-0.089263916015625	-0.0892333984375	-1.658935546875E-06	1.4803245562689E-07	53789.55078125	7.04730846337043E-05
1	328	99.2400947494428	-0.099334716796875	-0.09930419921875	-1.597900390625E-06	1.58678219008834E-07	62146.6796875	7.03090918250382E-05
1	329	99.3408027491886	-0.109405517578125	-0.109405517578125	-1.54388427734375E-06	1.68909451758736E-07	70863.8125	7.0150890678633E-05
1	330	99.4415107489343	-0.119476318359375	-0.119415283203125	-1.49627685546875E-06	1.78678320139625E-07	79808.28125	6.99978045304306E-05
1	331	99.5422187486801	-0.129547119140625	-0.1295166015625	-1.4544677734375E-06	1.88377725862665E-07	89047.421875	6.98492221999913E-05
1	332	99.6429267484258	-0.139617919921875	-0.139556884765625	-1.41876220703125E-06	1.97998033968361E-07	98365.2421875	6.97045470587909E-05
1	333	99.7436347481715	-0.149688720703125	-0.14959716796875	-1.3873291015625E-06	2.07540509222781E-07	107831.0625	6.95632479619235E-05
1	334	99.8443427479173	-0.159759521484375	-0.15960693359375	-1.36016845703125E-06	2.17092306797895E-07	117343.5078125	6.94249029038474E-05
1	335	99.945050747663	-0.169830322265625	-0.169708251953125	-1.33697509765625E-06	2.26895693344886E-07	126934.4921875	6.9289089879021E-05
1	336	100.045758747409	-0.179901123046875	-0.17974853515625	-1.31805419921875E-06	2.36918310747569E-07	136374.171875	6.91553941578604E-05
1	337	100.146466747154	-0.189971923828125	-0.1898193359375	-1.30126953125E-06	2.47006113340831E-07	145872.421875	6.90235028741881E-05
1	338	100.2471747469	-0.200042724609375	-0.19989013671875	-1.2884521484375E-06	2.57548890658654E-07	155139.75	6.88931031618267E-05
1	339	100.347882746646	-0.189971923828125	-0.1898193359375	-1.13525390625E-06	2.15493145105938E-07	167204.296875	6.87710562488064E-05
2	340	100.448590746392	-0.179901123046875	-0.179718017578125	-1.02935791015625E-06	1.8499416398754E-07	174592.34375	6.86620624037459E-05
2	341	100.549298746137	-0.169830322265625	-0.169708251953125	-9.43603515624999E-07	1.60137304305863E-07	179851.234375	6.85627164784819E-05
2	342	100.650006745883	-0.159759521484375	-0.15966796875	-8.7127685546875E-07	1.39115002184553E-07	183257.453125	6.84713304508477E-05
2	343	100.750714745629	-0.149688720703125	-0.149566650390625	-8.07800292968749E-07	1.20819990456766E-07	185153	6.83867765474133E-05
2	344	100.851422745375	-0.139617919921875	-0.139495849609375	-7.51342773437499E-07	1.04809203094192E-07	185662.0625	6.83082689647563E-05
2	345	100.95213074512	-0.129547119140625	-0.129425048828125	-7.000732421875E-07	9.06070098949385E-08	184873.59375	6.82351819705218E-05
2	346	101.052838744866	-0.119476318359375	-0.119415283203125	-6.5185546875E-07	7.78414985802556E-08	183192.890625	6.81671081110835E-05
2	347	101.153546744612	-0.109405517578125	-0.109344482421875	-6.06384277343749E-07	6.63047714510867E-08	180322.09375	6.81037563481368E-05
2	348	101.254254744358	-0.099334716796875	-0.09918212890625	-5.62133789062499E-07	5.5753623939836E-08	176438.65625	6.80449156789109E-05
2	349	101.354962744103	-0.089263916015625	-0.089263916015625	-5.17883300781249E-07	4.62282905289157E-08	172363	6.79905278957449E-05
2	350	101.455670743849	-0.079193115234375	-0.079132080078125	-4.7149658203125E-07	3.73105031314935E-08	167831.71875	6.79407094139606E-05
2	351	101.556378743595	-0.069122314453125	-0.069061279296875	-4.20532226562501E-07	2.90424928550692E-08	164223.515625	6.78957949276082E-05
2	352	101.657086743341	-0.059051513671875	-0.059051513671875	-3.6285400390625E-07	2.14270770015901E-08	162741.796875	6.78563446854241E-05
2	353	101.757794743086	-0.048980712890625	-0.048828125	-2.93884277343751E-07	1.43498182225699E-08	166147.453125	6.78232754580677E-05
2	354	101.858502742832	-0.038909912109375	-0.0387725830078125	-2.08435058593751E-07	8.08156563891771E-09	186017.578125	6.77979842294008E-05
2	355	101.959210742578	-0.028839111328125	-0.0287261962890625	-9.94873046874997E-08	2.85789170106909E-09	288742.34375	6.77824791637249E-05
2	356	102.059918742323	-0.018768310546875	-0.0186431884765625	4.05883789062506E-08	-7.56696816317515E-10	-459323.3125	6.77795105730183E-05
2	357	102.160626742069	-0.008697509765625	-0.0085784912109375	2.178955078125E-07	-1.86921478295687E-09	-39369.75	6.77925272611901E-05
2	358	102.261334741815	0.001373291015625	0.001507568359375	4.38232421875E-07	6.60665355756151E-10	3440.11157226563	6.78255673847161E-05
2	359	102.362042741561	0.011444091796875	0.011517333984375	7.01293945312501E-07	8.07703592897724E-09	16422.9765625	6.78829455864616E-05
2	360	102.462750741306	0.021514892578125	0.0216217041015625	9.967041015625E-07	2.15504414313727E-08	21693.203125	6.79684453643858E-05
2	361	102.563458741052	0.031585693359375	0.0316680908203125	1.30523681640625E-06	4.13343528293808E-08	24262.333984375	6.80843586451374E-05
2	362	102.664166740798	0.041656494140625	0.0417724609375	1.59912109375E-06	6.67992239300474E-08	26122.138671875	6.82306053931825E-05
2	363	102.764874740544	0.051727294921875	0.0517578125	1.84906005859375E-06	9.57032995074769E-08	27991.41796875	6.84042388456874E-05
2	364	102.865582740289	0.061798095703125	0.061798095703125	2.03216552734375E-06	1.25583952126362E-07	30409.97265625	6.85996710672043E-05
2	365	102.966290740035	0.071868896484375	0.07196044921875	2.1405029296875E-06	1.54031539523203E-07	33618.48046875	6.88097788952291E-05
2	366	103.066998739781	0.081939697265625	0.08197021484375	2.17864990234375E-06	1.78584386389957E-07	37624.3203125	6.90272645442747E-05
2	367	103.167706739527	0.092010498046875	0.09210205078125	2.1624755859375E-06	1.9916842575185E-07	42591.02734375	6.92458634148352E-05
2	368	103.268414739272	0.102081298828125	0.1021728515625	2.109375E-06	2.15520856272633E-07	48437.5	6.94609625497833E-05
2	369	103.369122739018	0.112152099609375	0.112152099609375	2.03521728515625E-06	2.28253881573437E-07	55105.71484375	6.96696661179885E-05
2	370	103.469830738764	0.122222900390625	0.122283935546875	1.954345703125E-06	2.38985080613929E-07	62570.26953125	6.98705553077161E-05
2	371	103.57053873851	0.132293701171875	0.13232421875	1.87103271484375E-06	2.47582931933721E-07	70722.5625	7.0063179009594E-05
2	372	103.671246738255	0.142364501953125	0.1424560546875	1.79290771484375E-06	2.55410554927948E-07	79455.3203125	7.02476681908593E-05
2	373	103.771954738001	0.152435302734375	0.152435302734375	1.72088623046875E-06	2.62323794686381E-07	88579.5390625	7.0424604928121E-05
2	374	103.872662737747	0.162506103515625	0.162506103515625	1.65679931640625E-06	2.69239990302594E-07	98084.359375	7.05946804373525E-05
2	375	103.973370737492	0.172576904296875	0.172607421875	1.59881591796875E-06	2.75967494189899E-07	107959.5390625	7.07586150383577E-05
2	376	104.074078737238	0.182647705078125	0.18267822265625	1.5478515625E-06	2.82758776393166E-07	118020.5078125	7.09170635673217E-05
2	377	104.174786736984	0.192718505859375	0.1927490234375	1.50299072265625E-06	2.89699983113678E-07	128243.65625	7.10706881363876E-05
2	378	104.27549473673	0.202789306640625	0.202850341796875	1.46270751953125E-06	2.96710709335457E-07	138681.421875	7.12200198904611E-05
2	379	104.376202736475	0.212860107421875	0.212890625	1.42730712890625E-06	3.03860304029513E-07	149155.4375	7.13655463187024E-05
2	380	104.476910736221	0.222930908203125	0.22296142578125	1.39678955078125E-06	3.11430198962626E-07	159624.203125	7.1507747634314E-05
2	381	104.577618735967	0.233001708984375	0.233062744140625	1.368408203125E-06	3.18924975317714E-07	170316.671875	7.16469876351766E-05
2	382	104.678326735713	0.243072509765625	0.243072509765625	1.343994140625E-06	3.26688024188115E-07	180858.3125	7.17835719115101E-05
2	383	104.779034735458	0.253143310546875	0.253173828125	1.322021484375E-06	3.34701240944923E-07	191505.078125	7.19178133294918E-05
2	384	104.879742735204	0.263214111328125	0.263275146484375	1.3031005859375E-06	3.43073992326026E-07	202037.46875	7.20499956514686E-05
2	385	104.98045073495	0.273284912109375	0.273284912109375	1.28570556640625E-06	3.51363922845849E-07	212556.390625	7.21803517080843E-05
2	386	105.081158734696	0.283355712890625	0.28338623046875	1.27044677734375E-06	3.60027115675621E-07	223060.296875	7.23090706742369E-05
2	387	105.181866734441	0.293426513671875	0.293426513671875	1.25701904296875E-06	3.68842705711359E-07	233430.453125	7.24363344488665E-05
2	388	105.282574734187	0.303497314453125	0.303466796875	1.24359130859375E-06	3.7738868741144E-07	244024.53125	7.25622521713376E-05
2	389	105.383282733933	0.313568115234375	0.3135986328125	1.2322998046875E-06	3.86447510436483E-07	254482.4375	7.26869257050566E-05
2	390	105.483990733679	0.323638916015625	0.32366943359375	1.2225341796875E-06	3.95696929444966E-07	264752.875	7.28105296730064E-05
2	391	105.584698733424	0.333709716796875	0.333770751953125	1.21337890625E-06	4.04990373681358E-07	275075.46875	7.29331877664663E-05
2	392	105.68540673317	0.343780517578125	0.343780517578125	1.20635986328125E-06	4.14722990171867E-07	284973.46875	7.3055038228631E-05
2	393	105.786114732916	0.353851318359375	0.3538818359375	1.199951171875E-06	4.24640916207863E-07	294913.53125	7.317620475078E-05
2	394	105.886822732661	0.363922119140625	0.363922119140625	1.19384765625E-06	4.34467580134879E-07	304831.28125	7.32967382646166E-05
2	395	105.987530732407	0.373992919921875	0.3740234375	1.18927001953125E-06	4.44814816091821E-07	314498.34375	7.34167406335473E-05
2	396	106.088238732153	0.384063720703125	0.384063720703125	1.1859130859375E-06	4.55466192761378E-07	323854.84375	7.35363355488516E-05
2	397	106.188946731899	0.394134521484375	0.3941650390625	1.182861328125E-06	4.6624256810901E-07	333230.15625	7.36556175979786E-05
2	398	106.289654731644	0.404205322265625	0.4041748046875	1.180419921875E-06	4.77095966289198E-07	342399.1875	7.37746158847585E-05
2	399	106.39036273139	0.414276123046875	0.414306640625	1.17919921875E-06	4.88550085719908E-07	351345.75	7.38934322725981E-05
2	400	106.491070731136	0.424346923828125	0.42437744140625	1.1785888671875E-06	5.00166493111465E-07	360072.5	7.40121540729888E-05
2	401	106.591778730882	0.434417724609375	0.43438720703125	1.17828369140625E-06	5.1183138793931E-07	368660.96875	7.41308322176337E-05
2	402	106.692486730627	0.444488525390625	0.44451904296875	1.17919921875E-06	5.24176527960662E-07	376966.875	7.42495467420667E-05
2	403	106.793194730373	0.454559326171875	0.45458984375	1.180419921875E-06	5.36606876266887E-07	385108.59375	7.43683631299064E-05
2	404	106.893902730119	0.464630126953125	0.46466064453125	1.1822509765625E-06	5.49345486433594E-07	393030.46875	7.44873323128559E-05
2	405	106.994610729865	0.474700927734375	0.47467041015625	1.1846923828125E-06	5.62338414056285E-07	400669.78125	7.46065124985762E-05
2	406	107.09531872961	0.484771728515625	0.4847412109375	1.18804931640625E-06	5.7589642210587E-07	408014.40625	7.47259909985587E-05
2	407	107.196026729356	0.494842529296875	0.494842529296875	1.19232177734375E-06	5.90011495660292E-07	415024.3125	7.48458551242948E-05
2	408	107.296734729102	0.504913330078125	0.504913330078125	1.19720458984375E-06	6.04484569066699E-07	421743.5625	7.49661776353605E-05
2	409	107.397442728848	0.514984130859375	0.514923095703125	1.2042236328125E-06	6.20082573732361E-07	427597.5625	7.50870967749506E-05
2	410	107.498150728593	0.525054931640625	0.525054931640625	1.2127685546875E-06	6.36770096207329E-07	432939.09375	7.52088017179631E-05
2	411	107.598858728339	0.535125732421875	0.535064697265625	1.22406005859375E-06	6.54951293199701E-07	437122.90625	7.53315034671687E-05
2	412	107.699566728085	0.545196533203125	0.545135498046875	1.2384033203125E-06	6.75097624025511E-07	440192.21875	7.54555003368296E-05
2	413	107.80027472783	0.555267333984375	0.555267333984375	1.25701904296875E-06	6.97981590747077E-07	441733.4375	7.55811561248265E-05
2	414	107.900982727576	0.565338134765625	0.5653076171875	1.28173828125E-06	7.24576409538713E-07	441047.625	7.57089947001077E-05
2	415	108.001690727322	0.575408935546875	0.575408935546875	1.3153076171875E-06	7.56839767745987E-07	437471	7.58397654863074E-05
2	416	108.102398727068	0.585479736328125	0.585479736328125	1.361083984375E-06	7.96887093201804E-07	430156.96875	7.59745307732373E-05
2	417	108.203106726813	0.595550537109375	0.595550537109375	1.42669677734375E-06	8.49670016123127E-07	417433.1875	7.61149058234878E-05
2	418	108.303814726559	0.605621337890625	0.60552978515625	1.51702880859375E-06	9.18606076538708E-07	399155.125	7.62631316320039E-05
2	419	108.404522726305	0.615692138671875	0.615692138671875	1.64337158203125E-06	1.01181092304614E-06	374651.8125	7.64222713769414E-05
2	420	108.505230726051	0.625762939453125	0.62579345703125	1.81884765625E-06	1.13822295588761E-06	344060.40625	7.65966105973348E-05
2	421	108.605938725796	0.635833740234375	0.635772705078125	2.05535888671875E-06	1.3067410691292E-06	309324.4375	7.67916935728863E-05
2	422	108.706646725542	0.645904541015625	0.645782470703125	2.36419677734375E-06	1.52675681874825E-06	273150.90625	7.70142360124737E-05
2	423	108.807354725288	0.655975341796875	0.655853271484375	2.75390625E-06	1.80615825229324E-06	238153.828125	7.72719504311681E-05
2	424	108.908062725034	0.666046142578125	0.66595458984375	3.2244873046875E-06	2.14736201087362E-06	206530.375	7.75729859014973E-05
2	425	109.008770724779	0.676116943359375	0.676055908203125	3.759765625E-06	2.54181168202194E-06	179813.3125	7.79246693127789E-05
2	426	109.109478724525	0.686187744140625	0.686126708984375	4.33197021484375E-06	2.97228029921826E-06	158386.765625	7.83321229391731E-05
2	427	109.210186724271	0.696258544921875	0.69610595703125	4.901123046875E-06	3.41170084539044E-06	142029.890625	7.87970493547618E-05
2	428	109.310894724017	0.706329345703125	0.7061767578125	5.4229736328125E-06	3.82957796318806E-06	130219.46875	7.93169092503376E-05
2	429	109.411602723762	0.716400146484375	0.71624755859375	5.841064453125E-06	4.18364788856707E-06	122622.78125	7.98840992501937E-05
2	430	109.512310723508	0.726470947265625	0.726348876953125	6.1309814453125E-06	4.45323121311958E-06	118471.8828125	8.04869341664016E-05
2	431	109.613018723254	0.736541748046875	0.736358642578125	6.280517578125E-06	4.62471325590741E-06	117244.8984375	8.11119025456719E-05
2	432	109.713726722999	0.746612548828125	0.7464599609375	6.298828125E-06	4.70182294520782E-06	118507.7578125	8.17453255876899E-05
2	433	109.814434722745	0.756683349609375	0.7568359375	6.2164306640625E-06	4.70481791126076E-06	121747.671875	8.23755181045271E-05
2	434	109.915142722491	0.766754150390625	0.76690673828125	6.0791015625E-06	4.662103492592E-06	126154.625	8.29946511657909E-05
2	435	110.015850722237	0.776824951171875	0.7769775390625	5.92041015625E-06	4.60002547697513E-06	131237.125	8.35988685139455E-05
2	436	110.116558721982	0.786895751953125	0.78704833984375	5.7647705078125E-06	4.53715301773627E-06	136527.265625	8.41872679302469E-05
2	437	110.217266721728	0.796966552734375	0.797119140625	5.6365966796875E-06	4.49303888672148E-06	141418.515625	8.47613700898364E-05
2	438	110.317974721474	0.807037353515625	0.8074951171875	5.5450439453125E-06	4.47759566668537E-06	145624.65625	8.53244127938524E-05
2	439	110.41868272122	0.817108154296875	0.8172607421875	5.5023193359375E-06	4.49682966063847E-06	148530.234375	8.58806888572872E-05
2	440	110.519390720965	0.827178955078125	0.82763671875	5.511474609375E-06	4.56149882666068E-06	150166.109375	8.64352768985555E-05
2	441	110.620098720711	0.837249755859375	0.83740234375	5.5755615234375E-06	4.66898791273707E-06	150191.578125	8.69935538503341E-05
2	442	110.720806720457	0.847320556640625	0.84747314453125	5.6854248046875E-06	4.81824463349767E-06	149060.65625	8.75605910550803E-05
2	443	110.821514720203	0.857391357421875	0.85723876953125	5.8197021484375E-06	4.98887402500259E-06	147299.421875	8.81399173522368E-05
2	444	110.922222719948	0.867462158203125	0.867919921875	5.963134765625E-06	5.17552325618453E-06	145547.59375	8.87332353158854E-05
2	445	111.022930719694	0.877532958984375	0.877685546875	6.0821533203125E-06	5.33821776116383E-06	144305.078125	8.93397591426037E-05
2	446	111.12363871944	0.887603759765625	0.88775634765625	6.158447265625E-06	5.46720048077987E-06	144152.640625	8.9956127339974E-05
2	447	111.224346719186	0.897674560546875	0.89752197265625	6.1859130859375E-06	5.55199267182616E-06	145091.28125	9.05777123989537E-05
2	448	111.325054718931	0.907745361328125	0.90850830078125	6.16455078125E-06	5.6005451369856E-06	147376.25	9.11996103241108E-05
2	449	111.425762718677	0.917816162109375	0.91796875	6.109619140625E-06	5.60843909624964E-06	150249.75	9.181765926769E-05
2	450	111.526470718423	0.927886962890625	0.927734375	6.0333251953125E-06	5.59732279725722E-06	153768.34375	9.24291089177132E-05
2	451	111.627178718168	0.937957763671875	0.93780517578125	5.9539794921875E-06	5.58367264602566E-06	157508.96875	9.30327150854282E-05
2	452	111.727886717914	0.948028564453125	0.9478759765625	5.8868408203125E-06	5.57999510419904E-06	161016.0625	9.36289507080801E-05
2	453	111.82859471766	0.958099365234375	0.95855712890625	5.8441162109375E-06	5.60191892873263E-06	164020.890625	9.42196493269876E-05
2	454	111.929302717406	0.968170166015625	0.968017578125	5.8380126953125E-06	5.65129857932334E-06	165812.875	9.48078886722215E-05
2	455	112.030010717151	0.978240966796875	0.97808837890625	5.8746337890625E-06	5.74591103941202E-06	166493.515625	9.53976705204695E-05
2	456	112.130718716897	0.988311767578125	0.98876953125	5.963134765625E-06	5.89616593060782E-06	165813.71875	9.59937460720539E-05
2	457	112.231426716643	0.998382568359375	0.99853515625	6.1004638671875E-06	6.0915276662854E-06	163681.84375	9.66012012213469E-05
2	458	112.332134716389	1.00845336914063	1.00860595703125	6.2774658203125E-06	6.33148920314852E-06	160670.890625	9.7224474302493E-05
2	459	112.432842716134	1.01852416992188	1.01806640625	6.4788818359375E-06	6.59593160889926E-06	157136.140625	9.78668103925884E-05
2	460	112.53355071588	1.02859497070313	1.0284423828125	6.6802978515625E-06	6.87030114931986E-06	153951.578125	9.85294245765544E-05
2	461	112.634258715626	1.03866577148438	1.03851318359375	6.84814453125E-06	7.1118884079624E-06	151648.84375	9.92106361081824E-05
2	462	112.734966715372	1.04873657226563	1.048583984375	6.964111328125E-06	7.30245528757223E-06	150569.6875	9.99061448965222E-05
2	463	112.835674715117	1.05880737304688	1.0589599609375	7.012939453125E-06	7.42642214390798E-06	151000.875	0.000100609941000585
2	464	112.936382714863	1.06887817382813	1.0687255859375	7.000732421875E-06	7.48186175769661E-06	152659.109375	0.000101315585197881
2	465	113.037090714609	1.07894897460938	1.0784912109375	6.9366455078125E-06	7.48111096982029E-06	155477.34375	0.000102017387689557
2	466	113.137798714355	1.08901977539063	1.08917236328125	6.8359375E-06	7.44551380194025E-06	159330.359375	0.000102710895589553
2	467	113.2385067141	1.09909057617188	1.0992431640625	6.719970703125E-06	7.38688140700106E-06	163578.578125	0.000103393489553127
2	468	113.339214713846	1.10916137695313	1.109619140625	6.591796875E-06	7.31438376533333E-06	168333.34375	0.000104063787148334
2	469	113.439922713592	1.11923217773438	1.119384765625	6.4697265625E-06	7.2421130425937E-06	173018.875	0.000104721490060911
2	470	113.540630713337	1.12930297851563	1.13006591796875	6.3507080078125E-06	7.17671855454682E-06	177943.296875	0.000105367049400229
2	471	113.641338713083	1.13937377929688	1.138916015625	6.2408447265625E-06	7.10779750079382E-06	182493.890625	0.000106001083622687
2	472	113.742046712829	1.14944458007813	1.14959716796875	6.14013671875E-06	7.05868342265603E-06	187226.640625	0.0001066245167749
2	473	113.842754712575	1.15951538085938	1.15966796875	6.048583984375E-06	7.01434919392341E-06	191725.53125	0.000107238265627529
2	474	113.94346271232	1.16958618164063	1.16943359375	5.9661865234375E-06	6.97705900165602E-06	196010.234375	0.000107843261503149
2	475	114.044170712066	1.17965698242188	1.1798095703125	5.8929443359375E-06	6.95255175742204E-06	200207.15625	0.00010844041389646
2	476	114.144878711812	1.18972778320313	1.1895751953125	5.8258056640625E-06	6.93023366693524E-06	204190.671875	0.000109030501334928
2	477	114.245586711558	1.19979858398438	1.19964599609375	5.7647705078125E-06	6.91568357069627E-06	208099.53125	0.000109614127723034
2	478	114.346294711303	1.20986938476563	1.209716796875	5.7098388671875E-06	6.90728757035686E-06	211865.328125	0.000110191926069092
2	479	114.447002711049	1.21994018554688	1.21978759765625	5.6640625E-06	6.90895330990315E-06	215355.609375	0.000110764645796735
2	480	114.547710710795	1.23001098632813	1.2298583984375	5.6182861328125E-06	6.9096963670745E-06	218902.765625	0.00011133275256725
2	481	114.648418710541	1.24008178710938	1.2408447265625	5.5816650390625E-06	6.92597950546769E-06	222307.28125	0.000111896719317883
2	482	114.749126710286	1.25015258789063	1.25030517578125	5.5450439453125E-06	6.93299671183922E-06	225481.578125	0.000112456989882048
2	483	114.849834710032	1.26022338867188	1.26007080078125	5.5145263671875E-06	6.94869322614977E-06	228500.296875	0.00011301388440188
2	484	114.950542709778	1.27029418945313	1.27044677734375	5.487060546875E-06	6.97101813784684E-06	231535.046875	0.000113567861262709
2	485	115.051250709524	1.28036499023438	1.280517578125	5.4656982421875E-06	6.99892234479194E-06	234282.53125	0.000114119371573906
2	486	115.151958709269	1.29043579101563	1.290283203125	5.4443359375E-06	7.0247351686703E-06	236995.515625	0.000114668735477608
2	487	115.252666709015	1.30050659179688	1.3006591796875	5.4290771484375E-06	7.06137916495209E-06	239572.796875	0.000115216258564033
2	488	115.353374708761	1.31057739257813	1.31011962890625	5.4168701171875E-06	7.09674759491463E-06	241859.15625	0.000115762399218511
2	489	115.454082708506	1.32064819335938	1.32110595703125	5.40771484375E-06	7.14416364644421E-06	244300.234375	0.000116307455755305
2	490	115.554790708252	1.33071899414063	1.33087158203125	5.401611328125E-06	7.18885121386847E-06	246384.171875	0.000116851748316549
2	491	115.655498707998	1.34078979492188	1.3409423828125	5.3985595703125E-06	7.23915718481294E-06	248388.921875	0.000117395582492463
2	492	115.756206707744	1.35086059570313	1.3507080078125	5.401611328125E-06	7.29599969417905E-06	250056.5	0.000117939416668378
2	493	115.856914707489	1.36093139648438	1.36077880859375	5.4046630859375E-06	7.35455114408978E-06	251778.65625	0.000118483549158555
2	494	115.957622707235	1.37100219726563	1.37054443359375	5.413818359375E-06	7.41987832952873E-06	253156.71875	0.000119028307381086
2	495	116.058330706981	1.38107299804688	1.3812255859375	5.419921875E-06	7.48613456380554E-06	254842.34375	0.000119573829579167
2	496	116.159038706727	1.39114379882813	1.39068603515625	5.43212890625E-06	7.55438531996333E-06	256011.25	0.000120120275823865
2	497	116.259746706472	1.40121459960938	1.4013671875	5.4443359375E-06	7.62951367505593E-06	257399.109375	0.000120667944429442
2	498	116.360454706218	1.41128540039063	1.4111328125	5.45654296875E-06	7.69990674598375E-06	258612.96875	0.000121216849947814
2	499	116.461162705964	1.42135620117188	1.42120361328125	5.474853515625E-06	7.7808817877667E-06	259587.515625	0.000121767290693242
2	500	116.56187070571	1.43142700195313	1.43218994140625	5.4901123046875E-06	7.86288364906795E-06	260867.15625	0.000122319412184879
2	501	116.662578705455	1.44149780273438	1.44134521484375	5.511474609375E-06	7.94393781688996E-06	261517.15625	0.000122873389045708
2	502	116.763286705201	1.45156860351563	1.45172119140625	5.5328369140625E-06	8.03213697508909E-06	262382.78125	0.00012342951958999
2	503	116.863994704947	1.46163940429688	1.46148681640625	5.560302734375E-06	8.12630878499476E-06	262843.03125	0.000123988094856031
2	504	116.964702704693	1.47171020507813	1.47186279296875	5.5908203125E-06	8.22892070573289E-06	263264.1875	0.000124549609608948
2	505	117.065410704438	1.48178100585938	1.4813232421875	5.633544921875E-06	8.34510046843207E-06	262946.90625	0.000125114791444503
2	506	117.166118704184	1.49185180664063	1.49200439453125	5.6854248046875E-06	8.48267882247455E-06	262426.1875	0.000125684746308252
2	507	117.26682670393	1.50192260742188	1.50177001953125	5.7525634765625E-06	8.63902732817223E-06	261061	0.000126260696561076
2	508	117.367534703675	1.49185180664063	1.49169921875	5.48095703125E-06	8.17593900137581E-06	272160.34375	0.000126826358609833
2	509	117.468242703421	1.48178100585938	1.48193359375	5.2886962890625E-06	7.83749692345737E-06	280207.75	0.000127368650282733
2	510	117.568950703167	1.47171020507813	1.47125244140625	5.133056640625E-06	7.55202199798077E-06	286623.0625	0.000127893421449699
2	511	117.669658702913	1.46163940429688	1.4617919921875	5.0079345703125E-06	7.32055832486367E-06	291895.1875	0.000128404062706977
2	512	117.770366702658	1.45156860351563	1.451416015625	4.9005126953125E-06	7.11268239683704E-06	296176.375	0.000128902989672497
2	513	117.871074702404	1.44149780273438	1.44134521484375	4.81048583984375E-06	6.93357060299604E-06	299625.71875	0.000129391977679916
2	514	117.97178270215	1.43142700195313	1.43096923828125	4.7332763671875E-06	6.77317302688607E-06	302321.0625	0.000129872554680333
2	515	118.072490701896	1.42135620117188	1.4215087890625	4.6649169921875E-06	6.6312204580754E-06	304723.28125	0.000130345782963559
2	516	118.173198701641	1.41128540039063	1.41143798828125	4.6038818359375E-06	6.49809362585074E-06	306575.625	0.000130812506540678
2	517	118.273906701387	1.40121459960938	1.4013671875	4.54986572265625E-06	6.3760321609152E-06	308001.90625	0.000131273438455537
2	518	118.374614701133	1.39114379882813	1.39068603515625	4.50042724609375E-06	6.25868142378749E-06	309012	0.000131729146232828
2	519	118.475322700879	1.38107299804688	1.38092041015625	4.4549560546875E-06	6.15193994235597E-06	309973.96875	0.00013218009553384
2	520	118.576030700624	1.37100219726563	1.370849609375	4.4134521484375E-06	6.0501793086587E-06	310607.09375	0.000132626650156453
2	521	118.67673870037	1.36093139648438	1.361083984375	4.3743896484375E-06	5.95391156821279E-06	311148.34375	0.000133069159346633
2	522	118.777446700116	1.35086059570313	1.35040283203125	4.33837890625E-06	5.85855923418421E-06	311269	0.000133507870486937
2	523	118.878154699862	1.34078979492188	1.3409423828125	4.3048095703125E-06	5.77250148126041E-06	311498.65625	0.000133943103719503
2	524	118.978862699607	1.33071899414063	1.33087158203125	4.2730712890625E-06	5.68690893487656E-06	311455.5	0.000134375033667311
2	525	119.079570699353	1.32064819335938	1.32080078125	4.24346923828125E-06	5.60477701583295E-06	311254.96875	0.000134803864057176
2	526	119.180278699099	1.31057739257813	1.31072998046875	4.2156982421875E-06	5.52564188183169E-06	310916.46875	0.000135229827719741
2	527	119.280986698844	1.30050659179688	1.29974365234375	4.18914794921875E-06	5.44481872566394E-06	310264.4375	0.000135653041070327
2	528	119.38169469859	1.29043579101563	1.29058837890625	4.16412353515625E-06	5.37416917723021E-06	309930.40625	0.000136073664180003
2	529	119.482402698336	1.28036499023438	1.2799072265625	4.140625E-06	5.29961562278913E-06	309109.6875	0.000136491842567921
2	530	119.583110698082	1.27029418945313	1.2701416015625	4.1180419921875E-06	5.23049629919115E-06	308433.375	0.000136907692649402
2	531	119.683818697827	1.26022338867188	1.2603759765625	4.0966796875E-06	5.16335649081157E-06	307657.9375	0.000137321345391683
2	532	119.784526697573	1.25015258789063	1.24969482421875	4.07623291015625E-06	5.09404708282091E-06	306580.8125	0.000137732873554341
2	533	119.885234697319	1.24008178710938	1.23992919921875	4.0570068359375E-06	5.03040109833819E-06	305626.625	0.000138142422656529
2	534	119.985942697065	1.23001098632813	1.23016357421875	4.0380859375E-06	4.96750635647913E-06	304640.25	0.00013855003635399
2	535	120.08665069681	1.21994018554688	1.2200927734375	4.019775390625E-06	4.90449838252971E-06	303522.65625	0.000138955787406303
2	536	120.187358696556	1.20986938476563	1.209716796875	4.0020751953125E-06	4.84137717648991E-06	302272.40625	0.000139359719469212
2	537	120.288066696302	1.19979858398438	1.20025634765625	3.98468017578125E-06	4.78263746117591E-06	301217.75	0.000139761876198463
2	538	120.388774696048	1.18972778320313	1.18927001953125	3.9666748046875E-06	4.71744715468958E-06	299815.375	0.000140162257594056
2	539	120.489482695793	1.17965698242188	1.17950439453125	3.94866943359375E-06	4.65747280031792E-06	298709.3125	0.000140560834552161
2	540	120.590190695539	1.16958618164063	1.16973876953125	3.92852783203125E-06	4.59535112895537E-06	297755	0.000140957476105541
2	541	120.690898695285	1.15951538085938	1.15997314453125	3.90716552734375E-06	4.53220718554803E-06	296883.53125	0.000141352036735043
2	542	120.791606695031	1.14944458007813	1.14959716796875	3.88336181640625E-06	4.46430158262956E-06	296031.4375	0.000141744327265769
2	543	120.892314694776	1.13937377929688	1.1395263671875	3.85345458984375E-06	4.39111317973584E-06	295715.53125	0.000142133911140263
2	544	120.993022694522	1.12930297851563	1.1297607421875	3.81744384765625E-06	4.31279840995558E-06	295946.90625	0.00014252016262617
2	545	121.093730694268	1.11923217773438	1.119384765625	3.77166748046875E-06	4.22194716520607E-06	296787.78125	0.000142902310471982
2	546	121.194438694013	1.10916137695313	1.1090087890625	3.71002197265625E-06	4.11444671044592E-06	298922.4375	0.000143279045005329
2	547	121.295146693759	1.09909057617188	1.0992431640625	3.6297607421875E-06	3.98998963646591E-06	302841.78125	0.000143648619996384
2	548	121.395854693505	1.08901977539063	1.0894775390625	3.5211181640625E-06	3.83617907573353E-06	309412.375	0.00014400870713871
2	549	121.496562693251	1.07894897460938	1.0791015625	3.37921142578125E-06	3.64651236850477E-06	319335.3125	0.000144356163218617
2	550	121.597270692996	1.06887817382813	1.0687255859375	3.19580078125E-06	3.41543386639387E-06	334415.59375	0.000144687233841978
2	551	121.697978692742	1.05880737304688	1.05865478515625	2.9693603515625E-06	3.14352746499935E-06	356526.21875	0.00014499768440146
2	552	121.798686692488	1.04873657226563	1.048583984375	2.70233154296875E-06	2.83362169284374E-06	388029.34375	0.000145283265737817
2	553	121.899394692234	1.03866577148438	1.038818359375	2.4090576171875E-06	2.50257312472968E-06	431213.59375	0.000145540645462461
2	554	122.000102691979	1.02859497070313	1.029052734375	2.110595703125E-06	2.17191427509533E-06	487565.0625	0.000145768237416632
2	555	122.100810691725	1.01852416992188	1.01837158203125	1.834716796875E-06	1.868423396445E-06	555056.5625	0.00014596690016333
2	556	122.201518691471	1.00845336914063	1.0089111328125	1.60980224609375E-06	1.6241473304035E-06	626729.875	0.000146140344440937
2	557	122.302226691217	0.998382568359375	0.99853515625	1.45721435546875E-06	1.4550797686752E-06	685235.625	0.000146294783917256
2	558	122.402934690962	0.988311767578125	0.98846435546875	1.38031005859375E-06	1.36438723075116E-06	716117.6875	0.000146437654620968
2	559	122.503642690708	0.978240966796875	0.97869873046875	1.3739013671875E-06	1.34463550693908E-06	712350.0625	0.000146576348925009
2	560	122.604350690454	0.968170166015625	0.968017578125	1.41357421875E-06	1.36836467845569E-06	684801.375	0.000146716702147387
2	561	122.7050586902	0.958099365234375	0.95794677734375	1.47186279296875E-06	1.40996621667E-06	650839.75	0.000146862003020942
2	562	122.805766689945	0.948028564453125	0.9478759765625	1.52435302734375E-06	1.44489763442834E-06	621821.8125	0.000147012862726115
2	563	122.906474689691	0.937957763671875	0.93841552734375	1.556396484375E-06	1.46054662764072E-06	602941.1875	0.000147168000694364
2	564	123.007182689437	0.927886962890625	0.92803955078125	1.56005859375E-06	1.44779596666922E-06	594874.8125	0.000147324928548187
2	565	123.107890689182	0.917816162109375	0.91766357421875	1.52557373046875E-06	1.39996336656623E-06	601520.3125	0.00014748029934708
2	566	123.208598688928	0.907745361328125	0.90789794921875	1.4471435546875E-06	1.31385866097844E-06	627372.4375	0.000147629980347119
2	567	123.309306688674	0.897674560546875	0.8978271484375	1.318359375E-06	1.18365881007776E-06	681018.5625	0.000147769242175855
2	568	123.41001468842	0.887603759765625	0.88775634765625	1.143798828125E-06	1.01541468211508E-06	776147.25	0.0001478932244936
2	569	123.510722688165	0.877532958984375	0.87738037109375	9.31396484375E-07	8.17189004465035E-07	942005.25	0.00014799770724494
2	570	123.611430687911	0.867462158203125	0.8673095703125	7.01904296875E-07	6.08768289112049E-07	1235652.125	0.000148079954669811
2	571	123.712138687657	0.857391357421875	0.8575439453125	4.78515625000001E-07	4.10348178547792E-07	1792091.875	0.000148139399243519
2	572	123.812846687403	0.847320556640625	0.84747314453125	2.90527343749999E-07	2.46214113985843E-07	2917016.75	0.000148178121889941
2	573	123.913554687148	0.837249755859375	0.83770751953125	1.5411376953125E-07	1.29102261325897E-07	5435644	0.000148200517287478
2	574	124.014262686894	0.827178955078125	0.82733154296875	7.9345703125E-08	6.564520305119E-08	10426923	0.000148212260683067
2	575	124.11497068664	0.817108154296875	0.8172607421875	6.19506835937506E-08	5.06298576397057E-08	13192119	0.000148219376569614
2	576	124.215678686386	0.807037353515625	0.8074951171875	8.72802734374997E-08	7.04783928995312E-08	9251749	0.000148226899909787
2	577	124.316386686131	0.796966552734375	0.797119140625	1.3458251953125E-07	1.07278303573821E-07	5922902.5	0.000148238061228767
2	578	124.417094685877	0.786895751953125	0.78704833984375	1.788330078125E-07	1.40750216814922E-07	4401024	0.00014825385005679
2	579	124.517802685623	0.776824951171875	0.7769775390625	1.94091796875E-07	1.50804964960116E-07	4003144.75	0.000148272622027434
2	580	124.618510685369	0.766754150390625	0.7672119140625	1.59301757812499E-07	1.22218196452195E-07	4816092	0.000148290419019759
2	581	124.719218685114	0.756683349609375	0.7568359375	5.46264648437503E-08	4.13432736934283E-08	13854749	0.000148301187437028
2	582	124.81992668486	0.746612548828125	0.746551513671875	-1.33361816406249E-07	-9.9561461297526E-08	-5597941	0.000148297229316086
2	583	124.920634684606	0.736541748046875	0.736480712890625	-4.15649414062499E-07	-3.06117755144442E-07	-1771879.625	0.000148269580677152
2	584	125.021342684351	0.726470947265625	0.7264404296875	-7.9376220703125E-07	-5.7662094832267E-07	-915186.5	0.000148208680911921
2	585	125.122050684097	0.716400146484375	0.71630859375	-1.2591552734375E-06	-9.01943735698296E-07	-568880.25	0.000148105318658054
2	586	125.222758683843	0.706329345703125	0.706268310546875	-1.7852783203125E-06	-1.26088548313419E-06	-395606.84375	0.000147952014231123
2	587	125.323466683589	0.696258544921875	0.696197509765625	-2.33367919921875E-06	-1.6247015537374E-06	-298326.15625	0.000147744605783373
2	588	125.424174683334	0.686187744140625	0.68609619140625	-2.84881591796875E-06	-1.95456186702359E-06	-240835.5625	0.000147483646287583
2	589	125.52488268308	0.676116943359375	0.676055908203125	-3.2855224609375E-06	-2.22119683712663E-06	-205768.171875	0.00014717475278303
2	590	125.625590682826	0.666046142578125	0.666015625	-3.5968017578125E-06	-2.39552605307836E-06	-185168.84375	0.000146828213473782
2	591	125.726298682572	0.655975341796875	0.656005859375	-3.7628173828125E-06	-2.4684300115041E-06	-174339.015625	0.000146457619848661
2	592	125.827006682317	0.645904541015625	0.6458740234375	-3.78265380859375E-06	-2.44311786445905E-06	-170746.265625	0.000146077669342048
2	593	125.927714682063	0.635833740234375	0.635772705078125	-3.68408203125E-06	-2.34223875850148E-06	-172572.890625	0.000145701691508293
2	594	126.028422681809	0.625762939453125	0.625732421875	-3.50494384765625E-06	-2.19315688809729E-06	-178528.515625	0.000145339698065072
2	595	126.129130681555	0.615692138671875	0.615692138671875	-3.28216552734375E-06	-2.02080332201149E-06	-187587.171875	0.000144997946335934
2	596	126.2298386813	0.605621337890625	0.6055908203125	-3.04443359375E-06	-1.84368093414378E-06	-198917.40625	0.000144679375807755
2	597	126.330546681046	0.595550537109375	0.595550537109375	-2.80975341796875E-06	-1.67335008427472E-06	-211958.296875	0.000144384583109058
2	598	126.431254680792	0.585479736328125	0.58544921875	-2.58880615234375E-06	-1.51561459915683E-06	-226146.40625	0.000144112753332593
2	599	126.531962680538	0.575408935546875	0.57537841796875	-2.38494873046875E-06	-1.37224799345859E-06	-241254.015625	0.000143862300319597
2	600	126.632670680283	0.565338134765625	0.56536865234375	-2.20001220703125E-06	-1.24381790556072E-06	-256984.328125	0.000143631434184499
2	601	126.733378680029	0.555267333984375	0.55523681640625	-2.03338623046875E-06	-1.12901091142703E-06	-273060.1875	0.000143418263178319
2	602	126.834086679775	0.545196533203125	0.545166015625	-1.883544921875E-06	-1.02684464309277E-06	-289436.15625	0.000143221026519313
2	603	126.93479467952	0.535125732421875	0.535125732421875	-1.748046875E-06	-9.35424850467825E-07	-306127.78125	0.000143038167152554
2	604	127.035502679266	0.525054931640625	0.525054931640625	-1.6265869140625E-06	-8.54047414122761E-07	-322795.5	0.000142868244438432
2	605	127.136210679012	0.514984130859375	0.514984130859375	-1.51702880859375E-06	-7.8124571700755E-07	-339468.9375	0.000142709948704578
2	606	127.236918678758	0.504913330078125	0.504913330078125	-1.417236328125E-06	-7.15581506938179E-07	-356266.15625	0.000142562188557349
2	607	127.337626678503	0.494842529296875	0.494873046875	-1.32568359375E-06	-6.56045074265421E-07	-373296.5	0.000142424076329917
2	608	127.438334678249	0.484771728515625	0.484710693359375	-1.24298095703125E-06	-6.02486181833228E-07	-389958.28125	0.000142294738907367
2	609	127.539042677995	0.474700927734375	0.47467041015625	-1.16729736328125E-06	-5.5408150956282E-07	-406640.53125	0.000142173361382447
2	610	127.639750677741	0.464630126953125	0.464599609375	-1.09619140625E-06	-5.092900892123E-07	-423830.75	0.000142059390782379
2	611	127.740458677486	0.454559326171875	0.454559326171875	-1.0308837890625E-06	-4.68597818326089E-07	-440941.40625	0.000141952288686298
2	612	127.841166677232	0.444488525390625	0.444549560546875	-9.71374511718751E-07	-4.31824076940757E-07	-457650.03125	0.00014185145846568
2	613	127.941874676978	0.434417724609375	0.434417724609375	-9.1552734375E-07	-3.97721294120856E-07	-474500	0.000141756449011154
2	614	128.042582676724	0.424346923828125	0.424346923828125	-8.636474609375E-07	-3.66486119673937E-07	-491342.78125	0.000141666867421009
2	615	128.143290676469	0.414276123046875	0.414276123046875	-8.1451416015625E-07	-3.37433760932981E-07	-508617.46875	0.000141582364449278
2	616	128.243998676215	0.404205322265625	0.404205322265625	-7.6904296875E-07	-3.10851248741528E-07	-525595.25	0.000141502619953826
2	617	128.344706675961	0.394134521484375	0.3941650390625	-7.25402832031249E-07	-2.85928422272264E-07	-543374	0.00014142737200018
2	618	128.445414675707	0.384063720703125	0.384033203125	-6.8511962890625E-07	-2.63108688614011E-07	-560534.5	0.000141356344101951
2	619	128.546122675452	0.373992919921875	0.373992919921875	-6.4697265625E-07	-2.41963192593175E-07	-578066.0625	0.000141289259772748
2	620	128.646830675198	0.363922119140625	0.363922119140625	-6.103515625E-07	-2.22120434045792E-07	-596250	0.000141225958941504
2	621	128.747538674944	0.353851318359375	0.353851318359375	-5.7525634765625E-07	-2.03555202915595E-07	-615119.375	0.000141166252433322
2	622	128.848246674689	0.343780517578125	0.34375	-5.4229736328125E-07	-1.86414723657435E-07	-633877.3125	0.000141109980177134
2	623	128.948954674435	0.333709716796875	0.333740234375	-5.1116943359375E-07	-1.7059781498574E-07	-652895.5	0.000141056938446127
2	624	129.049662674181	0.323638916015625	0.32366943359375	-4.8095703125E-07	-1.55671074253405E-07	-672969.5625	0.000141006981721148
2	625	129.150370673927	0.313568115234375	0.3135986328125	-4.5196533203125E-07	-1.41735711167712E-07	-693855.5	0.000140960008138791
2	626	129.251078673672	0.303497314453125	0.30352783203125	-4.23278808593749E-07	-1.284768984533E-07	-717087.25	0.000140915930387564
2	627	129.351786673418	0.293426513671875	0.29339599609375	-3.955078125E-07	-1.16040411057838E-07	-741821	0.000140874704811722
2	628	129.452494673164	0.283355712890625	0.28338623046875	-3.67431640625E-07	-1.04125064126492E-07	-771262.5	0.000140836287755519
2	629	129.55320267291	0.273284912109375	0.27337646484375	-3.4027099609375E-07	-9.30220807049409E-08	-803408.125	0.000140800650115125
2	630	129.653910672655	0.263214111328125	0.26318359375	-3.125E-07	-8.22448740223081E-08	-842187.5	0.000140767777338624
2	631	129.754618672401	0.253143310546875	0.253204345703125	-2.8533935546875E-07	-7.22491648730283E-08	-887379.6875	0.000140737669426017
2	632	129.855326672147	0.243072509765625	0.24310302734375	-2.58483886718749E-07	-6.28382110789971E-08	-940495.875	0.000140710297273472
2	633	129.956034671893	0.233001708984375	0.233001708984375	-2.3223876953125E-07	-5.41120286357E-08	-1003285.1875	0.000140685588121414
2	634	130.056742671638	0.222930908203125	0.22296142578125	-2.0782470703125E-07	-4.63368898806493E-08	-1072834.125	0.000140663425554521
2	635	130.157450671384	0.212860107421875	0.212860107421875	-1.8768310546875E-07	-3.99502440018296E-08	-1134146.375	0.000140643503982574
2	636	130.25815867113	0.202789306640625	0.20281982421875	-1.70288085937501E-07	-3.45377983990147E-08	-1191039.5	0.000140625488711521
2	637	130.358866670875	0.192718505859375	0.1927490234375	-1.556396484375E-07	-2.99993878627447E-08	-1238431.5	0.000140609074151143
2	638	130.459574670621	0.182647705078125	0.18267822265625	-1.446533203125E-07	-2.64250097359309E-08	-1262869.25	0.000140593954711221
2	639	130.560282670367	0.172576904296875	0.17254638671875	-1.373291015625E-07	-2.36956392285492E-08	-1256444.5	0.000140579752041958
2	640	130.660990670113	0.162506103515625	0.162506103515625	-1.3397216796875E-07	-2.17712941008585E-08	-1212984.125	0.000140566087793559
2	641	130.761698669858	0.152435302734375	0.1524658203125	-1.35498046875E-07	-2.06588204321179E-08	-1125225.25	0.000140552525408566
2	642	130.862406669604	0.142364501953125	0.142425537109375	-1.44042968749999E-07	-2.05153973809047E-08	-988771.1875	0.000140538439154625
2	643	130.96311466935	0.132293701171875	0.132293701171875	-1.6326904296875E-07	-2.15994653274265E-08	-810280.4375	0.000140522970468737
2	644	131.063822669096	0.122222900390625	0.122314453125	-1.9500732421875E-07	-2.38522126494445E-08	-627230.0625	0.000140504926093854
2	645	131.164530668841	0.112152099609375	0.112274169921875	-2.44750976562499E-07	-2.74792117949119E-08	-458728.1875	0.000140482792630792
2	646	131.265238668587	0.102081298828125	0.1021728515625	-3.17993164062499E-07	-3.2490270029939E-08	-321305.1875	0.000140454445499927
2	647	131.365946668333	0.092010498046875	0.092041015625	-4.2266845703125E-07	-3.89028329550456E-08	-217761.734375	0.000140417148941197
2	648	131.466654668079	0.081939697265625	0.08203125	-5.6488037109375E-07	-4.63378384552016E-08	-145218.8125	0.000140367425046861
2	649	131.567362667824	0.071868896484375	0.0718994140625	-7.51342773437499E-07	-5.40211040345184E-08	-95694.5546875	0.000140301155624911
2	650	131.66807066757	0.061798095703125	0.06182861328125	-9.7930908203125E-07	-6.05493255534384E-08	-63134.9296875	0.000140214004204609
2	651	131.768778667316	0.051727294921875	0.0517578125	-1.2432861328125E-06	-6.43497699570617E-08	-41629.8515625	0.000140102085424587
2	652	131.869486667062	0.041656494140625	0.04176025390625	-1.52496337890625E-06	-6.36828545452772E-08	-27384.43359375	0.000139962692628615
2	653	131.970194666807	0.031585693359375	0.0316741943359375	-1.798095703125E-06	-5.69532332406197E-08	-17615.412109375	0.000139795360155404
2	654	132.070902666553	0.021514892578125	0.0216033935546875	-2.03399658203125E-06	-4.39412275454742E-08	-10621.15625	0.000139602401759475
2	655	132.171610666299	0.011444091796875	0.011553955078125	-2.208251953125E-06	-2.55140442106949E-08	-5232.17236328125	0.000139388794195838
2	656	132.272318666044	0.001373291015625	0.00145568847656249	-2.310791015625E-06	-3.36379168963674E-09	-629.952514648438	0.000139161245897412
2	657	132.37302666579	-0.008697509765625	-0.008575439453125	-2.34283447265625E-06	2.00908356617902E-08	3660.28393554688	0.00013892691640649
2	658	132.473734665536	-0.018768310546875	-0.0186279296875	-2.3187255859375E-06	4.3193058019142E-08	8033.693359375	0.000138692179461941
2	659	132.574442665282	-0.028839111328125	-0.028692626953125	-2.257080078125E-06	6.47615578941441E-08	12712.27734375	0.00013846177898813
2	660	132.675150665027	-0.038909912109375	-0.0387664794921875	-2.1728515625E-06	8.42338039319657E-08	17841.29296875	0.000138238712679595
2	661	132.775858664773	-0.048980712890625	-0.048846435546875	-2.08038330078125E-06	1.01619299641698E-07	23479.537109375	0.000138024537591264
2	662	132.876566664519	-0.059051513671875	-0.05902099609375	-1.9879150390625E-06	1.17328731619182E-07	29689.8984375	0.000137819690280594
2	663	132.977274664265	-0.069122314453125	-0.06903076171875	-1.9000244140625E-06	1.31160135197206E-07	36331.515625	0.000137623908813111
2	664	133.07798266401	-0.079193115234375	-0.079071044921875	-1.81854248046875E-06	1.43794039786371E-07	43480.453125	0.000137436669319868
2	665	133.178690663756	-0.089263916015625	-0.089202880859375	-1.74530029296875E-06	1.55685810909745E-07	51110.3359375	0.000137257215101272
2	666	133.279398663502	-0.099334716796875	-0.099212646484375	-1.68060302734375E-06	1.66737066820133E-07	59033.9609375	0.00013708470214624
2	667	133.380106663248	-0.109405517578125	-0.1092529296875	-1.6241455078125E-06	1.77442657900428E-07	67267.9453125	0.000136918300995603
2	668	133.480814662993	-0.119476318359375	-0.119354248046875	-1.57501220703125E-06	1.87984397825858E-07	75779.890625	0.000136757211294025
2	669	133.581522662739	-0.129547119140625	-0.1295166015625	-1.53167724609375E-06	1.98377620108658E-07	84558.6796875	0.00013660077820532
2	670	133.682230662485	-0.139617919921875	-0.1395263671875	-1.4947509765625E-06	2.08557167979961E-07	93344.2265625	0.000136448375997134
2	671	133.782938662231	-0.149688720703125	-0.14959716796875	-1.46270751953125E-06	2.18816893493567E-07	102274.15625	0.000136299466248602
2	672	133.883646661976	-0.159759521484375	-0.159698486328125	-1.43524169921875E-06	2.29205923574227E-07	111269.40625	0.000136153539642692
2	673	133.984354661722	-0.169830322265625	-0.169647216796875	-1.4129638671875E-06	2.39705371996024E-07	120064.796875	0.000136010115966201
2	674	134.085062661468	-0.179901123046875	-0.17974853515625	-1.3946533203125E-06	2.50686895242325E-07	128884.03125	0.000135868744109757
2	675	134.185770661213	-0.189971923828125	-0.189849853515625	-1.37939453125E-06	2.61877829643709E-07	137632.75	0.00013572906027548
2	676	134.286478660959	-0.200042724609375	-0.19989013671875	-1.36871337890625E-06	2.735922919328E-07	146042.359375	0.000135590686113574
2	677	134.387186660705	-0.189971923828125	-0.189849853515625	-1.20941162109375E-06	2.29606612833777E-07	156977.046875	0.000135460868477821
