Potential - Start -0.2 V, Upper Vertex 1.5 V, Lower Vertex -0.2 V, Stop -0.19 V; Scan - # end cross 5, Rate 0.1 Vps, Step 0.01 V 
Scan	Index	Time (s)	Potential applied (V)	WE(1).Potential (V)	WE(1).Current (A)	WE(1).Power (W)	WE(1).Resistance (Ω)	WE(1).Charge (C)
1	1	68.9016138260401	-0.189971923828125	-0.189788818359375	-1.373291015625E-07	2.60635264481834E-08	1382000	0
1	2	69.0023218257859	-0.179901123046875	-0.1798095703125	-1.0955810546875E-07	1.96995948442691E-08	1641225.75	-1.2431757845377E-08
1	3	69.1030298255316	-0.169830322265625	-0.169677734375	-8.75854492187494E-08	1.48613006345499E-08	1937282.25	-2.23587246495072E-08
1	4	69.2037378252774	-0.159759521484375	-0.159637451171875	-6.92749023437495E-08	1.10588693758018E-08	2304405.25	-3.02572686905478E-08
1	5	69.3044458250231	-0.149688720703125	-0.14959716796875	-5.21850585937497E-08	7.8067365905099E-09	2866666.75	-3.63732652886029E-08
1	6	69.4051538247688	-0.139617919921875	-0.1395263671875	-3.63159179687503E-08	5.06702813041215E-09	3842016.75	-4.08296436660294E-08
1	7	69.5058618245146	-0.129547119140625	-0.129486083984375	-2.13623046875E-08	2.76612110994279E-09	6061429	-4.37339728875941E-08
1	8	69.6065698242603	-0.119476318359375	-0.119384765625	-6.40869140624972E-09	7.65100094390903E-10	18628572	-4.51323529659931E-08
1	9	69.707277824006	-0.109405517578125	-0.109222412109375	9.1552734375E-09	-9.99961002889904E-10	-11930001	-4.49940529279047E-08
1	10	69.8079858237518	-0.099334716796875	-0.09918212890625	2.53295898437506E-08	-2.51224263614347E-09	-3915662.75	-4.32576001685447E-08
1	11	69.9086938234975	-0.089263916015625	-0.08917236328125	4.33349609374994E-08	-3.86428089527158E-09	-2057746.5	-3.9800067241913E-08
1	12	70.0094018232433	-0.079193115234375	-0.079132080078125	6.43920898437497E-08	-5.09548003790883E-09	-1228910	-3.4375577939727E-08
1	13	70.110109822989	-0.069122314453125	-0.069061279296875	9.12475585937503E-08	-6.30167296122863E-09	-756856.1875	-2.65384993980433E-08
1	14	70.2108178227347	-0.059051513671875	-0.0589599609375	1.24511718750001E-07	-7.34120586542986E-09	-473529.4375	-1.56741570833674E-08
1	15	70.3115258224805	-0.048980712890625	-0.0488555908203125	1.678466796875E-07	-8.20024848025014E-09	-291072.71875	-9.52742884585689E-10
1	16	70.4122338222262	-0.038909912109375	-0.038787841796875	2.24914550781249E-07	-8.72394956275002E-09	-172455.90625	1.88243554077872E-08
1	17	70.5129418219719	-0.028839111328125	-0.028692626953125	3.0364990234375E-07	-8.71251337741796E-09	-94492.46875	4.54396911209187E-08
1	18	70.6136498217177	-0.018768310546875	-0.01861572265625	4.06494140624999E-07	-7.5671824362189E-09	-45795.796875	8.11982800996702E-08
1	19	70.7143578214634	-0.008697509765625	-0.00855102539062499	5.37719726562499E-07	-4.59805482577735E-09	-15902.384765625	1.28743224081518E-07
1	20	70.8150658212091	0.001373291015625	0.00150451660156251	7.0068359375E-07	1.05419006857232E-09	2147.21264648438	1.91101790392167E-07
1	21	70.9157738209549	0.011444091796875	0.0115234375	8.96301269531249E-07	1.03284714114693E-08	12856.6572265625	2.71516370276004E-07
1	22	71.0164818207006	0.021514892578125	0.0216217041015625	1.10870361328125E-06	2.3972061669042E-08	19501.7890625	3.72476364418617E-07
1	23	71.1171898204464	0.031585693359375	0.031689453125	1.32232666015625E-06	4.19038101995284E-08	23964.921875	4.94888467983401E-07
1	24	71.2178978201921	0.041656494140625	0.0417633056640625	1.514892578125E-06	6.32669241440453E-08	27568.494140625	6.37753828414134E-07
1	25	71.3186058199378	0.051727294921875	0.051727294921875	1.6656494140625E-06	8.61595381707048E-08	31055.33203125	7.97906807292748E-07
1	26	71.4193138196836	0.061798095703125	0.061798095703125	1.76544189453125E-06	1.09100945167029E-07	35004.3203125	9.70675955613842E-07
1	27	71.5200218194293	0.071868896484375	0.0718994140625	1.8115234375E-06	1.30247471474831E-07	39690.02734375	1.15079046736355E-06
1	28	71.620729819175	0.081939697265625	0.081939697265625	1.81182861328125E-06	1.48460685522878E-07	45224.859375	1.33324078888108E-06
1	29	71.7214378189208	0.092010498046875	0.092041015625	1.7791748046875E-06	1.63757050586355E-07	51732.41796875	1.51406209170091E-06
1	30	71.8221458186665	0.102081298828125	0.10205078125	1.7266845703125E-06	1.76209510982517E-07	59102.15625	1.69059615018341E-06
1	31	71.9228538184122	0.112152099609375	0.11224365234375	1.66656494140625E-06	1.87061331757832E-07	67350.3046875	1.86145985026087E-06
1	32	72.023561818158	0.122222900390625	0.122314453125	1.6033935546875E-06	1.96118207895779E-07	76284.734375	2.02611545319087E-06
1	33	72.1242698179037	0.132293701171875	0.132293701171875	1.541748046875E-06	2.03963551825836E-07	85807.6015625	2.18448576561059E-06
1	34	72.2249778176495	0.142364501953125	0.142425537109375	1.484375E-06	2.114128960784E-07	95949.8359375	2.33686319006665E-06
1	35	72.3256858173952	0.152435302734375	0.15240478515625	1.4312744140625E-06	2.18133067164672E-07	106481.875	2.483677917553E-06
1	36	72.4263938171409	0.162506103515625	0.162567138671875	1.38397216796875E-06	2.2498839769014E-07	117464.1640625	2.62543676399218E-06
1	37	72.5271018168867	0.172576904296875	0.172607421875	1.34124755859375E-06	2.31509275749886E-07	128691.6953125	2.76266246146406E-06
1	38	72.6278098166324	0.182647705078125	0.182647705078125	1.30401611328125E-06	2.38175545064223E-07	140065.53125	2.89586205326486E-06
1	39	72.7285178163781	0.192718505859375	0.1927490234375	1.26983642578125E-06	2.44759718270871E-07	151790.4375	3.02546573038853E-06
1	40	72.8292258161239	0.202789306640625	0.2027587890625	1.2396240234375E-06	2.51344658863673E-07	163564.75	3.15182728627406E-06
1	41	72.9299338158696	0.212860107421875	0.212860107421875	1.21185302734375E-06	2.57955178994962E-07	175648.453125	3.27526890941954E-06
1	42	73.0306418156154	0.222930908203125	0.2230224609375	1.18743896484375E-06	2.64825558815573E-07	187818.046875	3.39608277499792E-06
1	43	73.1313498153611	0.233001708984375	0.2330322265625	1.1651611328125E-06	2.7152006509823E-07	200000.015625	3.51454559677222E-06
1	44	73.2320578151068	0.243072509765625	0.243072509765625	1.1444091796875E-06	2.78174383083751E-07	212400.015625	3.63084177479323E-06
1	45	73.3327658148526	0.253143310546875	0.25311279296875	1.1260986328125E-06	2.8502995519375E-07	224769.65625	3.74517094314797E-06
1	46	73.4334738145983	0.263214111328125	0.263214111328125	1.1090087890625E-06	2.91906758320692E-07	237341.78125	3.85771727451356E-06
1	47	73.534181814344	0.273284912109375	0.27325439453125	1.0931396484375E-06	2.98705202794736E-07	249972.078125	3.96860423279577E-06
1	48	73.6348898140898	0.283355712890625	0.2833251953125	1.0784912109375E-06	3.05563730762515E-07	262705.15625	4.07795459977933E-06
1	49	73.7355978138355	0.293426513671875	0.29345703125	1.065673828125E-06	3.12729468987527E-07	275372.28125	4.18592208006885E-06
1	50	73.8363058135812	0.303497314453125	0.303497314453125	1.0528564453125E-06	3.19539083193376E-07	288260.875	4.2925985326292E-06
1	51	73.937013813327	0.313568115234375	0.31365966796875	1.04156494140625E-06	3.26696920183167E-07	301142.6875	4.39806080976268E-06
1	52	74.0377218130727	0.323638916015625	0.3236083984375	1.03118896484375E-06	3.33701393628871E-07	313820.65625	4.50243260274874E-06
1	53	74.1384298128185	0.333709716796875	0.333648681640625	1.021728515625E-06	3.40898367312548E-07	326553.15625	4.60580486105755E-06
1	54	74.2391378125642	0.343780517578125	0.343780517578125	1.0125732421875E-06	3.48102929592642E-07	339511.78125	4.70824033982353E-06
1	55	74.3398458123099	0.353851318359375	0.35382080078125	1.00433349609375E-06	3.55354075054493E-07	352294.125	4.80979952044436E-06
1	56	74.4405538120557	0.363922119140625	0.363922119140625	9.967041015625E-07	3.6272265901971E-07	365125.53125	4.91055970996968E-06
1	57	74.5412618118014	0.373992919921875	0.373992919921875	9.9029541015625E-07	3.70363437696142E-07	377657.96875	5.01061322211172E-06
1	58	74.6419698115471	0.384063720703125	0.384033203125	9.83581542968751E-07	3.7772798577862E-07	390443.6875	5.11000598635292E-06
1	59	74.7426778112929	0.394134521484375	0.39410400390625	9.783935546875E-07	3.85588833751171E-07	402807.21875	5.2087989388383E-06
1	60	74.8433858110386	0.404205322265625	0.404205322265625	9.735107421875E-07	3.9349822600343E-07	415203.75	5.30708530277479E-06
1	61	74.9440938107844	0.414276123046875	0.41424560546875	9.6893310546875E-07	4.01376297531897E-07	427527.53125	5.40489509148756E-06
1	62	75.0448018105301	0.424346923828125	0.424346923828125	9.6435546875E-07	4.09221257768877E-07	440031.65625	5.50224376638653E-06
1	63	75.1455098102758	0.434417724609375	0.434356689453125	9.6038818359375E-07	4.17151028386797E-07	452272	5.59916270503891E-06
1	64	75.2462178100216	0.444488525390625	0.44451904296875	9.57336425781249E-07	4.2555424784041E-07	464329	5.69572739550495E-06
1	65	75.3469258097673	0.454559326171875	0.454559326171875	9.5367431640625E-07	4.33501554653049E-07	476640	5.79195466343663E-06
1	66	75.447633809513	0.464630126953125	0.464630126953125	9.503173828125E-07	4.41546092133649E-07	488921	5.88782813792932E-06
1	67	75.5483418092588	0.474700927734375	0.4747314453125	9.4757080078125E-07	4.49841621730229E-07	500998.40625	5.98339465796016E-06
1	68	75.6490498090045	0.484771728515625	0.48480224609375	9.4482421875E-07	4.58052880958348E-07	513113.71875	6.07868423685431E-06
1	69	75.7497578087502	0.494842529296875	0.49481201171875	9.429931640625E-07	4.66604348048349E-07	524724.9375	6.17374325884157E-06
1	70	75.850465808496	0.504913330078125	0.504913330078125	9.41162109375E-07	4.75205297334469E-07	536478.625	6.26861810815171E-06
1	71	75.9511738082417	0.514984130859375	0.514923095703125	9.3994140625E-07	4.83997553146764E-07	547824.6875	6.36333925285726E-06
1	72	76.0518818079875	0.525054931640625	0.5250244140625	9.3902587890625E-07	4.93011498292617E-07	559116	6.45795262244064E-06
1	73	76.1525898077332	0.535125732421875	0.535125732421875	9.38720703125E-07	5.02333591612114E-07	570058.5	6.55250460113166E-06
1	74	76.2532978074789	0.545196533203125	0.545135498046875	9.38720703125E-07	5.11729979280062E-07	580721.75	6.6470415731601E-06
1	75	76.3540058072247	0.555267333984375	0.555267333984375	9.381103515625E-07	5.20902005973767E-07	591899.8125	6.74154716762132E-06
1	76	76.4547138069704	0.565338134765625	0.56536865234375	9.3902587890625E-07	5.30895817973942E-07	602079.9375	6.83606867823983E-06
1	77	76.5554218067161	0.575408935546875	0.575439453125	9.39331054687501E-07	5.40528105830163E-07	612605.625	6.9306515797507E-06
1	78	76.6561298064619	0.585479736328125	0.585479736328125	9.3994140625E-07	5.50316656244831E-07	622889.625	7.02528041074402E-06
1	79	76.7568378062076	0.595550537109375	0.59552001953125	9.417724609375E-07	5.60844341634947E-07	632339.625	7.12003202352207E-06
1	80	76.8575458059534	0.605621337890625	0.6055908203125	9.4329833984375E-07	5.71252769532293E-07	641992.9375	7.21495280231466E-06
1	81	76.9582538056991	0.615692138671875	0.615631103515625	9.442138671875E-07	5.81287451950629E-07	652003.875	7.30999681763933E-06
1	82	77.0589618054448	0.625762939453125	0.62567138671875	9.4635009765625E-07	5.92104186125653E-07	661141.5625	7.40519408282125E-06
1	83	77.1596698051906	0.635833740234375	0.6357421875	9.48486328125001E-07	6.02992770382116E-07	670270.25	7.5006068982475E-06
1	84	77.2603778049363	0.645904541015625	0.6458740234375	9.503173828125E-07	6.13785289260704E-07	679640.3125	7.59621934776078E-06
1	85	77.361085804682	0.655975341796875	0.655853271484375	9.5367431640625E-07	6.25470420345664E-07	687712	7.69209236750612E-06
1	86	77.4617938044278	0.666046142578125	0.666015625	9.56115722656251E-07	6.3678800188427E-07	696584.75	7.78825869929278E-06
1	87	77.5625018041735	0.676116943359375	0.676025390625	9.58862304687499E-07	6.48215234377858E-07	705028.625	7.88468514656415E-06
1	88	77.6632098039192	0.686187744140625	0.68609619140625	9.625244140625E-07	6.60384330330999E-07	712809.125	7.98143446445465E-06
1	89	77.763917803665	0.696258544921875	0.696136474609375	9.65576171875E-07	6.72172802751447E-07	720954.5	8.07852211437421E-06
1	90	77.8646258034107	0.706329345703125	0.706146240234375	9.6893310546875E-07	6.84208487200522E-07	728787.375	8.1759326349129E-06
1	91	77.9653338031565	0.716400146484375	0.716339111328125	9.72595214843749E-07	6.967080139475E-07	736523.375	8.27369603939587E-06
1	92	78.0660418029022	0.726470947265625	0.72637939453125	9.7625732421875E-07	7.09133189502609E-07	744045.0625	8.37182869872777E-06
1	93	78.1667498026479	0.736541748046875	0.736419677734375	9.80529785156251E-07	7.22081438198074E-07	751042.6875	8.47036062623374E-06
1	94	78.2674578023937	0.746612548828125	0.746490478515625	9.85107421875001E-07	7.35373248517135E-07	757775.75	8.56933820614358E-06
1	95	78.3681658021394	0.756683349609375	0.75714111328125	9.89379882812499E-07	7.49100138364156E-07	765268.375	8.6687614384573E-06
1	96	78.4688738018851	0.766754150390625	0.76690673828125	9.94262695312501E-07	7.62506772389315E-07	771332.125	8.76864578458481E-06
1	97	78.5695818016309	0.776824951171875	0.77667236328125	9.9853515625E-07	7.75534658714605E-07	777811.75	8.86899124452611E-06
1	98	78.6702898013766	0.786895751953125	0.78704833984375	1.00250244140625E-06	7.89017917668389E-07	785083.6875	8.96975143405143E-06
1	99	78.7709978011223	0.796966552734375	0.79742431640625	1.00830078125E-06	8.04043509106123E-07	790859.625	9.07100366021041E-06
1	100	78.8717058008681	0.807037353515625	0.8074951171875	1.01226806640625E-06	8.17401542008156E-07	797708.75	9.17274701350834E-06
1	101	78.9724138006138	0.817108154296875	0.81695556640625	1.01654052734375E-06	8.30468422918784E-07	803662.5625	9.27490600588499E-06
1	102	79.0731218003596	0.827178955078125	0.82733154296875	1.02142333984375E-06	8.45055694753682E-07	809979.125	9.37752611207543E-06
1	103	79.1738298001053	0.837249755859375	0.83740234375	1.025390625E-06	8.58664463976311E-07	816666.6875	9.48059096117504E-06
1	104	79.274537799851	0.847320556640625	0.84808349609375	1.0296630859375E-06	8.73240253440599E-07	823651.5	9.58407144935336E-06
1	105	79.3752457995968	0.857391357421875	0.8575439453125	1.033935546875E-06	8.86645125319774E-07	829397.875	9.68798121903092E-06
1	106	79.4759537993425	0.867462158203125	0.8673095703125	1.03668212890625E-06	8.991243021228E-07	836620.5625	9.79224569164217E-06
1	107	79.5766617990882	0.877532958984375	0.8770751953125	1.0400390625E-06	9.12192433588643E-07	843309.875	9.89681666396791E-06
1	108	79.677369798834	0.887603759765625	0.8880615234375	1.04278564453125E-06	9.2605773716059E-07	851624.25	1.00016950455029E-05
1	109	79.7780777985797	0.897674560546875	0.89752197265625	1.046142578125E-06	9.38935897920601E-07	857934.6875	1.0106880836247E-05
1	110	79.8787857983255	0.907745361328125	0.908203125	1.048583984375E-06	9.52327241066087E-07	866123.4375	1.02123585747904E-05
1	111	79.9794937980712	0.917816162109375	0.91766357421875	1.05072021484375E-06	9.64207742981671E-07	873366.25	1.03180673249881E-05
1	112	80.0802017978169	0.927886962890625	0.92803955078125	1.05224609375E-06	9.76525939222483E-07	881960.625	1.04239597931155E-05
1	113	80.1809097975627	0.937957763671875	0.93780517578125	1.05499267578125E-06	9.89377554105886E-07	888921.125	1.05300678114872E-05
1	114	80.2816177973084	0.948028564453125	0.94818115234375	1.0565185546875E-06	1.00177089734643E-06	897458.1875	1.06363913801033E-05
1	115	80.3823257970541	0.958099365234375	0.9576416015625	1.0577392578125E-06	1.01293517218437E-06	905366.4375	1.07428522824193E-05
1	116	80.4830337967999	0.968170166015625	0.968017578125	1.0595703125E-06	1.02568264992442E-06	913594.5	1.08494677988347E-05
1	117	80.5837417965456	0.978240966796875	0.9783935546875	1.06170654296875E-06	1.03876675439096E-06	921529.25	1.09562824945897E-05
1	118	80.6844497962913	0.988311767578125	0.98785400390625	1.0638427734375E-06	1.05092135527229E-06	928571.4375	1.10633118310943E-05
1	119	80.7851577960371	0.998382568359375	0.99884033203125	1.065673828125E-06	1.06443803815637E-06	937285.25	1.11705421659281E-05
1	120	80.8858657957828	1.00845336914063	1.00830078125	1.0675048828125E-06	1.07636594748328E-06	944539.75	1.12779562186915E-05
1	121	80.9865737955286	1.01852416992188	1.0186767578125	1.070556640625E-06	1.09055122266E-06	951539.3125	1.13856158350245E-05
1	122	81.0872817952743	1.02859497070313	1.0284423828125	1.0736083984375E-06	1.10414430309902E-06	957930.6875	1.14935828605667E-05
1	123	81.18798979502	1.03866577148438	1.0382080078125	1.07666015625E-06	1.11779718281468E-06	964285.6875	1.1601857295318E-05
1	124	81.2886977947658	1.04873657226563	1.04888916015625	1.0797119140625E-06	1.13249802780047E-06	971452.8125	1.17104400487733E-05
1	125	81.3894057945115	1.05880737304688	1.0589599609375	1.08367919921875E-06	1.14757290248235E-06	977189.5	1.18193747766782E-05
1	126	81.4901137942572	1.06887817382813	1.06903076171875	1.087646484375E-06	1.16272747163748E-06	982884.4375	1.19287096822518E-05
1	127	81.590821794003	1.07894897460938	1.07879638671875	1.0919189453125E-06	1.17795809728705E-06	987982.1875	1.20384602269041E-05
1	128	81.6915297937487	1.08901977539063	1.08917236328125	1.0955810546875E-06	1.19327660286217E-06	994150.375	1.21486091302359E-05
1	129	81.7922377934945	1.09909057617188	1.0992431640625	1.0992431640625E-06	1.20833556138678E-06	1000000	1.22591272884165E-05
1	130	81.8929457932402	1.10916137695313	1.10870361328125	1.1029052734375E-06	1.22279504921607E-06	1005257.375	1.23700147014461E-05
1	131	81.9936537929859	1.11923217773438	1.119384765625	1.10626220703125E-06	1.238332970388E-06	1011862.125	1.24812549984199E-05
1	132	82.0943617927317	1.12930297851563	1.12884521484375	1.10931396484375E-06	1.25224380553846E-06	1017606.5625	1.25928181660129E-05
1	133	82.1950697924774	1.13937377929688	1.13922119140625	1.11328125E-06	1.26827353597037E-06	1023300.5	1.27047342175501E-05
1	134	82.2957777922231	1.14944458007813	1.1492919921875	1.11602783203125E-06	1.28264173326897E-06	1029805.9375	1.28169886011165E-05
1	135	82.3964857919689	1.15951538085938	1.15966796875	1.11907958984375E-06	1.2977607184439E-06	1036269.4375	1.29295358419768E-05
1	136	82.4971937917146	1.16958618164063	1.1700439453125	1.12274169921875E-06	1.31365709421516E-06	1042131.0625	1.30424205053714E-05
1	137	82.5979017914603	1.17965698242188	1.17919921875	1.1248779296875E-06	1.32645516259799E-06	1048290.8125	1.31555971165653E-05
1	138	82.6986097912061	1.18972778320313	1.1895751953125	1.12762451171875E-06	1.3413941815088E-06	1054939.125	1.32690192913287E-05
1	139	82.7993177909518	1.19979858398438	1.199951171875	1.13067626953125E-06	1.35675622914277E-06	1061268.625	1.33827343233861E-05
1	140	82.9000257906976	1.20986938476563	1.20941162109375	1.13311767578125E-06	1.37040558456647E-06	1067331	1.34967249323381E-05
1	141	83.0007337904433	1.21994018554688	1.21978759765625	1.1358642578125E-06	1.38551308737078E-06	1073885.125	1.36109774757642E-05
1	142	83.101441790189	1.23001098632813	1.2298583984375	1.13861083984375E-06	1.40033012030472E-06	1080139.375	1.37255065055797E-05
1	143	83.2021497899348	1.24008178710938	1.23992919921875	1.141357421875E-06	1.41520240504178E-06	1086363.625	1.38403120217845E-05
1	144	83.3028577896805	1.25015258789063	1.25030517578125	1.1444091796875E-06	1.43086060688802E-06	1092533.375	1.39554094857886E-05
1	145	83.4035657894262	1.26022338867188	1.26007080078125	1.14715576171875E-06	1.445497559871E-06	1098430.375	1.40707988975919E-05
1	146	83.504273789172	1.27029418945313	1.270751953125	1.151123046875E-06	1.46279182899889E-06	1103923.75	1.41865266414243E-05
1	147	83.6049817889177	1.28036499023438	1.2799072265625	1.15447998046875E-06	1.47762727920053E-06	1108644	1.43026227306109E-05
1	148	83.7056897886634	1.29043579101563	1.29058837890625	1.15875244140625E-06	1.49547236105718E-06	1113774	1.44191026265617E-05
1	149	83.8063977884092	1.30050659179688	1.3006591796875	1.1627197265625E-06	1.51230210576614E-06	1118635.125	1.45359981615911E-05
1	150	83.9071057881549	1.31057739257813	1.3104248046875	1.1669921875E-06	1.52925554175454E-06	1122907.875	1.46533084262046E-05
1	151	84.0078137879007	1.32064819335938	1.32049560546875	1.17218017578125E-06	1.54785880113195E-06	1126529.5	1.47710952660418E-05
1	152	84.1085217876464	1.33071899414063	1.33056640625	1.177978515625E-06	1.56737860379508E-06	1129533.75	1.48894350786577E-05
1	153	84.2092297873921	1.34078979492188	1.34002685546875	1.18377685546875E-06	1.58629268298682E-06	1131992.875	1.50083587868721E-05
1	154	84.3099377871379	1.35086059570313	1.35101318359375	1.190185546875E-06	1.6079563920357E-06	1135128.125	1.51278973135049E-05
1	155	84.4106457868836	1.36093139648438	1.36077880859375	1.1968994140625E-06	1.62871526754316E-06	1136920	1.5248097042786E-05
1	156	84.5113537866293	1.37100219726563	1.370849609375	1.20391845703125E-06	1.65039102739684E-06	1138656.625	1.53689870785456E-05
1	157	84.6120617863751	1.38107299804688	1.38092041015625	1.21124267578125E-06	1.67262965078407E-06	1140085.75	1.54906010720879E-05
1	158	84.7127697861208	1.39114379882813	1.3916015625	1.21826171875E-06	1.69533484495332E-06	1142284.625	1.5612935385434E-05
1	159	84.8134777858666	1.40121459960938	1.4013671875	1.22589111328125E-06	1.71792351011391E-06	1143141.625	1.57360082084779E-05
1	160	84.9141857856123	1.41128540039063	1.4105224609375	1.234130859375E-06	1.74076933490142E-06	1142927.75	1.58598813868593E-05
1	161	85.014893785358	1.42135620117188	1.4215087890625	1.241455078125E-06	1.76473929514032E-06	1145034.5	1.59845367306843E-05
1	162	85.1156017851038	1.43142700195313	1.43096923828125	1.24908447265625E-06	1.78740140199807E-06	1145614.5	1.61099451361224E-05
1	163	85.2163097848495	1.44149780273438	1.4410400390625	1.25732421875E-06	1.81185453129729E-06	1146116.5	1.62361520779086E-05
1	164	85.3170177845952	1.45156860351563	1.45172119140625	1.2646484375E-06	1.83591691893525E-06	1147924.75	1.63631448231172E-05
1	165	85.417725784341	1.46163940429688	1.46148681640625	1.27166748046875E-06	1.85852513823193E-06	1149268.125	1.64908578881295E-05
1	166	85.5184337840867	1.47171020507813	1.47186279296875	1.2786865234375E-06	1.88205103768269E-06	1151074	1.66192785400199E-05
1	167	85.6191417838324	1.48178100585938	1.48162841796875	1.28509521484375E-06	1.90403352462454E-06	1152932.75	1.67483758559683E-05
1	168	85.7198497835782	1.49185180664063	1.49169921875	1.29119873046875E-06	1.92608013094286E-06	1155282.5	1.68781025422504E-05
1	169	85.8205577833239	1.50192260742188	1.50177001953125	1.29730224609375E-06	1.94824951904593E-06	1157610	1.70084422279615E-05
1	170	85.9212657830697	1.49185180664063	1.4910888671875	1.19903564453125E-06	1.7878686549011E-06	1243573.375	1.71341434906935E-05
1	171	86.0219737828154	1.48178100585938	1.48162841796875	1.13250732421875E-06	1.67795508332347E-06	1308272.625	1.72515465237666E-05
1	172	86.1226817825611	1.47171020507813	1.4715576171875	1.080322265625E-06	1.58975637987169E-06	1362146.875	1.73629705386702E-05
1	173	86.2233897823069	1.46163940429688	1.461181640625	1.0369873046875E-06	1.51522681335337E-06	1409064.125	1.74695851455908E-05
1	174	86.3240977820526	1.45156860351563	1.451416015625	9.98840332031251E-07	1.44973273563664E-06	1453101.25	1.75720979314065E-05
1	175	86.4248057817983	1.44149780273438	1.44134521484375	9.6588134765625E-07	1.39216842853784E-06	1492259.125	1.76710291270865E-05
1	176	86.5255137815441	1.43142700195313	1.43157958984375	9.36279296875001E-07	1.34035826704348E-06	1529009.125	1.7766811652109E-05
1	177	86.6262217812898	1.42135620117188	1.4215087890625	9.0911865234375E-07	1.29232012113789E-06	1563612	1.78597347257892E-05
1	178	86.7269297810356	1.41128540039063	1.4111328125	8.8470458984375E-07	1.24843563753529E-06	1595032.875	1.7950060282601E-05
1	179	86.8276377807813	1.40121459960938	1.4019775390625	8.6212158203125E-07	1.20867503028421E-06	1626194.75	1.80380193341989E-05
1	180	86.928345780527	1.39114379882813	1.39129638671875	8.4197998046875E-07	1.17144361411192E-06	1652410.375	1.81238283403218E-05
1	181	87.0290537802728	1.38107299804688	1.38092041015625	8.2275390625E-07	1.13615760710672E-06	1678412.5	1.82076546479948E-05
1	182	87.1297617800185	1.37100219726563	1.37054443359375	8.04443359375E-07	1.10252540252986E-06	1703717.75	1.82895910256775E-05
1	183	87.2304697797642	1.36093139648438	1.3604736328125	7.8765869140625E-07	1.07158882656222E-06	1727237.5	1.836975934566E-05
1	184	87.33117777951	1.35086059570313	1.351318359375	7.7178955078125E-07	1.04293337699346E-06	1750889.75	1.84482832992217E-05
1	185	87.4318857792557	1.34078979492188	1.34033203125	7.568359375E-07	1.01441139577219E-06	1770967.875	1.85252556548221E-05
1	186	87.5325937790014	1.33071899414063	1.33026123046875	7.427978515625E-07	9.88115175459825E-07	1790879.25	1.86007691809209E-05
1	187	87.6333017787472	1.32064819335938	1.32080078125	7.281494140625E-07	9.61740283855761E-07	1813914.5	1.86748366104439E-05
1	188	87.7340097784929	1.31057739257813	1.3104248046875	7.1563720703125E-07	9.37788740884571E-07	1831130	1.87475361599354E-05
1	189	87.8347177782387	1.30050659179688	1.30096435546875	7.037353515625E-07	9.15534599243983E-07	1848655.75	1.88190078915795E-05
1	190	87.9354257779844	1.29043579101563	1.290283203125	6.915283203125E-07	8.92267394192459E-07	1865842.875	1.88892645383021E-05
1	191	88.0361337777301	1.28036499023438	1.280517578125	6.8084716796875E-07	8.71836789428926E-07	1880771	1.89583697647322E-05
1	192	88.1368417774759	1.27029418945313	1.2701416015625	6.6986083984375E-07	8.50818082653859E-07	1896127.625	1.90263835975202E-05
1	193	88.2375497772216	1.26022338867188	1.26068115234375	6.591796875E-07	8.31015370295063E-07	1912500.125	1.9093306036666E-05
1	194	88.3382577769673	1.25015258789063	1.2506103515625	6.4849853515625E-07	8.11018992408208E-07	1928470.625	1.91591534530744E-05
1	195	88.4389657767131	1.24008178710938	1.23992919921875	6.378173828125E-07	7.90848389442544E-07	1944019.125	1.92239240277559E-05
1	196	88.5396737764588	1.23001098632813	1.23016357421875	6.28662109375E-07	7.73357214711723E-07	1956796.125	1.92876959772548E-05
1	197	88.6403817762045	1.21994018554688	1.21978759765625	6.18591308593749E-07	7.54550001147436E-07	1971879.75	1.9350500224391E-05
1	198	88.7410897759503	1.20986938476563	1.209716796875	6.085205078125E-07	7.36137508283718E-07	1987963.875	1.941228947544E-05
1	199	88.841797775696	1.19979858398438	1.19964599609375	5.99060058593751E-07	7.18659975973424E-07	2002547.125	1.94730964722112E-05
1	200	88.9425057754418	1.18972778320313	1.18896484375	5.89599609374999E-07	7.0101322080518E-07	2016563.125	1.95329503185349E-05
1	201	89.0432137751875	1.17965698242188	1.18011474609375	5.79833984375E-07	6.84270617057336E-07	2035263.25	1.95918364624958E-05
1	202	89.1439217749332	1.16958618164063	1.16973876953125	5.69763183593749E-07	6.66474079480395E-07	2053026.25	1.96497221622849E-05
1	203	89.244629774679	1.15951538085938	1.15966796875	5.60607910156249E-07	6.50118977318925E-07	2068590.25	1.97066419787006E-05
1	204	89.3453377744247	1.14944458007813	1.1492919921875	5.511474609375E-07	6.33429294794041E-07	2085271.5	1.97626231965842E-05
1	205	89.4460457741704	1.13937377929688	1.13922119140625	5.4229736328125E-07	6.17796615642874E-07	2100731.5	1.98176821868401E-05
1	206	89.5467537739162	1.12930297851563	1.12884521484375	5.33142089843749E-07	6.0183492678334E-07	2117344	1.98718353203731E-05
1	207	89.6474617736619	1.11923217773438	1.1187744140625	5.24291992187501E-07	5.86564453897154E-07	2133876.75	1.99250807781937E-05
1	208	89.7481697734077	1.10916137695313	1.10931396484375	5.157470703125E-07	5.72125429698644E-07	2150887.75	1.99774513021111E-05
1	209	89.8488777731534	1.09909057617188	1.09893798828125	5.07507324218751E-07	5.57719033622561E-07	2165363.75	2.0028975995956E-05
1	210	89.9495857728991	1.08901977539063	1.0882568359375	4.9896240234375E-07	5.4299920293488E-07	2181039.75	2.00796566787176E-05
1	211	90.0502937726449	1.07894897460938	1.07879638671875	4.913330078125E-07	5.30048225755309E-07	2195652.25	2.0129520635237E-05
1	212	90.1510017723906	1.06887817382813	1.0687255859375	4.833984375E-07	5.16620275448076E-07	2210858.75	2.01786024263129E-05
1	213	90.2517097721363	1.05880737304688	1.05865478515625	4.7576904296875E-07	5.03675153140648E-07	2225144.25	2.02269002329558E-05
1	214	90.3524177718821	1.04873657226563	1.048583984375	4.6844482421875E-07	4.91203763886006E-07	2238436.5	2.02744449779857E-05
1	215	90.4531257716278	1.03866577148438	1.03851318359375	4.620361328125E-07	4.79830589483754E-07	2247688.25	2.03212985070422E-05
1	216	90.5538337713735	1.02859497070313	1.029052734375	4.5501708984375E-07	4.68236549977519E-07	2261569.5	2.036747719103E-05
1	217	90.6545417711193	1.01852416992188	1.01837158203125	4.4830322265625E-07	4.56539254400923E-07	2271613.5	2.04129628400551E-05
1	218	90.755249770865	1.00845336914063	1.00860595703125	4.41589355468749E-07	4.45389645165051E-07	2284036	2.04577718250221E-05
1	219	90.8559577706108	0.998382568359375	0.99853515625	4.34265136718751E-07	4.33628997598134E-07	2299367.5	2.05018750421004E-05
1	220	90.9566657703565	0.988311767578125	0.98846435546875	4.26635742187501E-07	4.21714190679268E-07	2316881.25	2.05452251975657E-05
1	221	91.0573737701022	0.978240966796875	0.9783935546875	4.19006347656251E-07	4.0995311678671E-07	2335032.75	2.05878059205133E-05
1	222	91.158081769848	0.968170166015625	0.96832275390625	4.1168212890625E-07	3.98641162746571E-07	2352112.75	2.06296335818479E-05
1	223	91.2587897695937	0.958099365234375	0.95794677734375	4.03442382812499E-07	3.86476330049845E-07	2374432.75	2.06706790777389E-05
1	224	91.3594977693394	0.948028564453125	0.9478759765625	3.94287109374999E-07	3.73735275616127E-07	2404024.75	2.07108478207374E-05
1	225	91.4602057690852	0.937957763671875	0.9381103515625	3.85437011718751E-07	3.61582436880781E-07	2433887.5	2.07501107070129E-05
1	226	91.5609137688309	0.927886962890625	0.927734375	3.77197265625E-07	3.49938858335008E-07	2459547	2.07885113923112E-05
1	227	91.6616217685767	0.917816162109375	0.91796875	3.680419921875E-07	3.37851048470839E-07	2494195.75	2.08260371437063E-05
1	228	91.7623297683224	0.907745361328125	0.90789794921875	3.59497070312501E-07	3.26386640381315E-07	2525467	2.08626715902938E-05
1	229	91.8630377680681	0.897674560546875	0.8978271484375	3.5064697265625E-07	3.14820368885194E-07	2560487.5	2.08984311029781E-05
1	230	91.9637457678139	0.887603759765625	0.887451171875	3.43017578125E-07	3.0441134413195E-07	2587188.75	2.0933359337505E-05
1	231	92.0644537675596	0.877532958984375	0.877685546875	3.34777832031249E-07	2.93829657493916E-07	2621695.5	2.09674890356837E-05
1	232	92.1651617673053	0.867462158203125	0.8673095703125	3.27453613281251E-07	2.84003647266218E-07	2648648.75	2.10008347494295E-05
1	233	92.2658697670511	0.857391357421875	0.85723876953125	3.19824218750001E-07	2.74165699920559E-07	2680343.5	2.10334292205516E-05
1	234	92.3665777667968	0.847320556640625	0.84747314453125	3.13415527343749E-07	2.65611220129358E-07	2703992.25	2.10653142858064E-05
1	235	92.4672857665425	0.837249755859375	0.83740234375	3.07312011718749E-07	2.57343799603404E-07	2724925.5	2.10965699807275E-05
1	236	92.5679937662883	0.827178955078125	0.82733154296875	3.01208496093749E-07	2.49199302970737E-07	2746707.25	2.11272126762196E-05
1	237	92.668701766034	0.817108154296875	0.8172607421875	2.9571533203125E-07	2.4167653123186E-07	2763674	2.11572696571238E-05
1	238	92.7694097657798	0.807037353515625	0.8074951171875	2.90832519531251E-07	2.34845828117614E-07	2776495.5	2.11868045880692E-05
1	239	92.8701177655255	0.796966552734375	0.797119140625	2.8533935546875E-07	2.27449461931428E-07	2793583	2.12158174690558E-05
1	240	92.9708257652712	0.786895751953125	0.7867431640625	2.8076171875E-07	2.20887372393008E-07	2802173.75	2.12443228519987E-05
1	241	93.071533765017	0.776824951171875	0.77728271484375	2.7740478515625E-07	2.15621938082222E-07	2801980.25	2.12724280572729E-05
1	242	93.1722417647627	0.766754150390625	0.76690673828125	2.72521972656251E-07	2.08998926609638E-07	2814110	2.13001203519525E-05
1	243	93.2729497645084	0.756683349609375	0.7568359375	2.69165039062499E-07	2.03713781843362E-07	2811791.25	2.13273960980587E-05
1	244	93.3736577642542	0.746612548828125	0.746490478515625	2.6580810546875E-07	1.98423208530585E-07	2808381.25	2.13543335121358E-05
1	245	93.4743657639999	0.736541748046875	0.7364501953125	2.62451171875E-07	1.93282204463685E-07	2806046.75	2.13809344131732E-05
1	246	93.5750737637456	0.726470947265625	0.726409912109375	2.593994140625E-07	1.88430291814257E-07	2800353	2.14072115340969E-05
1	247	93.6757817634914	0.716400146484375	0.716278076171875	2.56958007812499E-07	1.84053391194539E-07	2787529.75	2.14332121686311E-05
1	248	93.7764897632371	0.706329345703125	0.706268310546875	2.53906249999999E-07	1.79325937210706E-07	2781610.5	2.14589363167761E-05
1	249	93.8771977629829	0.696258544921875	0.696136474609375	2.50854492187499E-07	1.74628965510237E-07	2775060.75	2.14843530557118E-05
1	250	93.9779057627286	0.686187744140625	0.68609619140625	2.484130859375E-07	1.70435257018653E-07	2761916.5	2.15094933082582E-05
1	251	94.0786137624743	0.676116943359375	0.676025390625	2.46582031250001E-07	1.66695713232912E-07	2741584.25	2.15344171010656E-05
1	252	94.1793217622201	0.666046142578125	0.666046142578125	2.45056152343751E-07	1.63218714988034E-07	2717932.75	2.15591735468479E-05
1	253	94.2800297619658	0.655975341796875	0.6558837890625	2.42919921875E-07	1.59327242954532E-07	2700000	2.1583744455711E-05
1	254	94.3807377617115	0.645904541015625	0.6458740234375	2.4078369140625E-07	1.55515934352479E-07	2682382.75	2.16081007238245E-05
1	255	94.4814457614573	0.635833740234375	0.6357421875	2.38952636718751E-07	1.5191226054867E-07	2660536.5	2.1632258722093E-05
1	256	94.582153761203	0.625762939453125	0.62567138671875	2.37426757812501E-07	1.48551123402285E-07	2635218.75	2.16562457353575E-05
1	257	94.6828617609488	0.615692138671875	0.615692138671875	2.35900878906251E-07	1.45242310622962E-07	2609961.25	2.16800799535122E-05
1	258	94.7835697606945	0.605621337890625	0.6055908203125	2.34069824218749E-07	1.4175053308918E-07	2587223	2.17037450056523E-05
1	259	94.8842777604402	0.595550537109375	0.59552001953125	2.32543945312499E-07	1.38484566036823E-07	2560892.5	2.17272408917779E-05
1	260	94.984985760186	0.585479736328125	0.58551025390625	2.31018066406249E-07	1.35263448441947E-07	2534478.25	2.17505821638042E-05
1	261	95.0856937599317	0.575408935546875	0.57537841796875	2.29492187499999E-07	1.32044846168355E-07	2507180.75	2.17737706407206E-05
1	262	95.1864017596774	0.565338134765625	0.565277099609375	2.276611328125E-07	1.28691624468047E-07	2482975.75	2.17967899516225E-05
1	263	95.2871097594232	0.555267333984375	0.555267333984375	2.26745605468751E-07	1.25904421111045E-07	2448856	2.18196710193297E-05
1	264	95.3878177591689	0.545196533203125	0.54510498046875	2.25219726562501E-07	1.22768398114204E-07	2420325.25	2.18424302147469E-05
1	265	95.4885257589146	0.535125732421875	0.53509521484375	2.23693847656251E-07	1.19697503464522E-07	2392087.25	2.18650347960647E-05
1	266	95.5892337586604	0.525054931640625	0.5250244140625	2.22167968750001E-07	1.1664360499708E-07	2363186.75	2.18874847632833E-05
1	267	95.6899417584061	0.514984130859375	0.51495361328125	2.20642089843751E-07	1.13620437502959E-07	2333886.75	2.19097837543814E-05
1	268	95.7906497581519	0.504913330078125	0.50482177734375	2.18811035156249E-07	1.10460568691906E-07	2307113	2.19319117604755E-05
1	269	95.8913577578976	0.494842529296875	0.49481201171875	2.17590332031251E-07	1.07666309645538E-07	2274053.25	2.19538851524703E-05
1	270	95.9920657576433	0.484771728515625	0.484710693359375	2.154541015625E-07	1.04432899661333E-07	2249716.75	2.197569119744E-05
1	271	96.0927737573891	0.474700927734375	0.474700927734375	2.14233398437499E-07	1.0169679143246E-07	2215812	2.19973280763952E-05
1	272	96.1934817571348	0.464630126953125	0.464599609375	2.117919921875E-07	9.83984733693433E-08	2193660	2.20187794184312E-05
1	273	96.2941897568805	0.454559326171875	0.454559326171875	2.09960937500001E-07	9.54397023633646E-08	2164971	2.20400161197176E-05
1	274	96.3948977566263	0.444488525390625	0.4444580078125	2.0782470703125E-07	9.23693477261622E-08	2138619.75	2.2061054551159E-05
1	275	96.495605756372	0.434417724609375	0.434417724609375	2.0477294921875E-07	8.89569946593838E-08	2121460.5	2.20818292291369E-05
1	276	96.5963137561178	0.424346923828125	0.42425537109375	2.02331542968751E-07	8.58402415815362E-08	2096832.625	2.21023292397149E-05
1	277	96.6970217558635	0.414276123046875	0.414276123046875	1.99279785156251E-07	8.25568520212983E-08	2078866.75	2.21225527639035E-05
1	278	96.7977297556092	0.404205322265625	0.404144287109375	1.9683837890625E-07	7.95510999296312E-08	2053178.375	2.21424979827134E-05
1	279	96.898437755355	0.394134521484375	0.39410400390625	1.94702148437501E-07	7.6732895593068E-08	2024138	2.21622140088584E-05
1	280	96.9991457551007	0.384063720703125	0.384063720703125	1.9256591796875E-07	7.39575796160352E-08	1994453.375	2.21817135752644E-05
1	281	97.0998537548464	0.373992919921875	0.3739013671875	1.90124511718751E-07	7.10878111931379E-08	1966613.125	2.22009839490056E-05
1	282	97.2005617545922	0.363922119140625	0.363922119140625	1.88598632812501E-07	6.863521662126E-08	1929611.625	2.22200542339124E-05
1	283	97.3012697543379	0.353851318359375	0.35382080078125	1.87072753906251E-07	6.61902248566548E-08	1891354.125	2.22389717237093E-05
1	284	97.4019777540836	0.343780517578125	0.343780517578125	1.85241699218749E-07	6.36824850630546E-08	1855848.5	2.22577182285022E-05
1	285	97.5026857538294	0.333709716796875	0.333740234375	1.8310546875E-07	6.11096595548588E-08	1822666.625	2.22762664634502E-05
1	286	97.6033937535751	0.323638916015625	0.323638916015625	1.812744140625E-07	5.86674566704914E-08	1785353.5	2.22946146095637E-05
1	287	97.7041017533209	0.313568115234375	0.313629150390625	1.79138183593749E-07	5.61829551770643E-08	1750766.625	2.23127626668429E-05
1	288	97.8048097530666	0.303497314453125	0.303436279296875	1.77001953125E-07	5.37088133967245E-08	1714310.375	2.23306960833725E-05
1	289	97.9055177528123	0.293426513671875	0.293365478515625	1.74560546874999E-07	5.12100370997359E-08	1680594.5	2.23483984882478E-05
1	290	98.0062257525581	0.283355712890625	0.28338623046875	1.7242431640625E-07	4.88626739070241E-08	1643539.875	2.23658698814688E-05
1	291	98.1069337523038	0.273284912109375	0.27325439453125	1.6937255859375E-07	4.62817943969185E-08	1613333.375	2.23830811592052E-05
1	292	98.2076417520495	0.263214111328125	0.263153076171875	1.666259765625E-07	4.38481357889486E-08	1579304.125	2.23999995796476E-05
1	293	98.3083497517953	0.253143310546875	0.253143310546875	1.6357421875E-07	4.1407716366848E-08	1547574.625	2.24166269617854E-05
1	294	98.409057751541	0.243072509765625	0.2430419921875	1.59912109375E-07	3.88653553784479E-08	1519847.375	2.24329160118941E-05
1	295	98.5097657512867	0.233001708984375	0.233062744140625	1.5594482421875E-07	3.63449288443007E-08	1494520.625	2.24488194362493E-05
1	296	98.6104737510325	0.222930908203125	0.222900390625	1.513671875E-07	3.37398056160509E-08	1472580.625	2.24642953980947E-05
1	297	98.7111817507782	0.212860107421875	0.212921142578125	1.46484375E-07	3.11896179994164E-08	1453541.75	2.24792929657269E-05
1	298	98.811889750524	0.202789306640625	0.2027587890625	1.41296386718751E-07	2.86490831058472E-08	1434989.25	2.24937830353156E-05
1	299	98.9125977502697	0.192718505859375	0.192779541015625	1.3458251953125E-07	2.59447574535443E-08	1432426.25	2.25076746573905E-05
1	300	99.0133057500154	0.182647705078125	0.18267822265625	1.27563476562501E-07	2.33030679197554E-08	1432057.5	2.2520875063492E-05
1	301	99.1140137497612	0.172576904296875	0.172576904296875	1.1871337890625E-07	2.04871870579382E-08	1453727.625	2.25332769332454E-05
1	302	99.2147217495069	0.162506103515625	0.16253662109375	1.07727050781251E-07	1.75095902221756E-08	1508781.875	2.25446783588268E-05
1	303	99.3154297492526	0.152435302734375	0.152435302734375	9.307861328125E-08	1.41884664017766E-08	1637705	2.25547901209211E-05
1	304	99.4161377489984	0.142364501953125	0.142425537109375	7.38525390624995E-08	1.05184874144015E-08	1928512.375	2.25631956709549E-05
1	305	99.5168457487441	0.132293701171875	0.13232421875	4.82177734375006E-08	6.38037889189036E-09	2744304	2.25693420361495E-05
1	306	99.6175537484899	0.122222900390625	0.122283935546875	1.31225585937506E-08	1.60467805709885E-09	9318605	2.25724306801567E-05
1	307	99.7182617482356	0.112152099609375	0.112213134765625	-3.509521484375E-08	-3.93814403309989E-09	-3197391.25	2.25713247345993E-05
1	308	99.8189697479813	0.102081298828125	0.10211181640625	-9.94873046874997E-08	-1.01588293333066E-08	-1026380.375	2.25645471800817E-05
1	309	99.9196777477271	0.092010498046875	0.092071533203125	-1.8768310546875E-07	-1.72802714359932E-08	-490569.125	2.25500880333129E-05
1	310	100.020385747473	0.081939697265625	0.082000732421875	-3.03955078125E-07	-2.4924537100901E-08	-269779.125	2.25253315875307E-05
1	311	100.121093747219	0.071868896484375	0.071929931640625	-4.52880859375E-07	-3.25756879249184E-08	-158827.5	2.2487221940537E-05
1	312	100.221801746964	0.061798095703125	0.061859130859375	-6.33850097656249E-07	-3.92094179346714E-08	-97592.6796875	2.24325012823101E-05
1	313	100.32250974671	0.051727294921875	0.051788330078125	-8.41369628906249E-07	-4.35731273285E-08	-61552.4140625	2.23582173930481E-05
1	314	100.423217746456	0.041656494140625	0.041802978515625	-1.0601806640625E-06	-4.43187140319878E-08	-39430.05078125	2.22624676098349E-05
1	315	100.523925746201	0.031585693359375	0.031689453125	-1.270751953125E-06	-4.02694340095877E-08	-24937.560546875	2.21450954995817E-05
1	316	100.624633745947	0.021514892578125	0.021630859375	-1.44989013671875E-06	-3.13623687020481E-08	-14918.96484375	2.2008100131643E-05
1	317	100.725341745693	0.011444091796875	0.011541748046875	-1.58203125E-06	-1.8259406431298E-08	-7295.52490234375	2.1855430532014E-05
1	318	100.826049745439	0.001373291015625	0.00150146484374999	-1.65863037109375E-06	-2.49037523936124E-09	-905.243835449219	2.16922508116113E-05
1	319	100.926757745184	-0.008697509765625	-0.008624267578125	-1.6815185546875E-06	1.45018654862383E-08	5128.85693359375	2.15240597754018E-05
1	320	101.02746574493	-0.018768310546875	-0.018621826171875	-1.6632080078125E-06	3.09719716540258E-08	11196.3310546875	2.13556395465275E-05
1	321	101.128173744676	-0.028839111328125	-0.028704833984375	-1.61651611328125E-06	4.64018263812704E-08	17757.220703125	2.11904934985796E-05
1	322	101.228881744422	-0.038909912109375	-0.038775634765625	-1.55426025390625E-06	6.02674248284529E-08	24947.96875	2.10308317036834E-05
1	323	101.329589744167	-0.048980712890625	-0.048822021484375	-1.48651123046875E-06	7.25744868645961E-08	32843.359375	2.08777164516505E-05
1	324	101.430297743913	-0.059051513671875	-0.05902099609375	-1.41876220703125E-06	8.37367579720194E-08	41600.34375	2.07314242288703E-05
1	325	101.531005743659	-0.069122314453125	-0.069061279296875	-1.35498046875E-06	9.35766806264837E-08	50968.46875	2.05917549465084E-05
1	326	101.631713743405	-0.079193115234375	-0.07916259765625	-1.2969970703125E-06	1.02673659796437E-07	61035.29296875	2.04582174774259E-05
1	327	101.73242174315	-0.089263916015625	-0.089141845703125	-1.2451171875E-06	1.109920404474E-07	71593.140625	2.03302115551196E-05
1	328	101.833129742896	-0.099334716796875	-0.099273681640625	-1.1981201171875E-06	1.1894179152705E-07	82857.8671875	2.02071860258002E-05
1	329	101.933837742642	-0.109405517578125	-0.1092529296875	-1.1572265625E-06	1.26430393265764E-07	94409.2890625	2.00885842787102E-05
1	330	102.034545742388	-0.119476318359375	-0.11932373046875	-1.12060546875E-06	1.33714820549358E-07	106481.484375	1.99738860828802E-05
1	331	102.135253742133	-0.129547119140625	-0.129486083984375	-1.0888671875E-06	1.40993151376279E-07	118918.1640625	1.98626312339911E-05
1	332	102.235961741879	-0.139617919921875	-0.1395263671875	-1.0614013671875E-06	1.48093477037037E-07	131454.859375	1.97543558897451E-05
1	333	102.336669741625	-0.149688720703125	-0.149566650390625	-1.0357666015625E-06	1.54916136807515E-07	144401.890625	1.96487544599222E-05
1	334	102.43737774137	-0.159759521484375	-0.159637451171875	-1.01531982421875E-06	1.62083054533468E-07	157228.75	1.95454740605783E-05
1	335	102.538085741116	-0.169830322265625	-0.169677734375	-9.9609375E-07	1.69014924722433E-07	170343.140625	1.94441909115994E-05
1	336	102.638793740862	-0.179901123046875	-0.17974853515625	-9.80224609374999E-07	1.76193935885749E-07	183374.84375	1.93446758203208E-05
1	337	102.739501740608	-0.189971923828125	-0.1898193359375	-9.661865234375E-07	1.83400871378581E-07	196462.421875	1.92466668522684E-05
1	338	102.840209740353	-0.200042724609375	-0.199859619140625	-9.5428466796875E-07	1.9072295742717E-07	209433.984375	1.91499639186077E-05
1	339	102.940917740099	-0.189971923828125	-0.189788818359375	-8.30993652343751E-07	1.57713301973672E-07	228387.8125	1.9060067643295E-05
2	340	103.041625739845	-0.179901123046875	-0.17974853515625	-7.4798583984375E-07	1.34449365418732E-07	240310.078125	1.89805596164661E-05
2	341	103.142333739591	-0.169830322265625	-0.169708251953125	-6.81152343749999E-07	1.15597167393844E-07	249148.765625	1.8908596757683E-05
2	342	103.243041739336	-0.159759521484375	-0.15966796875	-6.25000000000001E-07	9.97924800572036E-08	255468.75	1.88428257388296E-05
2	343	103.343749739082	-0.149688720703125	-0.149627685546875	-5.7708740234375E-07	8.63482512158953E-08	259280.796875	1.87822970474372E-05
2	344	103.444457738828	-0.139617919921875	-0.13946533203125	-5.33447265625001E-07	7.43973984640434E-08	261441.65625	1.87263776751934E-05
2	345	103.545165738574	-0.129547119140625	-0.12945556640625	-4.93774414062501E-07	6.39218455944501E-08	262175.53125	1.86746528925141E-05
2	346	103.645873738319	-0.119476318359375	-0.11944580078125	-4.5745849609375E-07	5.4641496660679E-08	261107.40625	1.86267534445506E-05
2	347	103.746581738065	-0.109405517578125	-0.10931396484375	-4.22058105468751E-07	4.61368436788234E-08	259002.171875	1.85824665095424E-05
2	348	103.847289737811	-0.099334716796875	-0.099212646484375	-3.875732421875E-07	3.84521676721761E-08	255984.25	1.85416975000408E-05
2	349	103.947997737557	-0.089263916015625	-0.089202880859375	-3.5247802734375E-07	3.14420560698636E-08	253073.59375	1.85044336831197E-05
2	350	104.048705737302	-0.079193115234375	-0.079132080078125	-3.1585693359375E-07	2.49944172026062E-08	250531.390625	1.84707805601647E-05
2	351	104.149413737048	-0.069122314453125	-0.069000244140625	-2.75573730468751E-07	1.90146529632784E-08	250387.609375	1.84410000656499E-05
2	352	104.250121736794	-0.059051513671875	-0.0589599609375	-2.2918701171875E-07	1.35128574996202E-08	257257	1.84155833267141E-05
2	353	104.350829736539	-0.048980712890625	-0.048822021484375	-1.7364501953125E-07	8.47770120770974E-09	281159.9375	1.83952979568858E-05
2	354	104.451537736285	-0.038909912109375	-0.0387451171875	-1.04370117187499E-07	4.0438323800629E-09	371228.0625	1.83812990144361E-05
2	355	104.552245736031	-0.028839111328125	-0.028753662109375	-1.70898437499997E-08	4.91395535373584E-10	1682500.125	1.83751835720614E-05
2	356	104.652953735777	-0.018768310546875	-0.01865234375	9.64355468749997E-08	-1.79874892758392E-09	-193417.734375	1.83791780727915E-05
2	357	104.753661735522	-0.008697509765625	-0.0085601806640625	2.38037109375E-07	-2.03764050077382E-09	-35961.5390625	1.8396020095679E-05
2	358	104.854369735268	0.001373291015625	0.001495361328125	4.119873046875E-07	6.16069861791857E-10	3629.6298828125	1.84287528099958E-05
2	359	104.955077735014	0.011444091796875	0.011566162109375	6.1492919921875E-07	7.11237069239701E-09	18808.93359375	1.84804612217704E-05
2	360	105.05578573476	0.021514892578125	0.0215850830078125	8.3953857421875E-07	1.81215078498553E-08	25710.65234375	1.85536991921254E-05
2	361	105.156493734505	0.031585693359375	0.031658935546875	1.0662841796875E-06	3.37574235231841E-08	29690.8984375	1.86496654350776E-05
2	362	105.257201734251	0.041656494140625	0.0417327880859375	1.275634765625E-06	5.3235794439388E-08	32715.310546875	1.87675905181095E-05
2	363	105.357909733997	0.051727294921875	0.0517578125	1.446533203125E-06	7.48693906871267E-08	35780.59375	1.89046622836031E-05
2	364	105.458617733743	0.061798095703125	0.06182861328125	1.563720703125E-06	9.66826760873118E-08	39539.42578125	1.905624048959E-05
2	365	105.559325733488	0.071868896484375	0.071929931640625	1.62567138671875E-06	1.16934423033399E-07	44246.29296875	1.9216839064029E-05
2	366	105.660033733234	0.081939697265625	0.08197021484375	1.63970947265625E-06	1.34407343921339E-07	49990.6953125	1.93812647921732E-05
2	367	105.76074173298	0.092010498046875	0.092041015625	1.61712646484375E-06	1.48841948544032E-07	56916.40234375	1.95452594198287E-05
2	368	105.861449732726	0.102081298828125	0.10211181640625	1.57135009765625E-06	1.60453410558148E-07	64983.49609375	1.97058125195326E-05
2	369	105.962157732471	0.112152099609375	0.11224365234375	1.51458740234375E-06	1.70002806498815E-07	74108.40625	1.98612015083199E-05
2	370	106.062865732217	0.122222900390625	0.122314453125	1.4544677734375E-06	1.77902435893884E-07	84095.6796875	2.00107042473974E-05
2	371	106.163573731963	0.132293701171875	0.132293701171875	1.39495849609375E-06	1.84544205694692E-07	94837.0234375	2.01541843125597E-05
2	372	106.264281731708	0.142364501953125	0.142425537109375	1.3397216796875E-06	1.90810567346489E-07	106309.796875	2.02918872673763E-05
2	373	106.364989731454	0.152435302734375	0.152496337890625	1.28936767578125E-06	1.96623844317401E-07	118272.1875	2.0424271497177E-05
2	374	106.4656977312	0.162506103515625	0.162567138671875	1.24420166015625E-06	2.02266292603781E-07	130659.8046875	2.05518481379841E-05
2	375	106.566405730946	0.172576904296875	0.172607421875	1.20330810546875E-06	2.07699912380122E-07	143444.078125	2.06750901270425E-05
2	376	106.667113730691	0.182647705078125	0.1826171875	1.168212890625E-06	2.13335752619059E-07	156321.84375	2.07945049623959E-05
2	377	106.767821730437	0.192718505859375	0.192718505859375	1.13677978515625E-06	2.19078486907165E-07	169530.21875	2.09105710382573E-05
2	378	106.868529730183	0.202789306640625	0.202850341796875	1.1090087890625E-06	2.24962803940798E-07	182911.40625	2.10236557904864E-05
2	379	106.969237729929	0.212860107421875	0.212860107421875	1.083984375E-06	2.30737015272098E-07	196368.25	2.11340811802074E-05
2	380	107.069945729674	0.222930908203125	0.222900390625	1.0626220703125E-06	2.36858866742296E-07	209764.515625	2.12421709875343E-05
2	381	107.17065372942	0.233001708984375	0.233001708984375	1.04248046875E-06	2.42899716340617E-07	223507.03125	2.13481707760366E-05
2	382	107.271361729166	0.243072509765625	0.24310302734375	1.024169921875E-06	2.48978807348976E-07	237365.90625	2.14522351598134E-05
2	383	107.372069728912	0.253143310546875	0.253143310546875	1.00921630859375E-06	2.5547635118528E-07	250831.578125	2.15546242543496E-05
2	384	107.472777728657	0.263214111328125	0.263275146484375	9.94873046875E-07	2.61925350741876E-07	264631.90625	2.16555381484795E-05
2	385	107.573485728403	0.273284912109375	0.2733154296875	9.81750488281249E-07	2.68327539743041E-07	278396.03125	2.17550696106628E-05
2	386	107.674193728149	0.283355712890625	0.2833251953125	9.7015380859375E-07	2.74869023542124E-07	292041.53125	2.18533550651046E-05
2	387	107.774901727895	0.293426513671875	0.293426513671875	9.5855712890625E-07	2.81266068213881E-07	306112.71875	2.19504745473387E-05
2	388	107.87560972764	0.303497314453125	0.303497314453125	9.4879150390625E-07	2.87955657540806E-07	319877.78125	2.20465171878459E-05
2	389	107.976317727386	0.313568115234375	0.313568115234375	9.40856933593751E-07	2.95022744012385E-07	333279.28125	2.21416685235454E-05
2	390	108.077025727132	0.323638916015625	0.32366943359375	9.31701660156251E-07	3.01563346738476E-07	347396	2.2235959477257E-05
2	391	108.177733726877	0.333709716796875	0.333709716796875	9.2437744140625E-07	3.08473744325966E-07	361010.21875	2.23294191528112E-05
2	392	108.278441726623	0.343780517578125	0.34375	9.173583984375E-07	3.15341935674951E-07	374717.25	2.24221585085616E-05
2	393	108.379149726369	0.353851318359375	0.353851318359375	9.1094970703125E-07	3.22340753200479E-07	388442.21875	2.25142212002538E-05
2	394	108.479857726115	0.363922119140625	0.36395263671875	9.05761718750001E-07	3.29654341157948E-07	401819.4375	2.26056999963475E-05
2	395	108.58056572586	0.373992919921875	0.3740234375	9.0087890625E-07	3.3694982448651E-07	415176.15625	2.26966712943977E-05
2	396	108.681273725606	0.384063720703125	0.384063720703125	8.9691162109375E-07	3.44471203561625E-07	428206.875	2.27871969400439E-05
2	397	108.781981725352	0.394134521484375	0.394134521484375	8.93249511718749E-07	3.5206045367886E-07	441236.78125	2.28773387789261E-05
2	398	108.882689725098	0.404205322265625	0.40423583984375	8.9019775390625E-07	3.59849821052194E-07	454096.6875	2.29671422857791E-05
2	399	108.983397724843	0.414276123046875	0.414337158203125	8.87451171875001E-07	3.67703989923029E-07	466884.46875	2.30566547543276E-05
2	400	109.084105724589	0.424346923828125	0.42431640625	8.85009765625E-07	3.75524166429386E-07	479448.28125	2.3145905288402E-05
2	401	109.184813724335	0.434417724609375	0.434417724609375	8.8348388671875E-07	3.8380105138458E-07	491709.84375	2.3234955733642E-05
2	402	109.285521724081	0.444488525390625	0.4444580078125	8.81347656250001E-07	3.91722011272577E-07	504293.625	2.33238224609522E-05
2	403	109.386229723826	0.454559326171875	0.454559326171875	8.79821777343751E-07	3.99931195715908E-07	516649.34375	2.34125036513433E-05
2	404	109.486937723572	0.464630126953125	0.46466064453125	8.78295898437501E-07	4.08109514182797E-07	529048	2.35010320466245E-05
2	405	109.587645723318	0.474700927734375	0.474609375	8.770751953125E-07	4.16268107983342E-07	541127.375	2.3589422198711E-05
2	406	109.688353723064	0.484771728515625	0.4847412109375	8.7554931640625E-07	4.24414821509345E-07	553642.375	2.36776741076028E-05
2	407	109.789061722809	0.494842529296875	0.49481201171875	8.75244140625001E-07	4.33081282835701E-07	565341.75	2.37658332480351E-05
2	408	109.889769722555	0.504913330078125	0.504913330078125	8.7432861328125E-07	4.41460144884331E-07	577486.9375	2.3853932361817E-05
2	409	109.990477722301	0.514984130859375	0.51495361328125	8.746337890625E-07	4.50395816642413E-07	588764.8125	2.39419987337897E-05
2	410	110.091185722046	0.525054931640625	0.525054931640625	8.7493896484375E-07	4.59391003460041E-07	600104.625	2.40300960285822E-05
2	411	110.191893721792	0.535125732421875	0.53509521484375	8.7493896484375E-07	4.68175642254209E-07	611580.0625	2.41182096942794E-05
2	412	110.292601721538	0.545196533203125	0.54510498046875	8.75244140625001E-07	4.770998884851E-07	622803.375	2.42063397308812E-05
2	413	110.393309721284	0.555267333984375	0.555267333984375	8.758544921875E-07	4.86333362914593E-07	633972.125	2.42945134232286E-05
2	414	110.494017721029	0.565338134765625	0.565338134765625	8.76770019531251E-07	4.95671542921627E-07	644796.375	2.43827653321205E-05
2	415	110.594725720775	0.575408935546875	0.5753173828125	8.77990722656249E-07	5.05123296079546E-07	655265.9375	2.44711245613871E-05
2	416	110.695433720521	0.585479736328125	0.58538818359375	8.795166015625E-07	5.14858584210742E-07	665579.5	2.45596220338484E-05
2	417	110.796141720267	0.595550537109375	0.595550537109375	8.8043212890625E-07	5.24341771779291E-07	676429.875	2.46482431975892E-05
2	418	110.896849720012	0.605621337890625	0.605499267578125	8.8165283203125E-07	5.33840136540675E-07	686777.4375	2.47369698627153E-05
2	419	110.997557719758	0.615692138671875	0.6156005859375	8.831787109375E-07	5.4368530300053E-07	697028.3125	2.48258365900256E-05
2	420	111.098265719504	0.625762939453125	0.625701904296875	8.85620117187499E-07	5.54134146568686E-07	706512.8125	2.49149034061702E-05
2	421	111.19897371925	0.635833740234375	0.6357421875	8.87451171875001E-07	5.64190145269095E-07	716368.625	2.50041848630644E-05
2	422	111.299681718995	0.645904541015625	0.64581298828125	8.89892578125E-07	5.74704131395265E-07	725720.1875	2.50936809607083E-05
2	423	111.400389718741	0.655975341796875	0.655975341796875	8.9263916015625E-07	5.85549287279719E-07	734871.8125	2.51834389928263E-05
2	424	111.501097718487	0.666046142578125	0.665985107421875	8.953857421875E-07	5.96313554979133E-07	743796.875	2.52734716923442E-05
2	425	111.601805718233	0.676116943359375	0.676025390625	8.984375E-07	6.07366530402942E-07	752445.6875	2.53637990681455E-05
2	426	111.702513717978	0.686187744140625	0.686126708984375	9.014892578125E-07	6.1853580746174E-07	761103.625	2.54544320341665E-05
2	427	111.803221717724	0.696258544921875	0.696197509765625	9.04541015625E-07	6.29739190571854E-07	769669.375	2.55453724093968E-05
2	428	111.90392971747	0.706329345703125	0.70623779296875	9.08203125E-07	6.41407382317993E-07	777621	2.56366511166561E-05
2	429	112.004637717215	0.716400146484375	0.716278076171875	9.11865234375001E-07	6.53149015761301E-07	785508.75	2.57282990787644E-05
2	430	112.105345716961	0.726470947265625	0.726409912109375	9.1583251953125E-07	6.6526979480841E-07	793168.9375	2.58203308476368E-05
2	431	112.206053716707	0.736541748046875	0.73638916015625	9.197998046875E-07	6.7733060404862E-07	800597.25	2.5912762794178E-05
2	432	112.306761716453	0.746612548828125	0.746490478515625	9.24072265625001E-07	6.89811145093699E-07	807826.9375	2.60056094703032E-05
2	433	112.407469716198	0.756683349609375	0.75714111328125	9.28955078125E-07	7.03350053754548E-07	815046	2.60989163507475E-05
2	434	112.508177715944	0.766754150390625	0.7666015625	9.326171875E-07	7.1494577014164E-07	821989.5625	2.61926543316804E-05
2	435	112.60888571569	0.776824951171875	0.77667236328125	9.37499999999999E-07	7.2813031692931E-07	828450.5625	2.62868215941126E-05
2	436	112.709593715436	0.786895751953125	0.787353515625	9.417724609375E-07	7.41507847124012E-07	836033.6875	2.63814508798532E-05
2	437	112.810301715181	0.796966552734375	0.79681396484375	9.46960449218751E-07	7.5455130854607E-07	841443.8125	2.64765567408176E-05
2	438	112.911009714927	0.807037353515625	0.80718994140625	9.521484375E-07	7.6856463238073E-07	847756.4375	2.65721846517408E-05
2	439	113.011717714673	0.817108154296875	0.81695556640625	9.5672607421875E-07	7.81602636834577E-07	853907.5625	2.6668303689803E-05
2	440	113.112425714419	0.827178955078125	0.8270263671875	9.613037109375E-07	7.95023538557871E-07	860317.4375	2.67648829321843E-05
2	441	113.213133714164	0.837249755859375	0.83740234375	9.6588134765625E-07	8.08831259746512E-07	866982.625	2.68619260168634E-05
2	442	113.31384171391	0.847320556640625	0.84716796875	9.7076416015625E-07	8.22400295419357E-07	872681.5625	2.69594438577769E-05
2	443	113.414549713656	0.857391357421875	0.85723876953125	9.7503662109375E-07	8.35839216506429E-07	879186.1875	2.70574219030095E-05
2	444	113.515257713402	0.867462158203125	0.86700439453125	9.796142578125E-07	8.49329865104664E-07	885046.75	2.7155845600646E-05
2	445	113.615965713147	0.877532958984375	0.877685546875	9.83581542968751E-07	8.63275317897205E-07	892336.3125	2.72547003987711E-05
2	446	113.716673712893	0.887603759765625	0.88775634765625	9.87854003906249E-07	8.76973615504539E-07	898671.6875	2.73539717454696E-05
2	447	113.817381712639	0.897674560546875	0.8978271484375	9.9151611328125E-07	8.90210060333629E-07	905509.375	2.74536396318581E-05
2	448	113.918089712384	0.907745361328125	0.90789794921875	9.95788574218751E-07	9.04074397567456E-07	911737.6875	2.75537095149048E-05
2	449	114.01879771213	0.917816162109375	0.91766357421875	9.98840332031251E-07	9.16599333322665E-07	918729.0625	2.7654146833811E-05
2	450	114.119505711876	0.927886962890625	0.92742919921875	1.0015869140625E-06	9.28900874441752E-07	925959.875	2.77548751910217E-05
2	451	114.220213711622	0.937957763671875	0.93841552734375	1.00494384765625E-06	9.43054828894674E-07	933799	2.78559127764311E-05
2	452	114.320921711367	0.948028564453125	0.94818115234375	1.0076904296875E-06	9.55473069552681E-07	940944.875	2.79572577710496E-05
2	453	114.421629711113	0.958099365234375	0.95794677734375	1.0107421875E-06	9.68237145571038E-07	947765.75	2.80588938039728E-05
2	454	114.522337710859	0.968170166015625	0.96832275390625	1.0125732421875E-06	9.80497702585126E-07	956299	2.81607754004654E-05
2	455	114.623045710605	0.978240966796875	0.9783935546875	1.0150146484375E-06	9.9308374501561E-07	963920.625	2.82628716377076E-05
2	456	114.72375371035	0.988311767578125	0.98846435546875	1.01715087890625E-06	1.00541740266635E-06	971797.125	2.83652007055935E-05
2	457	114.824461710096	0.998382568359375	0.99853515625	1.019287109375E-06	1.01779403394175E-06	979640.75	2.84677425952395E-05
2	458	114.925169709842	1.00845336914063	1.00830078125	1.021728515625E-06	1.03020965980249E-06	986857.8125	2.85705154965399E-05
2	459	115.025877709588	1.01852416992188	1.01837158203125	1.02447509765625E-06	1.04329626537947E-06	994042.3125	2.86735503323143E-05
2	460	115.126585709333	1.02859497070313	1.02874755859375	1.026611328125E-06	1.05612389234011E-06	1002080.8125	2.87768307316583E-05
2	461	115.227293709079	1.03866577148438	1.03851318359375	1.02935791015625E-06	1.06900176888303E-06	1008894.125	2.88803566945717E-05
2	462	115.328001708825	1.04873657226563	1.048583984375	1.03240966796875E-06	1.08256813291518E-06	1015666.625	2.89841755147791E-05
2	463	115.428709708571	1.05880737304688	1.05865478515625	1.03515625E-06	1.09587301722058E-06	1022700.5625	2.9088285373291E-05
2	464	115.529417708316	1.06887817382813	1.0693359375	1.038818359375E-06	1.1108458011222E-06	1029377.1875	2.91927190119168E-05
2	465	115.630125708062	1.07894897460938	1.0791015625	1.04217529296875E-06	1.12461304979661E-06	1035431.875	2.92975055344868E-05
2	466	115.730833707808	1.08901977539063	1.08917236328125	1.04644775390625E-06	1.13976204829669E-06	1040828.1875	2.94026758638211E-05
2	467	115.831541707553	1.09909057617188	1.0992431640625	1.0498046875E-06	1.15399052447174E-06	1047093.125	2.95082299999194E-05
2	468	115.932249707299	1.10916137695313	1.10931396484375	1.05377197265625E-06	1.16896387680754E-06	1052707.875	2.96141533908667E-05
2	469	116.032957707045	1.11923217773438	1.11907958984375	1.0577392578125E-06	1.18369439405797E-06	1057991.875	2.97204769594828E-05
2	470	116.133665706791	1.12930297851563	1.1297607421875	1.06201171875E-06	1.19981916668621E-06	1063793.125	2.98272152576828E-05
2	471	116.234373706536	1.13937377929688	1.13922119140625	1.06597900390625E-06	1.21438586120348E-06	1068708.875	2.99343682854669E-05
2	472	116.335081706282	1.14944458007813	1.14959716796875	1.0699462890625E-06	1.2300072285143E-06	1074443.875	3.00419196719304E-05
2	473	116.435789706028	1.15951538085938	1.15936279296875	1.07421875E-06	1.24540929391515E-06	1079261.375	3.01498876069672E-05
2	474	116.536497705774	1.16958618164063	1.16973876953125	1.07757568359375E-06	1.26048200854711E-06	1085528.125	3.02582393487683E-05
2	475	116.637205705519	1.17965698242188	1.17889404296875	1.08154296875E-06	1.27502448776795E-06	1090011.375	3.03669585264288E-05
2	476	116.737913705265	1.18972778320313	1.18988037109375	1.085205078125E-06	1.29126419778913E-06	1096456.625	3.04760633298429E-05
2	477	116.838621705011	1.19979858398438	1.199951171875	1.0894775390625E-06	1.30731984882004E-06	1101400.5	3.05855683109257E-05
2	478	116.939329704757	1.20986938476563	1.209716796875	1.092529296875E-06	1.32165098420955E-06	1107262.625	3.06954389088787E-05
2	479	117.040037704502	1.21994018554688	1.22039794921875	1.0955810546875E-06	1.33704486415809E-06	1113927.5	3.08056187350303E-05
2	480	117.140745704248	1.23001098632813	1.2298583984375	1.0992431640625E-06	1.35191339722951E-06	1118822.875	3.09161368932109E-05
2	481	117.241453703994	1.24008178710938	1.23992919921875	1.10198974609375E-06	1.36638925596344E-06	1125173.125	3.10269788315054E-05
2	482	117.34216170374	1.25015258789063	1.25030517578125	1.10504150390625E-06	1.38163909468858E-06	1131455.375	3.11381118081044E-05
2	483	117.442869703485	1.26022338867188	1.2603759765625	1.1083984375E-06	1.39699875489896E-06	1137114.5	3.12495685648173E-05
2	484	117.543577703231	1.27029418945313	1.27044677734375	1.11175537109375E-06	1.41242594509094E-06	1142739.625	3.13613600155804E-05
2	485	117.644285702977	1.28036499023438	1.28021240234375	1.11419677734375E-06	1.426408516636E-06	1149000.375	3.14734461426269E-05
2	486	117.744993702722	1.29043579101563	1.29058837890625	1.11785888671875E-06	1.44269574775535E-06	1154518.125	3.1585841497872E-05
2	487	117.845701702468	1.30050659179688	1.30096435546875	1.1212158203125E-06	1.4586616998713E-06	1160315.75	3.16985860990826E-05
2	488	117.946409702214	1.31057739257813	1.31011962890625	1.12396240234375E-06	1.47252524129726E-06	1165625.875	3.18116399284918E-05
2	489	118.04711770196	1.32064819335938	1.3201904296875	1.1273193359375E-06	1.48827609791624E-06	1171088.375	3.19249993481208E-05
2	490	118.147825701705	1.33071899414063	1.33026123046875	1.1322021484375E-06	1.50612459037802E-06	1174932.625	3.20387771353126E-05
2	491	118.248533701451	1.34078979492188	1.34063720703125	1.13677978515625E-06	1.52400912156736E-06	1179329	3.21530278597493E-05
2	492	118.349241701197	1.35086059570313	1.35101318359375	1.14166259765625E-06	1.54240115080029E-06	1183373.5	3.22677587973885E-05
2	493	118.449949700943	1.36093139648438	1.361083984375	1.1468505859375E-06	1.56095984493732E-06	1186801.5	3.23829917761032E-05
2	494	118.550657700688	1.37100219726563	1.37115478515625	1.15264892578125E-06	1.58046009346435E-06	1189568.5	3.24987813655753E-05
2	495	118.651365700434	1.38107299804688	1.38092041015625	1.15936279296875E-06	1.60098772994388E-06	1191102.875	3.2615200325381E-05
2	496	118.75207370018	1.39114379882813	1.3909912109375	1.165771484375E-06	1.62157778049732E-06	1193193.75	3.27322813973296E-05
2	497	118.852781699926	1.40121459960938	1.4013671875	1.173095703125E-06	1.64393782142724E-06	1194589	3.28500536852516E-05
2	498	118.953489699671	1.41128540039063	1.41143798828125	1.1810302734375E-06	1.66695099323988E-06	1195090.5	3.29685935867019E-05
2	499	119.054197699417	1.42135620117188	1.42120361328125	1.18927001953125E-06	1.69019472195941E-06	1195021.875	3.30879447574262E-05
2	500	119.154905699163	1.43142700195313	1.43157958984375	1.197509765625E-06	1.71433043760771E-06	1195463.875	3.32081290252972E-05
2	501	119.255613698909	1.44149780273438	1.441650390625	1.2054443359375E-06	1.73782916590426E-06	1195949.375	3.33291282004211E-05
2	502	119.356321698654	1.45156860351563	1.4520263671875	1.21307373046875E-06	1.7614149783185E-06	1196981.125	3.34509095409885E-05
2	503	119.4570296984	1.46163940429688	1.4617919921875	1.2213134765625E-06	1.7853062672657E-06	1196901.5	3.35734912368935E-05
2	504	119.557737698146	1.47171020507813	1.47125244140625	1.22894287109375E-06	1.80808524419263E-06	1197169.125	3.3696873288136E-05
2	505	119.658445697891	1.48178100585938	1.48162841796875	1.23626708984375E-06	1.83168845069304E-06	1198469.5	3.38210047630128E-05
2	506	119.759153697637	1.49185180664063	1.49139404296875	1.2432861328125E-06	1.85422948106861E-06	1199558.25	3.39458601956721E-05
2	507	119.859861697383	1.50192260742188	1.50238037109375	1.25030517578125E-06	1.8784338635669E-06	1201611	3.40714213962201E-05
2	508	119.960569697129	1.49185180664063	1.49200439453125	1.15478515625E-06	1.72294437561504E-06	1292019.125	3.41925297107082E-05
2	509	120.061277696874	1.48178100585938	1.48162841796875	1.090087890625E-06	1.61510513407848E-06	1359182.625	3.43055689882021E-05
2	510	120.16198569662	1.47171020507813	1.47186279296875	1.03912353515625E-06	1.52944721776294E-06	1416446.5	3.44127802236471E-05
2	511	120.262693696366	1.46163940429688	1.4617919921875	9.9639892578125E-07	1.4565279116141E-06	1467075.125	3.45152766385581E-05
2	512	120.363401696112	1.45156860351563	1.45172119140625	9.6038818359375E-07	1.39421592848521E-06	1511598.25	3.46138112945482E-05
2	513	120.464109695857	1.44149780273438	1.441650390625	9.2803955078125E-07	1.33790854306426E-06	1553436.375	3.4708900784608E-05
2	514	120.564817695603	1.43142700195313	1.43157958984375	8.99353027343749E-07	1.28749536543182E-06	1591788.375	3.48009161825757E-05
2	515	120.665525695349	1.42135620117188	1.4208984375	8.7310791015625E-07	1.24059761219542E-06	1627403.125	3.48901667166501E-05
2	516	120.766233695095	1.41128540039063	1.4111328125	8.489990234375E-07	1.1980503131781E-06	1662113.625	3.4976881579496E-05
2	517	120.86694169484	1.40121459960938	1.4013671875	8.2733154296875E-07	1.15939519673702E-06	1693840	3.50612936017569E-05
2	518	120.967649694586	1.39114379882813	1.39129638671875	8.06884765625E-07	1.12261591311835E-06	1724281.375	3.51435810443945E-05
2	519	121.068357694332	1.38107299804688	1.380615234375	7.87963867187499E-07	1.08787492081319E-06	1752130.125	3.52238894265611E-05
2	520	121.169065694078	1.37100219726563	1.370849609375	7.69958496093751E-07	1.05549725049059E-06	1780420.125	3.53023351635784E-05
2	521	121.269773693823	1.36093139648438	1.361083984375	7.53173828125001E-07	1.0251328603772E-06	1807131.25	3.53790310327895E-05
2	522	121.370481693569	1.35086059570313	1.3507080078125	7.37609863281249E-07	9.96295511868084E-07	1831195.75	3.5454097087495E-05
2	523	121.471189693315	1.34078979492188	1.34033203125	7.2296142578125E-07	9.69008397078142E-07	1853946.75	3.5527646105038E-05
2	524	121.57189769306	1.33071899414063	1.3311767578125	7.08923339843751E-07	9.43702275435498E-07	1877744.375	3.55997472070158E-05
2	525	121.672605692806	1.32064819335938	1.32080078125	6.9549560546875E-07	9.18611135602987E-07	1899078.5	3.5670462239068E-05
2	526	121.773313692552	1.31057739257813	1.31072998046875	6.8206787109375E-07	8.94006802809599E-07	1921700.25	3.57398312189616E-05
2	527	121.874021692298	1.30050659179688	1.3006591796875	6.6986083984375E-07	8.71260624535353E-07	1941685.75	3.58079050783999E-05
2	528	121.974729692043	1.29043579101563	1.28997802734375	6.57958984375E-07	8.48752620186133E-07	1960575.125	3.58747638529167E-05
2	529	122.075437691789	1.28036499023438	1.280517578125	6.4605712890625E-07	8.27287522042752E-07	1982050.125	3.59404293703847E-05
2	530	122.176145691535	1.27029418945313	1.27044677734375	6.34765625E-07	8.06435934919136E-07	2001442.25	3.60049234586768E-05
2	531	122.276853691281	1.26022338867188	1.2603759765625	6.2408447265625E-07	7.86581040301826E-07	2019559.875	3.60683116014116E-05
2	532	122.377561691026	1.25015258789063	1.25030517578125	6.12792968750001E-07	7.66178231970116E-07	2040338.625	3.6130593798589E-05
2	533	122.478269690772	1.24008178710938	1.240234375	6.02111816406251E-07	7.46759781122819E-07	2059807.375	3.61917664122302E-05
2	534	122.578977690518	1.23001098632813	1.22955322265625	5.91430664062501E-07	7.27195470062725E-07	2078947.375	3.62518658221234E-05
2	535	122.679685690264	1.21994018554688	1.219482421875	5.8135986328125E-07	7.08958168615936E-07	2097637.75	3.63109211320989E-05
2	536	122.780393690009	1.20986938476563	1.21002197265625	5.71289062499999E-07	6.91272305175517E-07	2118055.75	3.63689614459872E-05
2	537	122.881101689755	1.19979858398438	1.19964599609375	5.6121826171875E-07	6.73263230055454E-07	2137574.75	3.64259904017672E-05
2	538	122.981809689501	1.18972778320313	1.18988037109375	5.511474609375E-07	6.55799510695942E-07	2158915	3.64820007234812E-05
2	539	123.082517689247	1.17965698242188	1.17919921875	5.413818359375E-07	6.38397011698544E-07	2178128.5	3.6537014239002E-05
2	540	123.183225688992	1.16958618164063	1.16973876953125	5.316162109375E-07	6.21852052518079E-07	2200344.5	3.65910455002449E-05
2	541	123.283933688738	1.15951538085938	1.15966796875	5.2215576171875E-07	6.05527304742282E-07	2220923.5	3.66441054211464E-05
2	542	123.384641688484	1.14944458007813	1.14990234375	5.1300048828125E-07	5.89900480463257E-07	2241523	3.66962303814944E-05
2	543	123.485349688229	1.13937377929688	1.13922119140625	5.0384521484375E-07	5.73991144392494E-07	2261053.75	3.67474312952254E-05
2	544	123.586057687975	1.12930297851563	1.12884521484375	4.95300292968751E-07	5.59117381726537E-07	2279112.75	3.67977445421275E-05
2	545	123.686765687721	1.11923217773438	1.119384765625	4.8675537109375E-07	5.44866566087876E-07	2299686.5	3.68471919500735E-05
2	546	123.787473687467	1.10916137695313	1.109619140625	4.7943115234375E-07	5.31985961060855E-07	2314449.5	3.68958462786395E-05
2	547	123.888181687212	1.09909057617188	1.09954833984375	4.7119140625E-07	5.18097692747688E-07	2333549.25	3.69437111658044E-05
2	548	123.988889686958	1.08901977539063	1.0888671875	4.638671875E-07	5.05089758462418E-07	2347368.5	3.69907975255046E-05
2	549	124.089597686704	1.07894897460938	1.0791015625	4.56848144531249E-07	4.92985520850198E-07	2362057.5	3.70371562894434E-05
2	550	124.19030568645	1.06887817382813	1.06903076171875	4.498291015625E-07	4.80881112707721E-07	2376526.5	3.70828129234724E-05
2	551	124.291013686195	1.05880737304688	1.05804443359375	4.4281005859375E-07	4.68512695306345E-07	2389386.75	3.7127760151634E-05
2	552	124.391721685941	1.04873657226563	1.04827880859375	4.35791015625001E-07	4.56830491657456E-07	2405462.25	3.7172001611907E-05
2	553	124.492429685687	1.03866577148438	1.038818359375	4.2877197265625E-07	4.45416191041659E-07	2422776	3.72155373042915E-05
2	554	124.593137685433	1.02859497070313	1.02874755859375	4.21142578125E-07	4.33249397246982E-07	2442753.75	3.72583308489993E-05
2	555	124.693845685178	1.01852416992188	1.01837158203125	4.132080078125E-07	4.20799295852703E-07	2464549.5	3.73003458662424E-05
2	556	124.794553684924	1.00845336914063	1.00830078125	4.04052734375E-07	4.07406673730293E-07	2495468.5	3.73414986825082E-05
2	557	124.89526168467	0.998382568359375	0.99822998046875	3.95812988281249E-07	3.95112380147111E-07	2521973.75	3.73817747458816E-05
2	558	124.995969684416	0.988311767578125	0.98846435546875	3.857421875E-07	3.81292380779996E-07	2562500	3.74211304006167E-05
2	559	125.096677684161	0.978240966796875	0.97869873046875	3.75976562499999E-07	3.67967771808253E-07	2603084.5	3.74594856111798E-05
2	560	125.197385683907	0.968170166015625	0.968017578125	3.65600585937501E-07	3.53907779526708E-07	2647746.25	3.74968258256558E-05
2	561	125.298093683653	0.958099365234375	0.958251953125	3.5552978515625E-07	3.40687108746351E-07	2695279	3.75331364921294E-05
2	562	125.398801683398	0.948028564453125	0.94757080078125	3.45458984374999E-07	3.27346839412712E-07	2742933	3.75684358004946E-05
2	563	125.499509683144	0.937957763671875	0.93780517578125	3.35693359375E-07	3.14814968760402E-07	2793636.5	3.76027346646879E-05
2	564	125.60021768289	0.927886962890625	0.9283447265625	3.25927734375001E-07	3.02573283761376E-07	2848314.75	3.76360476366244E-05
2	565	125.700925682636	0.917816162109375	0.91796875	3.16467285156249E-07	2.90507045974664E-07	2900675.25	3.76683965441771E-05
2	566	125.801633682381	0.907745361328125	0.908203125	3.0792236328125E-07	2.79656063639777E-07	2949455	3.7699835957028E-05
2	567	125.902341682127	0.897674560546875	0.8978271484375	2.99072265625E-07	2.6851520829041E-07	3002040.75	3.77304022549652E-05
2	568	126.003049681873	0.887603759765625	0.887451171875	2.9144287109375E-07	2.58641307482321E-07	3045026.25	3.77601354557555E-05
2	569	126.103757681619	0.877532958984375	0.87738037109375	2.8350830078125E-07	2.4874461246327E-07	3094725.75	3.77890864911024E-05
2	570	126.204465681364	0.867462158203125	0.86761474609375	2.76794433593749E-07	2.40150910713055E-07	3134509.5	3.78172990167513E-05
2	571	126.30517368111	0.857391357421875	0.85723876953125	2.703857421875E-07	2.31785122650763E-07	3170429	3.78448530682363E-05
2	572	126.405881680856	0.847320556640625	0.84747314453125	2.642822265625E-07	2.23972079993473E-07	3206697.5	3.78717777493875E-05
2	573	126.506589680602	0.837249755859375	0.83709716796875	2.57263183593751E-07	2.15354262422807E-07	3253855.5	3.78980366804171E-05
2	574	126.607297680347	0.827178955078125	0.82763671875	2.5177001953125E-07	2.08374117960375E-07	3287272.75	3.79236698790919E-05
2	575	126.708005680093	0.817108154296875	0.81695556640625	2.46582031250001E-07	2.01446567871244E-07	3313118.75	3.79487646569032E-05
2	576	126.808713679839	0.807037353515625	0.80718994140625	2.410888671875E-07	1.94604496073225E-07	3348101.5	3.79733210138511E-05
2	577	126.909421679585	0.796966552734375	0.7965087890625	2.35900878906251E-07	1.87897114756197E-07	3376455.5	3.79973389499355E-05
2	578	127.01012967933	0.786895751953125	0.7867431640625	2.30712890625E-07	1.81511779828725E-07	3410053	3.80208330170717E-05
2	579	127.110837679076	0.776824951171875	0.77728271484375	2.26745605468751E-07	1.76245436023237E-07	3427994.75	3.80438686988782E-05
2	580	127.211545678822	0.766754150390625	0.76690673828125	2.2247314453125E-07	1.70616146988323E-07	3447188	3.80664896511007E-05
2	581	127.312253678567	0.756683349609375	0.7568359375	2.18505859375E-07	1.65373094773713E-07	3463687.25	3.80886958737392E-05
2	582	127.412961678313	0.746612548828125	0.746490478515625	2.14538574218751E-07	1.60151003569808E-07	3479516.25	3.81104982807301E-05
2	583	127.513669678059	0.736541748046875	0.736480712890625	2.11181640624999E-07	1.55531196810443E-07	3487428	3.81319368898403E-05
2	584	127.614377677805	0.726470947265625	0.726409912109375	2.0721435546875E-07	1.50522566855216E-07	3505596.5	3.81530044251122E-05
2	585	127.71508567755	0.716400146484375	0.716278076171875	2.044677734375E-07	1.46455775507093E-07	3503134.5	3.8173733628355E-05
2	586	127.815793677296	0.706329345703125	0.70623779296875	2.01416015625E-07	1.42247600365408E-07	3506363.75	3.81941717932932E-05
2	587	127.916501677042	0.696258544921875	0.696136474609375	1.9805908203125E-07	1.37876156713901E-07	3514792	3.82142861781176E-05
2	588	128.017209676788	0.686187744140625	0.68609619140625	1.9561767578125E-07	1.34212541524903E-07	3507332.25	3.82341095246375E-05
2	589	128.117917676533	0.676116943359375	0.67608642578125	1.92871093749999E-07	1.30397523889769E-07	3505380	3.82536709366832E-05
2	590	128.218625676279	0.666046142578125	0.665985107421875	1.910400390625E-07	1.27229810686913E-07	3486102.5	3.82730031560641E-05
2	591	128.319333676025	0.655975341796875	0.655914306640625	1.8890380859375E-07	1.23904698057231E-07	3472213.5	3.82921352866106E-05
2	592	128.420041675771	0.645904541015625	0.645843505859375	1.86767578124999E-07	1.20622630106482E-07	3458006.5	3.83110527764075E-05
2	593	128.520749675516	0.635833740234375	0.635772705078125	1.849365234375E-07	1.17577592106954E-07	3437788.75	3.83297701773699E-05
2	594	128.621457675262	0.625762939453125	0.62567138671875	1.83715820312499E-07	1.14945727602844E-07	3405648	3.83483311452437E-05
2	595	128.722165675008	0.615692138671875	0.61566162109375	1.812744140625E-07	1.11603704056051E-07	3396296.25	3.83667102141771E-05
2	596	128.822873674754	0.605621337890625	0.605560302734375	1.800537109375E-07	1.09033372552858E-07	3363220.5	3.83849037461914E-05
2	597	128.923581674499	0.595550537109375	0.59552001953125	1.7852783203125E-07	1.06316896619774E-07	3335726.5	3.84029626729898E-05
2	598	129.024289674245	0.585479736328125	0.58544921875	1.7730712890625E-07	1.03804318030143E-07	3301893.25	3.84208797186147E-05
2	599	129.124997673991	0.575408935546875	0.57537841796875	1.7578125E-07	1.01140727792881E-07	3273264	3.8438658521045E-05
2	600	129.225705673736	0.565338134765625	0.565277099609375	1.7425537109375E-07	9.85025678801321E-08	3243958.25	3.84562845283654E-05
2	601	129.326413673482	0.555267333984375	0.555267333984375	1.73034667968749E-07	9.60804982241825E-08	3208994.75	3.8473772292491E-05
2	602	129.427121673228	0.545196533203125	0.545135498046875	1.72119140625E-07	9.38282482820796E-08	3167198.75	3.84911509172525E-05
2	603	129.527829672974	0.535125732421875	0.535064697265625	1.71508789062499E-07	9.17682996259828E-08	3119751	3.85084531444591E-05
2	604	129.628537672719	0.525054931640625	0.5250244140625	1.7059326171875E-07	8.95656242505538E-08	3077638.75	3.85256789741106E-05
2	605	129.729245672465	0.514984130859375	0.514923095703125	1.690673828125E-07	8.70566978505849E-08	3045668	3.85427847504616E-05
2	606	129.829953672211	0.504913330078125	0.504913330078125	1.678466796875E-07	8.47480237098353E-08	3008181.75	3.8559748645639E-05
2	607	129.930661671957	0.494842529296875	0.49481201171875	1.67236328125001E-07	8.27505388656391E-08	2958759.25	3.85766215913463E-05
2	608	130.031369671702	0.484771728515625	0.484771728515625	1.65710449218751E-07	8.0331737706274E-08	2925414.5	3.85933853976894E-05
2	609	130.132077671448	0.474700927734375	0.47467041015625	1.6510009765625E-07	7.83681244342915E-08	2875046.25	3.86100437026471E-05
2	610	130.232785671194	0.464630126953125	0.46466064453125	1.6357421875E-07	7.6006500648873E-08	2840671.75	3.86265928682406E-05
2	611	130.33349367094	0.454559326171875	0.45458984375	1.617431640625E-07	7.35267988716259E-08	2810566	3.86429746868089E-05
2	612	130.434201670685	0.444488525390625	0.4444580078125	1.605224609375E-07	7.13454966216887E-08	2768821.25	3.86592037102673E-05
2	613	130.534909670431	0.434417724609375	0.4344482421875	1.59301757812499E-07	6.92083617082062E-08	2727203.25	3.86753054044675E-05
2	614	130.635617670177	0.424346923828125	0.424346923828125	1.57470703125E-07	6.68222028821219E-08	2694767.5	3.86912579415366E-05
2	615	130.736325669923	0.414276123046875	0.41424560546875	1.556396484375E-07	6.44730349108613E-08	2661568.75	3.87070249416865E-05
2	616	130.837033669668	0.404205322265625	0.4041748046875	1.5411376953125E-07	6.22888975954083E-08	2622574.25	3.87226209568325E-05
2	617	130.937741669414	0.394134521484375	0.3941650390625	1.5289306640625E-07	6.0265101353707E-08	2578044	3.87380823667627E-05
2	618	131.03844966916	0.384063720703125	0.384063720703125	1.513671875E-07	5.81346455419407E-08	2537298.25	3.87534018955193E-05
2	619	131.139157668905	0.373992919921875	0.37396240234375	1.5106201171875E-07	5.64915119127818E-08	2475555.5	3.87686304748058E-05
2	620	131.239865668651	0.363922119140625	0.36395263671875	1.4984130859375E-07	5.4535135518563E-08	2428920.75	3.87837826565374E-05
2	621	131.340573668397	0.353851318359375	0.35382080078125	1.48620605468749E-07	5.25850580856968E-08	2380698.25	3.87988111469895E-05
2	622	131.441281668143	0.343780517578125	0.343780517578125	1.47705078125E-07	5.07781301450905E-08	2327479.25	3.88137304980773E-05
2	623	131.541989667888	0.333709716796875	0.33367919921875	1.4678955078125E-07	4.8980616895733E-08	2273181	3.88285588996951E-05
2	624	131.642697667634	0.323638916015625	0.3236083984375	1.446533203125E-07	4.68110279427947E-08	2237131	3.88432345062029E-05
2	625	131.74340566738	0.313568115234375	0.31353759765625	1.434326171875E-07	4.49715180650401E-08	2185957.5	3.88577427656855E-05
2	626	131.844113667126	0.303497314453125	0.303497314453125	1.4190673828125E-07	4.30683151364519E-08	2138709.75	3.88721091439947E-05
2	627	131.944821666871	0.293426513671875	0.293365478515625	1.4007568359375E-07	4.10933687078341E-08	2094335.5	3.88863081752788E-05
2	628	132.045529666617	0.283355712890625	0.283294677734375	1.38244628906251E-07	3.91639680685785E-08	2049227.375	3.89003253076226E-05
2	629	132.146237666363	0.273284912109375	0.273284912109375	1.3580322265625E-07	3.71129722509522E-08	2012359.625	3.89141241612379E-05
2	630	132.246945666109	0.263214111328125	0.263275146484375	1.33666992187501E-07	3.51911957352513E-08	1969634.75	3.89276901842095E-05
2	631	132.347653665854	0.253143310546875	0.253143310546875	1.3092041015625E-07	3.31416281085239E-08	1933566.375	3.89410161005799E-05
2	632	132.4483616656	0.243072509765625	0.24310302734375	1.27258300781249E-07	3.09368779483066E-08	1910311.75	3.89540145988576E-05
2	633	132.549069665346	0.233001708984375	0.233062744140625	1.23291015625E-07	2.87345418570339E-08	1890346.5	3.89666311093606E-05
2	634	132.649777665092	0.222930908203125	0.22296142578125	1.19628906249999E-07	2.66726321029864E-08	1863775.5	3.897886199411E-05
2	635	132.750485664837	0.212860107421875	0.212890625	1.1444091796875E-07	2.43633984098324E-08	1860266.75	3.8990649045445E-05
2	636	132.851193664583	0.202789306640625	0.202850341796875	1.09252929687501E-07	2.21619949059004E-08	1856703.875	3.90019122278318E-05
2	637	132.951901664329	0.192718505859375	0.19268798828125	1.02844238281249E-07	1.98168486065242E-08	1873590.625	3.90125933336094E-05
2	638	133.052609664074	0.182647705078125	0.18267822265625	9.49096679687497E-08	1.73379284262865E-08	1924758.875	3.90225504816044E-05
2	639	133.15331766382	0.172576904296875	0.172576904296875	8.60595703124994E-08	1.48518930487285E-08	2005319.25	3.90316636185162E-05
2	640	133.254025663566	0.162506103515625	0.162506103515625	7.41577148437506E-08	1.20510810219798E-08	2191358.25	3.90397326555103E-05
2	641	133.354733663312	0.152435302734375	0.1524658203125	5.92041015625003E-08	9.02660168833336E-09	2575257.75	3.90464483643882E-05
2	642	133.455441663057	0.142364501953125	0.14239501953125	3.87573242187494E-08	5.51884982158413E-09	3674015.75	3.90513778256718E-05
2	643	133.556149662803	0.132293701171875	0.132354736328125	1.15966796875006E-08	1.5348754489608E-09	11413158	3.90539134969003E-05
2	644	133.656857662549	0.122222900390625	0.122222900390625	-2.593994140625E-08	-3.17045478759326E-09	-4711765	3.90531931770965E-05
2	645	133.757565662295	0.112152099609375	0.112152099609375	-7.65991210937497E-08	-8.59075210968285E-09	-1464143.375	3.90480308851693E-05
2	646	133.85827366204	0.102081298828125	0.102142333984375	-1.45874023437501E-07	-1.4899913303168E-08	-700209.1875	3.90368259104434E-05
2	647	133.958981661786	0.092010498046875	0.09210205078125	-2.38952636718751E-07	-2.20080274004886E-08	-385440.625	3.90174500353169E-05
2	648	134.059689661532	0.081939697265625	0.08203125	-3.61022949218751E-07	-2.96151618783824E-08	-227218.953125	3.8987236621324E-05
2	649	134.160397661278	0.071868896484375	0.071929931640625	-5.17578125E-07	-3.72293555983561E-08	-138974.0625	3.89429987990297E-05
2	650	134.261105661023	0.061798095703125	0.061859130859375	-7.049560546875E-07	-4.3607968791548E-08	-87748.921875	3.88814369216561E-05
2	651	134.361813660769	0.051727294921875	0.051788330078125	-9.1705322265625E-07	-4.74926515892093E-08	-56472.55078125	3.87997642974369E-05
2	652	134.462521660515	0.041656494140625	0.0417572021484375	-1.13800048828125E-06	-4.75197161620144E-08	-36693.484375	3.86962819902692E-05
2	653	134.563229660261	0.031585693359375	0.031683349609375	-1.34796142578125E-06	-4.27079314135881E-08	-23504.640625	3.85711064154748E-05
2	654	134.663937660006	0.021514892578125	0.021636962890625	-1.52374267578125E-06	-3.29691616229866E-08	-14199.8798828125	3.84265040338505E-05
2	655	134.764645659752	0.011444091796875	0.0115814208984375	-1.65130615234375E-06	-1.91244708958038E-08	-7013.4912109375	3.82666257792152E-05
2	656	134.865353659498	0.001373291015625	0.0014923095703125	-1.72271728515625E-06	-2.5708275508407E-09	-866.253356933594	3.80967321689241E-05
2	657	134.966061659243	-0.008697509765625	-0.00859375	-1.729736328125E-06	1.48649208497886E-08	4968.2431640625	3.79228877136484E-05
2	658	135.066769658989	-0.018768310546875	-0.0186767578125	-1.707763671875E-06	3.18954889166889E-08	10936.3828125	3.7749792682007E-05
2	659	135.167477658735	-0.028839111328125	-0.0287109375	-1.65557861328125E-06	4.75332129212802E-08	17341.935546875	3.75804374925792E-05
2	660	135.268185658481	-0.038909912109375	-0.0387847900390625	-1.59332275390625E-06	6.17966904314926E-08	24342.080078125	3.74168412236031E-05
2	661	135.368893658226	-0.048980712890625	-0.0488555908203125	-1.524658203125E-06	7.44880779279811E-08	32043.63671875	3.72598369722255E-05
2	662	135.469601657972	-0.059051513671875	-0.05902099609375	-1.45843505859375E-06	8.60782876088706E-08	40468.71875	3.71096284652594E-05
2	663	135.570309657718	-0.069122314453125	-0.06903076171875	-1.3946533203125E-06	9.627397901113E-08	49496.71875	3.69659646821674E-05
2	664	135.671017657464	-0.079193115234375	-0.07916259765625	-1.33697509765625E-06	1.05838417141513E-07	59210.2265625	3.68284163414501E-05
2	665	135.771725657209	-0.089263916015625	-0.08917236328125	-1.2860107421875E-06	1.14676616647102E-07	69340.296875	3.66963358828798E-05
2	666	135.872433656955	-0.099334716796875	-0.099273681640625	-1.240234375E-06	1.23122632089689E-07	80044.2890625	3.6569130315911E-05
2	667	135.973141656701	-0.109405517578125	-0.10931396484375	-1.19964599609375E-06	1.31138065739833E-07	91121.8515625	3.64462721336167E-05
2	668	136.073849656447	-0.119476318359375	-0.119476318359375	-1.16424560546875E-06	1.39099768148299E-07	102621.2421875	3.63272411050275E-05
2	669	136.174557656192	-0.129547119140625	-0.129486083984375	-1.134033203125E-06	1.46841514947482E-07	114181.921875	3.62115133611951E-05
2	670	136.275265655938	-0.139617919921875	-0.1395263671875	-1.10687255859375E-06	1.54437913124639E-07	126054.59375	3.60986741725355E-05
2	671	136.375973655684	-0.149688720703125	-0.1495361328125	-1.08428955078125E-06	1.62140466386518E-07	137911.625	3.59883415512741E-05
2	672	136.47668165543	-0.159759521484375	-0.15966796875	-1.06353759765625E-06	1.69812878425546E-07	150129.140625	3.58801917172968E-05
2	673	136.577389655175	-0.169830322265625	-0.16973876953125	-1.0455322265625E-06	1.77467342155069E-07	162346.765625	3.57739882019814E-05
2	674	136.678097654921	-0.179901123046875	-0.179779052734375	-1.0302734375E-06	1.85221580295547E-07	174496.453125	3.56694654328749E-05
2	675	136.778805654667	-0.189971923828125	-0.1898193359375	-1.01837158203125E-06	1.93306618712086E-07	186394.96875	3.5566306905821E-05
2	676	136.879513654412	-0.200042724609375	-0.199951171875	-1.00616455078125E-06	2.01183780745851E-07	198726.109375	3.54643634636886E-05
2	677	136.980221654158	-0.189971923828125	-0.189849853515625	-8.7890625E-07	1.66860218087095E-07	216006.953125	3.5369441320654E-05
