Potential - OCP -0.0268756642061121 V
Time (s)	WE(1).Potential (V)
9.8633639750974	-0.0318267822265625
9.96336397484492	-0.0318145751953125
10.0633639745924	-0.0318023681640625
10.16336397434	-0.0317901611328125
10.2633639740875	-0.031781005859375
10.363363973835	-0.0317657470703125
10.4633639735825	-0.03175048828125
10.5633639733301	-0.0317352294921875
10.6633639730776	-0.0317169189453125
10.7633639728251	-0.0316986083984375
10.8633639725726	-0.0316802978515625
10.9633639723202	-0.0316650390625
11.0633639720677	-0.0316436767578125
11.1633639718152	-0.03162841796875
11.2633639715627	-0.031610107421875
11.3633639713103	-0.031591796875
11.4633639710578	-0.0315765380859375
11.5633639708053	-0.031561279296875
11.6633639705528	-0.0315460205078125
11.7633639703004	-0.03153076171875
11.8633639700479	-0.0315155029296875
11.9633639697954	-0.0315032958984375
12.0633639695429	-0.0314971923828125
12.1633639692905	-0.03148193359375
12.263363969038	-0.0314727783203125
12.3633639687855	-0.0314605712890625
12.463363968533	-0.0314483642578125
12.5633639682806	-0.031439208984375
12.6633639680281	-0.031427001953125
12.7633639677756	-0.031414794921875
12.8633639675231	-0.031402587890625
12.9633639672707	-0.0313934326171875
13.0633639670182	-0.03138427734375
13.1633639667657	-0.0313751220703125
13.2633639665132	-0.0313629150390625
13.3633639662607	-0.0313507080078125
13.4633639660083	-0.0313385009765625
13.5633639657558	-0.0313232421875
13.6633639655033	-0.0313140869140625
13.7633639652508	-0.031298828125
13.8633639649984	-0.031280517578125
13.9633639647459	-0.0312652587890625
14.0633639644934	-0.0312469482421875
14.1633639642409	-0.0312286376953125
14.2633639639885	-0.0312103271484375
14.363363963736	-0.031201171875
14.4633639634835	-0.0311798095703125
14.563363963231	-0.0311553955078125
14.6633639629786	-0.031134033203125
14.7633639627261	-0.031109619140625
14.8633639624736	-0.0310882568359375
14.9633639622211	-0.031072998046875
15.0633639619687	-0.0310546875
15.1633639617162	-0.0310272216796875
15.2633639614637	-0.030999755859375
15.3633639612112	-0.0309844970703125
15.4633639609588	-0.0309722900390625
15.5633639607063	-0.0309478759765625
15.6633639604538	-0.0309234619140625
15.7633639602013	-0.030902099609375
15.8633639599489	-0.030877685546875
15.9633639596964	-0.0308563232421875
16.0633639594439	-0.0308349609375
16.1633639591914	-0.0308135986328125
16.263363958939	-0.030792236328125
16.3633639586865	-0.030767822265625
16.463363958434	-0.0307464599609375
16.5633639581815	-0.0307220458984375
16.6633639579291	-0.0307037353515625
16.7633639576766	-0.030682373046875
16.8633639574241	-0.0306610107421875
16.9633639571716	-0.0306396484375
17.0633639569191	-0.030615234375
17.1633639566667	-0.0305938720703125
17.2633639564142	-0.030572509765625
17.3633639561617	-0.03055419921875
17.4633639559092	-0.0305328369140625
17.5633639556568	-0.0305084228515625
17.6633639554043	-0.030487060546875
17.7633639551518	-0.0304656982421875
17.8633639548993	-0.0304443359375
17.9633639546469	-0.0304229736328125
18.0633639543944	-0.030401611328125
18.1633639541419	-0.030377197265625
18.2633639538894	-0.0303558349609375
18.363363953637	-0.03033447265625
18.4633639533845	-0.0303131103515625
18.563363953132	-0.030291748046875
18.6633639528795	-0.030267333984375
18.7633639526271	-0.0302459716796875
18.8633639523746	-0.030224609375
18.9633639521221	-0.0302032470703125
19.0633639518696	-0.0301788330078125
19.1633639516172	-0.030157470703125
19.2633639513647	-0.0301361083984375
19.3633639511122	-0.03011474609375
19.4633639508597	-0.0300933837890625
19.5633639506073	-0.030072021484375
19.6633639503548	-0.0300506591796875
19.7633639501023	-0.0300323486328125
19.8633639498498	-0.030010986328125
19.9633639495974	-0.0299896240234375
20.0633639493449	-0.0299713134765625
20.1633639490924	-0.0299530029296875
20.2633639488399	-0.0299346923828125
20.3633639485874	-0.0299163818359375
20.463363948335	-0.0298980712890625
20.5633639480825	-0.0298828125
20.66336394783	-0.029864501953125
20.7633639475775	-0.02984619140625
20.8633639473251	-0.0298248291015625
20.9633639470726	-0.0298065185546875
21.0633639468201	-0.0297882080078125
21.1633639465676	-0.029766845703125
21.2633639463152	-0.02974853515625
21.3633639460627	-0.0297271728515625
21.4633639458102	-0.029705810546875
21.5633639455577	-0.02967529296875
21.6633639453053	-0.029669189453125
21.7633639450528	-0.0296417236328125
21.8633639448003	-0.0296173095703125
21.9633639445478	-0.0295928955078125
22.0633639442954	-0.029571533203125
22.1633639440429	-0.0295501708984375
22.2633639437904	-0.02952880859375
22.3633639435379	-0.0295074462890625
22.4633639432855	-0.0294891357421875
22.563363943033	-0.0294708251953125
22.6633639427805	-0.029449462890625
22.763363942528	-0.0294219970703125
22.8633639422756	-0.029400634765625
22.9633639420231	-0.0293792724609375
23.0633639417706	-0.0293548583984375
23.1633639415181	-0.0293304443359375
23.2633639412657	-0.0293060302734375
23.3633639410132	-0.0292755126953125
23.4633639407607	-0.0292510986328125
23.5633639405082	-0.029229736328125
23.6633639402557	-0.0292022705078125
23.7633639400033	-0.0291778564453125
23.8633639397508	-0.029150390625
23.9633639394983	-0.0291229248046875
24.0633639392458	-0.029095458984375
24.1633639389934	-0.0290679931640625
24.2633639387409	-0.02904052734375
24.3633639384884	-0.02901611328125
24.4633639382359	-0.028985595703125
24.5633639379835	-0.0289581298828125
24.663363937731	-0.0289306640625
24.7633639374785	-0.02889404296875
24.863363937226	-0.0288726806640625
24.9633639369736	-0.0288482666015625
25.0633639367211	-0.0288238525390625
25.1633639364686	-0.0287994384765625
25.2633639362161	-0.0287750244140625
25.3633639359637	-0.0287506103515625
25.4633639357112	-0.0287261962890625
25.5633639354587	-0.0287017822265625
25.6633639352062	-0.028680419921875
25.7633639349538	-0.028656005859375
25.8633639347013	-0.0286346435546875
25.9633639344488	-0.0286102294921875
26.0633639341963	-0.0285919189453125
26.1633639339439	-0.028570556640625
26.2633639336914	-0.028546142578125
26.3633639334389	-0.0285247802734375
26.4633639331864	-0.0285064697265625
26.563363932934	-0.028485107421875
26.6633639326815	-0.0284637451171875
26.763363932429	-0.0284454345703125
26.8633639321765	-0.0284271240234375
26.9633639319241	-0.0284088134765625
27.0633639316716	-0.0283905029296875
27.1633639314191	-0.0283721923828125
27.2633639311666	-0.0283538818359375
27.3633639309141	-0.028338623046875
27.4633639306617	-0.0283233642578125
27.5633639304092	-0.0283050537109375
27.6633639301567	-0.028289794921875
27.7633639299042	-0.0282745361328125
27.8633639296518	-0.0282562255859375
27.9633639293993	-0.028240966796875
28.0633639291468	-0.02822265625
28.1633639288943	-0.028204345703125
28.2633639286419	-0.02818603515625
28.3633639283894	-0.0281707763671875
28.4633639281369	-0.0281494140625
28.5633639278844	-0.028131103515625
28.663363927632	-0.02811279296875
28.7633639273795	-0.0280914306640625
28.863363927127	-0.0280731201171875
28.9633639268745	-0.0280548095703125
29.0633639266221	-0.0280364990234375
29.1633639263696	-0.02801513671875
29.2633639261171	-0.0279937744140625
29.3633639258646	-0.027972412109375
29.4633639256122	-0.0279541015625
29.5633639253597	-0.0279327392578125
29.6633639251072	-0.02791748046875
29.7633639248547	-0.027899169921875
29.8633639246023	-0.027880859375
29.9633639243498	-0.027862548828125
30.0633639240973	-0.02784423828125
30.1633639238448	-0.0278289794921875
30.2633639235924	-0.027813720703125
30.3633639233399	-0.0277984619140625
30.4633639230874	-0.027783203125
30.5633639228349	-0.0277679443359375
30.6633639225824	-0.027752685546875
30.76336392233	-0.027740478515625
30.8633639220775	-0.0277252197265625
30.963363921825	-0.0277130126953125
31.0633639215725	-0.02769775390625
31.1633639213201	-0.027685546875
31.2633639210676	-0.02767333984375
31.3633639208151	-0.0276611328125
31.4633639205626	-0.02764892578125
31.5633639203102	-0.02763671875
31.6633639200577	-0.02762451171875
31.7633639198052	-0.0276123046875
31.8633639195527	-0.0276031494140625
31.9633639193003	-0.0275909423828125
32.0633639190478	-0.0275787353515625
32.1633639187953	-0.0275665283203125
32.2633639185428	-0.0275543212890625
32.3633639182904	-0.0275390625
32.4633639180379	-0.02752685546875
32.5633639177854	-0.0275146484375
32.6633639175329	-0.02750244140625
32.7633639172805	-0.027490234375
32.863363917028	-0.0274749755859375
32.9633639167755	-0.0274627685546875
33.063363916523	-0.0274444580078125
33.1633639162706	-0.0274261474609375
33.2633639160181	-0.0274139404296875
33.3633639157656	-0.027398681640625
33.4633639155131	-0.02738037109375
33.5633639152607	-0.0273681640625
33.6633639150082	-0.027349853515625
33.7633639147557	-0.0273345947265625
33.8633639145032	-0.0273162841796875
33.9633639142507	-0.027301025390625
34.0633639139983	-0.02728271484375
34.1633639137458	-0.0272613525390625
34.2633639134933	-0.02724609375
34.3633639132408	-0.0272369384765625
34.4633639129884	-0.0272186279296875
34.5633639127359	-0.0272003173828125
34.6633639124834	-0.02718505859375
34.7633639122309	-0.027166748046875
34.8633639119785	-0.0271514892578125
34.963363911726	-0.02713623046875
35.0633639114735	-0.027117919921875
35.163363911221	-0.027099609375
35.2633639109686	-0.0270843505859375
35.3633639107161	-0.0270721435546875
35.4633639104636	-0.027056884765625
35.5633639102111	-0.027044677734375
35.6633639099587	-0.027032470703125
35.7633639097062	-0.027020263671875
35.8633639094537	-0.027008056640625
35.9633639092012	-0.0269927978515625
36.0633639089488	-0.0269805908203125
36.1633639086963	-0.0269683837890625
36.2633639084438	-0.0269561767578125
36.3633639081913	-0.0269439697265625
36.4633639079389	-0.0269317626953125
36.5633639076864	-0.0269195556640625
36.6633639074339	-0.0269073486328125
36.7633639071814	-0.026898193359375
36.863363906929	-0.026885986328125
36.9633639066765	-0.0268768310546875
37.063363906424	-0.02686767578125
37.1633639061715	-0.02685546875
37.2633639059191	-0.0268463134765625
37.3633639056666	-0.026837158203125
37.4633639054141	-0.0268280029296875
37.5633639051616	-0.02681884765625
37.6633639049091	-0.026806640625
37.7633639046567	-0.0267974853515625
37.8633639044042	-0.026788330078125
37.9633639041517	-0.0267822265625
38.0633639038992	-0.0267730712890625
38.1633639036468	-0.026763916015625
38.2633639033943	-0.0267578125
38.3633639031418	-0.0267486572265625
38.4633639028893	-0.0267425537109375
38.5633639026369	-0.0267364501953125
38.6633639023844	-0.0267303466796875
38.7633639021319	-0.0267242431640625
38.8633639018794	-0.0267181396484375
38.963363901627	-0.0267120361328125
39.0633639013745	-0.026708984375
39.163363901122	-0.026702880859375
39.2633639008695	-0.02669677734375
39.3633639006171	-0.026690673828125
39.4633639003646	-0.0266876220703125
39.5633639001121	-0.0266815185546875
39.6633638998596	-0.0266754150390625
39.7633638996072	-0.0266693115234375
