Potential - OCP 0.00261027018229167 V
Time (s)	WE(1).Potential (V)
9.84739297513772	0.00542297363281249
9.94739297488525	0.0054046630859375
10.0473929746328	0.005389404296875
10.1473929743803	0.00537109375
10.2473929741278	0.00534973144531251
10.3473929738753	0.00533142089843749
10.4473929736229	0.00531616210937499
10.5473929733704	0.0052978515625
10.6473929731179	0.0052825927734375
10.7473929728654	0.0052642822265625
10.847392972613	0.0052459716796875
10.9473929723605	0.00522766113281251
11.047392972108	0.005206298828125
11.1473929718555	0.0051910400390625
11.2473929716031	0.00517578125
11.3473929713506	0.005157470703125
11.4473929710981	0.0051422119140625
11.5473929708456	0.00512084960937501
11.6473929705932	0.00510559082031251
11.7473929703407	0.005084228515625
11.8473929700882	0.0050689697265625
11.9473929698357	0.0050506591796875
12.0473929695833	0.0050323486328125
12.1473929693308	0.00501403808593751
12.2473929690783	0.00499572753906249
12.3473929688258	0.00498046874999999
12.4473929685734	0.004962158203125
12.5473929683209	0.0049407958984375
12.6473929680684	0.00492248535156251
12.7473929678159	0.00490417480468749
12.8473929675635	0.0048858642578125
12.947392967311	0.0048675537109375
13.0473929670585	0.00484619140625001
13.147392966806	0.00482788085937499
13.2473929665535	0.00481262207031249
13.3473929663011	0.0047943115234375
13.4473929660486	0.00477294921875
13.5473929657961	0.00475463867187501
13.6473929655436	0.00473937988281251
13.7473929652912	0.00472106933593749
13.8473929650387	0.0047027587890625
13.9473929647862	0.0046844482421875
14.0473929645337	0.004669189453125
14.1473929642813	0.0046539306640625
14.2473929640288	0.0046356201171875
14.3473929637763	0.004620361328125
14.4473929635238	0.0046051025390625
14.5473929632714	0.00458984375
14.6473929630189	0.0045745849609375
14.7473929627664	0.004559326171875
14.8473929625139	0.004547119140625
14.9473929622615	0.00452880859375
15.047392962009	0.0045166015625
15.1473929617565	0.00450439453125
15.247392961504	0.0044891357421875
15.3473929612516	0.004473876953125
15.4473929609991	0.00446166992187499
15.5473929607466	0.00444946289062501
15.6473929604941	0.00443420410156251
15.7473929602417	0.0044219970703125
15.8473929599892	0.0044097900390625
15.9473929597367	0.0043975830078125
16.0473929594842	0.00438537597656249
16.1473929592318	0.00437316894531251
16.2473929589793	0.0043609619140625
16.3473929587268	0.0043487548828125
16.4473929584743	0.0043365478515625
16.5473929582218	0.00432434082031249
16.6473929579694	0.00431213378906251
16.7473929577169	0.0042999267578125
16.8473929574644	0.0042877197265625
16.9473929572119	0.0042755126953125
17.0473929569595	0.00426330566406249
17.147392956707	0.00425109863281251
17.2473929564545	0.00423583984375001
17.347392956202	0.0042236328125
17.4473929559496	0.00421142578125
17.5473929556971	0.00419921875
17.6473929554446	0.0041839599609375
17.7473929551921	0.004168701171875
17.8473929549397	0.0041534423828125
17.9473929546872	0.00413818359375
18.0473929544347	0.00412597656249999
18.1473929541822	0.00411376953125001
18.2473929539298	0.0041015625
18.3473929536773	0.0040863037109375
18.4473929534248	0.004071044921875
18.5473929531723	0.0040557861328125
18.6473929529199	0.0040435791015625
18.7473929526674	0.0040283203125
18.8473929524149	0.00401611328125
18.9473929521624	0.0040008544921875
19.04739295191	0.00399169921875001
19.1473929516575	0.0039825439453125
19.247392951405	0.0039642333984375
19.3473929511525	0.003948974609375
19.4473929509001	0.0039398193359375
19.5473929506476	0.00392761230468749
19.6473929503951	0.00391540527343751
19.7473929501426	0.00390014648437501
19.8473929498902	0.0038909912109375
19.9473929496377	0.0038787841796875
20.0473929493852	0.00386962890625001
20.1473929491327	0.003857421875
20.2473929488802	0.0038482666015625
20.3473929486278	0.00383605957031249
20.4473929483753	0.003826904296875
20.5473929481228	0.0038177490234375
20.6473929478703	0.00380554199218749
20.7473929476179	0.00379638671875
20.8473929473654	0.00379028320312499
20.9473929471129	0.00377807617187501
21.0473929468604	0.00377197265625
21.147392946608	0.00375976562499999
21.2473929463555	0.003753662109375
21.347392946103	0.00374450683593749
21.4473929458505	0.0037384033203125
21.5473929455981	0.0037261962890625
21.6473929453456	0.0037200927734375
21.7473929450931	0.0037109375
21.8473929448406	0.003704833984375
21.9473929445882	0.0036956787109375
22.0473929443357	0.0036895751953125
22.1473929440832	0.003680419921875
22.2473929438307	0.00367431640625
22.3473929435783	0.0036651611328125
22.4473929433258	0.00365600585937501
22.5473929430733	0.00364990234375
22.6473929428208	0.003643798828125
22.7473929425684	0.0036346435546875
22.8473929423159	0.0036285400390625
22.9473929420634	0.003619384765625
23.0473929418109	0.00361022949218751
23.1473929415585	0.00360717773437499
23.247392941306	0.0035980224609375
23.3473929410535	0.00359191894531249
23.447392940801	0.003582763671875
23.5473929405485	0.00357666015624999
23.6473929402961	0.003570556640625
23.7473929400436	0.00356140136718749
23.8473929397911	0.00355224609375
23.9473929395386	0.00354614257812499
24.0473929392862	0.0035369873046875
24.1473929390337	0.00353088378906249
24.2473929387812	0.003521728515625
24.3473929385287	0.0035125732421875
24.4473929382763	0.0035064697265625
24.5473929380238	0.003497314453125
24.6473929377713	0.00348815917968751
24.7473929375188	0.00347900390625
24.8473929372664	0.00347290039062501
24.9473929370139	0.0034637451171875
25.0473929367614	0.00345458984374999
25.1473929365089	0.0034454345703125
25.2473929362565	0.003436279296875
25.347392936004	0.00343017578125
25.4473929357515	0.0034210205078125
25.547392935499	0.00341186523437501
25.6473929352466	0.00340576171875
25.7473929349941	0.00339660644531251
25.8473929347416	0.003387451171875
25.9473929344891	0.00338134765625001
26.0473929342367	0.003375244140625
26.1473929339842	0.00336608886718751
26.2473929337317	0.0033599853515625
26.3473929334792	0.00335083007812501
26.4473929332268	0.0033447265625
26.5473929329743	0.00333557128906251
26.6473929327218	0.003326416015625
26.7473929324693	0.00332031250000001
26.8473929322168	0.003314208984375
26.9473929319644	0.00330505371093751
27.0473929317119	0.0032989501953125
27.1473929314594	0.0032928466796875
27.2473929312069	0.00328369140625
27.3473929309545	0.003277587890625
27.447392930702	0.0032684326171875
27.5473929304495	0.0032623291015625
27.647392930197	0.003253173828125
27.7473929299446	0.0032470703125
27.8473929296921	0.00324096679687499
27.9473929294396	0.0032318115234375
28.0473929291871	0.00322570800781249
28.1473929289347	0.003216552734375
28.2473929286822	0.00321044921874999
28.3473929284297	0.003204345703125
28.4473929281772	0.00319519042968749
28.5473929279248	0.0031890869140625
28.6473929276723	0.00317993164062499
28.7473929274198	0.003173828125
28.8473929271673	0.00316772460937501
28.9473929269149	0.0031585693359375
29.0473929266624	0.00315246582031251
29.1473929264099	0.003143310546875
29.2473929261574	0.00313720703125001
29.347392925905	0.0031280517578125
29.4473929256525	0.00312194824218751
29.5473929254	0.0031158447265625
29.6473929251475	0.00310668945312501
29.7473929248951	0.0031005859375
29.8473929246426	0.003094482421875
29.9473929243901	0.00308837890624999
30.0473929241376	0.0030792236328125
30.1473929238852	0.00307312011718749
30.2473929236327	0.00306396484375
30.3473929233802	0.0030548095703125
30.4473929231277	0.0030487060546875
30.5473929228752	0.00304260253906249
30.6473929226228	0.003033447265625
30.7473929223703	0.0030242919921875
30.8473929221178	0.003021240234375
30.9473929218653	0.00301208496093749
31.0473929216129	0.0030029296875
31.1473929213604	0.00299682617187499
31.2473929211079	0.00299072265625
31.3473929208554	0.00298156738281249
31.447392920603	0.0029754638671875
31.5473929203505	0.00296630859374999
31.647392920098	0.002960205078125
31.7473929198455	0.00295410156250001
31.8473929195931	0.002947998046875
31.9473929193406	0.00293884277343751
32.0473929190881	0.0029327392578125
32.1473929188356	0.0029266357421875
32.2473929185832	0.00292053222656249
32.3473929183307	0.002911376953125
32.4473929180782	0.00290527343749999
32.5473929178257	0.002899169921875
32.6473929175733	0.00289306640625001
32.7473929173208	0.0028839111328125
32.8473929170683	0.00287780761718751
32.9473929168158	0.0028717041015625
33.0473929165634	0.0028656005859375
33.1473929163109	0.00285949707031249
33.2473929160584	0.0028533935546875
33.3473929158059	0.00284729003906251
33.4473929155535	0.0028411865234375
33.547392915301	0.0028350830078125
33.6473929150485	0.00282897949218749
33.747392914796	0.0028228759765625
33.8473929145435	0.00281677246093751
33.9473929142911	0.0028106689453125
34.0473929140386	0.0028045654296875
34.1473929137861	0.00279846191406249
34.2473929135336	0.002789306640625
34.3473929132812	0.00278625488281251
34.4473929130287	0.0027801513671875
34.5473929127762	0.0027740478515625
34.6473929125237	0.002764892578125
34.7473929122713	0.0027587890625
34.8473929120188	0.00275573730468751
34.9473929117663	0.0027496337890625
35.0473929115138	0.00274047851562501
35.1473929112614	0.00273742675781249
35.2473929110089	0.0027313232421875
35.3473929107564	0.00272521972656251
35.4473929105039	0.002716064453125
35.5473929102515	0.00270996093750001
35.647392909999	0.002703857421875
35.7473929097465	0.00269775390625
35.847392909494	0.00269165039062499
35.9473929092416	0.002685546875
36.0473929089891	0.00267944335937501
36.1473929087366	0.00267333984375
36.2473929084841	0.002667236328125
36.3473929082317	0.00266113281249999
36.4473929079792	0.002655029296875
36.5473929077267	0.00264892578125001
36.6473929074742	0.002642822265625
36.7473929072218	0.00263671875
36.8473929069693	0.00263061523437499
36.9473929067168	0.00262451171875
37.0473929064643	0.00261840820312501
37.1473929062118	0.0026123046875
37.2473929059594	0.0026092529296875
37.3473929057069	0.00260009765624999
37.4473929054544	0.002593994140625
37.5473929052019	0.00258789062500001
37.6473929049495	0.002581787109375
37.747392904697	0.00257568359375
37.8473929044445	0.00256958007812499
37.947392904192	0.0025634765625
38.0473929039396	0.0025604248046875
38.1473929036871	0.00255126953125
38.2473929034346	0.002545166015625
38.3473929031821	0.00253906249999999
38.4473929029297	0.0025360107421875
38.5473929026772	0.00252685546875001
38.6473929024247	0.002520751953125
38.7473929021722	0.0025177001953125
38.8473929019198	0.00251159667968751
38.9473929016673	0.0025054931640625
39.0473929014148	0.0024993896484375
39.1473929011623	0.002490234375
39.2473929009099	0.002484130859375
39.3473929006574	0.00248107910156251
39.4473929004049	0.0024749755859375
39.5473929001524	0.0024688720703125
39.6473928999	0.00246276855468749
39.7473928996475	0.002459716796875
