Potential - Start -0.2 V, Upper Vertex 1.5 V, Lower Vertex -0.2 V, Stop -0.19 V; Scan - # end cross 5, Rate 0.1 Vps, Step 0.01 V 
Scan	Index	Time (s)	Potential applied (V)	WE(1).Potential (V)	WE(1).Current (A)	WE(1).Power (W)	WE(1).Resistance (Ω)	WE(1).Charge (C)
1	1	58.1884278530883	-0.189971923828125	-0.1898193359375	-2.34069824218749E-07	4.44309762315243E-08	810951.8125	0
1	2	58.2891358528341	-0.179901123046875	-0.179779052734375	-2.03857421875001E-07	3.66492933778773E-08	881886.25	-2.20513882709383E-08
1	3	58.3898438525798	-0.169830322265625	-0.169677734375	-1.7852783203125E-07	3.02921989714378E-08	950427.375	-4.1306012832365E-08
1	4	58.4905518523256	-0.159759521484375	-0.15966796875	-1.556396484375E-07	2.48506655253777E-08	1025882.4375	-5.81326808912763E-08
1	5	58.5912598520713	-0.149688720703125	-0.149627685546875	-1.35192871093751E-07	2.02285956873993E-08	1106772.125	-7.27772615505273E-08
1	6	58.691967851817	-0.139617919921875	-0.13946533203125	-1.1566162109375E-07	1.61307855961468E-08	1205804.75	-8.5408785821528E-08
1	7	58.7926758515628	-0.129547119140625	-0.129486083984375	-9.58251953125003E-08	1.24080292707163E-08	1351273.875	-9.6057995335741E-08
1	8	58.8933838513085	-0.119476318359375	-0.119415283203125	-7.56835937500006E-08	9.03777763738844E-09	1577822.625	-1.04694152014417E-07
1	9	58.9940918510542	-0.109405517578125	-0.10931396484375	-5.27954101562506E-08	5.77127545753342E-09	2070520.375	-1.11163579674667E-07
1	10	59.0947998508	-0.099334716796875	-0.0992431640625	-2.68554687500006E-08	2.6652218210188E-09	3695454.5	-1.15174323411793E-07
1	11	59.1955078505457	-0.089263916015625	-0.0892333984375	5.18798828124945E-09	-4.62941823764496E-10	-17200000	-1.1626536888798E-07
1	12	59.2962158502914	-0.079193115234375	-0.0791015625	4.60815429687497E-08	-3.64512198203215E-09	-1716556.375	-1.13683739755288E-07
1	13	59.3969238500372	-0.069122314453125	-0.069091796875	9.88769531250003E-08	-6.83158640768511E-09	-698765.4375	-1.06384497655654E-07
1	14	59.4976318497829	-0.059051513671875	-0.058990478515625	1.690673828125E-07	-9.97336524477532E-09	-348916.96875	-9.28924279719467E-08
1	15	59.5983398495287	-0.048980712890625	-0.0488433837890625	2.6275634765625E-07	-1.28339090466056E-08	-185888.5	-7.11483778559341E-08
1	16	59.6990478492744	-0.038909912109375	-0.038787841796875	3.86657714843749E-07	-1.49976191465839E-08	-100315.703125	-3.84477836234964E-08
1	17	59.7997558490201	-0.028839111328125	-0.0287017822265625	5.474853515625E-07	-1.57138053680228E-08	-52424.75	8.59005577780181E-09
1	18	59.9004638487659	-0.018768310546875	-0.0186370849609375	7.4737548828125E-07	-1.39288998113329E-08	-24936.7109375	7.37914760406966E-08
1	19	60.0011718485116	-0.008697509765625	-0.0085723876953125	9.814453125E-07	-8.41332958856356E-09	-8734.453125	1.6084452170162E-07
1	20	60.1018798482573	0.001373291015625	0.00146484375	1.239013671875E-06	1.81496129236791E-09	1182.26611328125	2.72653494448605E-07
1	21	60.2025878480031	0.011444091796875	0.011529541015625	1.49993896484375E-06	1.72936065467866E-08	7686.673828125	4.10570720532633E-07
1	22	60.3032958477488	0.021514892578125	0.02164306640625	1.73828125E-06	3.76217350606112E-08	12450.84375	5.73628028632811E-07
1	23	60.4040038474946	0.031585693359375	0.031658935546875	1.9287109375E-06	6.10609305340404E-08	16414.55859375	7.58275746193249E-07
1	24	60.5047118472403	0.041656494140625	0.041741943359375	2.05810546875E-06	8.59093205463068E-08	20281.734375	9.59027943281399E-07
1	25	60.605419846986	0.051727294921875	0.051727294921875	2.12188720703125E-06	1.09759476174531E-07	24377.96875	1.16950729989185E-06
1	26	60.7061278467318	0.061798095703125	0.06182861328125	2.1282958984375E-06	1.31589573015845E-07	29050.76171875	1.38352095291339E-06
1	27	60.8068358464775	0.071868896484375	0.071868896484375	2.09197998046875E-06	1.50348284932988E-07	34354.48828125	1.59602871008246E-06
1	28	60.9075438462232	0.081939697265625	0.082061767578125	2.03033447265625E-06	1.66612821317358E-07	40417.859375	1.80360370904964E-06
1	29	61.008251845969	0.092010498046875	0.092071533203125	1.95526123046875E-06	1.80023903340043E-07	47089.12109375	2.00429440155858E-06
1	30	61.1089598457147	0.102081298828125	0.10211181640625	1.8768310546875E-06	1.91646620351094E-07	54406.50390625	2.19725552597083E-06
1	31	61.2096678454604	0.112152099609375	0.1121826171875	1.79931640625E-06	2.01852017767123E-07	62347.35546875	2.38236430050165E-06
1	32	61.3103758452062	0.122222900390625	0.1221923828125	1.72698974609375E-06	2.11024982377239E-07	70754.5546875	2.55992790698656E-06
1	33	61.4110838449519	0.132293701171875	0.13238525390625	1.66015625E-06	2.19780190491292E-07	79742.6484375	2.73048431154166E-06
1	34	61.5117918446977	0.142364501953125	0.142425537109375	1.60064697265625E-06	2.27972989819136E-07	88979.984375	2.89467880065786E-06
1	35	61.6124998444434	0.152435302734375	0.152496337890625	1.5472412109375E-06	2.35948604654368E-07	98560.1640625	3.05318758364592E-06
1	36	61.7132078441891	0.162506103515625	0.16253662109375	1.4996337890625E-06	2.43745404304718E-07	108384.2109375	3.20660979014065E-06
1	37	61.8139158439349	0.172576904296875	0.172576904296875	1.4569091796875E-06	2.51428872388715E-07	118454.1328125	3.3554836136318E-06
1	38	61.9146238436806	0.182647705078125	0.18267822265625	1.4190673828125E-06	2.59232706412149E-07	128731.1875	3.50030040863203E-06
1	39	62.0153318434263	0.192718505859375	0.1927490234375	1.38519287109375E-06	2.66994561570755E-07	139149.59375	3.64150628229254E-06
1	40	62.1160398431721	0.202789306640625	0.20281982421875	1.35467529296875E-06	2.74754995643889E-07	149718.40625	3.77946957996755E-06
1	41	62.2167478429178	0.212860107421875	0.212860107421875	1.32781982421875E-06	2.82639859960909E-07	160307.984375	3.91454386772239E-06
1	42	62.3174558426635	0.222930908203125	0.22296142578125	1.30279541015625E-06	2.90473110453604E-07	171140.796875	4.04700585932005E-06
1	43	62.4181638424093	0.233001708984375	0.233001708984375	1.280517578125E-06	2.98362778039518E-07	181959.015625	4.17708588429377E-06
1	44	62.518871842155	0.243072509765625	0.2430419921875	1.26007080078125E-06	3.06250115045259E-07	192879.625	4.3050149542978E-06
1	45	62.6195798419008	0.253143310546875	0.253143310546875	1.241455078125E-06	3.14266031864463E-07	203908.5625	4.4309767872619E-06
1	46	62.7202878416465	0.263214111328125	0.26318359375	1.22406005859375E-06	3.22152516218921E-07	215008.734375	4.55512508779066E-06
1	47	62.8209958413922	0.273284912109375	0.273223876953125	1.20849609375E-06	3.30189976693873E-07	226085.859375	4.67761401523603E-06
1	48	62.921703841138	0.283355712890625	0.28338623046875	1.19476318359375E-06	3.38579440040121E-07	237190.296875	4.79862774227513E-06
1	49	63.0224118408837	0.293426513671875	0.293487548828125	1.18133544921875E-06	3.46707224707643E-07	248437.109375	4.91827404403011E-06
1	50	63.1231198406294	0.303497314453125	0.303497314453125	1.1688232421875E-06	3.54734709162585E-07	259660.578125	5.036613856646E-06
1	51	63.2238278403752	0.313568115234375	0.313568115234375	1.15814208984375E-06	3.63156402727327E-07	270751	5.15378587806481E-06
1	52	63.3245358401209	0.323638916015625	0.323699951171875	1.14776611328125E-06	3.71531825749116E-07	282026.0625	5.26989742866135E-06
1	53	63.4252438398667	0.333709716796875	0.333709716796875	1.13861083984375E-06	3.79965513275238E-07	293084.96875	5.38502581548528E-06
1	54	63.5259518396124	0.343780517578125	0.34375	1.13037109375E-06	3.88565041475886E-07	304103.6875	5.49927790416405E-06
1	55	63.6266598393581	0.353851318359375	0.353851318359375	1.12213134765625E-06	3.97067623225666E-07	315338.625	5.6127005336748E-06
1	56	63.7273678391039	0.363922119140625	0.36395263671875	1.11541748046875E-06	4.05959127647293E-07	326292.75	5.72537010157248E-06
1	57	63.8280758388496	0.373992919921875	0.37396240234375	1.1090087890625E-06	4.14727566067086E-07	337204.1875	5.83737892156933E-06
1	58	63.9287838385953	0.384063720703125	0.384063720703125	1.10321044921875E-06	4.23703085061788E-07	348132.8125	5.94877292314777E-06
1	59	64.0294918383411	0.394134521484375	0.394134521484375	1.09893798828125E-06	4.33129400789767E-07	358650.375	6.05965988142998E-06
1	60	64.1301998380868	0.404205322265625	0.404266357421875	1.09375E-06	4.42166339098549E-07	369614.9375	6.17007071923581E-06
1	61	64.2309078378325	0.414276123046875	0.414306640625	1.09039306640625E-06	4.51757102837291E-07	379960.8125	6.28005091130035E-06
1	62	64.3316158375783	0.424346923828125	0.42431640625	1.08673095703125E-06	4.61117735994776E-07	390452.15625	6.38967776467325E-06
1	63	64.432323837324	0.434417724609375	0.434417724609375	1.083984375E-06	4.70901994731321E-07	400760.15625	6.49898174742702E-06
1	64	64.5330318370698	0.444488525390625	0.444549560546875	1.08123779296875E-06	4.80663800317416E-07	411148.75	6.60800969853881E-06
1	65	64.6337398368155	0.454559326171875	0.454559326171875	1.08001708984375E-06	4.90931824970176E-07	420881.59375	6.7168375608162E-06
1	66	64.7344478365612	0.464630126953125	0.464630126953125	1.0784912109375E-06	5.01099520988646E-07	430814.9375	6.82552672515158E-06
1	67	64.835155836307	0.474700927734375	0.474700927734375	1.077880859375E-06	5.11671032654704E-07	440402.0625	6.93410902385949E-06
1	68	64.9358638360527	0.484771728515625	0.4847412109375	1.077880859375E-06	5.22493280641356E-07	449716.875	7.0426599450002E-06
1	69	65.0365718357984	0.494842529296875	0.49481201171875	1.077880859375E-06	5.3334838412411E-07	459060.03125	7.15121132088825E-06
1	70	65.1372798355442	0.504913330078125	0.504913330078125	1.0784912109375E-06	5.44544604963448E-07	468166.375	7.25979316484882E-06
1	71	65.2379878352899	0.514984130859375	0.5150146484375	1.0791015625E-06	5.55753047137841E-07	477262.46875	7.3684368544491E-06
1	72	65.3386958350357	0.525054931640625	0.52508544921875	1.08062744140625E-06	5.67421693631331E-07	485907.96875	7.4771878644242E-06
1	73	65.4394038347814	0.535125732421875	0.535125732421875	1.08245849609375E-06	5.79251377530454E-07	494361.46875	7.58610758566647E-06
1	74	65.5401118345271	0.545196533203125	0.545135498046875	1.0845947265625E-06	5.9125108009539E-07	502616.78125	7.69522739574313E-06
1	75	65.6408198342729	0.555267333984375	0.55523681640625	1.08734130859375E-06	6.03731905357563E-07	510637.125	7.80459322413662E-06
1	76	65.7415278340186	0.565338134765625	0.5653076171875	1.090087890625E-06	6.16234956396511E-07	518589.0625	7.91423553891946E-06
1	77	65.8422358337643	0.575408935546875	0.575408935546875	1.09283447265625E-06	6.28826683168882E-07	526528.9375	8.02415434009163E-06
1	78	65.9429438335101	0.585479736328125	0.58551025390625	1.09588623046875E-06	6.41652604826959E-07	534280.1875	8.13436508906307E-06
1	79	66.0436518332558	0.595550537109375	0.595489501953125	1.099853515625E-06	6.54951236356283E-07	541426.1875	8.2449296314735E-06
1	80	66.1443598330015	0.605621337890625	0.605560302734375	1.1029052734375E-06	6.67875610815827E-07	549059.25	8.35584705782821E-06
1	81	66.2450678327473	0.615692138671875	0.61566162109375	1.1065673828125E-06	6.81271046687471E-07	556370.6875	8.46710281621199E-06
1	82	66.345775832493	0.625762939453125	0.625732421875	1.1102294921875E-06	6.9470661401283E-07	563606.375	8.57872782944469E-06
1	83	66.4464838322388	0.635833740234375	0.635772705078125	1.11480712890625E-06	7.08763934653689E-07	570298.375	8.69076666276669E-06
1	84	66.5471918319845	0.645904541015625	0.645843505859375	1.1181640625E-06	7.22158972621401E-07	577592.8125	8.80320567375747E-06
1	85	66.6478998317302	0.655975341796875	0.655914306640625	1.123046875E-06	7.36622553176858E-07	584048.875	8.91606032382697E-06
1	86	66.748607831476	0.666046142578125	0.666015625	1.12579345703125E-06	7.4979601549785E-07	591596.625	9.02929787116591E-06
1	87	66.8493158312217	0.676116943359375	0.676055908203125	1.13006591796875E-06	7.63987770824315E-07	598244.6875	9.14288921194384E-06
1	88	66.9500238309674	0.686187744140625	0.68609619140625	1.1334228515625E-06	7.7763712624801E-07	605331.1875	9.25686526898062E-06
1	89	67.0507318307132	0.696258544921875	0.696197509765625	1.13739013671875E-06	7.91848151493468E-07	612100.9375	9.37120967137162E-06
1	90	67.1514398304589	0.706329345703125	0.706268310546875	1.14105224609375E-06	8.05888987542858E-07	618962.3125	9.48593879002146E-06
1	91	67.2521478302046	0.716400146484375	0.716339111328125	1.1444091796875E-06	8.1978498656099E-07	625946.6875	9.6010207926156E-06
1	92	67.3528558299504	0.726470947265625	0.726409912109375	1.148681640625E-06	8.34413697248237E-07	632385.8125	9.71648660197388E-06
1	93	67.4535638296961	0.736541748046875	0.736419677734375	1.1529541015625E-06	8.49058039875672E-07	638724.25	9.83238351182081E-06
1	94	67.5542718294419	0.746612548828125	0.746551513671875	1.1572265625E-06	8.63929187744361E-07	645121.3125	9.94871061266167E-06
1	95	67.6549798291876	0.756683349609375	0.75653076171875	1.1627197265625E-06	8.79633262229618E-07	650656.1875	1.00655288406415E-05
1	96	67.7556878289333	0.766754150390625	0.76629638671875	1.16912841796875E-06	8.95898836006381E-07	655442.4375	1.01829464256298E-05
1	97	67.8563958286791	0.776824951171875	0.77667236328125	1.17706298828125E-06	9.14192241907585E-07	659839.3125	1.0301087058906E-05
1	98	67.9571038284248	0.786895751953125	0.78704833984375	1.18621826171875E-06	9.33611090658815E-07	663493.6875	1.04200871646754E-05
1	99	68.0578118281705	0.796966552734375	0.79681396484375	1.197509765625E-06	9.54192501012585E-07	665392.5	1.05401177279418E-05
1	100	68.1585198279163	0.807037353515625	0.80780029296875	1.20941162109375E-06	9.76963065113523E-07	667928.375	1.06613160824054E-05
1	101	68.259227827662	0.817108154296875	0.81756591796875	1.22314453125E-06	1.00000124803046E-06	668413.1875	1.07838050098508E-05
1	102	68.3599358274078	0.827178955078125	0.82794189453125	1.23779296875E-06	1.02482067632081E-06	668885.625	1.09077227534726E-05
1	103	68.4606438271535	0.837249755859375	0.83770751953125	1.2518310546875E-06	1.04866819583549E-06	669185.8125	1.10330856841756E-05
1	104	68.5613518268992	0.847320556640625	0.8477783203125	1.265869140625E-06	1.07317634956416E-06	669720.375	1.11598619696451E-05
1	105	68.662059826645	0.857391357421875	0.85723876953125	1.27777099609375E-06	1.09535483261425E-06	670886.125	1.12879442895064E-05
1	106	68.7627678263907	0.867462158203125	0.86761474609375	1.28753662109375E-06	1.11708573058422E-06	673856.375	1.14171180030098E-05
1	107	68.8634758261364	0.877532958984375	0.87738037109375	1.2957763671875E-06	1.13688872716011E-06	677107.875	1.15471975732362E-05
1	108	68.9641838258822	0.887603759765625	0.887451171875	1.30096435546875E-06	1.1545422466952E-06	682148.75	1.16779538075207E-05
1	109	69.0648918256279	0.897674560546875	0.89752197265625	1.30584716796875E-06	1.17202648652892E-06	687310.125	1.18092175398488E-05
1	110	69.1655998253736	0.907745361328125	0.9075927734375	1.30950927734375E-06	1.18850107355684E-06	693078.5625	1.19409114631708E-05
1	111	69.2663078251194	0.917816162109375	0.9173583984375	1.31195068359375E-06	1.20352899557474E-06	699232.375	1.20729118862073E-05
1	112	69.3670158248651	0.927886962890625	0.927734375	1.3153076171875E-06	1.22025608106924E-06	705336.4375	1.22052051665378E-05
1	113	69.4677238246109	0.937957763671875	0.9381103515625	1.31866455078125E-06	1.23705285659526E-06	711409.375	1.23378358694026E-05
1	114	69.5684318243566	0.948028564453125	0.94818115234375	1.322021484375E-06	1.25351584756572E-06	717220.6875	1.24708049042965E-05
1	115	69.6691398241023	0.958099365234375	0.9588623046875	1.32659912109375E-06	1.27202588373621E-06	722797.375	1.26041741168592E-05
1	116	69.7698478238481	0.968170166015625	0.96832275390625	1.3311767578125E-06	1.28900865092874E-06	727418.625	1.2738003533741E-05
1	117	69.8705558235938	0.978240966796875	0.9783935546875	1.3360595703125E-06	1.30719206481444E-06	732297.875	1.28723095258465E-05
1	118	69.9712638233395	0.988311767578125	0.98846435546875	1.34124755859375E-06	1.32577531530842E-06	736973.875	1.30071221065009E-05
1	119	70.0719718230853	0.998382568359375	0.99853515625	1.34613037109375E-06	1.344158476968E-06	741781.9375	1.31424430946936E-05
1	120	70.172679822831	1.00845336914063	1.0089111328125	1.35162353515625E-06	1.36366804781574E-06	746443.9375	1.32782852233504E-05
1	121	70.2733878225768	1.01852416992188	1.0186767578125	1.356201171875E-06	1.38153052375856E-06	751125.125	1.34146348500508E-05
1	122	70.3740958223225	1.02859497070313	1.02874755859375	1.36077880859375E-06	1.3998978829477E-06	755999.125	1.35514465000597E-05
1	123	70.4748038220682	1.03866577148438	1.038818359375	1.3653564453125E-06	1.41835732847539E-06	760840.4375	1.36887183543877E-05
1	124	70.575511821814	1.04873657226563	1.048583984375	1.36932373046875E-06	1.43585089062981E-06	765767.75	1.38264203997096E-05
1	125	70.6762198215597	1.05880737304688	1.058349609375	1.37298583984375E-06	1.45309900290158E-06	770838	1.39645062517957E-05
1	126	70.7769278213054	1.06887817382813	1.06903076171875	1.376953125E-06	1.47200512401469E-06	776374.1875	1.41029768201406E-05
1	127	70.8776358210512	1.07894897460938	1.07879638671875	1.380615234375E-06	1.48940273447806E-06	781388.125	1.42418311952497E-05
1	128	70.9783438207969	1.08901977539063	1.0888671875	1.3848876953125E-06	1.50795881381782E-06	786249.4375	1.43810857480275E-05
1	129	71.0790518205426	1.09909057617188	1.09954833984375	1.3885498046875E-06	1.52677762343956E-06	791868.125	1.45207386594848E-05
1	130	71.1797598202884	1.10916137695313	1.1090087890625	1.3934326171875E-06	1.54532904161897E-06	795882.625	1.46608226714307E-05
1	131	71.2804678200341	1.11923217773438	1.119384765625	1.3983154296875E-06	1.56525288730336E-06	800523.8125	1.48013987200102E-05
1	132	71.3811758197799	1.12930297851563	1.129150390625	1.40350341796875E-06	1.58476632350357E-06	804522.75	1.49424813571386E-05
1	133	71.4818838195256	1.13937377929688	1.14013671875	1.409912109375E-06	1.6074925497378E-06	808658	1.50841478898656E-05
1	134	71.5825918192713	1.14944458007813	1.14959716796875	1.4154052734375E-06	1.62714582074841E-06	812203.5625	1.5226413779601E-05
1	135	71.6832998190171	1.15951538085938	1.15997314453125	1.4227294921875E-06	1.65032804488874E-06	815315.3125	1.53693254105747E-05
1	136	71.7840078187628	1.16958618164063	1.16973876953125	1.42974853515625E-06	1.67243229043379E-06	818143	1.55129600898363E-05
1	137	71.8847158185085	1.17965698242188	1.18011474609375	1.4373779296875E-06	1.69627094237512E-06	821019.125	1.56573314598063E-05
1	138	71.9854238182543	1.18972778320313	1.18927001953125	1.4459228515625E-06	1.71959266026533E-06	822498.9375	1.58025159180397E-05
1	139	72.086131818	1.19979858398438	1.19964599609375	1.4544677734375E-06	1.74484648596263E-06	824800.6875	1.59485625772504E-05
1	140	72.1868398177457	1.20986938476563	1.209716796875	1.46392822265625E-06	1.7709384110276E-06	826349.875	1.60955150931841E-05
1	141	72.2875478174915	1.21994018554688	1.2200927734375	1.47369384765625E-06	1.79804317212984E-06	827914.6875	1.62434371304698E-05
1	142	72.3882558172372	1.23001098632813	1.23016357421875	1.48406982421875E-06	1.8256486100654E-06	828912.1875	1.63923723448534E-05
1	143	72.488963816983	1.24008178710938	1.2396240234375	1.4947509765625E-06	1.85292913101875E-06	829318.125	1.65423680300592E-05
1	144	72.5896718167287	1.25015258789063	1.25	1.50604248046875E-06	1.88255296507123E-06	829989.9375	1.66934696608223E-05
1	145	72.6903798164744	1.26022338867188	1.2603759765625	1.51702880859375E-06	1.91202661881107E-06	830818.75	1.68456936080474E-05
1	146	72.7910878162202	1.27029418945313	1.2701416015625	1.5289306640625E-06	1.94195831682009E-06	830738.5625	1.6999068975565E-05
1	147	72.8917958159659	1.28036499023438	1.2811279296875	1.5411376953125E-06	1.97439453586412E-06	831287.1875	1.71536594280042E-05
1	148	72.9925038157116	1.29043579101563	1.290283203125	1.55426025390625E-06	2.00543581740931E-06	830159.0625	1.73095249920152E-05
1	149	73.0932118154574	1.30050659179688	1.30035400390625	1.56707763671875E-06	2.03775562113151E-06	829795.5625	1.7466696590418E-05
1	150	73.1939198152031	1.31057739257813	1.3104248046875	1.58050537109375E-06	2.07113339456555E-06	829117.625	1.76251905941172E-05
1	151	73.2946278149489	1.32064819335938	1.32049560546875	1.59393310546875E-06	2.10478174267337E-06	828451.0625	1.77850361069432E-05
1	152	73.3953358146946	1.33071899414063	1.33056640625	1.6082763671875E-06	2.13991847886064E-06	827324.5	1.79462804226205E-05
1	153	73.4960438144403	1.34078979492188	1.34063720703125	1.62261962890625E-06	2.17534420698939E-06	826217.8125	1.81089690158842E-05
1	154	73.5967518141861	1.35086059570313	1.3507080078125	1.63726806640625E-06	2.21147115553322E-06	824976.6875	1.82731164386496E-05
1	155	73.6974598139318	1.36093139648438	1.36077880859375	1.6534423828125E-06	2.24996938413824E-06	822997.4375	1.84388172783656E-05
1	156	73.7981678136775	1.37100219726563	1.37054443359375	1.6705322265625E-06	2.2895385427546E-06	820423.875	1.86061934073223E-05
1	157	73.8988758134233	1.38107299804688	1.3812255859375	1.69036865234375E-06	2.33478044719959E-06	817115	1.877542672446E-05
1	158	73.999583813169	1.39114379882813	1.3909912109375	1.7138671875E-06	2.38397410612379E-06	811609.6875	1.89468446478713E-05
1	159	74.1002918129147	1.40121459960938	1.40106201171875	1.74072265625E-06	2.43886029238638E-06	804873.8125	1.91207964235218E-05
1	160	74.2009998126605	1.41128540039063	1.41143798828125	1.77337646484375E-06	2.50301081905491E-06	795904.3125	1.92977458937094E-05
1	161	74.3017078124062	1.42135620117188	1.42181396484375	1.812744140625E-06	2.57738497566606E-06	784343.4375	1.94783206097782E-05
1	162	74.402415812152	1.43142700195313	1.43157958984375	1.8585205078125E-06	2.66061988440924E-06	770279.1875	1.96631845028605E-05
1	163	74.5031238118977	1.44149780273438	1.4422607421875	1.91314697265625E-06	2.7592566311796E-06	753868.25	1.98531033674954E-05
1	164	74.6038318116434	1.45156860351563	1.45172119140625	1.97784423828125E-06	2.87127841147594E-06	733991.6875	2.00490303541301E-05
1	165	74.7045398113892	1.46163940429688	1.4617919921875	2.05352783203125E-06	3.00183046419988E-06	711844.25	2.0252025933587E-05
1	166	74.8052478111349	1.47171020507813	1.470947265625	2.13958740234375E-06	3.14722024086223E-06	687491.0625	2.04631651286036E-05
1	167	74.9059558108806	1.48178100585938	1.48193359375	2.23388671875E-06	3.31047158397269E-06	663388	2.06833883567015E-05
1	168	75.0066638106264	1.49185180664063	1.4923095703125	2.33428955078125E-06	3.48348271472787E-06	639299.25	2.09134141186951E-05
1	169	75.1073718103721	1.50192260742188	1.50177001953125	2.435302734375E-06	3.65726441486913E-06	616666.6875	2.11535807466134E-05
1	170	75.2080798101179	1.49185180664063	1.49200439453125	2.1173095703125E-06	3.15903525915928E-06	704669.9375	2.13828243431635E-05
1	171	75.3087878098636	1.48178100585938	1.48193359375	1.88629150390625E-06	2.79535856861912E-06	785633.4375	2.15844211197691E-05
1	172	75.4094958096093	1.47171020507813	1.47186279296875	1.70379638671875E-06	2.50775451604568E-06	863872.5	2.17651959246723E-05
1	173	75.5102038093551	1.46163940429688	1.46209716796875	1.55487060546875E-06	2.27337181968323E-06	940333.6875	2.19292833207874E-05
1	174	75.6109118091008	1.45156860351563	1.451416015625	1.43157958984375E-06	2.07781749850255E-06	1013856.3125	2.20796628127573E-05
1	175	75.7116198088465	1.44149780273438	1.441650390625	1.326904296875E-06	1.91293202078668E-06	1086476.625	2.22185644815909E-05
1	176	75.8123278085923	1.43142700195313	1.4312744140625	1.2396240234375E-06	1.77424215053179E-06	1154603.625	2.23477982217446E-05
1	177	75.913035808338	1.42135620117188	1.4215087890625	1.16546630859375E-06	1.65672054208699E-06	1219691	2.24689047172433E-05
1	178	76.0137438080837	1.41128540039063	1.4111328125	1.10321044921875E-06	1.55677639668284E-06	1279114.875	2.25831408897648E-05
1	179	76.1144518078295	1.40121459960938	1.40106201171875	1.0498046875E-06	1.47084131185693E-06	1334593.125	2.26915544772055E-05
1	180	76.2151598075752	1.39114379882813	1.39129638671875	1.004638671875E-06	1.39775011120946E-06	1384872.5	2.2795004042564E-05
1	181	76.315867807321	1.38107299804688	1.3812255859375	9.661865234375E-07	1.33452147110802E-06	1429564.25	2.28942426474532E-05
1	182	76.4165758070667	1.37100219726563	1.37054443359375	9.33227539062501E-07	1.27902978874772E-06	1468607	2.29898851102917E-05
1	183	76.5172838068124	1.36093139648438	1.3604736328125	9.0484619140625E-07	1.23101938243053E-06	1503541.375	2.30824407481123E-05
1	184	76.6179918065582	1.35086059570313	1.35101318359375	8.807373046875E-07	1.18988771191653E-06	1533957.125	2.31723515753401E-05
1	185	76.7186998063039	1.34078979492188	1.34063720703125	8.59985351562501E-07	1.1529283483469E-06	1558907	2.32600032177288E-05
1	186	76.8194078060496	1.33071899414063	1.33087158203125	8.41369628906249E-07	1.11975487016025E-06	1581791.75	2.3345673980657E-05
1	187	76.9201158057954	1.32064819335938	1.32080078125	8.24890136718751E-07	1.08951553556835E-06	1601184	2.3429576685885E-05
1	188	77.0208238055411	1.31057739257813	1.31072998046875	8.09631347656251E-07	1.06120808140986E-06	1618922	2.35118804994272E-05
1	189	77.1215318052868	1.30050659179688	1.30096435546875	7.95593261718749E-07	1.03503839454788E-06	1635213	2.35927109315526E-05
1	190	77.2222398050326	1.29043579101563	1.29058837890625	7.830810546875E-07	1.01063528745726E-06	1648090.5	2.36722025874769E-05
1	191	77.3229478047783	1.28036499023438	1.28082275390625	7.708740234375E-07	9.87353018899739E-07	1661520.25	2.37504518736387E-05
1	192	77.4236558045241	1.27029418945313	1.2701416015625	7.6019287109375E-07	9.6555254458508E-07	1670815	2.38275461015292E-05
1	193	77.5243638042698	1.26022338867188	1.2603759765625	7.489013671875E-07	9.4389730520561E-07	1682966.625	2.39035362028517E-05
1	194	77.6250718040155	1.25015258789063	1.25	7.38525390625E-07	9.23156733279029E-07	1692562	2.39784330915427E-05
1	195	77.7257798037613	1.24008178710938	1.23992919921875	7.28759765625001E-07	9.03610498426133E-07	1701423.875	2.40523168031359E-05
1	196	77.826487803507	1.23001098632813	1.2298583984375	7.19604492187501E-07	8.85011615991971E-07	1709075.5	2.41252473642817E-05
1	197	77.9271958032527	1.21994018554688	1.21978759765625	7.10144042968749E-07	8.66224866058474E-07	1717662.25	2.41972411458846E-05
1	198	78.0279038029985	1.20986938476563	1.209716796875	7.0037841796875E-07	8.47259514102916E-07	1727233.125	2.42682672251249E-05
1	199	78.1286118027442	1.19979858398438	1.199951171875	6.91833496093749E-07	8.30166356990958E-07	1734450.875	2.43383710767375E-05
1	200	78.22931980249	1.18972778320313	1.18927001953125	6.8328857421875E-07	8.12614587175631E-07	1740509.25	2.44076127273729E-05
1	201	78.3300278022357	1.17965698242188	1.1798095703125	6.744384765625E-07	7.95708956502494E-07	1749321.25	2.44759794441052E-05
1	202	78.4307358019814	1.16958618164063	1.16943359375	6.65893554687499E-07	7.78718288074742E-07	1756187	2.45434712269343E-05
1	203	78.5314438017272	1.15951538085938	1.15966796875	6.57043457031251E-07	7.61952207994909E-07	1764979.25	2.4610086256871E-05
1	204	78.6321518014729	1.14944458007813	1.1492919921875	6.49108886718749E-07	7.46015643926512E-07	1770568.875	2.46758572757244E-05
1	205	78.7328598012186	1.13937377929688	1.13922119140625	6.40869140625E-07	7.30091699097102E-07	1777619.125	2.47408115683356E-05
1	206	78.8335678009644	1.12930297851563	1.12884521484375	6.3201904296875E-07	7.13451640876883E-07	1786093.75	2.48049072979484E-05
1	207	78.9342758007101	1.11923217773438	1.119384765625	6.23779296875E-07	6.98249039032817E-07	1794520.625	2.48681408265838E-05
1	208	79.0349838004558	1.10916137695313	1.10870361328125	6.15234375E-07	6.82112556660286E-07	1802083.375	2.49305303441361E-05
1	209	79.1356918002016	1.09909057617188	1.0992431640625	6.06384277343749E-07	6.66563778395357E-07	1812783.125	2.49920449277852E-05
1	210	79.2363997999473	1.08901977539063	1.0888671875	5.9814453125E-07	6.51299956189177E-07	1820408.125	2.5052697310457E-05
1	211	79.3371077996931	1.07894897460938	1.07879638671875	5.8929443359375E-07	6.3572866793038E-07	1830657.75	2.5112489311141E-05
1	212	79.4378157994388	1.06887817382813	1.0687255859375	5.79833984375E-07	6.19683419245121E-07	1843158	2.51713590841973E-05
1	213	79.5385237991845	1.05880737304688	1.0589599609375	5.7037353515625E-07	6.04002707405016E-07	1856607.875	2.52292775257956E-05
1	214	79.6392317989303	1.04873657226563	1.048583984375	5.60607910156249E-07	5.87844454003061E-07	1870441	2.52862264460418E-05
1	215	79.739939798676	1.03866577148438	1.03851318359375	5.50537109375E-07	5.71740031318768E-07	1886363.625	2.53421767411055E-05
1	216	79.8406477984217	1.02859497070313	1.0284423828125	5.4046630859375E-07	5.55838482796389E-07	1902879.75	2.53971138590714E-05
1	217	79.9413557981675	1.01852416992188	1.0186767578125	5.2978515625E-07	5.39679831490503E-07	1922811.125	2.54510050581302E-05
1	218	80.0420637979132	1.00845336914063	1.00860595703125	5.19714355468751E-07	5.24186930306314E-07	1940693	2.55038521572715E-05
1	219	80.142771797659	0.998382568359375	0.99822998046875	5.0933837890625E-07	5.0843681265178E-07	1959856.375	2.55556678894209E-05
1	220	80.2434797974047	0.988311767578125	0.9881591796875	4.9896240234375E-07	4.930542445436E-07	1980428.25	2.5606441340642E-05
1	221	80.3441877971504	0.978240966796875	0.97808837890625	4.89501953125E-07	4.78776144063886E-07	1998129.75	2.56562143476913E-05
1	222	80.4448957968962	0.968170166015625	0.96771240234375	4.80041503906251E-07	4.64542097233789E-07	2015893.25	2.5705034204293E-05
1	223	80.5456037966419	0.958099365234375	0.95794677734375	4.7119140625E-07	4.51376280352633E-07	2033031.125	2.57529318332672E-05
1	224	80.6463117963876	0.948028564453125	0.9478759765625	4.6234130859375E-07	4.38242210520912E-07	2050165.125	2.5799939976423E-05
1	225	80.7470197961334	0.937957763671875	0.9381103515625	4.5318603515625E-07	4.25138495074862E-07	2070033.625	2.58460404438665E-05
1	226	80.8477277958791	0.927886962890625	0.927734375	4.443359375E-07	4.12225716672765E-07	2087912.125	2.58912332355976E-05
1	227	80.9484357956248	0.917816162109375	0.91796875	4.34265136718751E-07	3.98641816445888E-07	2113844	2.59354746958707E-05
1	228	81.0491437953706	0.907745361328125	0.9075927734375	4.2449951171875E-07	3.85272670655468E-07	2138030.25	2.59787175309611E-05
1	229	81.1498517951163	0.897674560546875	0.8978271484375	4.12902832031251E-07	3.70715383724018E-07	2174427.25	2.60208835243247E-05
1	230	81.2505597948621	0.887603759765625	0.88775634765625	4.010009765625E-07	3.55991147671375E-07	2213851	2.6061867174576E-05
1	231	81.3512677946078	0.877532958984375	0.877685546875	3.8726806640625E-07	3.39899571599744E-07	2266351.5	2.61015593423508E-05
1	232	81.4519757943535	0.867462158203125	0.8673095703125	3.7200927734375E-07	3.22647224493267E-07	2331419.25	2.61397926806239E-05
1	233	81.5526837940993	0.857391357421875	0.8575439453125	3.558349609375E-07	3.05144112644484E-07	2409948.75	2.61764416791266E-05
1	234	81.653391793845	0.847320556640625	0.8477783203125	3.39355468749999E-07	2.87698213696785E-07	2498201.5	2.62114481301978E-05
1	235	81.7540997935907	0.837249755859375	0.83740234375	3.2379150390625E-07	2.71143733243662E-07	2586239.5	2.62448393186787E-05
1	236	81.8548077933365	0.827178955078125	0.82763671875	3.10363769531249E-07	2.56868446513181E-07	2666666.75	2.6276771677658E-05
1	237	81.9555157930822	0.817108154296875	0.8172607421875	2.99072265625E-07	2.44420021999758E-07	2732653	2.63074598478852E-05
1	238	82.056223792828	0.807037353515625	0.806884765625	2.9022216796875E-07	2.34175828950356E-07	2780231.5	2.63371330220252E-05
1	239	82.1569317925737	0.796966552734375	0.79681396484375	2.8350830078125E-07	2.25903363570978E-07	2810549.25	2.63660222117323E-05
1	240	82.2576397923194	0.786895751953125	0.78704833984375	2.7923583984375E-07	2.19772090304104E-07	2818579.5	2.63943584286608E-05
1	241	82.3583477920652	0.776824951171875	0.77728271484375	2.75573730468751E-07	2.14198678349931E-07	2820598.25	2.64222962869098E-05
1	242	82.4590557918109	0.766754150390625	0.7666015625	2.7313232421875E-07	2.09383657079343E-07	2806704	2.64499249169603E-05
1	243	82.5597637915566	0.756683349609375	0.7568359375	2.7130126953125E-07	2.05330550784311E-07	2789651.25	2.64773389062611E-05
1	244	82.6604717913024	0.746612548828125	0.74652099609375	2.6885986328125E-07	2.0070952189144E-07	2776617.5	2.65045382548124E-05
1	245	82.7611797910481	0.736541748046875	0.736419677734375	2.67639160156249E-07	1.97094749410098E-07	2751539.25	2.65315538854338E-05
1	246	82.8618877907938	0.726470947265625	0.726409912109375	2.655029296875E-07	1.92863964798562E-07	2735977	2.65584003500408E-05
1	247	82.9625957905396	0.716400146484375	0.71630859375	2.6275634765625E-07	1.88214627883099E-07	2726132.5	2.65849994320888E-05
1	248	83.0633037902853	0.706329345703125	0.70623779296875	2.60314941406251E-07	1.83844250045695E-07	2713012.75	2.66113383986522E-05
1	249	83.1640117900311	0.696258544921875	0.696258544921875	2.581787109375E-07	1.79759140905844E-07	2696808.5	2.66374463535612E-05
1	250	83.2647197897768	0.686187744140625	0.68621826171875	2.5482177734375E-07	1.7486335934791E-07	2692934.25	2.6663277822081E-05
1	251	83.3654277895225	0.676116943359375	0.676055908203125	2.5146484375E-07	1.70004284427705E-07	2688471	2.66887709585717E-05
1	252	83.4661357892683	0.666046142578125	0.665985107421875	2.48107910156251E-07	1.65236173188532E-07	2684255.75	2.67139275820227E-05
1	253	83.566843789014	0.655975341796875	0.65594482421875	2.4566650390625E-07	1.61143660193375E-07	2670062.25	2.67387913481798E-05
1	254	83.6675517887597	0.645904541015625	0.6458740234375	2.42004394531251E-07	1.56304338361224E-07	2668852.75	2.67633477051277E-05
1	255	83.7682597885055	0.635833740234375	0.6357421875	2.38647460937499E-07	1.51718253960098E-07	2663938.75	2.67875493591418E-05
1	256	83.8689677882512	0.625762939453125	0.625701904296875	2.35595703124999E-07	1.47412677620196E-07	2655829.25	2.68114290520316E-05
1	257	83.9696757879969	0.615692138671875	0.61566162109375	2.32849121093751E-07	1.43356260196015E-07	2644036.75	2.68350177066168E-05
1	258	84.0703837877427	0.605621337890625	0.6055908203125	2.29797363281251E-07	1.39163162771183E-07	2635325.5	2.6858313503908E-05
1	259	84.1710917874884	0.595550537109375	0.59552001953125	2.2735595703125E-07	1.35395026745755E-07	2619329	2.68813328148099E-05
1	260	84.2717997872342	0.585479736328125	0.585479736328125	2.239990234375E-07	1.31146890680611E-07	2613760.25	2.69040610874072E-05
1	261	84.3725077869799	0.575408935546875	0.57537841796875	2.215576171875E-07	1.2747946698255E-07	2596969.75	2.69264965027105E-05
1	262	84.4732157867256	0.565338134765625	0.5653076171875	2.18811035156249E-07	1.23695542697533E-07	2583542.75	2.69486699835397E-05
1	263	84.5739237864714	0.555267333984375	0.55523681640625	2.15759277343749E-07	1.19797491038298E-07	2573408.75	2.69705524260644E-05
1	264	84.6746317862171	0.545196533203125	0.54522705078125	2.13012695312501E-07	1.16140277839349E-07	2559599	2.69921438302845E-05
1	265	84.7753397859628	0.535125732421875	0.53509521484375	2.105712890625E-07	1.12675685670638E-07	2541159.5	2.70134733000305E-05
1	266	84.8760477857086	0.525054931640625	0.5250244140625	2.08435058593751E-07	1.09433493378219E-07	2518887.25	2.70345717581222E-05
1	267	84.9767557854543	0.514984130859375	0.514984130859375	2.056884765625E-07	1.05926297067072E-07	2503709.25	2.70554246526444E-05
1	268	85.0774637852001	0.504913330078125	0.504913330078125	2.032470703125E-07	1.02622152553522E-07	2484234.25	2.70760156126926E-05
1	269	85.1781717849458	0.494842529296875	0.49481201171875	2.0172119140625E-07	9.9814066345516E-08	2452950	2.70964083028957E-05
1	270	85.2788797846915	0.484771728515625	0.484771728515625	1.9866943359375E-07	9.63093214068067E-08	2440092.25	2.71165681624552E-05
1	271	85.3795877844373	0.474700927734375	0.474761962890625	1.9683837890625E-07	9.34513693096051E-08	2411938	2.71364842774346E-05
1	272	85.480295784183	0.464630126953125	0.464569091796875	1.9500732421875E-07	9.05943693396694E-08	2382316.25	2.71562148554949E-05
1	273	85.5810037839287	0.454559326171875	0.45458984375	1.92871093749999E-07	8.76772361380063E-08	2356962.25	2.71757471637102E-05
1	274	85.6817117836745	0.444488525390625	0.444549560546875	1.904296875E-07	8.46554328859384E-08	2334455	2.71950466412818E-05
1	275	85.7824197834202	0.434417724609375	0.4344482421875	1.8890380859375E-07	8.20689223246518E-08	2299838.5	2.72141478490084E-05
1	276	85.8831277831659	0.424346923828125	0.42437744140625	1.8646240234375E-07	7.91304373137791E-08	2275941	2.72330489679007E-05
1	277	85.9838357829117	0.414276123046875	0.414276123046875	1.84326171875E-07	7.6361928336155E-08	2247516.5	2.72517190751387E-05
1	278	86.0845437826574	0.404205322265625	0.40423583984375	1.8157958984375E-07	7.34009759639775E-08	2226218.5	2.72701454377966E-05
1	279	86.1852517824032	0.394134521484375	0.394134521484375	1.7974853515625E-07	7.08450969000296E-08	2192699.5	2.72883389698109E-05
1	280	86.2859597821489	0.384063720703125	0.38409423828125	1.77612304687499E-07	6.82198617596441E-08	2162543	2.73063342319801E-05
1	281	86.3866677818946	0.373992919921875	0.37408447265625	1.7547607421875E-07	6.56428724710167E-08	2131826	2.73241130344104E-05
1	282	86.4873757816404	0.363922119140625	0.36395263671875	1.727294921875E-07	6.28653538115032E-08	2107067.25	2.73416462732712E-05
1	283	86.5880837813861	0.353851318359375	0.3538818359375	1.7059326171875E-07	6.03698566692401E-08	2074418.75	2.73589339485625E-05
1	284	86.6887917811318	0.343780517578125	0.343780517578125	1.6815185546875E-07	5.78073340307128E-08	2044464.625	2.73759906121995E-05
1	285	86.7894997808776	0.333709716796875	0.333740234375	1.65710449218751E-07	5.53042447393182E-08	2013996.375	2.73928035312565E-05
1	286	86.8902077806233	0.323638916015625	0.32366943359375	1.6357421875E-07	5.29439745378113E-08	1978731.375	2.74093836196698E-05
1	287	86.9909157803691	0.313568115234375	0.313568115234375	1.61132812500001E-07	5.05261077421437E-08	1946022.875	2.74257345154183E-05
1	288	87.0916237801148	0.303497314453125	0.303466796875	1.5869140625E-07	4.815757392862E-08	1912307.625	2.74418380286079E-05
1	289	87.1923317798605	0.293426513671875	0.293365478515625	1.556396484375E-07	4.56592985642601E-08	1884902.125	2.74576668743975E-05
1	290	87.2930397796063	0.283355712890625	0.283355712890625	1.52587890625E-07	4.32366498159809E-08	1857000	2.74731864919886E-05
1	291	87.393747779352	0.273284912109375	0.273284912109375	1.4984130859375E-07	4.09493665642913E-08	1823829	2.74884150712751E-05
1	292	87.4944557790977	0.263214111328125	0.263275146484375	1.46484375E-07	3.85656946377821E-08	1797291.75	2.75033362413524E-05
1	293	87.5951637788435	0.253143310546875	0.253204345703125	1.434326171875E-07	3.6317761242799E-08	1765319.125	2.75179354503052E-05
1	294	87.6958717785892	0.243072509765625	0.24310302734375	1.39465332031249E-07	3.39044419206402E-08	1743107.25	2.75321799563244E-05
1	295	87.7965797783349	0.233001708984375	0.233001708984375	1.36413574218749E-07	3.17845945119188E-08	1708053.625	2.75460715783993E-05
1	296	87.8972877780807	0.222930908203125	0.222991943359375	1.3275146484375E-07	2.96025071122585E-08	1679770.125	2.75596248684451E-05
1	297	87.9979957778264	0.212860107421875	0.212890625	1.28173828125E-07	2.72870046558182E-08	1660952.5	2.75727634289069E-05
1	298	88.0987037775722	0.202789306640625	0.202850341796875	1.22985839843751E-07	2.49477185576552E-08	1649379.625	2.75854108622298E-05
1	299	88.1994117773179	0.192718505859375	0.1927490234375	1.18408203125001E-07	2.28230661036832E-08	1627835	2.75975653494243E-05
1	300	88.3001197770636	0.182647705078125	0.18267822265625	1.1260986328125E-07	2.05713686085573E-08	1622222.25	2.76091977866599E-05
1	301	88.4008277768094	0.172576904296875	0.17254638671875	1.055908203125E-07	1.82193140574327E-08	1634104.125	2.76201863016468E-05
1	302	88.5015357765551	0.162506103515625	0.162567138671875	9.765625E-08	1.58756972012952E-08	1664687.5	2.76304199360311E-05
1	303	88.6022437763008	0.152435302734375	0.152496337890625	8.72802734374997E-08	1.33099211652166E-08	1747202.875	2.76397313427879E-05
1	304	88.7029517760466	0.142364501953125	0.14239501953125	7.44628906250003E-08	1.06031441404753E-08	1912295.125	2.76478767773369E-05
1	305	88.8036597757923	0.132293701171875	0.132293701171875	5.73730468750006E-08	7.59009299855506E-09	2305851	2.76545142696705E-05
1	306	88.904367775538	0.122222900390625	0.12225341796875	3.47900390625003E-08	4.25320090258197E-09	3514035.25	2.76591563306283E-05
1	307	89.0050757752838	0.112152099609375	0.112213134765625	4.27246093750028E-09	4.79426220945101E-10	26264286	2.76611226581736E-05
1	308	89.1057837750295	0.102081298828125	0.102142333984375	-3.814697265625E-08	-3.89642051956685E-09	-2677600	2.7659416446113E-05
1	309	89.2064917747753	0.092010498046875	0.092041015625	-9.55200195312506E-08	-8.79175932055887E-09	-963578.3125	2.76526861853199E-05
1	310	89.307199774521	0.081939697265625	0.08203125	-1.74560546874999E-07	-1.43194194279772E-08	-469930.09375	2.7639087420539E-05
1	311	89.4079077742667	0.071868896484375	0.07196044921875	-2.81982421875E-07	-2.02915799718539E-08	-255194.8125	2.76160972134676E-05
1	312	89.5086157740125	0.061798095703125	0.061859130859375	-4.2266845703125E-07	-2.61459032202538E-08	-146353.796875	2.7580616006162E-05
1	313	89.6093237737582	0.051727294921875	0.0517578125	-6.03332519531249E-07	-3.12271701830014E-08	-85786.546875	2.75289530691225E-05
1	314	89.7100317735039	0.041656494140625	0.041741943359375	-8.23059082031249E-07	-3.43560841997714E-08	-50715.61328125	2.74571284535341E-05
1	315	89.8107397732497	0.031585693359375	0.0316680908203125	-1.07513427734375E-06	-3.4047449304353E-08	-29455.009765625	2.7361546017346E-05
1	316	89.9114477729954	0.021514892578125	0.0216156005859375	-1.341552734375E-06	-2.89984658508047E-08	-16112.3759765625	2.72398574452382E-05
1	317	90.0121557727412	0.011444091796875	0.011517333984375	-1.5997314453125E-06	-1.84246395917853E-08	-7199.54248046875	2.70917516900226E-05
1	318	90.1128637724869	0.001373291015625	0.00147094726562499	-1.8231201171875E-06	-2.6817135179158E-09	-806.82958984375	2.69193969870685E-05
1	319	90.2135717722326	-0.008697509765625	-0.00858459472656251	-1.98883056640625E-06	1.70733027715642E-08	4316.4033203125	2.67274499492487E-05
1	320	90.3142797719784	-0.018768310546875	-0.0186614990234375	-2.0867919921875E-06	3.89426659808123E-08	8942.673828125	2.65222261077724E-05
1	321	90.4149877717241	-0.028839111328125	-0.028680419921875	-2.12005615234375E-06	6.08040977567725E-08	13528.142578125	2.63103938777931E-05
1	322	90.5156957714698	-0.038909912109375	-0.038787841796875	-2.10113525390625E-06	8.14984986163836E-08	18460.421875	2.609784132801E-05
1	323	90.6164037712156	-0.048980712890625	-0.0488433837890625	-2.0465087890625E-06	9.99584131022857E-08	23866.685546875	2.5888990421663E-05
1	324	90.7171117709613	-0.059051513671875	-0.05902099609375	-1.9732666015625E-06	1.16464157429164E-07	29910.30078125	2.56865787378047E-05
1	325	90.817819770707	-0.069122314453125	-0.069061279296875	-1.89056396484375E-06	1.30564757228058E-07	36529.4609375	2.54920196312014E-05
1	326	90.9185277704528	-0.079193115234375	-0.0791015625	-1.8084716796875E-06	1.43052929502119E-07	43739.453125	2.53057587542571E-05
1	327	91.0192357701985	-0.089263916015625	-0.089202880859375	-1.73095703125E-06	1.54406350816316E-07	51533.8515625	2.51275341724977E-05
1	328	91.1199437699443	-0.099334716796875	-0.0992431640625	-1.658935546875E-06	1.6463800989186E-07	59823.40234375	2.49568383878795E-05
1	329	91.22065176969	-0.109405517578125	-0.10931396484375	-1.59515380859375E-06	1.7437258748032E-07	68528.796875	2.47929820034187E-05
1	330	91.3213597694357	-0.119476318359375	-0.119415283203125	-1.53961181640625E-06	1.83853174462456E-07	77561.9453125	2.46351337409578E-05
1	331	91.4220677691815	-0.129547119140625	-0.1295166015625	-1.48956298828125E-06	1.92923124586741E-07	86949.3984375	2.44826042035129E-05
1	332	91.5227757689272	-0.139617919921875	-0.139495849609375	-1.44622802734375E-06	2.01742807348637E-07	96454.953125	2.43347749346867E-05
1	333	91.6234837686729	-0.149688720703125	-0.14959716796875	-1.40899658203125E-06	2.10781891496481E-07	106172.8359375	2.41910020122305E-05
1	334	91.7241917684187	-0.159759521484375	-0.159576416015625	-1.37603759765625E-06	2.19583128568956E-07	115968.0703125	2.40507652051747E-05
1	335	91.8248997681644	-0.169830322265625	-0.169647216796875	-1.34735107421875E-06	2.28574350558119E-07	125911.671875	2.39136315940414E-05
1	336	91.9256077679102	-0.179901123046875	-0.17974853515625	-1.32354736328125E-06	2.37905680933181E-07	135808.171875	2.37791409745114E-05
1	337	92.0263157676559	-0.189971923828125	-0.189849853515625	-1.302490234375E-06	2.47277569087601E-07	145759.140625	2.36469095398206E-05
1	338	92.1270237674016	-0.200042724609375	-0.19989013671875	-1.28509521484375E-06	2.56877854099002E-07	155545	2.35166135098552E-05
1	339	92.2277317671474	-0.189971923828125	-0.1898193359375	-1.13800048828125E-06	2.16014498732875E-07	166800.75	2.33946011576336E-05
2	340	92.3284397668931	-0.179901123046875	-0.17974853515625	-1.036376953125E-06	1.86287238079785E-07	173439.34375	2.32851125474554E-05
2	341	92.4291477666388	-0.169830322265625	-0.169708251953125	-9.54589843750001E-07	1.62001768444497E-07	177781.328125	2.31848607654683E-05
2	342	92.5298557663846	-0.159759521484375	-0.15966796875	-8.84094238281249E-07	1.41161521582944E-07	180600.625	2.30922742048278E-05
2	343	92.6305637661303	-0.149688720703125	-0.149627685546875	-8.23364257812501E-07	1.23198091728227E-07	181727.203125	2.30062978516798E-05
2	344	92.731271765876	-0.139617919921875	-0.139556884765625	-7.6751708984375E-07	1.07112292369038E-07	181829.03125	2.29261895583477E-05
2	345	92.8319797656218	-0.129547119140625	-0.129425048828125	-7.1533203125E-07	9.25818852692828E-08	180930.03125	2.28515236813109E-05
2	346	92.9326877653675	-0.119476318359375	-0.119415283203125	-6.65893554687499E-07	7.95178678458797E-08	179330.890625	2.2781972802477E-05
2	347	93.0333957651133	-0.109405517578125	-0.10931396484375	-6.15844726562501E-07	6.73204283430096E-08	177502.484375	2.27174314204603E-05
2	348	93.134103764859	-0.099334716796875	-0.0992431640625	-5.65490722656251E-07	5.61210882210617E-08	175499.1875	2.26579468289856E-05
2	349	93.2348117646047	-0.089263916015625	-0.08917236328125	-5.10253906249999E-07	4.55005420008092E-08	174760.78125	2.26037791435374E-05
2	350	93.3355197643505	-0.079193115234375	-0.079071044921875	-4.4891357421875E-07	3.54960647541702E-08	176138.6875	2.25554813368944E-05
2	351	93.4362277640962	-0.069122314453125	-0.069061279296875	-3.7506103515625E-07	2.59021941673154E-08	184133.4375	2.25139901885996E-05
2	352	93.5369357638419	-0.059051513671875	-0.058990478515625	-2.8564453125E-07	1.68503060393732E-08	206517.109375	2.24807208724087E-05
2	353	93.6376437635877	-0.048980712890625	-0.0488494873046875	-1.7242431640625E-07	8.42283842672487E-09	283309.75	2.24576560867717E-05
2	354	93.7383517633334	-0.038909912109375	-0.0387969970703125	-2.96020507812494E-08	1.14847076293501E-09	1310618.625	2.24474824790377E-05
2	355	93.8390597630791	-0.028839111328125	-0.028692626953125	1.4923095703125E-07	-4.28182822531653E-09	-192269.9375	2.24535069719423E-05
2	356	93.9397677628249	-0.018768310546875	-0.0186370849609375	3.66821289062499E-07	-6.83647938259924E-09	-50806.9921875	2.24794930545613E-05
2	357	94.0404757625706	-0.008697509765625	-0.0085723876953125	6.18896484375001E-07	-5.30542054733019E-09	-13851.0849609375	2.25291278184159E-05
2	358	94.1411837623164	0.001373291015625	0.00148925781250001	8.929443359375E-07	1.32982425071759E-09	1667.80590820313	2.26052543439437E-05
2	359	94.2418917620621	0.011444091796875	0.0115386962890625	1.17095947265625E-06	1.35113449317714E-08	9854.0537109375	2.27091804845259E-05
2	360	94.3425997618078	0.021514892578125	0.0216400146484375	1.4239501953125E-06	3.08143022209606E-08	15197.1708984375	2.28398439503508E-05
2	361	94.4433077615536	0.031585693359375	0.03167724609375	1.62811279296875E-06	5.15741263029668E-08	19456.419921875	2.2993528546067E-05
2	362	94.5440157612993	0.041656494140625	0.04176025390625	1.76910400390625E-06	7.38782333087329E-08	23605.314453125	2.31645917665446E-05
2	363	94.644723761045	0.051727294921875	0.0517578125	1.84173583984375E-06	9.53242107470942E-08	28102.736328125	2.33464106713654E-05
2	364	94.7454317607908	0.061798095703125	0.06182861328125	1.85638427734375E-06	1.14777662929555E-07	33305.9375	2.35326260735746E-05
2	365	94.8461397605365	0.071868896484375	0.0718994140625	1.8267822265625E-06	1.313445636697E-07	39358.50390625	2.37180884141708E-05
2	366	94.9468477602823	0.081939697265625	0.08197021484375	1.77093505859375E-06	1.45163923548353E-07	46286.40625	2.38992488448275E-05
2	367	95.047555760028	0.092010498046875	0.092041015625	1.7010498046875E-06	1.56566343889608E-07	54108.36328125	2.40740755543811E-05
2	368	95.1482637597737	0.102081298828125	0.1021728515625	1.62689208984375E-06	1.66224197073461E-07	62802.4765625	2.42416517721722E-05
2	369	95.2489717595195	0.112152099609375	0.1121826171875	1.55426025390625E-06	1.74360977212018E-07	72177.5	2.44018356170272E-05
2	370	95.3496797592652	0.122222900390625	0.12225341796875	1.48712158203125E-06	1.81805688725944E-07	82208.09375	2.455498179188E-05
2	371	95.4503877590109	0.132293701171875	0.132354736328125	1.42578125E-06	1.88708895620948E-07	92829.625	2.47016578214243E-05
2	372	95.5510957587567	0.142364501953125	0.142486572265625	1.37054443359375E-06	1.95284172832544E-07	103963.484375	2.48424639721634E-05
2	373	95.6518037585024	0.152435302734375	0.152496337890625	1.32171630859375E-06	2.01556886736398E-07	115377.515625	2.49780296144309E-05
2	374	95.7525117582481	0.162506103515625	0.16253662109375	1.27838134765625E-06	2.07783784844651E-07	127142.515625	2.51089550147299E-05
2	375	95.8532197579939	0.172576904296875	0.172576904296875	1.2396240234375E-06	2.13930476888891E-07	139217.140625	2.52357458521146E-05
2	376	95.9539277577396	0.182647705078125	0.1827392578125	1.20574951171875E-06	2.20337767586898E-07	151556.5625	2.53588805207983E-05
2	377	96.0546357574854	0.192718505859375	0.192779541015625	1.1761474609375E-06	2.26737157049683E-07	163907.640625	2.54788192250999E-05
2	378	96.1553437572311	0.202789306640625	0.202850341796875	1.14990234375E-06	2.33258077741993E-07	176406.578125	2.55959457717836E-05
2	379	96.2560517569768	0.212860107421875	0.212890625	1.12640380859375E-06	2.39800783674582E-07	189000.28125	2.57105657510692E-05
2	380	96.3567597567226	0.222930908203125	0.22296142578125	1.10504150390625E-06	2.46381631541226E-07	201767.46875	2.58229283645051E-05
2	381	96.4574677564683	0.233001708984375	0.233001708984375	1.08673095703125E-06	2.53210146183847E-07	214406.078125	2.59332919085864E-05
2	382	96.558175756214	0.243072509765625	0.243072509765625	1.06964111328125E-06	2.60000319940445E-07	227246.8125	2.60418746620417E-05
2	383	96.6588837559598	0.253143310546875	0.253173828125	1.0546875E-06	2.6701926003625E-07	240046.3125	2.6148843971896E-05
2	384	96.7595917557055	0.263214111328125	0.26324462890625	1.04095458984375E-06	2.74025694579905E-07	252887.734375	2.62543671851745E-05
2	385	96.8602997554513	0.273284912109375	0.2733154296875	1.02813720703125E-06	2.81005753777208E-07	265835.5625	2.63585534412414E-05
2	386	96.961007755197	0.283355712890625	0.283416748046875	1.016845703125E-06	2.88191102981727E-07	278721.5	2.64615264313761E-05
2	387	97.0617157549427	0.293426513671875	0.293426513671875	1.0076904296875E-06	2.95683094009291E-07	291187.15625	2.65634698735084E-05
2	388	97.1624237546885	0.303497314453125	0.303497314453125	9.9822998046875E-07	3.02960131648433E-07	304035.46875	2.66644765360979E-05
2	389	97.2631317544342	0.313568115234375	0.313507080078125	9.9029541015625E-07	3.10464599806437E-07	316579.375	2.67646064457949E-05
2	390	97.3638397541799	0.323638916015625	0.32366943359375	9.8297119140625E-07	3.1815773127164E-07	329276.625	2.68639687419636E-05
2	391	97.4645477539257	0.333709716796875	0.333740234375	9.7625732421875E-07	3.25816330359885E-07	341856.84375	2.69626234512543E-05
2	392	97.5652557536714	0.343780517578125	0.34381103515625	9.70458984375E-07	3.33654497808311E-07	354276.75	2.70606487902114E-05
2	393	97.6659637534171	0.353851318359375	0.3538818359375	9.64965820312499E-07	3.41483882948523E-07	366729.9375	2.71581047854852E-05
2	394	97.7666717531629	0.363922119140625	0.363983154296875	9.60693359375001E-07	3.49676184896452E-07	378875.46875	2.725506965362E-05
2	395	97.8673797529086	0.373992919921875	0.3740234375	9.57336425781249E-07	3.58066245098598E-07	390691.75	2.73516507149907E-05
2	396	97.9680877526544	0.384063720703125	0.384063720703125	9.539794921875E-07	3.66388889005975E-07	402591.1875	2.74478934443323E-05
2	397	98.0687957524001	0.394134521484375	0.394134521484375	9.5062255859375E-07	3.74673135183912E-07	414606.75	2.75437978416448E-05
2	398	98.1695037521458	0.404205322265625	0.404205322265625	9.48486328125001E-07	3.83383223834244E-07	426158.3125	2.76394239335787E-05
2	399	98.2702117518916	0.414276123046875	0.414276123046875	9.47265625E-07	3.92429541307138E-07	437338.90625	2.77348826784873E-05
2	400	98.3709197516373	0.424346923828125	0.424407958984375	9.4512939453125E-07	4.01120445303604E-07	449047.46875	2.78301722573815E-05
2	401	98.471627751383	0.434417724609375	0.434417724609375	9.442138671875E-07	4.10183247367968E-07	460084.03125	2.79253090411657E-05
2	402	98.5723357511288	0.444488525390625	0.44451904296875	9.4268798828125E-07	4.19042748944776E-07	471544.1875	2.80203221336706E-05
2	403	98.6730437508745	0.454559326171875	0.454559326171875	9.4207763671875E-07	4.28230180204991E-07	482507.28125	2.81152279058006E-05
2	404	98.7737517506202	0.464630126953125	0.464599609375	9.417724609375E-07	4.37547100773372E-07	493324.6875	2.82100863842061E-05
2	405	98.874459750366	0.474700927734375	0.47467041015625	9.42382812500001E-07	4.4732121295965E-07	503691.71875	2.83049612335162E-05
2	406	98.9751677501117	0.484771728515625	0.4847412109375	9.4268798828125E-07	4.56959696748527E-07	514211.71875	2.83998833765509E-05
2	407	99.0758757498575	0.494842529296875	0.49481201171875	9.4329833984375E-07	4.66755324168844E-07	524555.1875	2.84948491753312E-05
2	408	99.1765837496032	0.504913330078125	0.5048828125	9.4451904296875E-07	4.76871434784698E-07	534539.625	2.85899095615605E-05
2	409	99.2772917493489	0.514984130859375	0.515045166015625	9.46044921875E-07	4.87255874759285E-07	544419.375	2.86851063719951E-05
2	410	99.3779997490947	0.525054931640625	0.525054931640625	9.48181152343749E-07	4.97847167935106E-07	553749.625	2.87804887193488E-05
2	411	99.4787077488404	0.535125732421875	0.535125732421875	9.4970703125E-07	5.08212622207793E-07	563464.0625	2.88760547846323E-05
2	412	99.5794157485861	0.545196533203125	0.545074462890625	9.521484375E-07	5.18991782882949E-07	572467.9375	2.89718209387502E-05
2	413	99.6801237483319	0.555267333984375	0.555206298828125	9.54589843750001E-07	5.2999428135081E-07	581617.625	2.90678326564375E-05
2	414	99.7808317480776	0.565338134765625	0.5653076171875	9.58251953125E-07	5.41707095180755E-07	589936.3125	2.91641517833341E-05
2	415	99.8815397478234	0.575408935546875	0.575347900390625	9.613037109375E-07	5.5308407809207E-07	598507.9375	2.92608092422597E-05
2	416	99.9822477475691	0.585479736328125	0.58544921875	9.64965820312499E-07	5.64938488878397E-07	606704.625	2.93578050332144E-05
2	417	100.082955747315	0.595550537109375	0.59552001953125	9.6954345703125E-07	5.77382536448567E-07	614227.3125	2.94552137347637E-05
2	418	100.183663747061	0.605621337890625	0.605560302734375	9.7320556640625E-07	5.89334604228497E-07	622232.75	2.95530389848864E-05
2	419	100.284371746806	0.615692138671875	0.6156005859375	9.77478027343751E-07	6.01736019234522E-07	629784.625	2.96512644126778E-05
2	420	100.385079746552	0.625762939453125	0.62567138671875	9.82666015625E-07	6.14825978573208E-07	636708.125	2.97499645967036E-05
2	421	100.485787746298	0.635833740234375	0.635772705078125	9.87548828125E-07	6.27856536539184E-07	643788.625	2.98491740977624E-05
2	422	100.586495746044	0.645904541015625	0.64593505859375	9.92431640625E-07	6.41046369764808E-07	650861	2.99488729069708E-05
2	423	100.687203745789	0.655975341796875	0.655975341796875	9.9700927734375E-07	6.54013490475336E-07	657943.0625	3.00490501103923E-05
2	424	100.787911745535	0.666046142578125	0.666015625	1.002197265625E-06	6.67479014282435E-07	664555.4375	3.01497184409527E-05
2	425	100.888619745281	0.676116943359375	0.676055908203125	1.00738525390625E-06	6.81048732076306E-07	671099.6875	3.0250908821472E-05
2	426	100.989327745026	0.686187744140625	0.686187744140625	1.0125732421875E-06	6.94815298629692E-07	677667.3125	3.035262125195E-05
2	427	101.090035744772	0.696258544921875	0.696197509765625	1.0174560546875E-06	7.08350341938058E-07	684253.1875	3.04548411804717E-05
2	428	101.190743744518	0.706329345703125	0.706329345703125	1.02264404296875E-06	7.22323477475584E-07	690689.375	3.05575704260264E-05
2	429	101.291451744264	0.716400146484375	0.716400146484375	1.02783203125E-06	7.3633901820358E-07	697001.1875	3.06608199025504E-05
2	430	101.392159744009	0.726470947265625	0.7264404296875	1.0333251953125E-06	7.50649178371532E-07	703012.4375	3.07646041619591E-05
2	431	101.492867743755	0.736541748046875	0.736480712890625	1.03851318359375E-06	7.64844855893898E-07	709168.4375	3.08689304802101E-05
2	432	101.593575743501	0.746612548828125	0.74658203125	1.044921875E-06	7.80119876253593E-07	714486	3.09738388750702E-05
2	433	101.694283743247	0.756683349609375	0.7568359375	1.051025390625E-06	7.95453786395228E-07	720092.9375	3.10793802782428E-05
2	434	101.794991742992	0.766754150390625	0.7666015625	1.058349609375E-06	8.11332427019806E-07	724336.8125	3.11855947074946E-05
2	435	101.895699742738	0.776824951171875	0.7769775390625	1.06658935546875E-06	8.28715940315305E-07	728469.25	3.12925949401688E-05
2	436	101.996407742484	0.786895751953125	0.7867431640625	1.07574462890625E-06	8.4633472852147E-07	731347.5	3.14004682877567E-05
2	437	102.09711574223	0.796966552734375	0.79681396484375	1.08489990234375E-06	8.64463345351396E-07	734458.5625	3.15092656819616E-05
2	438	102.197823741975	0.807037353515625	0.806884765625	1.09649658203125E-06	8.84746384599566E-07	735875.3125	3.16191071760841E-05
2	439	102.298531741721	0.817108154296875	0.8172607421875	1.1077880859375E-06	9.05351726032677E-07	737741.0625	3.17301019094884E-05
2	440	102.399239741467	0.827178955078125	0.82733154296875	1.11968994140625E-06	9.26354800867557E-07	738893.4375	3.18422644340899E-05
2	441	102.499947741213	0.837249755859375	0.83709716796875	1.131591796875E-06	9.47252203786775E-07	739751.9375	3.19556274916977E-05
2	442	102.600655740958	0.847320556640625	0.8477783203125	1.142578125E-06	9.68652898336586E-07	741987.1875	3.20701401506085E-05
2	443	102.701363740704	0.857391357421875	0.8575439453125	1.1517333984375E-06	9.87662019724667E-07	744568.125	3.21856678056065E-05
2	444	102.80207174045	0.867462158203125	0.86700439453125	1.15997314453125E-06	1.00570173344749E-06	747434.9375	3.2302072213497E-05
2	445	102.902779740195	0.877532958984375	0.87799072265625	1.1663818359375E-06	1.02407238955493E-06	752747.25	3.24192114931066E-05
2	446	103.003487739941	0.887603759765625	0.887451171875	1.1712646484375E-06	1.03944023521763E-06	757686.25	3.25369219353888E-05
2	447	103.104195739687	0.897674560546875	0.89752197265625	1.17462158203125E-06	1.05424862795189E-06	764094.625	3.26550471072551E-05
2	448	103.204903739433	0.907745361328125	0.908203125	1.177978515625E-06	1.06984373360319E-06	770984.5	3.27735106111504E-05
2	449	103.305611739178	0.917816162109375	0.91766357421875	1.18133544921875E-06	1.0840684581126E-06	776801.875	3.28923124470748E-05
2	450	103.406319738924	0.927886962890625	0.927734375	1.18438720703125E-06	1.09879670162627E-06	783303.25	3.30114344251342E-05
2	451	103.50702773867	0.937957763671875	0.93780517578125	1.18743896484375E-06	1.11358633603231E-06	789771.3125	3.31308656313922E-05
2	452	103.607735738416	0.948028564453125	0.94818115234375	1.19140625E-06	1.12966893084376E-06	795850.4375	3.32506497215945E-05
2	453	103.708443738161	0.958099365234375	0.95794677734375	1.195068359375E-06	1.14481179025461E-06	801583.3125	3.33708194375504E-05
2	454	103.809151737907	0.968170166015625	0.9686279296875	1.19903564453125E-06	1.16141939088266E-06	807839.125	3.3491371141281E-05
2	455	103.909859737653	0.978240966796875	0.97808837890625	1.20361328125E-06	1.17724016490683E-06	812626.8125	3.36123557644896E-05
2	456	104.010567737399	0.988311767578125	0.98876953125	1.20849609375E-06	1.19492415251443E-06	818181.8125	3.37338133249432E-05
2	457	104.111275737144	0.998382568359375	0.99853515625	1.21337890625E-06	1.211601443174E-06	822937.6875	3.38557656505145E-05
2	458	104.21198373689	1.00845336914063	1.00860595703125	1.21795654296875E-06	1.2284382364669E-06	828113.25	3.39781909133308E-05
2	459	104.312691736636	1.01852416992188	1.0186767578125	1.2225341796875E-06	1.24536711609835E-06	833250.125	3.41010818374343E-05
2	460	104.413399736382	1.02859497070313	1.02813720703125	1.226806640625E-06	1.26132556488301E-06	838059.75	3.42244165949523E-05
2	461	104.514107736127	1.03866577148438	1.03851318359375	1.23077392578125E-06	1.27817497741489E-06	843788.75	3.43481624440756E-05
2	462	104.614815735873	1.04873657226563	1.048583984375	1.2335205078125E-06	1.29344982724433E-06	850074.25	3.44722502632067E-05
2	463	104.715523735619	1.05880737304688	1.05865478515625	1.236572265625E-06	1.30910302686971E-06	856120.5	3.45966291206423E-05
2	464	104.816231735364	1.06887817382813	1.0687255859375	1.23992919921875E-06	1.32514401229855E-06	861924.75	3.47213317581918E-05
2	465	104.91693973511	1.07894897460938	1.07879638671875	1.24298095703125E-06	1.3409234043138E-06	867910.625	3.48463545378763E-05
2	466	105.017647734856	1.08901977539063	1.0888671875	1.24542236328125E-06	1.35609957396809E-06	874295.5	3.4971657441929E-05
2	467	105.118355734602	1.09909057617188	1.09893798828125	1.2481689453125E-06	1.37166023250757E-06	880440.125	3.50972186424769E-05
2	468	105.219063734347	1.10916137695313	1.1090087890625	1.251220703125E-06	1.3876147022529E-06	886341.5	3.52230745193083E-05
2	469	105.319771734093	1.11923217773438	1.11907958984375	1.25396728515625E-06	1.40328916131693E-06	892431.25	3.53492214344442E-05
2	470	105.420479733839	1.12930297851563	1.129150390625	1.25732421875E-06	1.4197081554812E-06	898058.25	3.54756739397999E-05
2	471	105.521187733585	1.13937377929688	1.138916015625	1.26129150390625E-06	1.43650504469406E-06	902976.0625	3.56024975189939E-05
2	472	105.62189573333	1.14944458007813	1.1492919921875	1.2652587890625E-06	1.45415174301888E-06	908345.375	3.57297176378779E-05
2	473	105.722603733076	1.15951538085938	1.1590576171875	1.26953125E-06	1.47145988194097E-06	912980.75	3.58573561243247E-05
2	474	105.823311732822	1.16958618164063	1.17034912109375	1.27471923828125E-06	1.49186655562517E-06	918123.0625	3.59854675480165E-05
2	475	105.924019732568	1.17965698242188	1.17950439453125	1.280517578125E-06	1.51037602336146E-06	921115.4375	3.61141355824657E-05
2	476	106.024727732313	1.18972778320313	1.18988037109375	1.28631591796875E-06	1.53056203089363E-06	925029.6875	3.6243385693524E-05
2	477	106.125435732059	1.19979858398438	1.19964599609375	1.29302978515625E-06	1.55117800204607E-06	927779.125	3.6373265174916E-05
2	478	106.226143731805	1.20986938476563	1.21002197265625	1.3006591796875E-06	1.57382612542278E-06	930314.4375	3.65038686140906E-05
2	479	106.326851731551	1.21994018554688	1.2200927734375	1.30889892578125E-06	1.59697799517744E-06	932152.0625	3.6635268770624E-05
2	480	106.427559731296	1.23001098632813	1.2298583984375	1.31744384765625E-06	1.62026924499514E-06	933518.6875	3.67675165762194E-05
2	481	106.528267731042	1.24008178710938	1.2408447265625	1.32781982421875E-06	1.64761809173797E-06	934497.875	3.69007175322622E-05
2	482	106.628975730788	1.25015258789063	1.24969482421875	1.33819580078125E-06	1.67233622505591E-06	933865.5	3.70349589502439E-05
2	483	106.729683730533	1.26022338867188	1.26068115234375	1.3494873046875E-06	1.70127327692171E-06	934192.6875	3.71702953998465E-05
2	484	106.830391730279	1.27029418945313	1.26983642578125	1.36199951171875E-06	1.72951649801689E-06	932332.5625	3.73068287444767E-05
2	485	106.931099730025	1.28036499023438	1.280517578125	1.37542724609375E-06	1.76125877260347E-06	930996.25	3.74446717614774E-05
2	486	107.031807729771	1.29043579101563	1.29058837890625	1.390380859375E-06	1.7944092860489E-06	928226.5625	3.75839408661705E-05
2	487	107.132515729516	1.30050659179688	1.30035400390625	1.40625E-06	1.82862288511387E-06	924696.1875	3.77247597498354E-05
2	488	107.233223729262	1.31057739257813	1.31072998046875	1.4227294921875E-06	1.86481418040785E-06	921278.4375	3.78672120859846E-05
2	489	107.333931729008	1.32064819335938	1.3201904296875	1.44012451171875E-06	1.90123853371915E-06	916719.625	3.80113669962157E-05
2	490	107.434639728754	1.33071899414063	1.33056640625	1.45843505859375E-06	1.94054473467986E-06	912324.8125	3.81573227059562E-05
2	491	107.535347728499	1.34078979492188	1.34063720703125	1.4776611328125E-06	1.98100747184071E-06	907269.75	3.83051665266976E-05
2	492	107.636055728245	1.35086059570313	1.35040283203125	1.49627685546875E-06	2.0205764030834E-06	902508.6875	3.84549166483339E-05
2	493	107.736763727991	1.36093139648438	1.36077880859375	1.51611328125E-06	2.06309482564393E-06	897544.3125	3.86066021746956E-05
2	494	107.837471727737	1.37100219726563	1.3714599609375	1.53594970703125E-06	2.1064934117021E-06	892906.875	3.87602849514224E-05
2	495	107.938179727482	1.38107299804688	1.3812255859375	1.5582275390625E-06	2.15226373256883E-06	886408.1875	3.89160886697937E-05
2	496	108.038887727228	1.39114379882813	1.3909912109375	1.58233642578125E-06	2.20101605918899E-06	879074.25	3.90742279705591E-05
2	497	108.139595726974	1.40121459960938	1.40106201171875	1.611328125E-06	2.25757071348198E-06	869507.5625	3.92350448237266E-05
2	498	108.24030372672	1.41128540039063	1.4111328125	1.64459228515625E-06	2.32073807637789E-06	858044.1875	3.93989903386682E-05
2	499	108.341011726465	1.42135620117188	1.4215087890625	1.6839599609375E-06	2.39376390709367E-06	844146.4375	3.95665992982686E-05
2	500	108.441719726211	1.43142700195313	1.43157958984375	1.73065185546875E-06	2.47756565840973E-06	827191	3.97385374526493E-05
2	501	108.542427725957	1.44149780273438	1.4410400390625	1.78436279296875E-06	2.57133820014133E-06	807593.625	3.9915532397572E-05
2	502	108.643135725702	1.45156860351563	1.4520263671875	1.846923828125E-06	2.6817820071301E-06	786186.4375	4.00983808503952E-05
2	503	108.743843725448	1.46163940429688	1.46148681640625	1.917724609375E-06	2.80272911368229E-06	762094.1875	4.02879486500751E-05
2	504	108.844551725194	1.47171020507813	1.47125244140625	1.99920654296875E-06	2.94133747047454E-06	735918.1875	4.04851816711016E-05
2	505	108.94525972494	1.48178100585938	1.48162841796875	2.08984375E-06	3.09637198370183E-06	708966.125	4.06910803576466E-05
2	506	109.045967724685	1.49185180664063	1.49169921875	2.1868896484375E-06	3.2621815080347E-06	682110	4.09064305131324E-05
2	507	109.146675724431	1.50192260742188	1.5020751953125	2.2857666015625E-06	3.4333934308961E-06	657142.875	4.1131646867143E-05
2	508	109.247383724177	1.49185180664063	1.49169921875	1.9921875E-06	2.97174437946524E-06	748774.5625	4.13470588682685E-05
2	509	109.348091723923	1.48178100585938	1.48223876953125	1.7803955078125E-06	2.63897118202294E-06	832533.4375	4.15370232076384E-05
2	510	109.448799723668	1.47171020507813	1.4715576171875	1.61376953125E-06	2.37475478570559E-06	911875.9375	4.17079354519956E-05
2	511	109.549507723414	1.46163940429688	1.4617919921875	1.47857666015625E-06	2.16137163988606E-06	988648.0625	4.18636445829179E-05
2	512	109.65021572316	1.45156860351563	1.45172119140625	1.36627197265625E-06	1.98344582713617E-06	1062541.875	4.2006893636426E-05
2	513	109.750923722906	1.44149780273438	1.441650390625	1.27227783203125E-06	1.83417978405487E-06	1133125.5	4.21397562604398E-05
2	514	109.851631722651	1.43142700195313	1.43157958984375	1.19384765625E-06	1.70908788277302E-06	1199130.875	4.2263935029041E-05
2	515	109.952339722397	1.42135620117188	1.42120361328125	1.1273193359375E-06	1.60215017785958E-06	1260693.125	4.23808160121553E-05
2	516	110.053047722143	1.41128540039063	1.41143798828125	1.07177734375E-06	1.51274718973582E-06	1316913.5	4.24915488110855E-05
2	517	110.153755721889	1.40121459960938	1.40106201171875	1.02447509765625E-06	1.43535305596743E-06	1367590.125	4.25971047661733E-05
2	518	110.254463721634	1.39114379882813	1.3916015625	9.8480224609375E-07	1.37045230985677E-06	1413077.25	4.26982805947773E-05
2	519	110.35517172138	1.38107299804688	1.38153076171875	9.51232910156249E-07	1.31415754367481E-06	1452358.125	4.2795767512871E-05
2	520	110.455879721126	1.37100219726563	1.370849609375	9.2315673828125E-07	1.26550901313749E-06	1484958.625	4.28901475970633E-05
2	521	110.556587720871	1.36093139648438	1.361083984375	8.978271484375E-07	1.22201811336708E-06	1515975.5	4.29818428528961E-05
2	522	110.657295720617	1.35086059570313	1.3507080078125	8.76464843749999E-07	1.18384798497573E-06	1541086.375	4.30711843364406E-05
2	523	110.758003720363	1.34078979492188	1.34033203125	8.575439453125E-07	1.14939359718846E-06	1562989.375	4.31584994657896E-05
2	524	110.858711720109	1.33071899414063	1.33087158203125	8.404541015625E-07	1.11853648832039E-06	1583514.875	4.32440028816927E-05
2	525	110.959419719854	1.32064819335938	1.32110595703125	8.251953125E-07	1.09017037175363E-06	1600961.625	4.33278728451114E-05
2	526	111.0601277196	1.31057739257813	1.3104248046875	8.1024169921875E-07	1.06176071312802E-06	1617325.875	4.34102257713675E-05
2	527	111.160835719346	1.30050659179688	1.3006591796875	7.9803466796875E-07	1.03797106021375E-06	1629828	4.34912071796134E-05
2	528	111.261543719092	1.29043579101563	1.290283203125	7.855224609375E-07	1.0135464663108E-06	1642579.625	4.35709443991072E-05
2	529	111.362251718837	1.28036499023438	1.28082275390625	7.74230957031249E-07	9.91652655102371E-07	1654316.125	4.36494847235736E-05
2	530	111.462959718583	1.27029418945313	1.2701416015625	7.6324462890625E-07	9.69428697317198E-07	1664134.375	4.37269045505673E-05
2	531	111.563667718329	1.26022338867188	1.26007080078125	7.5225830078125E-07	9.47898740832898E-07	1675050.75	4.38032147940248E-05
2	532	111.664375718075	1.25015258789063	1.25	7.421875E-07	9.2773433379989E-07	1684210.625	4.38784663856495E-05
2	533	111.76508371782	1.24008178710938	1.2396240234375	7.3272705078125E-07	9.08305992197711E-07	1691795.125	4.39527357229963E-05
2	534	111.865791717566	1.23001098632813	1.23016357421875	7.220458984375E-07	8.88234524154541E-07	1703719.5	4.40259864262771E-05
2	535	111.966499717312	1.21994018554688	1.2200927734375	7.1319580078125E-07	8.70165024480229E-07	1710740.25	4.40982585132588E-05
2	536	112.067207717057	1.20986938476563	1.20941162109375	7.02819824218751E-07	8.49998457397305E-07	1720799	4.4169559259899E-05
2	537	112.167915716803	1.19979858398438	1.1993408203125	6.93359374999999E-07	8.31574197945883E-07	1729753.5	4.4239863200346E-05
2	538	112.268623716549	1.18972778320313	1.1895751953125	6.8328857421875E-07	8.12823088836012E-07	1740955.875	4.43091812485363E-05
2	539	112.369331716295	1.17965698242188	1.1798095703125	6.73828125000001E-07	7.94988807228947E-07	1750905.875	4.43775206804276E-05
2	540	112.47003971604	1.16958618164063	1.1700439453125	6.6375732421875E-07	7.7662519970545E-07	1762758.625	4.44448705820832E-05
2	541	112.570747715786	1.15951538085938	1.15966796875	6.53991699218751E-07	7.58413193580054E-07	1773215.25	4.45112273155246E-05
2	542	112.671455715532	1.14944458007813	1.14898681640625	6.439208984375E-07	7.39856602649525E-07	1784360.25	4.45765799668152E-05
2	543	112.772163715278	1.13937377929688	1.13922119140625	6.33850097656249E-07	7.22095478522533E-07	1797303.75	4.46409212599974E-05
2	544	112.872871715023	1.12930297851563	1.129150390625	6.23474121093751E-07	7.03996022366482E-07	1811062.25	4.47042330051772E-05
2	545	112.973579714769	1.11923217773438	1.119384765625	6.134033203125E-07	6.86634336943825E-07	1824875.625	4.47665152023546E-05
2	546	113.074287714515	1.10916137695313	1.10931396484375	6.03332519531249E-07	6.69285213916737E-07	1838644.375	4.48277824034449E-05
2	547	113.174995714261	1.09909057617188	1.09893798828125	5.92956542968751E-07	6.51622485747794E-07	1853319.625	4.48880200565327E-05
2	548	113.275703714006	1.08901977539063	1.08917236328125	5.816650390625E-07	6.33533431937394E-07	1872508	4.49471663159784E-05
2	549	113.376411713752	1.07894897460938	1.07940673828125	5.7098388671875E-07	6.16323859503609E-07	1890432.875	4.50052066298667E-05
2	550	113.477119713498	1.06887817382813	1.0693359375	5.596923828125E-07	5.98499127590912E-07	1910578.125	4.50621409981977E-05
2	551	113.577827713244	1.05880737304688	1.058349609375	5.4931640625E-07	5.81368794883019E-07	1926666.75	4.51179839728866E-05
2	552	113.678535712989	1.04873657226563	1.04888916015625	5.37719726562499E-07	5.64008360015578E-07	1950624.375	4.51727210020181E-05
2	553	113.779243712735	1.03866577148438	1.038818359375	5.2642822265625E-07	5.468633048622E-07	1973333.375	4.52263047918677E-05
2	554	113.879951712481	1.02859497070313	1.0284423828125	5.145263671875E-07	5.29160672613216E-07	1998813.875	4.52787207905203E-05
2	555	113.980659712226	1.01852416992188	1.0186767578125	5.02929687500001E-07	5.12322742451943E-07	2025485.625	4.53299544460606E-05
2	556	114.081367711972	1.00845336914063	1.00830078125	4.9163818359375E-07	4.95719120863214E-07	2050900.125	4.5380034862319E-05
2	557	114.182075711718	0.998382568359375	0.99884033203125	4.8095703125E-07	4.80399251046038E-07	2076776.75	4.54290093330201E-05
2	558	114.282783711464	0.988311767578125	0.9881591796875	4.69360351562501E-07	4.63802734884666E-07	2105331.75	4.54768633062486E-05
2	559	114.383491711209	0.978240966796875	0.9783935546875	4.58679199218751E-07	4.4876875904265E-07	2133067.25	4.55235931440257E-05
2	560	114.484199710955	0.968170166015625	0.968017578125	4.486083984375E-07	4.34260783777063E-07	2157823.25	4.55692788818851E-05
2	561	114.584907710701	0.958099365234375	0.958251953125	4.38842773437501E-07	4.20521928390372E-07	2183588.5	4.56139641755726E-05
2	562	114.685615710447	0.948028564453125	0.9478759765625	4.302978515625E-07	4.07868981255888E-07	2202837	4.56577290606219E-05
2	563	114.786323710192	0.937957763671875	0.93841552734375	4.21142578125E-07	3.9520674022242E-07	2228261	4.57006026408635E-05
2	564	114.887031709938	0.927886962890625	0.927734375	4.12597656249999E-07	3.82781024654832E-07	2248520.75	4.57425849162973E-05
2	565	114.987739709684	0.917816162109375	0.9173583984375	4.0283203125E-07	3.69541339750867E-07	2277272.75	4.57836431451142E-05
2	566	115.08844770943	0.907745361328125	0.90789794921875	3.9337158203125E-07	3.57141260565186E-07	2307990.75	4.58237373095471E-05
2	567	115.189155709175	0.897674560546875	0.89752197265625	3.83911132812501E-07	3.44568661603262E-07	2337837.75	4.58628746855538E-05
2	568	115.289863708921	0.887603759765625	0.887451171875	3.72924804687499E-07	3.309525595796E-07	2379705.5	4.59009861515369E-05
2	569	115.390571708667	0.877532958984375	0.877685546875	3.6163330078125E-07	3.1740029271532E-07	2427004.25	4.59379734820686E-05
2	570	115.491279708413	0.867462158203125	0.86700439453125	3.50341796875001E-07	3.03747867747006E-07	2474738.75	4.59738257632125E-05
2	571	115.591987708158	0.857391357421875	0.8575439453125	3.37829589843749E-07	2.89703706357614E-07	2538392	4.60084775113501E-05
2	572	115.692695707904	0.847320556640625	0.848388671875	3.2501220703125E-07	2.75736653065906E-07	2610328.75	4.60418523289263E-05
2	573	115.79340370765	0.837249755859375	0.83770751953125	3.125E-07	2.61783583255237E-07	2680664.25	4.60739538539201E-05
2	574	115.894111707395	0.827178955078125	0.82794189453125	3.01208496093749E-07	2.49383134587333E-07	2748733.5	4.61048584838863E-05
2	575	115.994819707141	0.817108154296875	0.81695556640625	2.899169921875E-07	2.36849288626217E-07	2817894.75	4.6134624426486E-05
2	576	116.095527706887	0.807037353515625	0.8074951171875	2.80151367187501E-07	2.26220862487025E-07	2882353	4.61633280792739E-05
2	577	116.196235706633	0.796966552734375	0.797119140625	2.70690917968749E-07	2.15772914202716E-07	2944757.5	4.61910640296992E-05
2	578	116.296943706378	0.786895751953125	0.78704833984375	2.6275634765625E-07	2.06801942681523E-07	2995354.25	4.62179268652108E-05
2	579	116.397651706124	0.776824951171875	0.7769775390625	2.55737304687501E-07	1.9870212497608E-07	3038186.25	4.62440330011304E-05
2	580	116.49835970587	0.766754150390625	0.76690673828125	2.49328613281249E-07	1.91211782407663E-07	3075887.75	4.62694661109708E-05
2	581	116.599067705616	0.756683349609375	0.7568359375	2.42919921875E-07	1.83850531243479E-07	3115577.75	4.62942552985623E-05
2	582	116.699775705361	0.746612548828125	0.746551513671875	2.3773193359375E-07	1.77479122953628E-07	3140308.25	4.63184551335871E-05
2	583	116.800483705107	0.736541748046875	0.736480712890625	2.32543945312499E-07	1.71264133541627E-07	3167060.5	4.63421383756213E-05
2	584	116.901191704853	0.726470947265625	0.7264404296875	2.27966308593749E-07	1.65603935897707E-07	3186613.25	4.63653268525377E-05
2	585	117.001899704599	0.716400146484375	0.71630859375	2.2430419921875E-07	1.60671021376402E-07	3193469.5	4.63880969618913E-05
2	586	117.102607704344	0.706329345703125	0.706298828125	2.197265625E-07	1.55192608985999E-07	3214444.5	4.64104559796397E-05
2	587	117.20331570409	0.696258544921875	0.696136474609375	2.1636962890625E-07	1.50622796013522E-07	3217348.5	4.64324184576981E-05
2	588	117.304023703836	0.686187744140625	0.686126708984375	2.13012695312501E-07	1.46153695368412E-07	3221060.25	4.64540389657486E-05
2	589	117.404731703582	0.676116943359375	0.676055908203125	2.1026611328125E-07	1.42151648674371E-07	3215239.5	4.64753502456006E-05
2	590	117.505439703327	0.666046142578125	0.666015625	2.06909179687501E-07	1.37804747168957E-07	3218879	4.64963595732115E-05
2	591	117.606147703073	0.655975341796875	0.65594482421875	2.03857421875001E-07	1.33719211703465E-07	3217664.75	4.65170414827298E-05
2	592	117.706855702819	0.645904541015625	0.6458740234375	2.01416015625E-07	1.30089375716125E-07	3206666.75	4.65374505438376E-05
2	593	117.807563702564	0.635833740234375	0.635833740234375	1.9866943359375E-07	1.26320728099927E-07	3200461	4.65575940324925E-05
2	594	117.90827170231	0.625762939453125	0.625640869140625	1.96533203125E-07	1.2295919304961E-07	3183385.25	4.65774937765673E-05
2	595	118.008979702056	0.615692138671875	0.615631103515625	1.94702148437501E-07	1.19864694170246E-07	3161912.5	4.65971934318077E-05
2	596	118.109687701802	0.605621337890625	0.605621337890625	1.9256591796875E-07	1.16622018708767E-07	3145008	4.66166966361925E-05
2	597	118.210395701547	0.595550537109375	0.595550537109375	1.910400390625E-07	1.13773992893584E-07	3117412.25	4.66360106656794E-05
2	598	118.311103701293	0.585479736328125	0.58544921875	1.89208984375E-07	1.10772248262947E-07	3094193.75	4.66551573481411E-05
2	599	118.411811701039	0.575408935546875	0.57537841796875	1.88293457031249E-07	1.08339989424167E-07	3055753.75	4.66741657874081E-05
2	600	118.512519700785	0.565338134765625	0.56536865234375	1.8646240234375E-07	1.05419999840706E-07	3032078.5	4.66930396214593E-05
2	601	118.61322770053	0.555267333984375	0.555267333984375	1.85546875000001E-07	1.03028114040171E-07	2992598.75	4.6711771574337E-05
2	602	118.713935700276	0.545196533203125	0.545196533203125	1.84020996093751E-07	1.00327604002359E-07	2962686.75	4.67303798359353E-05
2	603	118.814643700022	0.535125732421875	0.535125732421875	1.8310546875E-07	9.79844472226432E-08	2922500	4.67488644062541E-05
2	604	118.915351699768	0.525054931640625	0.52508544921875	1.82189941406249E-07	9.56652854711137E-08	2882077.25	4.67672580271028E-05
2	605	119.016059699513	0.514984130859375	0.514923095703125	1.812744140625E-07	9.33423862647942E-08	2840572.25	4.67855606984813E-05
2	606	119.116767699259	0.504913330078125	0.504913330078125	1.7974853515625E-07	9.07574246866716E-08	2808998.5	4.68037396785803E-05
2	607	119.217475699005	0.494842529296875	0.49481201171875	1.79138183593749E-07	8.86397231170122E-08	2762180.5	4.68218131572939E-05
2	608	119.318183698751	0.484771728515625	0.484771728515625	1.77917480468751E-07	8.62493578779322E-08	2724700	4.68397920485586E-05
2	609	119.418891698496	0.474700927734375	0.4747314453125	1.7730712890625E-07	8.41732727963063E-08	2677452.75	4.68576763523743E-05
2	610	119.519599698242	0.464630126953125	0.46466064453125	1.7578125E-07	8.16786211998988E-08	2643403	4.68754587927833E-05
2	611	119.620307697988	0.454559326171875	0.454559326171875	1.74560546874999E-07	7.93481191863066E-08	2604021	4.68930993520189E-05
2	612	119.721015697733	0.444488525390625	0.44451904296875	1.73339843750001E-07	7.70528600924081E-08	2564436.75	4.69106162199751E-05
2	613	119.821723697479	0.434417724609375	0.43438720703125	1.71813964843751E-07	7.46337889268034E-08	2528241.5	4.69279948447365E-05
2	614	119.922431697225	0.424346923828125	0.424407958984375	1.7059326171875E-07	7.24011357533527E-08	2487835.5	4.69452388642821E-05
2	615	120.023139696971	0.414276123046875	0.414276123046875	1.690673828125E-07	7.00405777820379E-08	2450361	4.69623410026543E-05
2	616	120.123847696716	0.404205322265625	0.4041748046875	1.6815185546875E-07	6.7962744765282E-08	2403629.75	4.69793230877258E-05
2	617	120.224555696462	0.394134521484375	0.394134521484375	1.6632080078125E-07	6.5552768546695E-08	2369724.75	4.69961632916238E-05
2	618	120.325263696208	0.384063720703125	0.38409423828125	1.64794921875E-07	6.32967740443746E-08	2330741	4.70128361484967E-05
2	619	120.425971695954	0.373992919921875	0.374053955078125	1.6357421875E-07	6.11855810461748E-08	2286753.75	4.70293707621749E-05
2	620	120.526679695699	0.363922119140625	0.363861083984375	1.62353515624999E-07	5.90741251471627E-08	2241165.5	4.70457816845737E-05
2	621	120.627387695445	0.353851318359375	0.3538818359375	1.61132812500001E-07	5.70219711448772E-08	2196212.25	4.70620725536719E-05
2	622	120.728095695191	0.343780517578125	0.343780517578125	1.59301757812499E-07	5.47648362214659E-08	2158046	4.70782069896813E-05
2	623	120.828803694937	0.333709716796875	0.333740234375	1.58081054687501E-07	5.27580077402945E-08	2111197	4.70941886305809E-05
2	624	120.929511694682	0.323638916015625	0.323577880859375	1.568603515625E-07	5.07565403040644E-08	2062840.5	4.7110046580201E-05
2	625	121.030219694428	0.313568115234375	0.313568115234375	1.5533447265625E-07	4.8707935462744E-08	2018664.25	4.71257662866265E-05
2	626	121.130927694174	0.303497314453125	0.303436279296875	1.53503417968751E-07	4.65785028325172E-08	1976739.75	4.71413186460268E-05
2	627	121.23163569392	0.293426513671875	0.29339599609375	1.513671875E-07	4.44105268115891E-08	1938306.375	4.71566709165927E-05
2	628	121.332343693665	0.283355712890625	0.283355712890625	1.495361328125E-07	4.23719193065608E-08	1894897.875	4.71718230983242E-05
2	629	121.433051693411	0.273284912109375	0.2733154296875	1.4678955078125E-07	4.01198470001418E-08	1861954.375	4.71867424494121E-05
2	630	121.533759693157	0.263214111328125	0.26324462890625	1.4373779296875E-07	3.78382019050605E-08	1831422.5	4.72013707621954E-05
2	631	121.634467692902	0.253143310546875	0.25323486328125	1.40991210937499E-07	3.5703887846239E-08	1796104	4.72157080366742E-05
2	632	121.735175692648	0.243072509765625	0.243072509765625	1.38244628906251E-07	3.3603470228627E-08	1758278.125	4.72297688247636E-05
2	633	121.835883692394	0.233001708984375	0.233001708984375	1.3458251953125E-07	3.1357956231659E-08	1731292.5	4.7243509470718E-05
2	634	121.93659169214	0.222930908203125	0.22296142578125	1.3092041015625E-07	2.91902022553359E-08	1703030.25	4.7256879042834E-05
2	635	122.037299691885	0.212860107421875	0.21295166015625	1.26953125E-07	2.70348792241748E-08	1677403.875	4.72698629891966E-05
2	636	122.138007691631	0.202789306640625	0.202850341796875	1.2237548828125E-07	2.48239082623058E-08	1657606.125	4.72824176540598E-05
2	637	122.238715691377	0.192718505859375	0.192718505859375	1.171875E-07	2.25841993994891E-08	1644531.25	4.72944811917841E-05
2	638	122.339423691123	0.182647705078125	0.182647705078125	1.10778808593751E-07	2.02334948795624E-08	1648760.375	4.73059590149205E-05
2	639	122.440131690868	0.172576904296875	0.172637939453125	1.04675292968751E-07	1.80709260888534E-08	1649271.25	4.73168074677233E-05
2	640	122.540839690614	0.162506103515625	0.162506103515625	9.613037109375E-08	1.56217723201735E-08	1690476.25	4.7326921048807E-05
2	641	122.64154769036	0.152435302734375	0.1524658203125	8.544921875E-08	1.30280843890773E-08	1784285.75	4.73360632895492E-05
2	642	122.742255690106	0.142364501953125	0.14239501953125	7.23266601562494E-08	1.02989554662258E-08	1968776.5	4.73440086352639E-05
2	643	122.842963689851	0.132293701171875	0.13232421875	5.4931640625E-08	7.26878646162277E-09	2408889	4.73504151159432E-05
2	644	122.943671689597	0.122222900390625	0.12225341796875	3.0517578125E-08	3.73087782890025E-09	4006000.25	4.7354718844872E-05
2	645	123.044379689343	0.112152099609375	0.1121826171875	-2.13623046874945E-09	-2.39647912625429E-10	-52514288	4.73561485705432E-05
2	646	123.145087689089	0.102081298828125	0.10211181640625	-4.69970703125003E-08	-4.79895589933221E-09	-2172727.25	4.73536747449543E-05
2	647	123.245795688834	0.092010498046875	0.092010498046875	-1.0833740234375E-07	-9.96817828280427E-09	-849295.75	4.73458494525403E-05
2	648	123.34650368858	0.081939697265625	0.082000732421875	-1.9195556640625E-07	-1.57404969058916E-08	-427186	4.7330730012618E-05
2	649	123.447211688326	0.071868896484375	0.07196044921875	-3.06091308593751E-07	-2.20264677608384E-08	-235094.734375	4.73056534247007E-05
2	650	123.547919688071	0.061798095703125	0.061798095703125	-4.5440673828125E-07	-2.8081469594099E-08	-135997.3125	4.72673564217985E-05
2	651	123.648627687817	0.051727294921875	0.0517578125	-6.4361572265625E-07	-3.3312140601538E-08	-80417.265625	4.72120664198883E-05
2	652	123.749335687563	0.041656494140625	0.04171142578125	-8.70666503906251E-07	-3.63167416139731E-08	-47907.46875	4.71358180220705E-05
2	653	123.850043687309	0.031585693359375	0.031658935546875	-1.12884521484375E-06	-3.57380365301196E-08	-28045.419921875	4.70351333206054E-05
2	654	123.950751687054	0.021514892578125	0.0216064453125	-1.39678955078125E-06	-3.01796561075207E-08	-15468.6474609375	4.69079568574671E-05
2	655	124.0514596868	0.011444091796875	0.0115325927734375	-1.65191650390625E-06	-1.90508799846612E-08	-6981.34130859375	4.67544450657442E-05
2	656	124.152167686546	0.001373291015625	0.001495361328125	-1.8670654296875E-06	-2.791937347979E-09	-800.915344238281	4.65772500319872E-05
2	657	124.252875686292	-0.008697509765625	-0.00858154296874999	-2.021484375E-06	1.73474550280162E-08	4245.16943359375	4.63814430986531E-05
2	658	124.353583686037	-0.018768310546875	-0.01864013671875	-2.10784912109375E-06	3.92905938895183E-08	8843.203125	4.61735180579126E-05
2	659	124.454291685783	-0.028839111328125	-0.028704833984375	-2.1307373046875E-06	6.11624599855531E-08	13471.7841796875	4.59600851172581E-05
2	660	124.554999685529	-0.038909912109375	-0.038787841796875	-2.10235595703125E-06	8.15458491842946E-08	18449.703125	4.57469323009718E-05
2	661	124.655707685275	-0.048980712890625	-0.0488494873046875	-2.0440673828125E-06	9.98516327399557E-08	23898.1796875	4.5538145059254E-05
2	662	124.75641568502	-0.059051513671875	-0.05902099609375	-1.9677734375E-06	1.16139943884264E-07	29993.796875	4.5336131734075E-05
2	663	124.857123684766	-0.069122314453125	-0.06903076171875	-1.88568115234375E-06	1.30169993894924E-07	36607.8671875	4.514209649642E-05
2	664	124.957831684512	-0.079193115234375	-0.07916259765625	-1.80419921875E-06	1.42825101079325E-07	43876.859375	4.49562940048054E-05
2	665	125.058539684258	-0.089263916015625	-0.089141845703125	-1.72821044921875E-06	1.54055854295621E-07	51580.4375	4.47784259449691E-05
2	666	125.159247684003	-0.099334716796875	-0.0992431640625	-1.65863037109375E-06	1.64607726560462E-07	59834.40625	4.46078847744502E-05
2	667	125.259955683749	-0.109405517578125	-0.109344482421875	-1.5972900390625E-06	1.74654843476674E-07	68456.25	4.44439356215298E-05
2	668	125.360663683495	-0.119476318359375	-0.119354248046875	-1.54296875E-06	1.84159858918065E-07	77353.640625	4.42858108726796E-05
2	669	125.46137168324	-0.129547119140625	-0.12939453125	-1.495361328125E-06	1.93491572986204E-07	86530.6171875	4.41328193119261E-05
2	670	125.562079682986	-0.139617919921875	-0.139556884765625	-1.45416259765625E-06	2.02938394977537E-07	95970.625	4.39842988271266E-05
2	671	125.662787682732	-0.149688720703125	-0.1495361328125	-1.41815185546875E-06	2.12064932725298E-07	105444.375	4.38396637036931E-05
2	672	125.763495682478	-0.159759521484375	-0.159698486328125	-1.38763427734375E-06	2.21603087879885E-07	115086.875	4.36983827967197E-05
2	673	125.864203682223	-0.169830322265625	-0.169677734375	-1.36077880859375E-06	2.30893860475589E-07	124691.6328125	4.35599904449191E-05
2	674	125.964911681969	-0.179901123046875	-0.179718017578125	-1.339111328125E-06	2.40662444639383E-07	134206.921875	4.34240391768981E-05
2	675	126.065619681715	-0.189971923828125	-0.189788818359375	-1.3201904296875E-06	2.5055737751245E-07	143758.671875	4.32901324529666E-05
2	676	126.166327681461	-0.200042724609375	-0.199951171875	-1.3055419921875E-06	2.61044647231756E-07	153155.671875	4.31579173891805E-05
2	677	126.267035681206	-0.189971923828125	-0.189849853515625	-1.15447998046875E-06	2.19177849203334E-07	164446.21875	4.3034044210799E-05
