Potential - Start -0.2 V, Upper Vertex 1.5 V, Lower Vertex -0.2 V, Stop -0.19 V; Scan - # end cross 5, Rate 0.1 Vps, Step 0.01 V 
Scan	Index	Time (s)	Potential applied (V)	WE(1).Potential (V)	WE(1).Current (A)	WE(1).Power (W)	WE(1).Resistance (Ω)	WE(1).Charge (C)
1	1	65.8285738337988	-0.189971923828125	-0.189788818359375	-2.06298828125E-07	3.91532104515591E-08	919970.4375	0
1	2	65.9292818335446	-0.179901123046875	-0.1798095703125	-1.74865722656251E-07	3.14425285807829E-08	1028272.25	-1.91931590620698E-08
1	3	66.0299898332903	-0.169830322265625	-0.169677734375	-1.50451660156251E-07	2.55282959216174E-08	1127789.125	-3.5574188927967E-08
1	4	66.130697833036	-0.159759521484375	-0.15960693359375	-1.30310058593749E-07	2.07983887889895E-08	1224824.375	-4.97116658948471E-08
1	5	66.2314058327818	-0.149688720703125	-0.149627685546875	-1.116943359375E-07	1.67125637773324E-08	1339617.5	-6.18975519728338E-08
1	6	66.3321138325275	-0.139617919921875	-0.139556884765625	-9.42993164062503E-08	1.31601192165931E-08	1479935.25	-7.22701614108701E-08
1	7	66.4328218322732	-0.129547119140625	-0.129425048828125	-7.87353515625006E-08	1.0190325916426E-08	1643798.5	-8.09831490755641E-08
1	8	66.533529832019	-0.119476318359375	-0.119354248046875	-6.28662109374997E-08	7.50334905319505E-09	1898543.875	-8.81133530583611E-08
1	9	66.6342378317647	-0.109405517578125	-0.109283447265625	-4.60815429687497E-08	5.03594987932843E-09	2371523.25	-9.35993043071903E-08
1	10	66.7349458315105	-0.099334716796875	-0.099273681640625	-2.80761718749994E-08	2.78722489532868E-09	3535869.75	-9.73334408627125E-08
1	11	66.8356538312562	-0.089263916015625	-0.08917236328125	-8.54492187500056E-09	7.61970875284845E-10	10435714	-9.91774626868391E-08
1	12	66.9363618310019	-0.079193115234375	-0.0791015625	1.52587890625E-08	-1.20699394923207E-09	-5184000.5	-9.88393935585918E-08
1	13	67.0370698307477	-0.069122314453125	-0.069061279296875	4.36401367187506E-08	-3.01384361911516E-09	-1582517.5	-9.58735952849565E-08
1	14	67.1377778304934	-0.059051513671875	-0.058990478515625	8.11767578124997E-08	-4.78865569419895E-09	-726691.75	-8.95885676754915E-08
1	15	67.2384858302391	-0.048980712890625	-0.048828125	1.2969970703125E-07	-6.33299324093173E-09	-376470.59375	-7.89700891346001E-08
1	16	67.3391938299849	-0.038909912109375	-0.0387939453125	1.953125E-07	-7.57694174069456E-09	-198625	-6.26044283080773E-08
1	17	67.4399018297306	-0.028839111328125	-0.028729248046875	2.838134765625E-07	-8.15374789908674E-09	-101225.8125	-3.84785181495317E-08
1	18	67.5406098294764	-0.018768310546875	-0.01865234375	4.0008544921875E-07	-7.46253103756089E-09	-46620.90234375	-4.04147293409096E-09
1	19	67.6413178292221	-0.008697509765625	-0.00859985351562501	5.5084228515625E-07	-4.73716266213842E-09	-15612.1875	4.38415419523608E-08
1	20	67.7420258289678	0.001373291015625	0.0014678955078125	7.3822021484375E-07	1.08363007456092E-09	1988.42492675781	1.0875099576424E-07
1	21	67.8427338287136	0.011444091796875	0.0115203857421875	9.57641601562501E-07	1.10323998825379E-08	12029.9560546875	1.9414441965182E-07
1	22	67.9434418284593	0.021514892578125	0.0216278076171875	1.19873046875E-06	2.59259103074783E-08	18042.26171875	3.02726363088368E-07
1	23	68.044149828205	0.031585693359375	0.0316925048828125	1.44073486328125E-06	4.56604958287699E-08	21997.45703125	4.35634007089902E-07
1	24	68.1448578279508	0.041656494140625	0.041754150390625	1.65924072265625E-06	6.92801833679368E-08	25164.61328125	5.91730156429549E-07
1	25	68.2455658276965	0.051727294921875	0.051727294921875	1.83258056640625E-06	9.47944371887388E-08	28226.478515625	7.67557310155098E-07
1	26	68.3462738274422	0.061798095703125	0.061859130859375	1.94580078125E-06	1.20365541533829E-07	31791.09375	9.57813995228207E-07
1	27	68.446981827188	0.071868896484375	0.071929931640625	2.0001220703125E-06	1.43868646773626E-07	35962.76953125	1.15650698262471E-06
1	28	68.5476898269337	0.081939697265625	0.08197021484375	2.00286865234375E-06	1.64175560257718E-07	40926.40625	1.35807351853146E-06
1	29	68.6483978266795	0.092010498046875	0.092041015625	1.96807861328125E-06	1.81143946065276E-07	46766.94140625	1.55802661083726E-06
1	30	68.7491058264252	0.102081298828125	0.102142333984375	1.9110107421875E-06	1.95195099195189E-07	53449.37890625	1.75335424046352E-06
1	31	68.8498138261709	0.112152099609375	0.112213134765625	1.84234619140625E-06	2.06735435881455E-07	60907.73828125	1.94235076378391E-06
1	32	68.9505218259167	0.122222900390625	0.122314453125	1.7706298828125E-06	2.16573624811645E-07	69079.625	2.12427858059527E-06
1	33	69.0512298256624	0.132293701171875	0.13232421875	1.6998291015625E-06	2.24928555780934E-07	77845.6015625	2.2990300294623E-06
1	34	69.1519378254081	0.142364501953125	0.142425537109375	1.6339111328125E-06	2.32710661407509E-07	87168.4765625	2.46689728555793E-06
1	35	69.2526458251539	0.152435302734375	0.152435302734375	1.573486328125E-06	2.39854870187628E-07	96877.421875	2.62840262621467E-06
1	36	69.3533538248996	0.162506103515625	0.162567138671875	1.5191650390625E-06	2.46966322947628E-07	107010.8515625	2.78412994703103E-06
1	37	69.4540618246454	0.172576904296875	0.172637939453125	1.47064208984375E-06	2.5388860080966E-07	117389.5078125	2.93467860501551E-06
1	38	69.5547698243911	0.182647705078125	0.182647705078125	1.42669677734375E-06	2.6058287971864E-07	128021.3984375	3.08057133224793E-06
1	39	69.6554778241368	0.192718505859375	0.1927490234375	1.387939453125E-06	2.67523972752315E-07	138874.234375	3.22229948324093E-06
1	40	69.7561858238826	0.202789306640625	0.202789306640625	1.3531494140625E-06	2.74404214906099E-07	149864.6875	3.36032417180832E-06
1	41	69.8568938236283	0.212860107421875	0.212860107421875	1.322021484375E-06	2.81405647228894E-07	161011.078125	3.49502965946158E-06
1	42	69.957601823374	0.222930908203125	0.22296142578125	1.29425048828125E-06	2.88567918005356E-07	172270.703125	3.62676951226604E-06
1	43	70.0583098231198	0.233001708984375	0.233062744140625	1.26922607421875E-06	2.95809286399162E-07	183625.875	3.75585068468354E-06
1	44	70.1590178228655	0.243072509765625	0.24310302734375	1.24664306640625E-06	3.03062705597767E-07	195006.125	3.88253465644084E-06
1	45	70.2597258226112	0.253143310546875	0.253143310546875	1.22650146484375E-06	3.10480629650556E-07	206394.625	4.00706767322845E-06
1	46	70.360433822357	0.263214111328125	0.263214111328125	1.20819091796875E-06	3.18012865818673E-07	217858.0625	4.12966392104863E-06
1	47	70.4611418221027	0.273284912109375	0.27325439453125	1.19171142578125E-06	3.25640371556801E-07	229295.78125	4.25050893682055E-06
1	48	70.5618498218485	0.283355712890625	0.283416748046875	1.1767578125E-06	3.33512872430219E-07	240845.4375	4.36977052231668E-06
1	49	70.6625578215942	0.293426513671875	0.293426513671875	1.163330078125E-06	3.41351864108219E-07	252229.8125	4.48760329163633E-06
1	50	70.7632658213399	0.303497314453125	0.303497314453125	1.151123046875E-06	3.49362750284854E-07	263653.25	4.60414548797417E-06
1	51	70.8639738210857	0.313568115234375	0.3135986328125	1.14044189453125E-06	3.5764102790381E-07	274979.9375	4.7195348997775E-06
1	52	70.9646818208314	0.323638916015625	0.323638916015625	1.13037109375E-06	3.65832050874815E-07	286312.09375	4.8338793021685E-06
1	53	71.0653898205771	0.333709716796875	0.333740234375	1.121826171875E-06	3.74398524627395E-07	297497.28125	4.94728647026932E-06
1	54	71.1660978203229	0.343780517578125	0.34375	1.1138916015625E-06	3.82900225304184E-07	308602.75	5.05986372445477E-06
1	55	71.2668058200686	0.353851318359375	0.35382080078125	1.10748291015625E-06	3.91850448977493E-07	319481.96875	5.17171883984702E-06
1	56	71.3675138198143	0.363922119140625	0.363983154296875	1.10137939453125E-06	4.00883521933793E-07	330479.375	5.28294413015828E-06
1	57	71.4682218195601	0.373992919921875	0.37396240234375	1.09649658203125E-06	4.10048500043558E-07	341052.03125	5.39361599294352E-06
1	58	71.5689298193058	0.384063720703125	0.384124755859375	1.09283447265625E-06	4.19784754512875E-07	351494.03125	5.50385720998747E-06
1	59	71.6696378190516	0.394134521484375	0.394195556640625	1.090087890625E-06	4.29707768034859E-07	361618.15625	5.61377646590699E-06
1	60	71.7703458187973	0.404205322265625	0.404205322265625	1.08795166015625E-06	4.39755837078337E-07	371528.75	5.72344924876234E-06
1	61	71.871053818543	0.414276123046875	0.414276123046875	1.08673095703125E-06	4.50206670166153E-07	381213.15625	5.8329533203505E-06
1	62	71.9717618182888	0.424346923828125	0.42431640625	1.0858154296875E-06	4.60729268070281E-07	390781.34375	5.9423496168165E-06
1	63	72.0724698180345	0.434417724609375	0.4344482421875	1.0858154296875E-06	4.71730572826345E-07	400112.4375	6.05169998380006E-06
1	64	72.1731778177802	0.444488525390625	0.44451904296875	1.08551025390625E-06	4.82529969758616E-07	409502.40625	6.1610348893737E-06
1	65	72.273885817526	0.454559326171875	0.454559326171875	1.08642578125E-06	4.93844936499954E-07	418398.875	6.27040071776719E-06
1	66	72.3745938172717	0.464630126953125	0.464599609375	1.08795166015625E-06	5.054619123257E-07	427040.6875	6.37988932794542E-06
1	67	72.4753018170175	0.474700927734375	0.474639892578125	1.09039306640625E-06	5.17544037847983E-07	435292.46875	6.48957757221069E-06
1	68	72.5760098167632	0.484771728515625	0.4847412109375	1.0931396484375E-06	5.29889859990362E-07	443439.40625	6.59952729620272E-06
1	69	72.6767178165089	0.494842529296875	0.494842529296875	1.097412109375E-06	5.43046155598859E-07	450917.6875	6.70982990413904E-06
1	70	72.7774258162547	0.504913330078125	0.504913330078125	1.102294921875E-06	5.56563350073702E-07	458056.5	6.82059408063651E-06
1	71	72.8781338160004	0.514984130859375	0.514984130859375	1.10870361328125E-06	5.70964743928926E-07	464492.15625	6.93192669132259E-06
1	72	72.9788418157461	0.525054931640625	0.525054931640625	1.116943359375E-06	5.86456565088156E-07	470082	7.0439969022118E-06
1	73	73.0795498154919	0.535125732421875	0.5350341796875	1.12640380859375E-06	6.02664499638195E-07	474993.25	7.15695841790875E-06
1	74	73.1802578152376	0.545196533203125	0.545166015625	1.13983154296875E-06	6.21397418854031E-07	478286.5	7.2710727181402E-06
1	75	73.2809658149833	0.555267333984375	0.555206298828125	1.156005859375E-06	6.4182171399807E-07	480279.84375	7.38667722544051E-06
1	76	73.3816738147291	0.565338134765625	0.56536865234375	1.17828369140625E-06	6.66164680751535E-07	479823.875	7.50421804696089E-06
1	77	73.4823818144748	0.575408935546875	0.57537841796875	1.20758056640625E-06	6.94815810220462E-07	476472.0625	7.62435593060218E-06
1	78	73.5830898142206	0.585479736328125	0.585418701171875	1.2493896484375E-06	7.31416037069721E-07	468563.78125	7.74807358538965E-06
1	79	73.6837978139663	0.595550537109375	0.595550537109375	1.30767822265625E-06	7.78788432853617E-07	455425.90625	7.87683256930904E-06
1	80	73.784505813712	0.605621337890625	0.6055908203125	1.387939453125E-06	8.40523341594235E-07	436323.6875	8.01256737759104E-06
1	81	73.8852138134578	0.615692138671875	0.61566162109375	1.49871826171875E-06	9.22703293326776E-07	410792.09375	8.15792282082839E-06
1	82	73.9859218132035	0.625762939453125	0.625701904296875	1.64764404296875E-06	1.03093395864562E-06	379755.53125	8.31635406939313E-06
1	83	74.0866298129492	0.635833740234375	0.63580322265625	1.84417724609375E-06	1.17253375719883E-06	344762.5625	8.49218122311868E-06
1	84	74.187337812695	0.645904541015625	0.645843505859375	2.099609375E-06	1.35601897000015E-06	307601.78125	8.69076666276669E-06
1	85	74.2880458124407	0.655975341796875	0.6558837890625	2.41912841796875E-06	1.58666705374344E-06	271124	8.91830313776154E-06
1	86	74.3887538121865	0.666046142578125	0.666015625	2.80242919921875E-06	1.86646161637327E-06	237656.53125	9.18122987059178E-06
1	87	74.4894618119322	0.676116943359375	0.67608642578125	3.233642578125E-06	2.1862217636226E-06	209078.90625	9.48517026699847E-06
1	88	74.5901698116779	0.686187744140625	0.686126708984375	3.687744140625E-06	2.53025973506738E-06	186055.9375	9.83368954621255E-06
1	89	74.6908778114237	0.696258544921875	0.6961669921875	4.12811279296875E-06	2.87385591946077E-06	168640.5	1.02272497315425E-05
1	90	74.7915858111694	0.706329345703125	0.7061767578125	4.51690673828125E-06	3.1897345706966E-06	156340.78125	1.06625602711574E-05
1	91	74.8922938109151	0.716400146484375	0.716278076171875	4.81475830078125E-06	3.44870568369515E-06	148767.203125	1.11324470708496E-05
1	92	74.9930018106609	0.726470947265625	0.726348876953125	5.0048828125E-06	3.63529079550062E-06	145128.0625	1.16269056888996E-05
1	93	75.0937098104066	0.736541748046875	0.736358642578125	5.084228515625E-06	3.74381534129498E-06	144831.9375	1.21349321489106E-05
1	94	75.1944178101523	0.746612548828125	0.74639892578125	5.072021484375E-06	3.78575123249902E-06	147160.046875	1.26463401102228E-05
1	95	75.2951258098981	0.756683349609375	0.7568359375	4.99267578125E-06	3.77863648282073E-06	151589.25	1.31531378428917E-05
1	96	75.3958338096438	0.766754150390625	0.76690673828125	4.881591796875E-06	3.74372575606685E-06	157101.78125	1.36503467729199E-05
1	97	75.4965418093896	0.776824951171875	0.7769775390625	4.7637939453125E-06	3.70136058336357E-06	163100.59375	1.41360305860871E-05
1	98	75.5972498091353	0.786895751953125	0.78704833984375	4.6575927734375E-06	3.6657506825577E-06	168981.78125	1.4610434845963E-05
1	99	75.697957808881	0.796966552734375	0.797119140625	4.57733154296875E-06	3.64867833013705E-06	174144.953125	1.50754503920325E-05
1	100	75.7986658086268	0.807037353515625	0.8074951171875	4.53369140625E-06	3.66093377124344E-06	178109.859375	1.55342277139425E-05
1	101	75.8993738083725	0.817108154296875	0.81756591796875	4.53369140625E-06	3.70659154214081E-06	180331.171875	1.59908067871584E-05
1	102	76.0000818081182	0.827178955078125	0.82733154296875	4.58221435546875E-06	3.7910106129857E-06	180552.78125	1.64498287631432E-05
1	103	76.100789807864	0.837249755859375	0.83709716796875	4.67681884765625E-06	3.91495177609613E-06	178988.59375	1.69160575751448E-05
1	104	76.2014978076097	0.847320556640625	0.84716796875	4.8077392578125E-06	4.0729623833613E-06	176209.21875	1.73936423379928E-05
1	105	76.3022058073554	0.857391357421875	0.8575439453125	4.9591064453125E-06	4.25265170633793E-06	172923.078125	1.78854425030295E-05
1	106	76.4029138071012	0.867462158203125	0.8673095703125	5.1025390625E-06	4.42548071077908E-06	169976.078125	1.83920874405885E-05
1	107	76.5036218068469	0.877532958984375	0.87799072265625	5.218505859375E-06	4.58179965789896E-06	168245.625	1.8911792722065E-05
1	108	76.6043298065927	0.887603759765625	0.8880615234375	5.2886962890625E-06	4.69668748337426E-06	167916.90625	1.94408730749274E-05
1	109	76.7050378063384	0.897674560546875	0.89752197265625	5.3070068359375E-06	4.76315517516923E-06	169120.1875	1.9974408132839E-05
1	110	76.8057458060841	0.907745361328125	0.9088134765625	5.2764892578125E-06	4.79534446640173E-06	172238.296875	2.05073301913217E-05
1	111	76.9064538058299	0.917816162109375	0.91796875	5.21240234375E-06	4.78482252219692E-06	176112.40625	2.10354883165564E-05
1	112	77.0071618055756	0.927886962890625	0.927734375	5.120849609375E-06	4.75078786621452E-06	181168.0625	2.15558084164513E-05
1	113	77.1078698053213	0.937957763671875	0.9381103515625	5.0201416015625E-06	4.70944678454543E-06	186869.296875	2.20664478547405E-05
1	114	77.2085778050671	0.948028564453125	0.9478759765625	4.913330078125E-06	4.65722769149579E-06	192919.25	2.25666371989064E-05
1	115	77.3092858048128	0.958099365234375	0.9576416015625	4.8114013671875E-06	4.6075979298621E-06	199035.90625	2.30563164222986E-05
1	116	77.4099938045586	0.968170166015625	0.96832275390625	4.7149658203125E-06	4.56560837847064E-06	205372.171875	2.35360075748758E-05
1	117	77.5107018043043	0.978240966796875	0.97869873046875	4.6258544921875E-06	4.5273177420313E-06	211571.453125	2.40063545788871E-05
1	118	77.61140980405	0.988311767578125	0.98876953125	4.54437255859375E-06	4.49333720098366E-06	217581.09375	2.44681123149348E-05
1	119	77.7121178037958	0.998382568359375	0.99853515625	4.4696044921875E-06	4.46305693913018E-06	223405.71875	2.49220029218122E-05
1	120	77.8128258035415	1.00845336914063	1.0089111328125	4.4012451171875E-06	4.44046509073814E-06	229233.125	2.53686848736834E-05
1	121	77.9135338032872	1.01852416992188	1.01806640625	4.33929443359375E-06	4.41768952441635E-06	234615.671875	2.58088057307759E-05
1	122	78.014241803033	1.02859497070313	1.0284423828125	4.2840576171875E-06	4.40590611106018E-06	240062.703125	2.62430257862434E-05
1	123	78.1149498027787	1.03866577148438	1.03912353515625	4.2327880859375E-06	4.39838959209737E-06	245493.890625	2.66718834609492E-05
1	124	78.2156578025244	1.04873657226563	1.048583984375	4.18609619140625E-06	4.38947336078854E-06	250492.09375	2.70958080363926E-05
1	125	78.3163658022702	1.05880737304688	1.0589599609375	4.14398193359375E-06	4.38831057181233E-06	255541.65625	2.7515261535882E-05
1	126	78.4170738020159	1.06887817382813	1.0687255859375	4.10430908203125E-06	4.38638016930781E-06	260391.109375	2.79305950243725E-05
1	127	78.5177818017617	1.07894897460938	1.07940673828125	4.06890869140625E-06	4.39200766777503E-06	265281.625	2.83421486528823E-05
1	128	78.6184898015074	1.08901977539063	1.08917236328125	4.03594970703125E-06	4.39584482592181E-06	269867.6875	2.87502607534407E-05
1	129	78.7191978012531	1.09909057617188	1.09893798828125	4.00634765625E-06	4.40272742707748E-06	274299.21875	2.91552241833415E-05
1	130	78.8199058009989	1.10916137695313	1.10931396484375	3.97857666015625E-06	4.41349038737826E-06	278821.84375	2.95572954200907E-05
1	131	78.9206138007446	1.11923217773438	1.119384765625	3.95355224609375E-06	4.42554619439761E-06	283133.9375	2.99567109323107E-05
1	132	79.0213218004903	1.12930297851563	1.129150390625	3.9300537109375E-06	4.43762155555305E-06	287311.71875	3.03536817227723E-05
1	133	79.1220298002361	1.13937377929688	1.13922119140625	3.90838623046875E-06	4.45251635028399E-06	291481.21875	3.07483787764795E-05
1	134	79.2227377999818	1.14944458007813	1.14990234375	3.88885498046875E-06	4.47180309492978E-06	295691.78125	3.11410003632773E-05
1	135	79.3234457997276	1.15951538085938	1.15966796875	3.87115478515625E-06	4.48925402452005E-06	299566.4375	3.15317483909894E-05
1	136	79.4241537994733	1.16958618164063	1.16943359375	3.85498046875E-06	4.50814331998117E-06	303356.59375	3.1920790206641E-05
1	137	79.524861799219	1.17965698242188	1.1798095703125	3.84002685546875E-06	4.5305000639928E-06	307239.9375	3.23082640534267E-05
1	138	79.6255697989648	1.18972778320313	1.1895751953125	3.82781982421875E-06	4.55347981187515E-06	310770.9375	3.26943700201809E-05
1	139	79.7262777987105	1.19979858398438	1.19964599609375	3.81591796875E-06	4.57775058748666E-06	314379.40625	3.30792645399924E-05
1	140	79.8269857984562	1.20986938476563	1.21002197265625	3.8055419921875E-06	4.60478941022302E-06	317963.125	3.34630349243525E-05
1	141	79.927693798202	1.21994018554688	1.21978759765625	3.79669189453125E-06	4.63115748061682E-06	321276.4375	3.384583760635E-05
1	142	80.0284017979477	1.23001098632813	1.2298583984375	3.78936767578125E-06	4.66038545710035E-06	324555.0625	3.42278253810946E-05
1	143	80.1291097976934	1.24008178710938	1.240234375	3.782958984375E-06	4.6917557483539E-06	327847.71875	3.46091219398659E-05
1	144	80.2298177974392	1.25015258789063	1.25030517578125	3.77838134765625E-06	4.72412966701086E-06	330910.28125	3.49898655258585E-05
1	145	80.3305257971849	1.26022338867188	1.26068115234375	3.7738037109375E-06	4.75756314699538E-06	334061.125	3.53701507265214E-05
1	146	80.4312337969307	1.27029418945313	1.27044677734375	3.770751953125E-06	4.79053960589226E-06	336921.34375	3.57500466634519E-05
1	147	80.5319417966764	1.28036499023438	1.280517578125	3.7689208984375E-06	4.82616951558157E-06	339757.09375	3.61297024937812E-05
1	148	80.6326497964221	1.29043579101563	1.290283203125	3.768310546875E-06	4.86218777950853E-06	342403.625	3.65092309948523E-05
1	149	80.7333577961679	1.30050659179688	1.3006591796875	3.7689208984375E-06	4.90208140035975E-06	345101.21875	3.68887594959233E-05
1	150	80.8340657959136	1.31057739257813	1.31134033203125	3.770751953125E-06	4.94473897560965E-06	347766.28125	3.72684116882738E-05
1	151	80.9347737956593	1.32064819335938	1.32080078125	3.77410888671875E-06	4.98484587296844E-06	349963.625	3.76483258150984E-05
1	152	81.0354817954051	1.33071899414063	1.33087158203125	3.77838134765625E-06	5.02854027217836E-06	352233.28125	3.80286255676765E-05
1	153	81.1361897951508	1.34078979492188	1.3409423828125	3.78448486328125E-06	5.07477579958504E-06	354326.28125	3.84094455512241E-05
1	154	81.2368977948965	1.35086059570313	1.3507080078125	3.79180908203125E-06	5.12162660015747E-06	356217.3125	3.87909421988297E-05
1	155	81.3376057946423	1.36093139648438	1.361083984375	3.80096435546875E-06	5.17343187311781E-06	358089.125	3.91732683056034E-05
1	156	81.438313794388	1.37100219726563	1.370849609375	3.81072998046875E-06	5.22393747814931E-06	359734.125	3.95565475628246E-05
1	157	81.5390217941338	1.38107299804688	1.38092041015625	3.82110595703125E-06	5.2766431508644E-06	361392.84375	3.99408418161329E-05
1	158	81.6397297938795	1.39114379882813	1.3909912109375	3.8311767578125E-06	5.32913327333517E-06	363071.53125	4.03261656174436E-05
1	159	81.7404377936252	1.40121459960938	1.4019775390625	3.841552734375E-06	5.38577069164603E-06	364950.75	4.0712515328778E-05
1	160	81.841145793371	1.41128540039063	1.4111328125	3.8507080078125E-06	5.43386022400227E-06	366460.625	4.10998545703478E-05
1	161	81.9418537931167	1.42135620117188	1.42181396484375	3.85955810546875E-06	5.48757361684693E-06	368387.75	4.14880960306618E-05
1	162	82.0425617928624	1.43142700195313	1.43157958984375	3.8671875E-06	5.53618656340404E-06	370186.25	4.18771669501439E-05
1	163	82.1432697926082	1.44149780273438	1.44195556640625	3.8751220703125E-06	5.58775354875252E-06	372105.875	4.22670236730482E-05
1	164	82.2439777923539	1.45156860351563	1.45111083984375	3.88336181640625E-06	5.63518824492348E-06	373673.875	4.26576953032054E-05
1	165	82.3446857920997	1.46163940429688	1.46209716796875	3.89251708984375E-06	5.69123767490964E-06	375617.4375	4.30492436862551E-05
1	166	82.4453937918454	1.47171020507813	1.47186279296875	3.90350341796875E-06	5.74542173126247E-06	377062	4.34418034274131E-05
1	167	82.5461017915911	1.48178100585938	1.48193359375	3.917236328125E-06	5.80508412895142E-06	378311	4.38356073573232E-05
1	168	82.6468097913369	1.49185180664063	1.49139404296875	3.934326171875E-06	5.86763098908705E-06	379072.28125	4.42309647041839E-05
1	169	82.7475177910826	1.50192260742188	1.50177001953125	3.95355224609375E-06	5.93732602283126E-06	379853.34375	4.46281519543845E-05
1	170	82.8482257908283	1.49185180664063	1.49139404296875	3.780517578125E-06	5.63824141863734E-06	394494.6875	4.50175939477049E-05
1	171	82.9489337905741	1.48178100585938	1.48193359375	3.65875244140625E-06	5.42202815267956E-06	405037.96875	4.53921893495135E-05
1	172	83.0496417903198	1.47171020507813	1.47186279296875	3.56231689453125E-06	5.24324150319444E-06	413175.71875	4.57558016933035E-05
1	173	83.1503497900655	1.46163940429688	1.46148681640625	3.4820556640625E-06	5.08897801410058E-06	419719.5625	4.61105119029526E-05
1	174	83.2510577898113	1.45156860351563	1.45172119140625	3.414306640625E-06	4.95662106914097E-06	425187.71875	4.64577715320047E-05
1	175	83.351765789557	1.44149780273438	1.441650390625	3.3551025390625E-06	4.83688472741051E-06	429688.90625	4.67986392322928E-05
1	176	83.4524737893028	1.43142700195313	1.43157958984375	3.30322265625E-06	4.72882629765081E-06	433388.75	4.71339117211755E-05
1	177	83.5531817890485	1.42135620117188	1.42120361328125	3.2562255859375E-06	4.627759608411E-06	436457.375	4.74642074550502E-05
1	178	83.6538897887942	1.41128540039063	1.4111328125	3.2147216796875E-06	4.5363990466285E-06	438959.5625	4.77900430269074E-05
1	179	83.75459778854	1.40121459960938	1.40106201171875	3.17718505859375E-06	4.45143314209417E-06	440975.90625	4.81119022879284E-05
1	180	83.8553057882857	1.39114379882813	1.3909912109375	3.14178466796875E-06	4.37019480159506E-06	442739.1875	4.84300871903542E-05
1	181	83.9560137880314	1.38107299804688	1.3812255859375	3.10943603515625E-06	4.2948327063641E-06	444204.53125	4.87448633066379E-05
1	182	84.0567217877772	1.37100219726563	1.3714599609375	3.0792236328125E-06	4.22303173763794E-06	445391.5	4.90564852952957E-05
1	183	84.1574297875229	1.36093139648438	1.361083984375	3.0517578125E-06	4.15369822803768E-06	446000.03125	4.93652041768655E-05
1	184	84.2581377872687	1.35086059570313	1.35101318359375	3.02581787109375E-06	4.08791947847931E-06	446495.21875	4.96712345920969E-05
1	185	84.3588457870144	1.34078979492188	1.34063720703125	3.00079345703125E-06	4.02297519030981E-06	446760.90625	4.99747002322692E-05
1	186	84.4595537867601	1.33071899414063	1.33056640625	2.97760009765625E-06	3.96189443563344E-06	446858.6875	5.02757357025985E-05
1	187	84.5602617865059	1.32064819335938	1.32080078125	2.955322265625E-06	3.90339164368925E-06	446922.78125	5.0574482884258E-05
1	188	84.6609697862516	1.31057739257813	1.31103515625	2.9345703125E-06	3.8473244785564E-06	446755.4375	5.08710618305486E-05
1	189	84.7616777859973	1.30050659179688	1.3006591796875	2.91412353515625E-06	3.79028165298223E-06	446329.46875	5.11655671289191E-05
1	190	84.8623857857431	1.29043579101563	1.29058837890625	2.89459228515625E-06	3.73572697753843E-06	445861.90625	5.14580569870304E-05
1	191	84.9630937854888	1.28036499023438	1.28082275390625	2.8753662109375E-06	3.68283440366213E-06	445446.84375	5.174860052648E-05
1	192	85.0638017852345	1.27029418945313	1.2701416015625	2.85736083984375E-06	3.62925288754923E-06	444515.65625	5.20372632308863E-05
1	193	85.1645097849803	1.26022338867188	1.259765625	2.8399658203125E-06	3.57769113179529E-06	443584.8125	5.23241469636559E-05
1	194	85.265217784726	1.25015258789063	1.25	2.82318115234375E-06	3.52897632183158E-06	442762.9375	5.26093099324498E-05
1	195	85.3659257844718	1.24008178710938	1.23992919921875	2.80609130859375E-06	3.47935451827652E-06	441870.59375	5.28927666891832E-05
1	196	85.4666337842175	1.23001098632813	1.2298583984375	2.79083251953125E-06	3.432328639974E-06	440677.96875	5.3174593631411E-05
1	197	85.5673417839632	1.21994018554688	1.22039794921875	2.77557373046875E-06	3.38730433213641E-06	439692.15625	5.34548853465822E-05
1	198	85.668049783709	1.20986938476563	1.21002197265625	2.76123046875E-06	3.34114952238451E-06	438218.40625	5.37336854904424E-05
1	199	85.7687577834547	1.19979858398438	1.199951171875	2.74658203125E-06	3.29576414515032E-06	436888.90625	5.40110268048011E-05
1	200	85.8694657832004	1.18972778320313	1.18988037109375	2.7325439453125E-06	3.25140035783988E-06	435447.84375	5.42869202035945E-05
1	201	85.9701737829462	1.17965698242188	1.17919921875	2.71942138671875E-06	3.20673939313565E-06	433621.40625	5.45614493603352E-05
1	202	86.0708817826919	1.16958618164063	1.16973876953125	2.706298828125E-06	3.16566251967743E-06	432228.25	5.4834657930769E-05
1	203	86.1715897824376	1.15951538085938	1.1590576171875	2.69287109375E-06	3.12119277623424E-06	430417.0625	5.51065277250018E-05
1	204	86.2722977821834	1.14944458007813	1.1492919921875	2.6800537109375E-06	3.08016433336888E-06	428831.6875	5.53770732949488E-05
1	205	86.3730057819291	1.13937377929688	1.1395263671875	2.6678466796875E-06	3.0400815376197E-06	427133.40625	5.56463637622073E-05
1	206	86.4737137816749	1.12930297851563	1.12945556640625	2.6556396484375E-06	2.99942689707677E-06	425304.5625	5.59144209546503E-05
1	207	86.5744217814206	1.11923217773438	1.11968994140625	2.64373779296875E-06	2.96016651191167E-06	423525.375	5.61812667001504E-05
1	208	86.6751297811663	1.10916137695313	1.109619140625	2.6318359375E-06	2.92033564619487E-06	421614.09375	5.64469119126443E-05
1	209	86.7758377809121	1.09909057617188	1.09893798828125	2.620849609375E-06	2.88015098703909E-06	419306.03125	5.67114075238351E-05
1	210	86.8765457806578	1.08901977539063	1.0894775390625	2.60986328125E-06	2.84338739220402E-06	417446.21875	5.69747935514897E-05
1	211	86.9772537804035	1.07894897460938	1.0791015625	2.59857177734375E-06	2.80412268693908E-06	415267.1875	5.72370590816718E-05
1	212	87.0779617801493	1.06887817382813	1.0687255859375	2.587890625E-06	2.76574473900837E-06	412971.71875	5.74982186662965E-05
1	213	87.178669779895	1.05880737304688	1.05865478515625	2.5762939453125E-06	2.72740567197616E-06	410921.59375	5.77582541154698E-05
1	214	87.2793777796408	1.04873657226563	1.04888916015625	2.5653076171875E-06	2.69072324954323E-06	408874.625	5.80171545152552E-05
1	215	87.3800857793865	1.03866577148438	1.0382080078125	2.55401611328125E-06	2.65159974333073E-06	406500.1875	5.82749344175681E-05
1	216	87.4807937791322	1.02859497070313	1.0284423828125	2.54241943359375E-06	2.61473201135232E-06	404513.25	5.85315610805992E-05
1	217	87.581501778878	1.01852416992188	1.01837158203125	2.5299072265625E-06	2.57638544098882E-06	402533.1875	5.87869726587087E-05
1	218	87.6822097786237	1.00845336914063	1.00830078125	2.51678466796875E-06	2.53767598223931E-06	400630.53125	5.90410927543417E-05
1	219	87.7829177783694	0.998382568359375	0.9979248046875	2.50152587890625E-06	2.49633467319654E-06	398926.4375	5.92937867622823E-05
1	220	87.8836257781152	0.988311767578125	0.9881591796875	2.48443603515625E-06	2.4550181478844E-06	397739.84375	5.95448473177385E-05
1	221	87.9843337778609	0.978240966796875	0.97808837890625	2.4639892578125E-06	2.40999906964134E-06	396953.1875	5.97940197621938E-05
1	222	88.0850417776066	0.968170166015625	0.968017578125	2.43804931640625E-06	2.36007463172427E-06	397045.9375	6.0040856624255E-05
1	223	88.1857497773524	0.958099365234375	0.958251953125	2.4053955078125E-06	2.30497494158044E-06	398376.0625	6.02847467234824E-05
1	224	88.2864577770981	0.948028564453125	0.94818115234375	2.36236572265625E-06	2.23995061787718E-06	401369.34375	6.05248205829412E-05
1	225	88.3871657768439	0.937957763671875	0.9381103515625	2.30499267578125E-06	2.16233752325934E-06	406990.59375	6.07598412898369E-05
1	226	88.4878737765896	0.927886962890625	0.9283447265625	2.22808837890625E-06	2.06843401429069E-06	416655.28125	6.09880989941303E-05
1	227	88.5885817763353	0.917816162109375	0.91766357421875	2.12646484375E-06	1.95137931768841E-06	431544.21875	6.12073708907701E-05
1	228	88.6892897760811	0.907745361328125	0.90789794921875	1.99371337890625E-06	1.81008829258644E-06	455380.375	6.14148375461809E-05
1	229	88.7899977758268	0.897674560546875	0.8978271484375	1.82586669921875E-06	1.63931269980822E-06	491726.5625	6.16071702097543E-05
1	230	88.8907057755725	0.887603759765625	0.88775634765625	1.62445068359375E-06	1.44211639963032E-06	546496.375	6.17809055256657E-05
1	231	88.9914137753183	0.877532958984375	0.877685546875	1.39617919921875E-06	1.2254063221917E-06	628633.875	6.19330021436326E-05
1	232	89.092121775064	0.867462158203125	0.86761474609375	1.15570068359375E-06	1.00270290204207E-06	750726.25	6.20615028310567E-05
1	233	89.1928297748098	0.857391357421875	0.85784912109375	9.228515625E-07	7.91667389421491E-07	929563.5	6.21661674813367E-05
1	234	89.2935377745555	0.847320556640625	0.84716796875	7.2174072265625E-07	6.11435609698674E-07	1173784.375	6.22489751549438E-05
1	235	89.3942457743012	0.837249755859375	0.83740234375	5.6732177734375E-07	4.75076575412459E-07	1476062.375	6.23138912487775E-05
1	236	89.494953774047	0.827178955078125	0.82763671875	4.67834472656251E-07	3.87196990914163E-07	1769080.25	6.23660089331679E-05
1	237	89.5956617737927	0.817108154296875	0.8172607421875	4.1839599609375E-07	3.419386018777E-07	1953318.75	6.24106396571733E-05
1	238	89.6963697735384	0.807037353515625	0.806884765625	4.09851074218751E-07	3.30702562223451E-07	1968726.875	6.24523454462178E-05
1	239	89.7970777732842	0.796966552734375	0.79681396484375	4.21142578125E-07	3.35572281073837E-07	1892029	6.2494189478457E-05
1	240	89.8977857730299	0.786895751953125	0.78704833984375	4.3487548828125E-07	3.42268037911708E-07	1809824.5	6.25372922513634E-05
1	241	89.9984937727756	0.776824951171875	0.77728271484375	4.31213378906251E-07	3.35174718202325E-07	1802547.75	6.25809043413028E-05
1	242	90.0992017725214	0.766754150390625	0.7666015625	3.9642333984375E-07	3.03898758602372E-07	1933795.25	6.26225737505592E-05
1	243	90.1999097722671	0.756683349609375	0.7568359375	3.1707763671875E-07	2.39975747717835E-07	2386910.5	6.26585024292581E-05
1	244	90.3006177720129	0.746612548828125	0.74652099609375	1.8157958984375E-07	1.3555296618506E-07	4111260.75	6.26836117589846E-05
1	245	90.4013257717586	0.736541748046875	0.736419677734375	-2.16674804687497E-08	-1.59563580126587E-08	-33987324	6.26916662440635E-05
1	246	90.5020337715043	0.726470947265625	0.726409912109375	-2.95410156250001E-07	-2.14588865787846E-07	-2458987.5	6.2675702793058E-05
1	247	90.6027417712501	0.716400146484375	0.716339111328125	-6.3751220703125E-07	-4.56674911220034E-07	-1123647.75	6.26287219347432E-05
1	248	90.7034497709958	0.706329345703125	0.70623779296875	-1.03057861328125E-06	-7.27833537439437E-07	-685282.8125	6.25447282800451E-05
1	249	90.8041577707415	0.696258544921875	0.6961669921875	-1.44561767578125E-06	-1.00639124411828E-06	-481570.625	6.24200401944108E-05
1	250	90.9048657704873	0.686187744140625	0.6861572265625	-1.84356689453125E-06	-1.26497673136328E-06	-372190.0625	6.22544175712392E-05
1	251	91.005573770233	0.676116943359375	0.676116943359375	-2.18536376953125E-06	-1.47756134083465E-06	-309384.1875	6.20515420450829E-05
1	252	91.1062817699788	0.666046142578125	0.665985107421875	-2.4359130859375E-06	-1.62228184308333E-06	-273402.65625	6.18188423686661E-05
1	253	91.2069897697245	0.655975341796875	0.655914306640625	-2.5787353515625E-06	-1.69142936101707E-06	-254355.03125	6.15663375356235E-05
1	254	91.3076977694702	0.645904541015625	0.6458740234375	-2.6141357421875E-06	-1.6884023352759E-06	-247069.828125	6.13048541708849E-05
1	255	91.408405769216	0.635833740234375	0.635772705078125	-2.5616455078125E-06	-1.62862431807298E-06	-248189.1875	6.10442366451025E-05
1	256	91.5091137689617	0.625762939453125	0.625701904296875	-2.4493408203125E-06	-1.53255723489565E-06	-255457.265625	6.07919100730214E-05
1	257	91.6098217687074	0.615692138671875	0.615631103515625	-2.3016357421875E-06	-1.41695852562407E-06	-267475.46875	6.05526802246459E-05
1	258	91.7105297684532	0.605621337890625	0.60552978515625	-2.14080810546875E-06	-1.29632303469407E-06	-282851.0625	6.03289845457766E-05
1	259	91.8112377681989	0.595550537109375	0.595550537109375	-1.97967529296875E-06	-1.17899662654963E-06	-300832.4375	6.01215033384506E-05
1	260	91.9119457679446	0.585479736328125	0.585418701171875	-1.82586669921875E-06	-1.0688964948713E-06	-320625.125	5.99298800807446E-05
1	261	92.0126537676904	0.575408935546875	0.575408935546875	-1.6827392578125E-06	-9.68263179856876E-07	-341947.78125	5.9753205277957E-05
1	262	92.1133617674361	0.565338134765625	0.5653076171875	-1.552734375E-06	-8.77772549756628E-07	-364072.3125	5.95902893110178E-05
1	263	92.2140697671819	0.555267333984375	0.555206298828125	-1.435546875E-06	-7.97024654275447E-07	-386755.9375	5.94398152315989E-05
1	264	92.3147777669276	0.545196533203125	0.545196533203125	-1.32904052734375E-06	-7.24588289813255E-07	-410218.15625	5.93006079725455E-05
1	265	92.4154857666733	0.535125732421875	0.53509521484375	-1.234130859375E-06	-6.60377509120735E-07	-433580.59375	5.91715433984064E-05
1	266	92.5161937664191	0.525054931640625	0.52508544921875	-1.1480712890625E-06	-6.02835541485547E-07	-457363.09375	5.90515883232001E-05
1	267	92.6169017661648	0.514984130859375	0.514984130859375	-1.07025146484375E-06	-5.5116248631748E-07	-481180.53125	5.89398878219072E-05
1	268	92.7176097659105	0.504913330078125	0.50494384765625	-1.0003662109375E-06	-5.05128753047757E-07	-504759	5.88356233492959E-05
1	269	92.8183177656563	0.494842529296875	0.49481201171875	-9.3658447265625E-07	-4.63433252662071E-07	-528315.4375	5.87380891374778E-05
1	270	92.919025765402	0.484771728515625	0.4847412109375	-8.7860107421875E-07	-4.25894143063488E-07	-551719.375	5.86466885579284E-05
1	271	93.0197337651477	0.474700927734375	0.474639892578125	-8.251953125E-07	-3.91670596400218E-07	-575184.9375	5.85608941037208E-05
1	272	93.1204417648935	0.464630126953125	0.464630126953125	-7.757568359375E-07	-3.60439969426807E-07	-598937.875	5.84802801313344E-05
1	273	93.2211497646392	0.454559326171875	0.45452880859375	-7.3089599609375E-07	-3.32213289766514E-07	-621878.9375	5.84044137212913E-05
1	274	93.321857764385	0.444488525390625	0.44451904296875	-6.89086914062501E-07	-3.06312244902074E-07	-645084.125	5.83329128858168E-05
1	275	93.4225657641307	0.434417724609375	0.434356689453125	-6.50634765624999E-07	-2.82607572898996E-07	-667589.125	5.82654538447969E-05
1	276	93.5232737638764	0.424346923828125	0.42437744140625	-6.15234375E-07	-2.61091571474026E-07	-689781.8125	5.82017128181178E-05
1	277	93.6239817636222	0.414276123046875	0.414276123046875	-5.8135986328125E-07	-2.40843519350165E-07	-712598.4375	5.8141456975136E-05
1	278	93.7246897633679	0.404205322265625	0.404266357421875	-5.50231933593751E-07	-2.22440249331157E-07	-734719.9375	5.80844789510593E-05
1	279	93.8253977631136	0.394134521484375	0.394195556640625	-5.206298828125E-07	-2.05229994776346E-07	-757151.1875	5.80305568291806E-05
1	280	93.9261057628594	0.384063720703125	0.38409423828125	-4.913330078125E-07	-1.88718161098222E-07	-781739.1875	5.79795996600296E-05
1	281	94.0268137626051	0.373992919921875	0.3740234375	-4.638671875E-07	-1.73497198829864E-07	-806315.8125	5.79315019422211E-05
1	282	94.1275217623509	0.363922119140625	0.363983154296875	-4.376220703125E-07	-1.59287054657398E-07	-831729.5	5.78861072426662E-05
1	283	94.2282297620966	0.353851318359375	0.353851318359375	-4.12597656249999E-07	-1.45998214406973E-07	-857618.375	5.78432955080643E-05
1	284	94.3289377618423	0.343780517578125	0.34381103515625	-3.887939453125E-07	-1.33671633761878E-07	-884301.4375	5.78029430471361E-05
1	285	94.4296457615881	0.333709716796875	0.333709716796875	-3.65600585937501E-07	-1.22004465197278E-07	-912771.3125	5.77649552724324E-05
1	286	94.5303537613338	0.323638916015625	0.3236083984375	-3.44238281250001E-07	-1.11398392732553E-07	-940071	5.77292121306527E-05
1	287	94.6310617610795	0.313568115234375	0.3135986328125	-3.2470703125E-07	-1.01827680509814E-07	-965789.5	5.76955280848779E-05
1	288	94.7317697608253	0.303497314453125	0.303497314453125	-3.0517578125E-07	-9.26200272033384E-08	-994500	5.76638121856377E-05
1	289	94.832477760571	0.293426513671875	0.293304443359375	-2.880859375E-07	-8.44968894853082E-08	-1018114.375	5.76339371036738E-05
1	290	94.9331857603167	0.283355712890625	0.283355712890625	-2.70690917968749E-07	-7.67018164538058E-08	-1046786.9375	5.76058009755798E-05
1	291	95.0338937600625	0.273284912109375	0.273284912109375	-2.55432128906249E-07	-6.98057434078692E-08	-1069892.5	5.75793092139065E-05
1	292	95.1346017598082	0.263214111328125	0.263275146484375	-2.410888671875E-07	-6.34727044257488E-08	-1092025.375	5.75543053855654E-05
1	293	95.235309759554	0.253143310546875	0.253143310546875	-2.27966308593749E-07	-5.77081422648007E-08	-1110441.875	5.75306876271497E-05
1	294	95.3360177592997	0.243072509765625	0.24310302734375	-2.15759277343749E-07	-5.24517318467588E-08	-1126732.75	5.75083431613166E-05
1	295	95.4367257590454	0.233001708984375	0.233001708984375	-2.044677734375E-07	-4.76413397620945E-08	-1139552.25	5.74871846765745E-05
1	296	95.5374337587912	0.222930908203125	0.2230224609375	-1.94396972656249E-07	-4.3354887679925E-08	-1147252.875	5.74670993955806E-05
1	297	95.6381417585369	0.212860107421875	0.212890625	-1.8585205078125E-07	-3.95661565733008E-08	-1145484.375	5.74479527131189E-05
1	298	95.7388497582826	0.202789306640625	0.20281982421875	-1.7852783203125E-07	-3.62089842553814E-08	-1136068.375	5.74296063859947E-05
1	299	95.8395577580284	0.192718505859375	0.192718505859375	-1.727294921875E-07	-3.32881668896334E-08	-1115724.375	5.74119185330346E-05
1	300	95.9402657577741	0.182647705078125	0.18267822265625	-1.6815185546875E-07	-3.07176826197519E-08	-1086388.375	5.73947545490228E-05
1	301	96.0409737575199	0.172576904296875	0.172576904296875	-1.66015625E-07	-2.86504633351115E-08	-1039522.0625	5.73779252590612E-05
1	302	96.1416817572656	0.162506103515625	0.162506103515625	-1.66931152343749E-07	-2.71273297158814E-08	-973491.8125	5.73611614527181E-05
1	303	96.2423897570113	0.152435302734375	0.15240478515625	-1.71508789062499E-07	-2.61387604894026E-08	-888612.125	5.73441211599857E-05
1	304	96.3430977567571	0.142364501953125	0.142425537109375	-1.80969238281251E-07	-2.57746410881055E-08	-787015.1875	5.73263714613859E-05
1	305	96.4438057565028	0.132293701171875	0.13232421875	-1.983642578125E-07	-2.62483936808167E-08	-667076.9375	5.73072684346698E-05
1	306	96.5445137562485	0.122222900390625	0.122222900390625	-2.239990234375E-07	-2.73778102410915E-08	-545640.3125	5.72860008105636E-05
1	307	96.6452217559943	0.112152099609375	0.1121826171875	-2.63671875E-07	-2.95794002624916E-08	-425462.96875	5.72614444536157E-05
1	308	96.74592975574	0.102081298828125	0.10211181640625	-3.21044921874999E-07	-3.27824807300203E-08	-318060.84375	5.72320022911299E-05
1	309	96.8466377554857	0.092010498046875	0.09210205078125	-4.0130615234375E-07	-3.69611186101793E-08	-229505.703125	5.71956297790166E-05
1	310	96.9473457552315	0.081939697265625	0.08203125	-5.10559082031251E-07	-4.18817975855745E-08	-160669.46875	5.71497148484923E-05
1	311	97.0480537549772	0.071868896484375	0.0718994140625	-6.5460205078125E-07	-4.70655052708935E-08	-109836.828125	5.70910451642703E-05
1	312	97.148761754723	0.061798095703125	0.0618896484375	-8.3465576171875E-07	-5.16565492603149E-08	-74149.9140625	5.70160518691409E-05
1	313	97.2494697544687	0.051727294921875	0.0517578125	-1.04827880859375E-06	-5.42566169769998E-08	-49374.08984375	5.69212388654705E-05
1	314	97.3501777542144	0.041656494140625	0.041741943359375	-1.282958984375E-06	-5.35532009848794E-08	-32535.68359375	5.68038522033021E-05
1	315	97.4508857539602	0.031585693359375	0.0316741943359375	-1.52008056640625E-06	-4.81473279023703E-08	-20837.181640625	5.66627095395233E-05
1	316	97.5515937537059	0.021514892578125	0.0215972900390625	-1.7340087890625E-06	-3.74498902999676E-08	-12455.1220703125	5.64988513360731E-05
1	317	97.6523017534516	0.011444091796875	0.011517333984375	-1.90277099609375E-06	-2.19148486024778E-08	-6052.92724609375	5.63157263968606E-05
1	318	97.7530097531974	0.001373291015625	0.001446533203125	-2.015380859375E-06	-2.91531554452718E-09	-717.746826171875	5.61184315301944E-05
1	319	97.8537177529431	-0.008697509765625	-0.00859375	-2.0672607421875E-06	1.77655223865258E-08	4157.0712890625	5.59128529857844E-05
1	320	97.9544257526888	-0.018768310546875	-0.01864013671875	-2.0672607421875E-06	3.85340221953356E-08	9016.8291015625	5.5704662372591E-05
1	321	98.0551337524346	-0.028839111328125	-0.0287200927734375	-2.03125E-06	5.83376866813978E-08	14139.1220703125	5.54982871108223E-05
1	322	98.1558417521803	-0.038909912109375	-0.0387908935546875	-1.97235107421875E-06	7.65092593724148E-08	19667.3359375	5.52966921532061E-05
1	323	98.2565497519261	-0.048980712890625	-0.0488494873046875	-1.90216064453125E-06	9.29195707044528E-08	25681.05078125	5.51015946257394E-05
1	324	98.3572577516718	-0.059051513671875	-0.058990478515625	-1.8292236328125E-06	1.07906778623601E-07	32248.916015625	5.49137039342895E-05
1	325	98.4579657514175	-0.069122314453125	-0.069061279296875	-1.759033203125E-06	1.21481079418118E-07	39260.93359375	5.47330200788565E-05
1	326	98.5586737511633	-0.079193115234375	-0.079132080078125	-1.6937255859375E-06	1.34028027787281E-07	46720.72265625	5.45591610716656E-05
1	327	98.659381750909	-0.089263916015625	-0.089141845703125	-1.634521484375E-06	1.45704262877189E-07	54536.96875	5.43915703019593E-05
1	328	98.7600897506547	-0.099334716796875	-0.099273681640625	-1.58203125E-06	1.57054060423434E-07	62750.7734375	5.42296038474888E-05
1	329	98.8607977504005	-0.109405517578125	-0.10931396484375	-1.53656005859375E-06	1.67967471043085E-07	71142.0078125	5.40725704922806E-05
1	330	98.9615057501462	-0.119476318359375	-0.119354248046875	-1.49658203125E-06	1.78623409397005E-07	79751.2265625	5.39198372280225E-05
1	331	99.062213749892	-0.129547119140625	-0.129486083984375	-1.46270751953125E-06	1.89400267913697E-07	88524.9375	5.3770825616084E-05
1	332	99.1629217496377	-0.139617919921875	-0.1395263671875	-1.4337158203125E-06	2.0004114276162E-07	97318.015625	5.36249790457077E-05
1	333	99.2636297493834	-0.149688720703125	-0.149566650390625	-1.409912109375E-06	2.10875825246148E-07	106082.25	5.34817918378394E-05
1	334	99.3643377491292	-0.159759521484375	-0.159637451171875	-1.3897705078125E-06	2.21859409066383E-07	114866.0546875	5.33408165210858E-05
1	335	99.4650457488749	-0.169830322265625	-0.1697998046875	-1.37359619140625E-06	2.33236363555989E-07	123616.9765625	5.32016711076722E-05
1	336	99.5657537486206	-0.179901123046875	-0.17974853515625	-1.361083984375E-06	2.44652852643412E-07	132062.78125	5.30639663338661E-05
1	337	99.6664617483664	-0.189971923828125	-0.18988037109375	-1.35223388671875E-06	2.56762660910681E-07	140419.765625	5.29273420397658E-05
1	338	99.7671697481121	-0.200042724609375	-0.199920654296875	-1.34796142578125E-06	2.69485326498398E-07	148313.34375	5.27913762198295E-05
1	339	99.8678777478578	-0.189971923828125	-0.1898193359375	-1.17950439453125E-06	2.23892726580743E-07	160931.4375	5.26641088072211E-05
2	340	99.9685857476036	-0.179901123046875	-0.179779052734375	-1.06109619140625E-06	1.90762875718065E-07	169427.65625	5.25512841704767E-05
2	341	100.069293747349	-0.169830322265625	-0.169677734375	-9.6588134765625E-07	1.6388855783589E-07	175671.40625	5.2449217037065E-05
2	342	100.170001747095	-0.159759521484375	-0.159637451171875	-8.85620117187499E-07	1.41378123430513E-07	180255	5.23559865541756E-05
2	343	100.270709746841	-0.149688720703125	-0.14959716796875	-8.1634521484375E-07	1.22122926882184E-07	183252.328125	5.2270286687417E-05
2	344	100.371417746587	-0.139617919921875	-0.139556884765625	-7.54394531249999E-07	1.05280953732745E-07	184991.90625	5.2191193390172E-05
2	345	100.472125746332	-0.129547119140625	-0.12945556640625	-6.9854736328125E-07	9.04308450344615E-08	185321.109375	5.21180336363614E-05
2	346	100.572833746078	-0.119476318359375	-0.11944580078125	-6.4666748046875E-07	7.72417081407184E-08	184709.78125	5.20502944709733E-05
2	347	100.673541745824	-0.109405517578125	-0.10931396484375	-5.9783935546875E-07	6.53521894378173E-08	182848.390625	5.19876302860212E-05
2	348	100.774249745569	-0.099334716796875	-0.0992431640625	-5.50537109375E-07	5.46370415577258E-08	180266.078125	5.19298046128824E-05
2	349	100.874957745315	-0.089263916015625	-0.089141845703125	-5.02929687500001E-07	4.48320776058608E-08	177245.15625	5.18767592438962E-05
2	350	100.975665745061	-0.079193115234375	-0.0791015625	-4.534912109375E-07	3.58718637016864E-08	174428	5.1828599680448E-05
2	351	101.076373744807	-0.069122314453125	-0.06903076171875	-3.9825439453125E-07	2.74918026121895E-08	173333.34375	5.17857115482911E-05
2	352	101.177081744552	-0.059051513671875	-0.05902099609375	-3.3538818359375E-07	1.97949443503376E-08	175978.171875	5.17487678735051E-05
2	353	101.277789744298	-0.048980712890625	-0.048846435546875	-2.5970458984375E-07	1.26856436466483E-08	188084.609375	5.17188018420711E-05
2	354	101.378497744044	-0.038909912109375	-0.038787841796875	-1.65710449218751E-07	6.42755049184984E-09	234069.984375	5.1697381422855E-05
2	355	101.47920574379	-0.028839111328125	-0.0287109375	-4.730224609375E-08	1.35809175016988E-09	606967.75	5.16866566613317E-05
2	356	101.579913743535	-0.018768310546875	-0.01866455078125	1.025390625E-07	-1.9138455265022E-09	-182023.796875	5.16894360771403E-05
2	357	101.680621743281	-0.008697509765625	-0.00856933593750001	2.86865234375E-07	-2.45824449685017E-09	-29872.33984375	5.17090447829105E-05
2	358	101.781329743027	0.001373291015625	0.00147705078125	5.06591796875E-07	7.48261841376774E-10	2915.66284179688	5.174899706617E-05
2	359	101.882037742773	0.011444091796875	0.011553955078125	7.550048828125E-07	8.72329231071944E-09	15303.1533203125	5.18125234520994E-05
2	360	101.982745742518	0.021514892578125	0.021624755859375	1.01409912109375E-06	2.19296438785932E-08	21324.103515625	5.19016066391487E-05
2	361	102.083453742264	0.031585693359375	0.031683349609375	1.26190185546875E-06	3.99812769558139E-08	25107.6171875	5.20162138855085E-05
2	362	102.18416174201	0.041656494140625	0.0417572021484375	1.4752197265625E-06	6.16010495946284E-08	28305.751953125	5.21540387126151E-05
2	363	102.284869741756	0.051727294921875	0.05181884765625	1.63360595703125E-06	8.46515817443105E-08	31720.53125	5.23105773027055E-05
2	364	102.385577741501	0.061798095703125	0.06182861328125	1.7291259765625E-06	1.06909460839688E-07	35757.1484375	5.24799070262816E-05
2	365	102.486285741247	0.071868896484375	0.0718994140625	1.76666259765625E-06	1.27022005358413E-07	40697.875	5.26559342688415E-05
2	366	102.586993740993	0.081939697265625	0.08197021484375	1.759033203125E-06	1.44188319950445E-07	46599.5859375	5.28334676346276E-05
2	367	102.687701740738	0.092010498046875	0.092041015625	1.71875E-06	1.58195490485014E-07	53551.140625	5.30085853824858E-05
2	368	102.788409740484	0.102081298828125	0.102142333984375	1.661376953125E-06	1.6969691785107E-07	61480.53125	5.31787882209755E-05
2	369	102.88911774023	0.112152099609375	0.112213134765625	1.5966796875E-06	1.79168438307897E-07	70279.0546875	5.33428465132602E-05
2	370	102.989825739976	0.122222900390625	0.122222900390625	1.53106689453125E-06	1.87131419693287E-07	79828.5859375	5.3500338253798E-05
2	371	103.090533739721	0.132293701171875	0.132354736328125	1.46820068359375E-06	1.94323305890975E-07	90147.5859375	5.36513653059956E-05
2	372	103.191241739467	0.142364501953125	0.14239501953125	1.41021728515625E-06	2.00807917849488E-07	100973.8203125	5.37963060196489E-05
2	373	103.291949739213	0.152435302734375	0.1524658203125	1.35833740234375E-06	2.07100029570029E-07	112244.4375	5.39357133675367E-05
2	374	103.392657738959	0.162506103515625	0.162567138671875	1.31195068359375E-06	2.1328006027943E-07	123912.5390625	5.40701730642468E-05
2	375	103.493365738704	0.172576904296875	0.172576904296875	1.2713623046875E-06	2.19407766621771E-07	135741.71875	5.42002526344731E-05
2	376	103.59407373845	0.182647705078125	0.182647705078125	1.23504638671875E-06	2.25578389745351E-07	147887.328125	5.43264613952488E-05
2	377	103.694781738196	0.192718505859375	0.19268798828125	1.20361328125E-06	2.31921816862268E-07	160091.28125	5.44492577319033E-05
2	378	103.795489737942	0.202789306640625	0.202789306640625	1.17523193359375E-06	2.38324460610784E-07	172552.59375	5.45690418221056E-05
2	379	103.896197737687	0.212860107421875	0.212890625	1.14990234375E-06	2.44803430859974E-07	185138	5.46861192560755E-05
2	380	103.996905737433	0.222930908203125	0.222900390625	1.12823486328125E-06	2.5148401050501E-07	197565.59375	5.48008320038207E-05
2	381	104.097613737179	0.233001708984375	0.2330322265625	1.1090087890625E-06	2.58434766919891E-07	210126.59375	5.49134892935399E-05
2	382	104.198321736925	0.243072509765625	0.24310302734375	1.0919189453125E-06	2.65448790059963E-07	222638.359375	5.50243130419403E-05
2	383	104.29902973667	0.253143310546875	0.253173828125	1.07696533203125E-06	2.72659434585876E-07	235080.765625	5.51335251657292E-05
2	384	104.399737736416	0.263214111328125	0.26318359375	1.06292724609375E-06	2.79745023590294E-07	247602.640625	5.52412784600165E-05
2	385	104.500445736162	0.273284912109375	0.27325439453125	1.05072021484375E-06	2.87113920194315E-07	260063.890625	5.53477075300179E-05
2	386	104.601153735907	0.283355712890625	0.283355712890625	1.0400390625E-06	2.94701010261633E-07	272447.1875	5.54529869987164E-05
2	387	104.701861735653	0.293426513671875	0.29339599609375	1.03057861328125E-06	3.02367624271938E-07	284690.5625	5.55572514713276E-05
2	388	104.802569735399	0.303497314453125	0.303466796875	1.0223388671875E-06	3.1024592317408E-07	296835.8125	5.56606210011523E-05
2	389	104.903277735145	0.313568115234375	0.313568115234375	1.01470947265625E-06	3.18180553904313E-07	309022.5625	5.57631974515971E-05
2	390	105.00398573489	0.323638916015625	0.32366943359375	1.00830078125E-06	3.26356115465387E-07	321004.875	5.58650644961745E-05
2	391	105.104693734636	0.333709716796875	0.333770751953125	1.002197265625E-06	3.34504107968314E-07	333039	5.59662985324394E-05
2	392	105.205401734382	0.343780517578125	0.343780517578125	9.979248046875E-07	3.43067085850635E-07	344495.4375	5.60670123377349E-05
2	393	105.306109734128	0.353851318359375	0.353851318359375	9.9334716796875E-07	3.51497192241368E-07	356221.1875	5.6167282309616E-05
2	394	105.406817733873	0.363922119140625	0.363983154296875	9.9029541015625E-07	3.60450826519809E-07	367550.09375	5.62671666557435E-05
2	395	105.507525733619	0.373992919921875	0.3740234375	9.87854003906249E-07	3.69480517292686E-07	378622.21875	5.63667745154817E-05
2	396	105.608233733365	0.384063720703125	0.384063720703125	9.8602294921875E-07	3.78695631297887E-07	389507.90625	5.64661677344702E-05
2	397	105.708941733111	0.394134521484375	0.39410400390625	9.8480224609375E-07	3.88114500537995E-07	400185.9375	5.65654045203701E-05
2	398	105.809649732856	0.404205322265625	0.404144287109375	9.85107421875001E-07	3.98125507672376E-07	410254.0625	5.66645976505242E-05
2	399	105.910357732602	0.414276123046875	0.414276123046875	9.844970703125E-07	4.07853633532795E-07	420799.75	5.67637762287632E-05
2	400	106.011065732348	0.424346923828125	0.424346923828125	9.857177734375E-07	4.18286305148285E-07	430495.375	5.68629839108326E-05
2	401	106.111773732094	0.434417724609375	0.4344482421875	9.8724365234375E-07	4.28906275828922E-07	440061.8125	5.69623298360966E-05
2	402	106.212481731839	0.444488525390625	0.444549560546875	9.8876953125E-07	4.3955708406429E-07	449598.75	5.70618321944494E-05
2	403	106.313189731585	0.454559326171875	0.45458984375	9.9029541015625E-07	4.50178220035014E-07	459044.71875	5.71614837099332E-05
2	404	106.413897731331	0.464630126953125	0.464599609375	9.92736816406251E-07	4.61225113213004E-07	467998.78125	5.72613389522303E-05
2	405	106.514605731076	0.474700927734375	0.47467041015625	9.95483398437499E-07	4.72526494377234E-07	476824.0625	5.73614524910226E-05
2	406	106.615313730822	0.484771728515625	0.4847412109375	9.99755859375E-07	4.84622830754233E-07	484859.625	5.74619225517381E-05
2	407	106.716021730568	0.494842529296875	0.494842529296875	1.004638671875E-06	4.9713793259798E-07	492557.71875	5.75628509977832E-05
2	408	106.816729730314	0.504913330078125	0.504913330078125	1.01043701171875E-06	5.10183099322603E-07	499697.96875	5.76643178646918E-05
2	409	106.917437730059	0.514984130859375	0.514984130859375	1.01776123046875E-06	5.24130882695317E-07	505997.03125	5.77664468437433E-05
2	410	107.018145729805	0.525054931640625	0.525054931640625	1.0272216796875E-06	5.39347809080937E-07	511140.84375	5.78694198338781E-05
2	411	107.118853729551	0.535125732421875	0.535125732421875	1.03851318359375E-06	5.55735084617481E-07	515280.65625	5.79734369239304E-05
2	412	107.219561729297	0.545196533203125	0.545196533203125	1.053466796875E-06	5.74346472603793E-07	517526.0625	5.80787782382686E-05
2	413	107.320269729042	0.555267333984375	0.555267333984375	1.07391357421875E-06	5.96309064349043E-07	517050.34375	5.81858985242434E-05
2	414	107.420977728788	0.565338134765625	0.565338134765625	1.09954833984375E-06	6.21616550233739E-07	514154.90625	5.82953398406971E-05
2	415	107.521685728534	0.575408935546875	0.575408935546875	1.13555908203125E-06	6.53410836548574E-07	506718.625	5.84078879910521E-05
2	416	107.62239372828	0.585479736328125	0.585418701171875	1.18438720703125E-06	6.93362437687028E-07	494279.8125	5.85247071285266E-05
2	417	107.723101728025	0.595550537109375	0.59552001953125	1.25335693359375E-06	7.46399109630147E-07	475140	5.86474561714567E-05
2	418	107.823809727771	0.605621337890625	0.605621337890625	1.34613037109375E-06	8.15245300600509E-07	449897.96875	5.87783506489359E-05
2	419	107.924517727517	0.615692138671875	0.615692138671875	1.4739990234375E-06	9.07529567939491E-07	417701.875	5.89203555136919E-05
2	420	108.025225727263	0.625762939453125	0.625701904296875	1.6455078125E-06	1.02959734249453E-06	380248.53125	5.90774361626245E-05
2	421	108.125933727008	0.635833740234375	0.6357421875	1.8695068359375E-06	1.18852437935857E-06	340058.78125	5.92544311075471E-05
2	422	108.226641726754	0.645904541015625	0.6458740234375	2.15484619140625E-06	1.39175915592205E-06	299730.90625	5.94570738030598E-05
2	423	108.3273497265	0.655975341796875	0.65594482421875	2.5018310546875E-06	1.64106313604861E-06	262185.90625	5.9691556089092E-05
2	424	108.428057726245	0.666046142578125	0.665985107421875	2.90618896484375E-06	1.93547862181731E-06	229160.984375	5.99638697167393E-05
2	425	108.528765725991	0.676116943359375	0.676055908203125	3.348388671875E-06	2.26369797928783E-06	201904.84375	6.0278813180048E-05
2	426	108.629473725737	0.686187744140625	0.686126708984375	3.7994384765625E-06	2.60689625974919E-06	180586.34375	6.06387366133276E-05
2	427	108.730181725483	0.696258544921875	0.696075439453125	4.22119140625E-06	2.93826769848238E-06	164900.234375	6.10426068305969E-05
2	428	108.830889725228	0.706329345703125	0.706268310546875	4.5770263671875E-06	3.23260860568553E-06	154307.25	6.14856326137669E-05
2	429	108.931597724974	0.716400146484375	0.71630859375	4.83673095703125E-06	3.4645920550247E-06	148097.671875	6.19596539763734E-05
2	430	109.03230572472	0.726470947265625	0.726348876953125	4.9896240234375E-06	3.62420769306482E-06	145571.875	6.24544481979683E-05
2	431	109.133013724466	0.736541748046875	0.736328125	5.035400390625E-06	3.70770681001886E-06	146230.3125	6.29592468612827E-05
2	432	109.233721724211	0.746612548828125	0.746490478515625	5.0048828125E-06	3.73609714188206E-06	149152.453125	6.34648167761043E-05
2	433	109.334429723957	0.756683349609375	0.75653076171875	4.91912841796875E-06	3.7214720123302E-06	153793.65625	6.39645295450464E-05
2	434	109.435137723703	0.766754150390625	0.76690673828125	4.81292724609375E-06	3.69106646758155E-06	159343.09375	6.44545798422769E-05
2	435	109.535845723449	0.776824951171875	0.7769775390625	4.705810546875E-06	3.6563092180586E-06	165110.25	6.49338835501112E-05
2	436	109.636553723194	0.786895751953125	0.78704833984375	4.6142578125E-06	3.63164394912019E-06	170568.78125	6.54031900921836E-05
2	437	109.73726172294	0.796966552734375	0.79681396484375	4.549560546875E-06	3.62515311280731E-06	175140.875	6.58646240481175E-05
2	438	109.837969722686	0.807037353515625	0.80718994140625	4.521484375E-06	3.64969650945568E-06	178523.21875	6.63213868392631E-05
2	439	109.938677722432	0.817108154296875	0.8172607421875	4.53399658203125E-06	3.7054574022477E-06	180251.734375	6.67773638269864E-05
2	440	110.039385722177	0.827178955078125	0.82763671875	4.59259033203125E-06	3.80099641006382E-06	180211.3125	6.72369278618135E-05
2	441	110.140093721923	0.837249755859375	0.83740234375	4.6893310546875E-06	3.92685660699499E-06	178576.078125	6.77043062751181E-05
2	442	110.240801721669	0.847320556640625	0.84716796875	4.81597900390625E-06	4.07994320994476E-06	175907.734375	6.8182940594852E-05
2	443	110.341509721414	0.857391357421875	0.85723876953125	4.9530029296875E-06	4.24590598413488E-06	173074.5625	6.86748462612741E-05
2	444	110.44221772116	0.867462158203125	0.867919921875	5.078125E-06	4.4074058678234E-06	170913.46875	6.91799505148083E-05
2	445	110.542925720906	0.877532958984375	0.877685546875	5.169677734375E-06	4.53735128758126E-06	169775.6875	6.96959687047638E-05
2	446	110.643633720652	0.887603759765625	0.88775634765625	5.21240234375E-06	4.62734305983759E-06	170316.15625	7.02187462593429E-05
2	447	110.744341720397	0.897674560546875	0.89813232421875	5.2093505859375E-06	4.67868630948942E-06	172407.734375	7.07435247022659E-05
2	448	110.845049720143	0.907745361328125	0.9075927734375	5.1666259765625E-06	4.68919233753695E-06	175664.515625	7.12659966666251E-05
2	449	110.945757719889	0.917816162109375	0.91796875	5.0933837890625E-06	4.67556719740969E-06	180227.6875	7.17826333129779E-05
2	450	111.046465719635	0.927886962890625	0.927734375	5.0018310546875E-06	4.64037066194578E-06	185478.953125	7.22909680916928E-05
2	451	111.14717371938	0.937957763671875	0.93780517578125	4.90234375E-06	4.5974434215168E-06	191297.3125	7.27896767784841E-05
2	452	111.247881719126	0.948028564453125	0.948486328125	4.80316162109375E-06	4.55573308499879E-06	197471.25	7.32783882995136E-05
2	453	111.348589718872	0.958099365234375	0.958251953125	4.708251953125E-06	4.51169125881279E-06	203526.0625	7.37573282094672E-05
2	454	111.449297718618	0.968170166015625	0.968017578125	4.619140625E-06	4.47140882897656E-06	209566.609375	7.42269985494204E-05
2	455	111.550005718363	0.978240966796875	0.97869873046875	4.5367431640625E-06	4.44010447608889E-06	215727.171875	7.46880323276855E-05
2	456	111.650713718109	0.988311767578125	0.98846435546875	4.46136474609375E-06	4.40990015704301E-06	221560.984375	7.51411280361935E-05
2	457	111.751421717855	0.998382568359375	0.99853515625	4.39239501953125E-06	4.3859608922503E-06	227332.71875	7.55869477870874E-05
2	458	111.852129717601	1.00845336914063	1.00830078125	4.329833984375E-06	4.36577465734445E-06	232872.859375	7.60261464165524E-05
2	459	111.952837717346	1.01852416992188	1.01837158203125	4.27276611328125E-06	4.35126366937766E-06	238340.125	7.64593205531128E-05
2	460	112.053545717092	1.02859497070313	1.0284423828125	4.22088623046875E-06	4.34093817602843E-06	243655.5625	7.68870158935897E-05
2	461	112.154253716838	1.03866577148438	1.038818359375	4.17236328125E-06	4.33432751378859E-06	248976	7.73096471675672E-05
2	462	112.254961716583	1.04873657226563	1.048583984375	4.12872314453125E-06	4.32931301475037E-06	253972.953125	7.77276363805868E-05
2	463	112.355669716329	1.05880737304688	1.0589599609375	4.08905029296875E-06	4.33014020018163E-06	258974.5625	7.81414346420206E-05
2	464	112.456377716075	1.06887817382813	1.06903076171875	4.0509033203125E-06	4.33053992310306E-06	263899.375	7.8551318438258E-05
2	465	112.557085715821	1.07894897460938	1.07879638671875	4.01641845703125E-06	4.33289733337006E-06	268596.625	7.89575351518579E-05
2	466	112.657793715566	1.08901977539063	1.08978271484375	3.984375E-06	4.34210278399405E-06	273514.09375	7.93604122009128E-05
2	467	112.758501715312	1.09909057617188	1.0986328125	3.95416259765625E-06	4.34417233918793E-06	277842.09375	7.97601460362785E-05
2	468	112.859209715058	1.10916137695313	1.1090087890625	3.92608642578125E-06	4.35406400356442E-06	282471.84375	8.01569476607256E-05
2	469	112.959917714804	1.11923217773438	1.119384765625	3.89923095703125E-06	4.36473965237383E-06	287078.375	8.05509844212793E-05
2	470	113.060625714549	1.12930297851563	1.12884521484375	3.8763427734375E-06	4.37579092249507E-06	291213.96875	8.09425182524137E-05
2	471	113.161333714295	1.13937377929688	1.1395263671875	3.85406494140625E-06	4.39180848843534E-06	295668.71875	8.13317747088149E-05
2	472	113.262041714041	1.14944458007813	1.14990234375	3.8323974609375E-06	4.40688290836988E-06	300047.78125	8.17188192741014E-05
2	473	113.362749713787	1.15951538085938	1.15966796875	3.81439208984375E-06	4.42342798123718E-06	304024.34375	8.2103862951044E-05
2	474	113.463457713532	1.16958618164063	1.16943359375	3.7969970703125E-06	4.44033594249049E-06	307989.09375	8.24871240183711E-05
2	475	113.564165713278	1.17965698242188	1.17919921875	3.78082275390625E-06	4.45834302809089E-06	311889.59375	8.28687043394893E-05
2	476	113.664873713024	1.18972778320313	1.1895751953125	3.7664794921875E-06	4.48051059720456E-06	315832.125	8.32487348816358E-05
2	477	113.76558171277	1.19979858398438	1.20025634765625	3.75335693359375E-06	4.50499055659748E-06	319782.09375	8.36273902677931E-05
2	478	113.866289712515	1.20986938476563	1.21002197265625	3.74237060546875E-06	4.52835047326516E-06	323330.34375	8.40048305690289E-05
2	479	113.966997712261	1.21994018554688	1.21978759765625	3.73199462890625E-06	4.55224062534398E-06	326846.03125	8.43811940285377E-05
2	480	114.067705712007	1.23001098632813	1.2298583984375	3.72283935546875E-06	4.5785650399921E-06	330354.96875	8.47565752337687E-05
2	481	114.168413711752	1.24008178710938	1.2396240234375	3.71490478515625E-06	4.6050849960011E-06	333689.3125	8.51310978760011E-05
2	482	114.269121711498	1.25015258789063	1.24969482421875	3.70880126953125E-06	4.63486958324211E-06	336953.84375	8.55049074743874E-05
2	483	114.369829711244	1.26022338867188	1.26007080078125	3.70361328125E-06	4.66681467514718E-06	340227.4375	8.58781568240374E-05
2	484	114.47053771099	1.27029418945313	1.27044677734375	3.699951171875E-06	4.70059103463427E-06	343368.53125	8.62509550643153E-05
2	485	114.571245710735	1.28036499023438	1.28021240234375	3.697509765625E-06	4.73359796160366E-06	346236.375	8.66234477143735E-05
2	486	114.671953710481	1.29043579101563	1.29058837890625	3.6968994140625E-06	4.77117509944947E-06	349100.21875	8.69957802933641E-05
2	487	114.772661710227	1.30050659179688	1.3006591796875	3.697509765625E-06	4.80920016343589E-06	351766.25	8.73681201483123E-05
2	488	114.873369709973	1.31057739257813	1.3104248046875	3.699951171875E-06	4.84850761495181E-06	354173.5625	8.77406127983704E-05
2	489	114.974077709718	1.32064819335938	1.32080078125	3.70361328125E-06	4.89173498863238E-06	356624.9375	8.81134110386483E-05
2	490	115.074785709464	1.33071899414063	1.3311767578125	3.70941162109375E-06	4.93788229505299E-06	358864.6875	8.84866894921288E-05
2	491	115.17549370921	1.34078979492188	1.34124755859375	3.71673583984375E-06	4.98506278745481E-06	360867.0625	8.88606227817945E-05
2	492	115.276201708956	1.35086059570313	1.35101318359375	3.72589111328125E-06	5.03372802995727E-06	362601.375	8.92353928065859E-05
2	493	115.376909708701	1.36093139648438	1.361083984375	3.7359619140625E-06	5.08495804751874E-06	364319.5625	8.96111232577823E-05
2	494	115.477617708447	1.37100219726563	1.37054443359375	3.7481689453125E-06	5.13703207616345E-06	365657.0625	8.99879814824089E-05
2	495	115.578325708193	1.38107299804688	1.3812255859375	3.760986328125E-06	5.1947704378108E-06	367250.90625	9.03660984477028E-05
2	496	115.679033707939	1.39114379882813	1.39129638671875	3.7750244140625E-06	5.25217774338671E-06	368552.9375	9.07455614651553E-05
2	497	115.779741707684	1.40121459960938	1.40106201171875	3.7884521484375E-06	5.30785609953455E-06	369824.40625	9.11264141905122E-05
2	498	115.88044970743	1.41128540039063	1.41143798828125	3.8018798828125E-06	5.36611742063542E-06	371247.40625	9.15086202439852E-05
2	499	115.981157707176	1.42135620117188	1.42120361328125	3.81378173828125E-06	5.42016005056212E-06	372649.4375	9.18920995900407E-05
2	500	116.081865706921	1.43142700195313	1.43157958984375	3.824462890625E-06	5.47502304470981E-06	374321.71875	9.22767139854841E-05
2	501	116.182573706667	1.44149780273438	1.4410400390625	3.83392333984375E-06	5.52483652427327E-06	375865.65625	9.26623470149934E-05
2	502	116.283281706413	1.45156860351563	1.45172119140625	3.84246826171875E-06	5.57819248570013E-06	377809.5625	9.30488822632469E-05
2	503	116.383989706159	1.46163940429688	1.46240234375	3.85009765625E-06	5.63039156986633E-06	379835.15625	9.34362324187532E-05
2	504	116.484697705904	1.47171020507813	1.47216796875	3.858642578125E-06	5.68057021155255E-06	381524.8125	9.38243974815123E-05
2	505	116.58540570565	1.48178100585938	1.48193359375	3.868408203125E-06	5.73272382098367E-06	383086.1875	9.42134865908884E-05
2	506	116.686113705396	1.49185180664063	1.49169921875	3.880615234375E-06	5.7887104958354E-06	384397.625	9.46036816458218E-05
2	507	116.786821705142	1.50192260742188	1.50115966796875	3.896484375E-06	5.84924555369071E-06	385260	9.49952882365324E-05
2	508	116.887529704887	1.49185180664063	1.49139404296875	3.7445068359375E-06	5.58453530175029E-06	398288.5	9.53800408751704E-05
2	509	116.988237704633	1.48178100585938	1.48162841796875	3.63861083984375E-06	5.39106895303121E-06	407196.1875	9.57518132054247E-05
2	510	117.088945704379	1.47171020507813	1.47216796875	3.5546875E-06	5.23309699929086E-06	414148.34375	9.6114024927374E-05
2	511	117.189653704125	1.46163940429688	1.46148681640625	3.486328125E-06	5.09522260472295E-06	419205.1875	9.64685677899979E-05
2	512	117.29036170387	1.45156860351563	1.4520263671875	3.42681884765625E-06	4.97583096148446E-06	423724.3125	9.68166714301333E-05
2	513	117.391069703616	1.44149780273438	1.44134521484375	3.375244140625E-06	4.8648917072569E-06	427034.375	9.7159187134821E-05
2	514	117.491777703362	1.43142700195313	1.431884765625	3.3294677734375E-06	4.76741433885763E-06	430064.15625	9.74967915681191E-05
2	515	117.592485703108	1.42135620117188	1.4208984375	3.28826904296875E-06	4.67229619971476E-06	432111.375	9.78300231508911E-05
2	516	117.693193702853	1.41128540039063	1.41082763671875	3.250732421875E-06	4.58622298538103E-06	434003.03125	9.81592893367633E-05
2	517	117.793901702599	1.40121459960938	1.4007568359375	3.21685791015625E-06	4.50603556600981E-06	435442.59375	9.84849539236166E-05
2	518	117.894609702345	1.39114379882813	1.3909912109375	3.18572998046875E-06	4.43132239524857E-06	436631.875	9.8807351605501E-05
2	519	117.99531770209	1.38107299804688	1.3812255859375	3.15673828125E-06	4.36016762250802E-06	437548.375	9.9126722489018E-05
2	520	118.096025701836	1.37100219726563	1.370849609375	3.12957763671875E-06	4.29018018621719E-06	438030.21875	9.9443263025023E-05
2	521	118.196733701582	1.36093139648438	1.36077880859375	3.10455322265625E-06	4.22461016569287E-06	438317.125	9.97571769403294E-05
2	522	118.297441701328	1.35086059570313	1.35101318359375	3.079833984375E-06	4.16089642385487E-06	438664.28125	0.000100068580650259
2	523	118.398149701073	1.34078979492188	1.34063720703125	3.05755615234375E-06	4.09907352150185E-06	438466.90625	0.000100377626949921
2	524	118.498857700819	1.33071899414063	1.33056640625	3.0364990234375E-06	4.04026377509581E-06	438190.9375	0.000100684483186342
2	525	118.599565700565	1.32064819335938	1.32049560546875	3.016357421875E-06	3.98308657167945E-06	437778.25	0.0001009892730508
2	526	118.700273700311	1.31057739257813	1.31134033203125	2.99652099609375E-06	3.92945867133676E-06	437620.96875	0.000101292047474999
2	527	118.800981700056	1.30050659179688	1.3006591796875	2.9779052734375E-06	3.87324007533607E-06	436769.8125	0.000101592879218515
2	528	118.901689699802	1.29043579101563	1.2908935546875	2.95989990234375E-06	3.82091548090102E-06	436127.4375	0.000101891870144755
2	529	119.002397699548	1.28036499023438	1.28021240234375	2.9425048828125E-06	3.76703110305243E-06	435075.71875	0.000102189085737336
2	530	119.103105699294	1.27029418945313	1.26983642578125	2.9248046875E-06	3.71402347809635E-06	434161.09375	0.00010248452599626
2	531	119.203813699039	1.26022338867188	1.26007080078125	2.908935546875E-06	3.66546487384767E-06	433172.46875	0.000102778278233018
2	532	119.304521698785	1.25015258789063	1.25	2.89306640625E-06	3.61633283318952E-06	432067.53125	0.0001030704297591
2	533	119.405229698531	1.24008178710938	1.23992919921875	2.87811279296875E-06	3.56865621142788E-06	430813.28125	0.000103361031506211
2	534	119.505937698277	1.23001098632813	1.23016357421875	2.8631591796875E-06	3.5221539746999E-06	429652.53125	0.000103650127130095
2	535	119.606645698022	1.21994018554688	1.21978759765625	2.8485107421875E-06	3.47457785210281E-06	428219.4375	0.000103937731182668
2	536	119.707353697768	1.20986938476563	1.209716796875	2.83477783203125E-06	3.42927819474426E-06	426741.34375	0.000104223909147549
2	537	119.808061697514	1.19979858398438	1.199951171875	2.8204345703125E-06	3.38438371727534E-06	425449.0625	0.000104508675576653
2	538	119.908769697259	1.18972778320313	1.190185546875	2.8070068359375E-06	3.34085871145362E-06	424005.25	0.000104792037745938
2	539	120.009477697005	1.17965698242188	1.17950439453125	2.7935791015625E-06	3.29503882312565E-06	422219.78125	0.000105074046587106
2	540	120.110185696751	1.16958618164063	1.16973876953125	2.78076171875E-06	3.25276459989254E-06	420654.09375	0.000105354738479946
2	541	120.210893696497	1.15951538085938	1.15966796875	2.76763916015625E-06	3.20954222843284E-06	419009.84375	0.000105634120700415
2	542	120.311601696242	1.14944458007813	1.1492919921875	2.75482177734375E-06	3.16609452966077E-06	417192.875	0.000105912200524472
2	543	120.412309695988	1.13937377929688	1.13922119140625	2.7423095703125E-06	3.12409724756435E-06	415424	0.000106189007055946
2	544	120.513017695734	1.12930297851563	1.12945556640625	2.730712890625E-06	3.08421886074939E-06	413612	0.000106464591226541
2	545	120.61372569548	1.11923217773438	1.11907958984375	2.718505859375E-06	3.04222430713708E-06	411652.46875	0.000106738982140087
2	546	120.714433695225	1.10916137695313	1.10931396484375	2.70660400390625E-06	3.00247347695404E-06	409854.5625	0.000107012157968711
2	547	120.815141694971	1.09909057617188	1.09893798828125	2.69500732421875E-06	2.9616458050441E-06	407768.09375	0.000107284155092202
2	548	120.915849694717	1.08901977539063	1.0888671875	2.6837158203125E-06	2.92221011477523E-06	405731.1875	0.000107554995338432
2	549	121.016557694463	1.07894897460938	1.07879638671875	2.67242431640625E-06	2.88300157080812E-06	403677.0625	0.000107824693259317
2	550	121.117265694208	1.06887817382813	1.0693359375	2.6611328125E-06	2.8456449854275E-06	401834.84375	0.000108093263406772
2	551	121.217973693954	1.05880737304688	1.05926513671875	2.650146484375E-06	2.80720769296749E-06	399700.625	0.000108360705780797
2	552	121.3186816937	1.04873657226563	1.04888916015625	2.6385498046875E-06	2.76754599326523E-06	397524.90625	0.000108627013105433
2	553	121.419389693446	1.03866577148438	1.03851318359375	2.62786865234375E-06	2.72907618636964E-06	395192.21875	0.000108892199932598
2	554	121.520097693191	1.02859497070313	1.0284423828125	2.6153564453125E-06	2.68974326900207E-06	393232.21875	0.000109156215330586
2	555	121.620805692937	1.01852416992188	1.0186767578125	2.60345458984375E-06	2.65207859229122E-06	391278.875	0.000109419001091737
2	556	121.721513692683	1.00845336914063	1.00860595703125	2.59002685546875E-06	2.61231639342441E-06	389419.125	0.000109680513560306
2	557	121.822221692428	0.998382568359375	0.99853515625	2.5750732421875E-06	2.57130113823223E-06	387769.625	0.000109940599941183
2	558	121.922929692174	0.988311767578125	0.9881591796875	2.55767822265625E-06	2.52739300776739E-06	386350.09375	0.000110199056507554
2	559	122.02363769192	0.978240966796875	0.97808837890625	2.5372314453125E-06	2.48163655669487E-06	385494.34375	0.000110455599497072
2	560	122.124345691666	0.968170166015625	0.96893310546875	2.51220703125E-06	2.43416047851497E-06	385690	0.000110709865111858
2	561	122.225053691411	0.958099365234375	0.958251953125	2.48046875E-06	2.3769139261276E-06	386318.90625	0.000110961263999343
2	562	122.325761691157	0.948028564453125	0.9478759765625	2.43865966796875E-06	2.31154672292178E-06	388687.28125	0.000111208959424403
2	563	122.426469690903	0.937957763671875	0.9381103515625	2.3828125E-06	2.23534107135492E-06	393698.78125	0.000111451743578073
2	564	122.527177690649	0.927886962890625	0.92803955078125	2.308349609375E-06	2.14223973671324E-06	402035.96875	0.000111687957542017
2	565	122.627885690394	0.917816162109375	0.91766357421875	2.20947265625E-06	2.02755245481967E-06	415331.5	0.000111915447632782
2	566	122.72859369014	0.907745361328125	0.908203125	2.08038330078125E-06	1.88941055512259E-06	436555.6875	0.00011213146353839
2	567	122.829301689886	0.897674560546875	0.8978271484375	1.9158935546875E-06	1.72014119925734E-06	468620.5625	0.000112332687422168
2	568	122.930009689632	0.887603759765625	0.88836669921875	1.717529296875E-06	1.52579582390899E-06	517235.28125	0.000112515648652334
2	569	123.030717689377	0.877532958984375	0.877685546875	1.4886474609375E-06	1.30656428609655E-06	589585.9375	0.000112677087599877
2	570	123.131425689123	0.867462158203125	0.86761474609375	1.24603271484375E-06	1.0810763342306E-06	696301.8125	0.000112814792373683
2	571	123.232133688869	0.857391357421875	0.8575439453125	1.007080078125E-06	8.63615412072249E-07	851515.125	0.000112928246380761
2	572	123.332841688615	0.847320556640625	0.84747314453125	7.9620361328125E-07	6.74761167829274E-07	1064392.5	0.000113019050331786
2	573	123.43354968836	0.837249755859375	0.83740234375	6.29577636718751E-07	5.27209806477913E-07	1330101.75	0.000113090842205565
2	574	123.534257688106	0.827178955078125	0.82763671875	5.19409179687499E-07	4.29882106800505E-07	1593419.5	0.000113148700620513
2	575	123.634965687852	0.817108154296875	0.81695556640625	4.62951660156249E-07	3.78210927465261E-07	1764667.125	0.000113198162580375
2	576	123.735673687597	0.807037353515625	0.80718994140625	4.5166015625E-07	3.64575527100897E-07	1787162.125	0.000113244219392072
2	577	123.836381687343	0.796966552734375	0.79803466796875	4.6539306640625E-07	3.71399778487103E-07	1714754.125	0.00011329039989505
2	578	123.937089687089	0.786895751953125	0.78704833984375	4.8187255859375E-07	3.79256960059138E-07	1633312.375	0.000113338093797211
2	579	124.037797686835	0.776824951171875	0.77728271484375	4.83093261718751E-07	3.7550000797637E-07	1608970.375	0.000113386682642158
2	580	124.13850568658	0.766754150390625	0.7666015625	4.5318603515625E-07	3.47413134704766E-07	1691582.5	0.000113433830847498
2	581	124.239213686326	0.756683349609375	0.75653076171875	3.79638671875E-07	2.87208337113043E-07	1992765.375	0.000113475769467186
2	582	124.339921686072	0.746612548828125	0.74658203125	2.484130859375E-07	1.85460734769549E-07	3005405.5	0.000113507390778977
2	583	124.440629685818	0.736541748046875	0.736419677734375	4.94384765624994E-08	3.64074672631887E-08	14895679	0.00011352238652762
2	584	124.541337685563	0.726470947265625	0.72637939453125	-2.2247314453125E-07	-1.61599899684006E-07	-3265020.75	0.000113513677206356
2	585	124.642045685309	0.716400146484375	0.71636962890625	-5.657958984375E-07	-4.05318957064082E-07	-1266127.375	0.000113473986857571
2	586	124.742753685055	0.706329345703125	0.706268310546875	-9.6405029296875E-07	-6.80878144976305E-07	-732605.25	0.000113396949018352
2	587	124.843461684801	0.696258544921875	0.69622802734375	-1.390380859375E-06	-9.68022050074069E-07	-500746.28125	0.000113278394564986
2	588	124.944169684546	0.686187744140625	0.686126708984375	-1.80389404296875E-06	-1.23769984838873E-06	-380358.6875	0.000113117552245967
2	589	125.044877684292	0.676116943359375	0.676116943359375	-2.164306640625E-06	-1.46332433814678E-06	-312394.25	0.000112917732622009
2	590	125.145585684038	0.666046142578125	0.665985107421875	-2.4359130859375E-06	-1.62228184308333E-06	-273402.65625	0.000112686095235404
2	591	125.246293683784	0.655975341796875	0.655914306640625	-2.59735107421875E-06	-1.70363978213572E-06	-252532.015625	0.000112432651803829
2	592	125.347001683529	0.645904541015625	0.6458740234375	-2.6470947265625E-06	-1.70968962720508E-06	-243993.5625	0.000112168570922222
2	593	125.447709683275	0.635833740234375	0.635772705078125	-2.603759765625E-06	-1.65539927365899E-06	-244174.890625	0.00011190416989848
2	594	125.548417683021	0.625762939453125	0.62579345703125	-2.49359130859375E-06	-1.56047303789819E-06	-250960.734375	0.000111647495941725
2	595	125.649125682766	0.615692138671875	0.615631103515625	-2.34527587890625E-06	-1.44382477174076E-06	-262498.375	0.000111403845949098
2	596	125.749833682512	0.605621337890625	0.605621337890625	-2.18017578125E-06	-1.32036086597509E-06	-277785.5625	0.00011117597023258
2	597	125.850541682258	0.595550537109375	0.5955810546875	-2.0135498046875E-06	-1.19923197416938E-06	-295786.625	0.000110964800114743
2	598	125.951249682004	0.585479736328125	0.585479736328125	-1.854248046875E-06	-1.08562460354733E-06	-315750.5	0.000110770037281327
2	599	126.051957681749	0.575408935546875	0.575408935546875	-1.7059326171875E-06	-9.81608877737017E-07	-337298.75	0.000110590772237629
2	600	126.152665681495	0.565338134765625	0.5653076171875	-1.57073974609375E-06	-8.8795115971152E-07	-359898.96875	0.000110425775346812
2	601	126.253373681241	0.555267333984375	0.55523681640625	-1.44805908203125E-06	-8.040157126743E-07	-383435.21875	0.000110273766040336
2	602	126.354081680987	0.545196533203125	0.545196533203125	-1.33819580078125E-06	-7.29579653580004E-07	-407411.65625	0.00011013347102562
2	603	126.454789680732	0.535125732421875	0.53515625	-1.239013671875E-06	-6.63065861772338E-07	-431921.1875	0.000110003697045613
2	604	126.555497680478	0.525054931640625	0.5250244140625	-1.1505126953125E-06	-6.04047215801984E-07	-456339.5625	0.000109883374534547
2	605	126.656205680224	0.514984130859375	0.514984130859375	-1.07086181640625E-06	-5.5147683042378E-07	-480906.25	0.000109771513962187
2	606	126.75691367997	0.504913330078125	0.50494384765625	-9.991455078125E-07	-5.04512399857049E-07	-505375.6875	0.000109667285869364
2	607	126.857621679715	0.494842529296875	0.494873046875	-9.32922363281249E-07	-4.61678098417906E-07	-530454.75	0.000109569999040104
2	608	126.958329679461	0.484771728515625	0.4847412109375	-8.73413085937499E-07	-4.23379304947957E-07	-554996.5	0.00010947904229397
2	609	127.059037679207	0.474700927734375	0.47467041015625	-8.18786621093751E-07	-3.88653774052727E-07	-579724.1875	0.00010939383355435
2	610	127.159745678953	0.464630126953125	0.464569091796875	-7.6873779296875E-07	-3.57131824557655E-07	-604327.125	0.000109313892608043
2	611	127.260453678698	0.454559326171875	0.454559326171875	-7.232666015625E-07	-3.2876755540201E-07	-628481.0625	0.000109238768345676
2	612	127.361161678444	0.444488525390625	0.4444580078125	-6.81152343749999E-07	-3.02743586644283E-07	-652509	0.000109168046037666
2	613	127.46186967819	0.434417724609375	0.434417724609375	-6.427001953125E-07	-2.7920034995077E-07	-675925.9375	0.000109101383714005
2	614	127.562577677935	0.424346923828125	0.42431640625	-6.0577392578125E-07	-2.57039800999337E-07	-700453.4375	0.000109038519440219
2	615	127.663285677681	0.414276123046875	0.414276123046875	-5.72814941406249E-07	-2.37303552808044E-07	-723228.5625	0.000108979176729918
2	616	127.763993677427	0.404205322265625	0.40423583984375	-5.419921875E-07	-2.19092655129316E-07	-745833.375	0.000108923035440966
2	617	127.864701677173	0.394134521484375	0.3941650390625	-5.1300048828125E-07	-2.02206862809362E-07	-768352.1875	0.000108869913674425
2	618	127.965409676918	0.384063720703125	0.384063720703125	-4.852294921875E-07	-1.86359031317807E-07	-791509.5	0.000108819651359227
2	619	128.066117676664	0.373992919921875	0.3740234375	-4.58679199218751E-07	-1.71556763461922E-07	-815435.8125	0.000108772117528133
2	620	128.16682567641	0.363922119140625	0.363922119140625	-4.33349609375E-07	-1.57705514425288E-07	-839788.75	0.000108727203041781
2	621	128.267533676156	0.353851318359375	0.3538818359375	-4.09851074218751E-07	-1.45038839605149E-07	-863440.125	0.000108684747829102
2	622	128.368241675901	0.343780517578125	0.343780517578125	-3.86657714843749E-07	-1.32925393359073E-07	-889108.125	0.000108644635474775
2	623	128.468949675647	0.333709716796875	0.333709716796875	-3.6468505859375E-07	-1.21698946031756E-07	-915062.8125	0.000108606807771139
2	624	128.569657675393	0.323638916015625	0.32366943359375	-3.436279296875E-07	-1.11221858389854E-07	-941918.3125	0.000108571141026914
2	625	128.670365675139	0.313568115234375	0.3135986328125	-3.23486328125E-07	-1.01444868505496E-07	-969434	0.000108537547930609
2	626	128.771073674884	0.303497314453125	0.30352783203125	-3.0487060546875E-07	-9.25367160675705E-08	-995595.5625	0.000108505904790945
2	627	128.87178167463	0.293426513671875	0.29339599609375	-2.8656005859375E-07	-8.40755660647119E-08	-1023855.25	0.00010847612429643
2	628	128.972489674376	0.283355712890625	0.283355712890625	-2.69165039062499E-07	-7.62694511990958E-08	-1052721.125	0.000108448140963446
2	629	129.073197674122	0.273284912109375	0.27325439453125	-2.532958984375E-07	-6.92142165803489E-08	-1078795.25	0.000108421831100713
2	630	129.173905673867	0.263214111328125	0.26324462890625	-2.37426757812501E-07	-6.25013143462638E-08	-1108740.375	0.000108397121948656
2	631	129.274613673613	0.253143310546875	0.25311279296875	-2.2247314453125E-07	-5.63107960260822E-08	-1137723	0.000108373969851527
2	632	129.375321673359	0.243072509765625	0.24310302734375	-2.0751953125E-07	-5.04486230568091E-08	-1171470.625	0.000108352316601668
2	633	129.476029673104	0.233001708984375	0.233062744140625	-1.9378662109375E-07	-4.516444107594E-08	-1202677.125	0.000108332103991415
2	634	129.57673767285	0.222930908203125	0.22296142578125	-1.81884765625E-07	-4.05532851743828E-08	-1225839	0.000108313193777576
2	635	129.677445672596	0.212860107421875	0.212860107421875	-1.708984375E-07	-3.63774574907438E-08	-1245535.75	0.000108295425889082
2	636	129.778153672342	0.202789306640625	0.202850341796875	-1.617431640625E-07	-3.28096554369495E-08	-1254151	0.000108278676634654
2	637	129.878861672087	0.192718505859375	0.1927490234375	-1.5533447265625E-07	-2.99405655823648E-08	-1240864.5	0.000108262713183649
2	638	129.979569671833	0.182647705078125	0.18267822265625	-1.4984130859375E-07	-2.73727422950287E-08	-1219144.625	0.000108247346361168
2	639	130.080277671579	0.172576904296875	0.172607421875	-1.4678955078125E-07	-2.53369645264456E-08	-1175883.625	0.000108232408820186
2	640	130.180985671325	0.162506103515625	0.16253662109375	-1.47705078125E-07	-2.40074840007765E-08	-1100413.25	0.000108217580418568
2	641	130.28169367107	0.152435302734375	0.1524658203125	-1.51977539062501E-07	-2.31713794818234E-08	-1003212.875	0.000108202490082476
2	642	130.382401670816	0.142364501953125	0.142364501953125	-1.62353515624999E-07	-2.31133778783033E-08	-876879.6875	0.000108186657598708
2	643	130.483109670562	0.132293701171875	0.13232421875	-1.79443359375001E-07	-2.37447022044535E-08	-737414.9375	0.00010816944995895
2	644	130.583817670308	0.122222900390625	0.12225341796875	-2.06298828125E-07	-2.52207357220868E-08	-592603.5625	0.00010815002315212
2	645	130.684525670053	0.112152099609375	0.112213134765625	-2.46582031250001E-07	-2.76697420531491E-08	-455074.25	0.000108127220300958
2	646	130.785233669799	0.102081298828125	0.102203369140625	-3.04565429687501E-07	-3.11276124875803E-08	-335571.15625	0.000108099469798617
2	647	130.885941669545	0.092010498046875	0.092132568359375	-3.863525390625E-07	-3.55956508713007E-08	-238467.625	0.000108064676169306
2	648	130.986649669291	0.081939697265625	0.08209228515625	-4.9774169921875E-07	-4.08607512270009E-08	-164929.5	0.000108020161860622
2	649	131.087357669036	0.071868896484375	0.071990966796875	-6.439208984375E-07	-4.63564866493016E-08	-111800.953125	0.000107962674519513
2	650	131.188065668782	0.061798095703125	0.061859130859375	-8.2733154296875E-07	-5.11780093859215E-08	-74769.4609375	0.000107888590719085
2	651	131.288773668528	0.051727294921875	0.051788330078125	-1.04461669921875E-06	-5.40989510966483E-08	-49576.3984375	0.000107794330688193
2	652	131.389481668273	0.041656494140625	0.041741943359375	-1.282958984375E-06	-5.35532009848794E-08	-32535.68359375	0.000107677129562944
2	653	131.490189668019	0.031585693359375	0.0316558837890625	-1.5234375E-06	-4.82257611622572E-08	-20779.248046875	0.000107535815914162
2	654	131.590897667765	0.021514892578125	0.02159423828125	-1.7401123046875E-06	-3.75763953286423E-08	-12409.6806640625	0.000107371481135488
2	655	131.691605667511	0.011444091796875	0.0115386962890625	-1.91192626953125E-06	-2.20611351409161E-08	-6035.1162109375	0.000107187588582747
2	656	131.792313667256	0.001373291015625	0.00145874023437501	-2.025146484375E-06	-2.95416247020341E-09	-720.3134765625	0.000106989340565633
2	657	131.893021667002	-0.008697509765625	-0.0085906982421875	-2.07763671875E-06	1.78483503532334E-08	4134.84130859375	0.000106782747025136
2	658	131.993729666748	-0.018768310546875	-0.01866455078125	-2.0770263671875E-06	3.87667604684339E-08	8986.1884765625	0.000106573541415855
2	659	132.094437666494	-0.028839111328125	-0.028717041015625	-2.0416259765625E-06	5.8629456844983E-08	14065.76953125	0.000106366154795978
2	660	132.195145666239	-0.038909912109375	-0.0387603759765625	-1.98150634765625E-06	7.68039285503619E-08	19561.06640625	0.000106163570308127
2	661	132.295853665985	-0.048980712890625	-0.0488311767578125	-1.9122314453125E-06	9.33765136323927E-08	25536.2265625	0.000105967505078297
2	662	132.396561665731	-0.059051513671875	-0.058990478515625	-1.83929443359375E-06	1.08500856299543E-07	32072.341796875	0.00010577859939076
2	663	132.497269665477	-0.069122314453125	-0.069061279296875	-1.76971435546875E-06	1.22218736464674E-07	39023.96875	0.000105596875073388
2	664	132.597977665222	-0.079193115234375	-0.079132080078125	-1.70562744140625E-06	1.34969837972676E-07	46394.70703125	0.000105421873740852
2	665	132.698685664968	-0.089263916015625	-0.089141845703125	-1.64794921875E-06	1.46901228958995E-07	54092.59375	0.000105253013316542
2	666	132.799393664714	-0.099334716796875	-0.099212646484375	-1.5972900390625E-06	1.584713658076E-07	62113.109375	0.000105089602584485
2	667	132.900101664459	-0.109405517578125	-0.109283447265625	-1.552734375E-06	1.69688163964565E-07	70381.2890625	0.000104930986708496
2	668	133.000809664205	-0.119476318359375	-0.119384765625	-1.514892578125E-06	1.80855096232335E-07	78807.4140625	0.000104776518128347
2	669	133.101517663951	-0.129547119140625	-0.129486083984375	-1.48284912109375E-06	1.92008315025305E-07	87322.5	0.000104625571111683
2	670	133.202225663697	-0.139617919921875	-0.139495849609375	-1.45660400390625E-06	2.0319021132309E-07	95767.859375	0.000104477556305937
2	671	133.302933663442	-0.149688720703125	-0.14959716796875	-1.43402099609375E-06	2.14525485375816E-07	104320.0703125	0.000104332000773866
2	672	133.403641663188	-0.159759521484375	-0.159698486328125	-1.4166259765625E-06	2.26233026978662E-07	112731.578125	0.000104188460682053
2	673	133.504349662934	-0.169830322265625	-0.169677734375	-1.40350341796875E-06	2.38143272213165E-07	120895.8515625	0.000104046455817297
2	674	133.60505766268	-0.179901123046875	-0.17974853515625	-1.39434814453125E-06	2.50632041343124E-07	128912.234375	0.000103905571450014
2	675	133.705765662425	-0.189971923828125	-0.1898193359375	-1.38916015625E-06	2.63689457824512E-07	136643.234375	0.000103765407402534
2	676	133.806473662171	-0.200042724609375	-0.19989013671875	-1.38824462890625E-06	2.77496411626998E-07	143987.6875	0.000103625556221232
2	677	133.907181661917	-0.189971923828125	-0.189788818359375	-1.21307373046875E-06	2.30227826136797E-07	156452.828125	0.000103494567156304
