Potential - Start -0.2 V, Upper Vertex 1.5 V, Lower Vertex -0.2 V, Stop -0.19 V; Scan - # end cross 5, Rate 0.1 Vps, Step 0.01 V 
Scan	Index	Time (s)	Potential applied (V)	WE(1).Potential (V)	WE(1).Current (A)	WE(1).Power (W)	WE(1).Resistance (Ω)	WE(1).Charge (C)
1	1	37.360040905675	-0.189971923828125	-0.189849853515625	-1.97448730468749E-07	3.74856128360079E-08	961514.6875	0
1	2	37.4607489054207	-0.179901123046875	-0.179718017578125	-1.629638671875E-07	2.92875412810645E-08	1102809	-1.81482153749357E-08
1	3	37.5614569051664	-0.169830322265625	-0.169677734375	-1.35498046875E-07	2.29910011029233E-08	1252252.25	-3.3176966951487E-08
1	4	37.6621649049122	-0.159759521484375	-0.15966796875	-1.129150390625E-07	1.80289152496016E-08	1414054	-4.56855566710601E-08
1	5	37.7628729046579	-0.149688720703125	-0.149658203125	-9.27734375000003E-08	1.38843052610582E-08	1613158	-5.60427970697219E-08
1	6	37.8635809044036	-0.139617919921875	-0.139556884765625	-7.476806640625E-08	1.0434398234338E-08	1866530.625	-6.44791811055256E-08
1	7	37.9642889041494	-0.129547119140625	-0.12945556640625	-5.76782226562503E-08	7.46676676044444E-09	2244444.5	-7.11483778559341E-08
1	8	38.0649969038951	-0.119476318359375	-0.119415283203125	-4.08935546875003E-08	4.88331508563533E-09	2920149.25	-7.61118670311589E-08
1	9	38.1657049036409	-0.109405517578125	-0.10931396484375	-2.44140625E-08	2.66879784938112E-09	4477500	-7.9400365393667E-08
1	10	38.2664129033866	-0.099334716796875	-0.099273681640625	-6.40869140624972E-09	6.36214358973319E-10	15490476	-8.09524109968152E-08
1	11	38.3671209031323	-0.089263916015625	-0.089202880859375	1.373291015625E-08	-1.22501508936779E-09	-6495555.5	-8.05836108952462E-08
1	12	38.4678289028781	-0.079193115234375	-0.07916259765625	3.60107421875006E-08	-2.85070389516306E-09	-2198305	-7.80788198539994E-08
1	13	38.5685369026238	-0.069122314453125	-0.069091796875	6.31713867187495E-08	-4.36462466169019E-09	-1093719.875	-7.3084599705453E-08
1	14	38.6692449023695	-0.059051513671875	-0.059051513671875	9.70458984375006E-08	-5.7307070200352E-09	-608490.5625	-6.50170193239319E-08
1	15	38.7699529021153	-0.048980712890625	-0.048846435546875	1.4190673828125E-07	-6.9316383743967E-09	-344215.0625	-5.29847987706944E-08
1	16	38.870660901861	-0.038909912109375	-0.0387603759765625	2.01416015625E-07	-7.80696041147166E-09	-192439.390625	-3.56971234793946E-08
1	17	38.9713689016068	-0.028839111328125	-0.0287200927734375	2.81372070312499E-07	-8.08103095550905E-09	-102071.5859375	-1.13868132700645E-08
1	18	39.0720769013525	-0.018768310546875	-0.01865234375	3.8787841796875E-07	-7.23484161468946E-09	-48088.12109375	2.23126246368111E-08
1	19	39.1727849010982	-0.008697509765625	-0.00859985351562501	5.279541015625E-07	-4.54032766938894E-09	-16289.0166015625	6.84284557905812E-08
1	20	39.273492900844	0.001373291015625	0.00146484375	7.0556640625E-07	1.0335444722287E-09	2076.12475585938	1.30541138787521E-07
1	21	39.3742009005897	0.011444091796875	0.0115081787109375	9.197998046875E-07	1.05852206999657E-08	12511.61328125	2.12384833275792E-07
1	22	39.4749089003354	0.021514892578125	0.0216094970703125	1.1627197265625E-06	2.5125787672664E-08	18585.30078125	3.17248009196192E-07
1	23	39.5756169000812	0.031585693359375	0.0316925048828125	1.417236328125E-06	4.49157688819923E-08	22362.189453125	4.47159123950769E-07
1	24	39.6763248998269	0.041656494140625	0.041748046875	1.6595458984375E-06	6.92827981652044E-08	25156.30859375	6.0208742524992E-07
1	25	39.7770328995726	0.051727294921875	0.0517578125	1.86553955078125E-06	9.65562421129107E-08	27744.15234375	7.79589583999041E-07
1	26	39.8777408993184	0.061798095703125	0.061859130859375	2.01446533203125E-06	1.2461306653222E-07	30707.46875	9.74963313638E-07
1	27	39.9784488990641	0.071868896484375	0.071929931640625	2.099609375E-06	1.51024750039142E-07	34258.72265625	1.18212346933433E-06
1	28	40.0791568988099	0.081939697265625	0.082000732421875	2.12615966796875E-06	1.74346652670465E-07	38567.53125	1.39490782657958E-06
1	29	40.1798648985556	0.092010498046875	0.092071533203125	2.10540771484375E-06	1.93848109120154E-07	43730.9765625	1.60798413162411E-06
1	30	40.2805728983013	0.102081298828125	0.10211181640625	2.05413818359375E-06	2.09751775059885E-07	49710.296875	1.81743394023215E-06
1	31	40.3812808980471	0.112152099609375	0.112213134765625	1.9854736328125E-06	2.22796217030918E-07	56517.0625	2.02084447664674E-06
1	32	40.4819888977928	0.122222900390625	0.122283935546875	1.91009521484375E-06	2.33573942409748E-07	64019.81640625	2.21700202018837E-06
1	33	40.5826968975385	0.132293701171875	0.13238525390625	1.8341064453125E-06	2.42808624761892E-07	72179.703125	2.4055375433818E-06
1	34	40.6834048972843	0.142364501953125	0.1424560546875	1.7626953125E-06	2.51106627047193E-07	80817.171875	2.58665090768773E-06
1	35	40.78411289703	0.152435302734375	0.15252685546875	1.69586181640625E-06	2.58664471175507E-07	89940.6171875	2.76080299954629E-06
1	36	40.8848208967758	0.162506103515625	0.1624755859375	1.6357421875E-06	2.65768164808833E-07	99328.359375	2.92856270789343E-06
1	37	40.9855288965215	0.172576904296875	0.17254638671875	1.58203125E-06	2.72973778692176E-07	109066.359375	3.09059032588266E-06
1	38	41.0862368962672	0.182647705078125	0.182647705078125	1.53289794921875E-06	2.79980298500959E-07	119151.8984375	3.24743950841366E-06
1	39	41.186944896013	0.192718505859375	0.1927490234375	1.48956298828125E-06	2.87111788566108E-07	129399.71875	3.39963253281894E-06
1	40	41.2876528957587	0.202789306640625	0.202789306640625	1.451416015625E-06	2.94331641725876E-07	139718.25	3.54772259925085E-06
1	41	41.3883608955044	0.212860107421875	0.212890625	1.416015625E-06	3.01456452689308E-07	150344.828125	3.69210920325713E-06
1	42	41.4890688952502	0.222930908203125	0.222930908203125	1.38580322265625E-06	3.08938382431734E-07	160867.65625	3.83319184038555E-06
1	43	41.5897768949959	0.233001708984375	0.23297119140625	1.35772705078125E-06	3.16311286496784E-07	171589.125	3.97133953811135E-06
1	44	41.6904848947416	0.243072509765625	0.243072509765625	1.33270263671875E-06	3.23943368130131E-07	182390.65625	4.10681377616129E-06
1	45	41.7911928944874	0.253143310546875	0.253143310546875	1.309814453125E-06	3.31570731759712E-07	193266.5625	4.23987512476742E-06
1	46	41.8919008942331	0.263214111328125	0.26324462890625	1.28936767578125E-06	3.39419102601823E-07	204165.6875	4.37075414083665E-06
1	47	41.9926088939789	0.273284912109375	0.273284912109375	1.2701416015625E-06	3.4711052876446E-07	215161	4.49963545179344E-06
1	48	42.0933168937246	0.283355712890625	0.283294677734375	1.2530517578125E-06	3.54982887529331E-07	226083.78125	4.62668867839966E-06
1	49	42.1940248934703	0.293426513671875	0.293365478515625	1.2371826171875E-06	3.62946650511731E-07	237123.84375	4.7520816224278E-06
1	50	42.2947328932161	0.303497314453125	0.303466796875	1.22283935546875E-06	3.71091118722688E-07	248165.734375	4.87595389131457E-06
1	51	42.3954408929618	0.313568115234375	0.313568115234375	1.21002197265625E-06	3.79424307084264E-07	259142.5	4.99845782542252E-06
1	52	42.4961488927075	0.323638916015625	0.323638916015625	1.1981201171875E-06	3.87758291253704E-07	270122.25	5.11971757077845E-06
1	53	42.5968568924533	0.333709716796875	0.333709716796875	1.1865234375E-06	3.95954373288987E-07	281250	5.23979406352737E-06
1	54	42.697564892199	0.343780517578125	0.34375	1.1767578125E-06	4.04510501539335E-07	292116.1875	5.35879462404409E-06
1	55	42.7982728919447	0.353851318359375	0.35382080078125	1.16729736328125E-06	4.13014078048946E-07	303111.125	5.47682702745078E-06
1	56	42.8989808916905	0.363922119140625	0.36395263671875	1.15966796875E-06	4.22064204030903E-07	313842.125	5.59399904886959E-06
1	57	42.9996888914362	0.373992919921875	0.373992919921875	1.15234375E-06	4.30968412956645E-07	324549.78125	5.71041800867533E-06
1	58	43.100396891182	0.384063720703125	0.384033203125	1.14593505859375E-06	4.40077087660029E-07	335126.5	5.82614575250773E-06
1	59	43.2011048909277	0.394134521484375	0.39410400390625	1.14044189453125E-06	4.49452727480093E-07	345571.3125	5.94127413933165E-06
1	60	43.3018128906734	0.404205322265625	0.404205322265625	1.13525390625E-06	4.58875661024649E-07	356048.375	6.05586456003948E-06
1	61	43.4025208904192	0.414276123046875	0.414306640625	1.13128662109375E-06	4.6869953962414E-07	366226.0625	6.16999386693351E-06
1	62	43.5032288901649	0.424346923828125	0.424346923828125	1.12762451171875E-06	4.7850397777438E-07	376319.34375	6.28373891231604E-06
1	63	43.6039368899106	0.434417724609375	0.434356689453125	1.12518310546875E-06	4.88730790948466E-07	386032	6.39717700323672E-06
1	64	43.7046448896564	0.444488525390625	0.444488525390625	1.12213134765625E-06	4.98774454626982E-07	396111	6.51033815302071E-06
1	65	43.8053528894021	0.454559326171875	0.454559326171875	1.11968994140625E-06	5.08965513290605E-07	405968.9375	6.62322281641536E-06
1	66	43.9060608891479	0.464630126953125	0.464630126953125	1.1181640625E-06	5.19532704856829E-07	415529.46875	6.73590784572298E-06
1	67	44.0067688888936	0.474700927734375	0.47467041015625	1.11724853515625E-06	5.30324825831485E-07	424856.59375	6.8484696384985E-06
1	68	44.1074768886393	0.484771728515625	0.484771728515625	1.11724853515625E-06	5.4161051821211E-07	433897.84375	6.96098550179158E-06
1	69	44.2081848883851	0.494842529296875	0.49481201171875	1.11724853515625E-06	5.52827998490102E-07	442884.46875	7.07350136508467E-06
1	70	44.3088928881308	0.504913330078125	0.5048828125	1.116943359375E-06	5.63925482310879E-07	452021.875	7.18600176696782E-06
1	71	44.4096008878765	0.514984130859375	0.514984130859375	1.11846923828125E-06	5.75993908569217E-07	460436.59375	7.29856401449069E-06
1	72	44.5103088876223	0.525054931640625	0.52496337890625	1.119384765625E-06	5.8763595234268E-07	468974.9375	7.41124858905096E-06
1	73	44.611016887368	0.535125732421875	0.53509521484375	1.12152099609375E-06	6.00120529270498E-07	477115.65625	7.52408732296317E-06
1	74	44.7117248871137	0.545196533203125	0.545166015625	1.123046875E-06	6.12246992659493E-07	485434.78125	7.63710977480514E-06
1	75	44.8124328868595	0.555267333984375	0.555267333984375	1.12548828125E-06	6.24946835614537E-07	493356.875	7.75033277022885E-06
1	76	44.9131408866052	0.565338134765625	0.565338134765625	1.12762451171875E-06	6.37489108612499E-07	501353.1875	7.86378586781211E-06
1	77	45.013848886351	0.575408935546875	0.575439453125	1.13037109375E-06	6.50460094675509E-07	509071.28125	7.97748543845955E-06
1	78	45.1145568860967	0.585479736328125	0.585418701171875	1.1334228515625E-06	6.63526918742718E-07	516505.09375	8.09147604741156E-06
1	79	45.2152648858424	0.595550537109375	0.59552001953125	1.13616943359375E-06	6.76611648486869E-07	524147.1875	8.20575951365754E-06
1	80	45.3159728855882	0.605621337890625	0.605560302734375	1.138916015625E-06	6.89682337906561E-07	531698.8125	8.32031946629286E-06
1	81	45.4166808853339	0.615692138671875	0.615692138671875	1.1419677734375E-06	7.03100624832587E-07	539150.1875	8.43517045723274E-06
1	82	45.5173888850796	0.625762939453125	0.625732421875	1.14471435546875E-06	7.16284887403162E-07	546627.5625	8.5503143054666E-06
1	83	45.6180968848254	0.635833740234375	0.635772705078125	1.1474609375E-06	7.29524344933452E-07	554069.1875	8.66573464008979E-06
1	84	45.7188048845711	0.645904541015625	0.645843505859375	1.15020751953125E-06	7.42854012969474E-07	561501.75	8.78143146110233E-06
1	85	45.8195128843169	0.655975341796875	0.65594482421875	1.15264892578125E-06	7.56074086893932E-07	569076	8.89738930709427E-06
1	86	45.9202208840626	0.666046142578125	0.66595458984375	1.15570068359375E-06	7.69644145748316E-07	576234.5	9.01362363947555E-06
1	87	46.0209288838083	0.676116943359375	0.676055908203125	1.15753173828125E-06	7.82556185185967E-07	584049.5625	9.13010444492102E-06
1	88	46.1216368835541	0.686187744140625	0.686187744140625	1.15997314453125E-06	7.95959294919157E-07	591554.875	9.2467998911161E-06
1	89	46.2223448832998	0.696258544921875	0.6961669921875	1.162109375E-06	8.09022196790465E-07	599054.625	9.36372634896543E-06
1	90	46.3230528830455	0.706329345703125	0.706298828125	1.16363525390625E-06	8.218742095778E-07	606976.125	9.48083652474452E-06
1	91	46.4237608827913	0.716400146484375	0.71630859375	1.165771484375E-06	8.35052105685463E-07	614450.3125	9.59813132794807E-06
1	92	46.524468882537	0.726470947265625	0.726348876953125	1.16790771484375E-06	8.48308445711154E-07	621923.1875	9.71564168139594E-06
1	93	46.6251768822827	0.736541748046875	0.7364501953125	1.16943359375E-06	8.61229523252405E-07	629749.5	9.83333666226827E-06
1	94	46.7258848820285	0.746612548828125	0.746551513671875	1.17218017578125E-06	8.75092894148111E-07	636891.4375	9.95124628389021E-06
1	95	46.8265928817742	0.756683349609375	0.75714111328125	1.17431640625E-06	8.89123214165011E-07	644750.5625	1.00694014690816E-05
1	96	46.92730088152	0.766754150390625	0.7666015625	1.1767578125E-06	9.02104375199997E-07	651452.3125	1.01877876659273E-05
1	97	47.0280088812657	0.776824951171875	0.7769775390625	1.1798095703125E-06	9.16685451102239E-07	658561.875	1.03064503491623E-05
1	98	47.1287168810114	0.786895751953125	0.78704833984375	1.182861328125E-06	9.30969008550164E-07	665376.6875	1.04254195321118E-05
1	99	47.2294248807572	0.796966552734375	0.797119140625	1.18621826171875E-06	9.45557246723183E-07	671983.5625	1.05447124951752E-05
1	100	47.3301328805029	0.807037353515625	0.80780029296875	1.190185546875E-06	9.61432306212373E-07	678717.9375	1.06643738035928E-05
1	101	47.4308408802486	0.817108154296875	0.8172607421875	1.1944580078125E-06	9.76183514467266E-07	684210.5625	1.0784450751089E-05
1	102	47.5315488799944	0.827178955078125	0.82733154296875	1.19903564453125E-06	9.9199996839161E-07	689997.4375	1.09049724414945E-05
1	103	47.6322568797401	0.837249755859375	0.83740234375	1.2030029296875E-06	1.00739737263211E-06	696093.375	1.10259243228938E-05
1	104	47.7329648794858	0.847320556640625	0.8477783203125	1.20819091796875E-06	1.02427804904437E-06	701692.375	1.1147337318107E-05
1	105	47.8336728792316	0.857391357421875	0.8575439453125	1.21307373046875E-06	1.04026401004376E-06	706918.25	1.12692578113638E-05
1	106	47.9343808789773	0.867462158203125	0.8673095703125	1.21734619140625E-06	1.05581591469672E-06	712459.3125	1.13916394184344E-05
1	107	48.0350888787231	0.877532958984375	0.877685546875	1.22283935546875E-06	1.07326832221588E-06	717744	1.15145121526439E-05
1	108	48.1357968784688	0.887603759765625	0.887451171875	1.22772216796875E-06	1.08954338884359E-06	722843.6875	1.16379078463069E-05
1	109	48.2365048782145	0.897674560546875	0.8978271484375	1.2322998046875E-06	1.10639211925445E-06	728578.5625	1.17617801151937E-05
1	110	48.3372128779603	0.907745361328125	0.9075927734375	1.23687744140625E-06	1.12258101125917E-06	733777.4375	1.18861125883996E-05
1	111	48.437920877706	0.917816162109375	0.91766357421875	1.24114990234375E-06	1.13895805498032E-06	739365.625	1.2010891623504E-05
1	112	48.5386288774517	0.927886962890625	0.9283447265625	1.246337890625E-06	1.15703119263344E-06	744858	1.21361463243375E-05
1	113	48.6393368771975	0.937957763671875	0.9381103515625	1.25030517578125E-06	1.17292415779957E-06	750305.125	1.22618621389847E-05
1	114	48.7400448769432	0.948028564453125	0.94818115234375	1.2548828125E-06	1.18985622066248E-06	755593.375	1.23880090541206E-05
1	115	48.840752876689	0.958099365234375	0.958251953125	1.25885009765625E-06	1.20629545108386E-06	761212.1875	1.25145852507558E-05
1	116	48.9414608764347	0.968170166015625	0.96832275390625	1.26312255859375E-06	1.22311030281708E-06	766610.3125	1.26415770864696E-05
1	117	49.0421688761804	0.978240966796875	0.97808837890625	1.26708984375E-06	1.23932579754182E-06	771917.1875	1.27689827422728E-05
1	118	49.1428768759262	0.988311767578125	0.98876953125	1.2713623046875E-06	1.25708425002813E-06	777724.4375	1.28968040371547E-05
1	119	49.2435848756719	0.998382568359375	0.99822998046875	1.27532958984375E-06	1.27307214370376E-06	782723.1875	1.30250400616205E-05
1	120	49.3442928754176	1.00845336914063	1.00830078125	1.279296875E-06	1.28991598558059E-06	788167.9375	1.31536762637552E-05
1	121	49.4450008751634	1.01852416992188	1.0186767578125	1.2835693359375E-06	1.30754222027463E-06	793628.1875	1.32827262859792E-05
1	122	49.5457088749091	1.02859497070313	1.0284423828125	1.287841796875E-06	1.32447109990608E-06	798578.1875	1.34122074086918E-05
1	123	49.6464168746548	1.03866577148438	1.038818359375	1.2921142578125E-06	1.34227195758285E-06	803967.875	1.35421187223983E-05
1	124	49.7471248744006	1.04873657226563	1.04888916015625	1.29608154296875E-06	1.35944594603643E-06	809277.125	1.36724447656889E-05
1	125	49.8478328741463	1.05880737304688	1.0589599609375	1.3006591796875E-06	1.3773459386357E-06	814171.75	1.38032009999733E-05
1	126	49.9485408738921	1.06887817382813	1.0687255859375	1.304931640625E-06	1.39461383241724E-06	818989.6875	1.39344028866617E-05
1	127	50.0492488736378	1.07894897460938	1.07879638671875	1.31011962890625E-06	1.4133522654447E-06	823433.5	1.40660813485738E-05
1	128	50.1499568733835	1.08901977539063	1.08856201171875	1.3153076171875E-06	1.43179386213887E-06	827610.25	1.41982818604447E-05
1	129	50.2506648731293	1.09909057617188	1.09893798828125	1.3201904296875E-06	1.45080741731363E-06	832408.6875	1.43309898703592E-05
1	130	50.351372872875	1.10916137695313	1.109619140625	1.32598876953125E-06	1.47134244343761E-06	836824	1.44642353916424E-05
1	131	50.4520808726207	1.11923217773438	1.1187744140625	1.331787109375E-06	1.48996934967727E-06	840055	1.45980648085242E-05
1	132	50.5527888723665	1.12930297851563	1.12945556640625	1.337890625E-06	1.51108793033927E-06	844206.25	1.47324935824145E-05
1	133	50.6534968721122	1.13937377929688	1.1395263671875	1.343994140625E-06	1.53151665926998E-06	847865.625	1.48675371747231E-05
1	134	50.754204871858	1.14944458007813	1.14898681640625	1.351318359375E-06	1.55264694967627E-06	850271	1.50032574310899E-05
1	135	50.8549128716037	1.15951538085938	1.15936279296875	1.35894775390625E-06	1.57551346546825E-06	853132.6875	1.5139729839575E-05
1	136	50.9556208713494	1.16958618164063	1.16943359375	1.365966796875E-06	1.59740750405035E-06	856121.5625	1.5276940757758E-05
1	137	51.0563288710952	1.17965698242188	1.17919921875	1.3751220703125E-06	1.6215427649513E-06	857523.375	1.5414965673699E-05
1	138	51.1570368708409	1.18972778320313	1.18988037109375	1.383056640625E-06	1.64567200044985E-06	860326.5625	1.5553850971628E-05
1	139	51.2577448705866	1.19979858398438	1.1993408203125	1.3916015625E-06	1.66900440490281E-06	861842.1875	1.56935657287249E-05
1	140	51.3584528703324	1.20986938476563	1.21002197265625	1.4007568359375E-06	1.69494649071567E-06	863834.4375	1.58341717906296E-05
1	141	51.4591608700781	1.21994018554688	1.219482421875	1.40960693359375E-06	1.71899080214644E-06	865122.375	1.59756855282467E-05
1	142	51.5598688698238	1.23001098632813	1.229248046875	1.4190673828125E-06	1.74438571320934E-06	866236.625	1.61181196745019E-05
1	143	51.6605768695696	1.24008178710938	1.23992919921875	1.4288330078125E-06	1.7716517959343E-06	867791.5625	1.62615233421093E-05
1	144	51.7612848693153	1.25015258789063	1.25030517578125	1.4385986328125E-06	1.79868720806553E-06	869113.3125	1.64059092639945E-05
1	145	51.8619928690611	1.26022338867188	1.26068115234375	1.44866943359375E-06	1.82631026746094E-06	870233.8125	1.65512956300518E-05
1	146	51.9627008688068	1.27029418945313	1.2701416015625	1.45843505859375E-06	1.8524190181779E-06	870893.5	1.66976806212915E-05
1	147	52.0634088685525	1.28036499023438	1.28021240234375	1.46881103515625E-06	1.88039007298357E-06	871597.8125	1.6845078789629E-05
1	148	52.1641168682983	1.29043579101563	1.28997802734375	1.47979736328125E-06	1.90890614248929E-06	871726.125	1.69935519807041E-05
1	149	52.264824868044	1.30050659179688	1.30035400390625	1.490478515625E-06	1.93814958038274E-06	872440.6875	1.71431183844106E-05
1	150	52.3655328677897	1.31057739257813	1.31072998046875	1.5020751953125E-06	1.96881501324242E-06	872612.75	1.72938052855898E-05
1	151	52.4662408675355	1.32064819335938	1.3201904296875	1.514892578125E-06	1.99994678951043E-06	871474.625	1.74457218236057E-05
1	152	52.5669488672812	1.33071899414063	1.33056640625	1.5277099609375E-06	2.03271952159412E-06	870954.875	1.75989280251088E-05
1	153	52.6676568670269	1.34078979492188	1.3409423828125	1.54205322265625E-06	2.06780441658339E-06	869582.4375	1.77535039256327E-05
1	154	52.7683648667727	1.35086059570313	1.3507080078125	1.5582275390625E-06	2.10471034733928E-06	866823.375	1.79096150532132E-05
1	155	52.8690728665184	1.36093139648438	1.36077880859375	1.57623291015625E-06	2.14490432881576E-06	863310.75	1.80674469447695E-05
1	156	52.9697808662642	1.37100219726563	1.37115478515625	1.5966796875E-06	2.18929494621989E-06	858753.8125	1.82272160600405E-05
1	157	53.0704888660099	1.38107299804688	1.3812255859375	1.61895751953125E-06	2.23614551941864E-06	853157.375	1.8389137039776E-05
1	158	53.1711968657556	1.39114379882813	1.39068603515625	1.64398193359375E-06	2.28626277021249E-06	845925.375	1.85534390766406E-05
1	159	53.2719048655014	1.40121459960938	1.4013671875	1.6741943359375E-06	2.34616095440288E-06	837039.75	1.87205223483033E-05
1	160	53.3726128652471	1.41128540039063	1.4117431640625	1.70867919921875E-06	2.41221619035059E-06	826219	1.88908634299878E-05
1	161	53.4733208649928	1.42135620117188	1.42120361328125	1.7498779296875E-06	2.48693277171697E-06	812173	1.90650152944727E-05
1	162	53.5740288647386	1.43142700195313	1.4312744140625	1.7999267578125E-06	2.57618899013323E-06	795184.8125	1.92437619261909E-05
1	163	53.6747368644843	1.44149780273438	1.44134521484375	1.861572265625E-06	2.6831680770556E-06	774262.3125	1.94281328731449E-05
1	164	53.7754448642301	1.45156860351563	1.45172119140625	1.9378662109375E-06	2.81324150819273E-06	749133.8125	1.96194505406311E-05
1	165	53.8761528639758	1.46163940429688	1.46087646484375	2.02911376953125E-06	2.96428470392129E-06	719957.875	1.98192028619815E-05
1	166	53.9768608637215	1.47171020507813	1.47216796875	2.13531494140625E-06	3.14354201691458E-06	689438.375	2.0028899598401E-05
1	167	54.0775688634673	1.48178100585938	1.48193359375	2.25555419921875E-06	3.34258152179245E-06	657015.3125	2.0249997760402E-05
1	168	54.178276863213	1.49185180664063	1.49200439453125	2.3895263671875E-06	3.56518376065651E-06	624393.375	2.04838961508358E-05
1	169	54.2789848629587	1.50192260742188	1.50146484375	2.5335693359375E-06	3.8040650451876E-06	592628.3125	2.07317934837192E-05
1	170	54.3796928627045	1.49185180664063	1.49139404296875	2.1533203125E-06	3.21144921144878E-06	692602.0625	2.09677964448929E-05
1	171	54.4804008624502	1.48178100585938	1.48162841796875	1.875E-06	2.77805315818114E-06	790201.8125	2.11706392292399E-05
1	172	54.5811088621959	1.47171020507813	1.47186279296875	1.65771484375E-06	2.43992872128729E-06	887886.625	2.13485254789703E-05
1	173	54.6818168619417	1.46163940429688	1.46209716796875	1.4825439453125E-06	2.16762327909237E-06	986208.375	2.15066502278205E-05
1	174	54.7825248616874	1.45156860351563	1.451416015625	1.3397216796875E-06	1.94449330592761E-06	1083371.375	2.16487624129513E-05
1	175	54.8832328614332	1.44149780273438	1.44134521484375	1.22222900390625E-06	1.76165394805139E-06	1179275.875	2.17777669604402E-05
1	176	54.9839408611789	1.43142700195313	1.43096923828125	1.12548828125E-06	1.61053901592823E-06	1271420.875	2.18959830817766E-05
1	177	55.0846488609246	1.42135620117188	1.42120361328125	1.0467529296875E-06	1.48764900131937E-06	1357726	2.20053643715801E-05
1	178	55.1853568606704	1.41128540039063	1.4111328125	9.8114013671875E-07	1.38451900966174E-06	1438258.125	2.21074769797269E-05
1	179	55.2860648604161	1.40121459960938	1.4013671875	9.27124023437501E-07	1.29924114844471E-06	1511520.75	2.22035650949692E-05
1	180	55.3867728601618	1.39114379882813	1.39068603515625	8.831787109375E-07	1.22822427783831E-06	1574637.25	2.22947219299385E-05
1	181	55.4874808599076	1.38107299804688	1.38092041015625	8.46252441406251E-07	1.16860724119761E-06	1631806.75	2.23818060476333E-05
1	182	55.5881888596533	1.37100219726563	1.37054443359375	8.15429687499999E-07	1.11758254206507E-06	1680763.625	2.2465477741207E-05
1	183	55.6888968593991	1.36093139648438	1.3604736328125	7.89794921875001E-07	1.07449511688174E-06	1722565.75	2.2546306354343E-05
1	184	55.7896048591448	1.35086059570313	1.3507080078125	7.6812744140625E-07	1.03751585811551E-06	1758442.625	2.26247557293391E-05
1	185	55.8903128588905	1.34078979492188	1.34063720703125	7.48596191406251E-07	1.00359591215238E-06	1790868.375	2.27011278184364E-05
1	186	55.9910208586363	1.33071899414063	1.33056640625	7.31811523437501E-07	9.73723786046321E-07	1818181.875	2.27756718231831E-05
1	187	56.091728858382	1.32064819335938	1.32049560546875	7.1685791015625E-07	9.46607656260312E-07	1842060.5	2.28486187552335E-05
1	188	56.1924368581277	1.31057739257813	1.3104248046875	7.02819824218751E-07	9.20992533792742E-07	1864524.5	2.29201050387928E-05
1	189	56.2931448578735	1.30050659179688	1.300048828125	6.8939208984375E-07	8.96243363968097E-07	1885790.125	2.29902088904055E-05
1	190	56.3938528576192	1.29043579101563	1.29058837890625	6.7718505859375E-07	8.73967110237572E-07	1905813.5	2.30590212595416E-05
1	191	56.4945608573649	1.28036499023438	1.28021240234375	6.64672851562501E-07	8.50922390327469E-07	1926079	2.31265894399257E-05
1	192	56.5952688571107	1.27029418945313	1.26983642578125	6.5338134765625E-07	8.29687394343637E-07	1943484.375	2.31929589062929E-05
1	193	56.6959768568564	1.26022338867188	1.259765625	6.4208984375E-07	8.08882703040581E-07	1961977.125	2.32581915042829E-05
1	194	56.7966848566022	1.25015258789063	1.25	6.3201904296875E-07	7.90023761965131E-07	1977788.625	2.33223472605459E-05
1	195	56.8973928563479	1.24008178710938	1.23992919921875	6.21337890625E-07	7.70414942508069E-07	1995579.75	2.33854589168914E-05
1	196	56.9981008560936	1.23001098632813	1.2298583984375	6.1187744140625E-07	7.52522623770346E-07	2009975	2.34475555771496E-05
1	197	57.0988088558394	1.21994018554688	1.2200927734375	6.02111816406251E-07	7.34632294552284E-07	2026355.875	2.35086845350452E-05
1	198	57.1995168555851	1.20986938476563	1.2091064453125	5.9326171875E-07	7.17316538612067E-07	2038066	2.35688767133979E-05
1	199	57.3002248553308	1.19979858398438	1.199951171875	5.8441162109375E-07	7.01265435054665E-07	2053263.75	2.36281775869429E-05
1	200	57.4009328550766	1.18972778320313	1.1895751953125	5.7525634765625E-07	6.84310634824215E-07	2067904.625	2.36865707847755E-05
1	201	57.5016408548223	1.17965698242188	1.1798095703125	5.66711425781249E-07	6.68611562559818E-07	2081852.375	2.37440744967898E-05
1	202	57.602348854568	1.16958618164063	1.16943359375	5.584716796875E-07	6.53095469260734E-07	2093989.25	2.38007323787315E-05
1	203	57.7030568543138	1.15951538085938	1.1590576171875	5.5084228515625E-07	6.38457947843563E-07	2104155	2.38565899053356E-05
1	204	57.8037648540595	1.14944458007813	1.14959716796875	5.4229736328125E-07	6.23423488832486E-07	2119865	2.39116343436763E-05
1	205	57.9044728538053	1.13937377929688	1.13922119140625	5.340576171875E-07	6.08409777669294E-07	2133142.75	2.39658329519443E-05
1	206	58.005180853551	1.12930297851563	1.129150390625	5.25817871093751E-07	5.93727463638061E-07	2147417.25	2.40192021010444E-05
1	207	58.1058888532967	1.11923217773438	1.119384765625	5.17578125E-07	5.79369043407496E-07	2162736	2.4071739971987E-05
1	208	58.2065968530425	1.10916137695313	1.10870361328125	5.0994873046875E-07	5.65381981232349E-07	2174147.25	2.41234811255708E-05
1	209	58.3073048527882	1.09909057617188	1.0992431640625	5.0201416015625E-07	5.5183562608363E-07	2189665.75	2.41744364757324E-05
1	210	58.4080128525339	1.08901977539063	1.08917236328125	4.9407958984375E-07	5.38137840067066E-07	2204447.25	2.42245951085351E-05
1	211	58.5087208522797	1.07894897460938	1.0791015625	4.85839843749999E-07	5.24270546975458E-07	2221105.5	2.42739370150957E-05
1	212	58.6094288520254	1.06887817382813	1.06903076171875	4.7760009765625E-07	5.10569236666925E-07	2238338.5	2.43224512814777E-05
1	213	58.7101368517712	1.05880737304688	1.058349609375	4.69055175781249E-07	4.96424320317601E-07	2256343.75	2.43701178987976E-05
1	214	58.8108448515169	1.04873657226563	1.04827880859375	4.6112060546875E-07	4.83382962102041E-07	2273329	2.44169568759389E-05
1	215	58.9115528512626	1.03866577148438	1.0382080078125	4.52575683593751E-07	4.69867700303439E-07	2293998.75	2.44629645749228E-05
1	216	59.0122608510084	1.02859497070313	1.02813720703125	4.44641113281249E-07	4.57152054877952E-07	2312285.5	2.45081428147387E-05
1	217	59.1129688507541	1.01852416992188	1.0186767578125	4.3670654296875E-07	4.44862791937339E-07	2332634.5	2.45525225182064E-05
1	218	59.2136768504998	1.00845336914063	1.00860595703125	4.2877197265625E-07	4.32461945365503E-07	2352313.25	2.45961036853259E-05
1	219	59.3143848502456	0.998382568359375	0.99822998046875	4.2083740234375E-07	4.20092476360878E-07	2372008.75	2.46388844971079E-05
1	220	59.4150928499913	0.988311767578125	0.98876953125	4.132080078125E-07	4.08567473186849E-07	2392910	2.4680881324457E-05
1	221	59.515800849737	0.978240966796875	0.9783935546875	4.06494140624999E-07	3.97711232835718E-07	2406907	2.47221560130129E-05
1	222	59.6165088494828	0.968170166015625	0.96893310546875	3.985595703125E-07	3.86177561040313E-07	2431087.25	2.47626940108603E-05
1	223	59.7172168492285	0.958099365234375	0.95794677734375	3.91235351562499E-07	3.74782644030347E-07	2448518	2.48024643951794E-05
1	224	59.8179248489743	0.948028564453125	0.9478759765625	3.8421630859375E-07	3.64189389756575E-07	2467037.5	2.48415108217159E-05
1	225	59.91863284872	0.937957763671875	0.9375	3.7811279296875E-07	3.54480732767115E-07	2479419	2.4879896955099E-05
1	226	60.0193408484657	0.927886962890625	0.927734375	3.704833984375E-07	3.43710155448207E-07	2504118.75	2.49175918725086E-05
1	227	60.1200488482115	0.917816162109375	0.91766357421875	3.63769531249999E-07	3.33818036324374E-07	2522651	2.49545646511251E-05
1	228	60.2207568479572	0.907745361328125	0.908203125	3.5736083984375E-07	3.24556225450578E-07	2541417.75	2.49908771365881E-05
1	229	60.3214648477029	0.897674560546875	0.89752197265625	3.5064697265625E-07	3.14713361149188E-07	2559617.25	2.50265275099082E-05
1	230	60.4221728474487	0.887603759765625	0.88775634765625	3.436279296875E-07	3.05057881178072E-07	2583481.25	2.50614866672549E-05
1	231	60.5228808471944	0.877532958984375	0.8770751953125	3.3721923828125E-07	2.95766625413307E-07	2600905	2.5095770979533E-05
1	232	60.6235888469402	0.867462158203125	0.8673095703125	3.3111572265625E-07	2.87179801716775E-07	2619355	2.5129424102488E-05
1	233	60.7242968466859	0.857391357421875	0.85723876953125	3.24401855468751E-07	2.78089828498196E-07	2642521.25	2.51624314842047E-05
1	234	60.8250048464316	0.847320556640625	0.84716796875	3.1890869140625E-07	2.70169238092421E-07	2656459.25	2.51948240475031E-05
1	235	60.9257128461774	0.837249755859375	0.83709716796875	3.125E-07	2.6159284516325E-07	2678711	2.52266181632876E-05
1	236	61.0264208459231	0.827178955078125	0.82672119140625	3.06396484375E-07	2.53304477837446E-07	2698207.25	2.52577829087386E-05
1	237	61.1271288456688	0.817108154296875	0.81695556640625	3.0059814453125E-07	2.45575336066395E-07	2717766.5	2.52883473876864E-05
1	238	61.2278368454146	0.807037353515625	0.80718994140625	2.947998046875E-07	2.37959440596569E-07	2738095.25	2.53183279710356E-05
1	239	61.3285448451603	0.796966552734375	0.797119140625	2.89306640625001E-07	2.30611846063766E-07	2755274.5	2.5347741029691E-05
1	240	61.429252844906	0.786895751953125	0.78704833984375	2.84423828124999E-07	2.23855309400278E-07	2767167.25	2.53766302193981E-05
1	241	61.5299608446518	0.776824951171875	0.7769775390625	2.79541015625E-07	2.1719708342971E-07	2779476	2.54050282819662E-05
1	242	61.6306688443975	0.766754150390625	0.7672119140625	2.74047851562501E-07	2.10252764532015E-07	2799554.75	2.54329024755862E-05
1	243	61.7313768441433	0.756683349609375	0.75714111328125	2.69775390625E-07	2.04258029157245E-07	2806561.25	2.54602873610565E-05
1	244	61.832084843889	0.746612548828125	0.74652099609375	2.64587402343749E-07	1.9752003765916E-07	2821453.5	2.54871938523138E-05
1	245	61.9327928436347	0.736541748046875	0.736480712890625	2.60009765624999E-07	1.91492176782049E-07	2832511.75	2.55136092164321E-05
1	246	62.0335008433805	0.726470947265625	0.7264404296875	2.55737304687501E-07	1.85777906835938E-07	2840573	2.55395789281465E-05
1	247	62.1342088431262	0.716400146484375	0.71636962890625	2.520751953125E-07	1.80579007746928E-07	2841888.75	2.55651502811816E-05
1	248	62.2349168428719	0.706329345703125	0.706268310546875	2.484130859375E-07	1.75446288608327E-07	2843120.5	2.55903523793677E-05
1	249	62.3356248426177	0.696258544921875	0.6961669921875	2.44140625E-07	1.69962632412535E-07	2851500.25	2.5615154299885E-05
1	250	62.4363328423634	0.686187744140625	0.68609619140625	2.40173339843749E-07	1.64782008482689E-07	2856671	2.56395414908184E-05
1	251	62.5370408421091	0.676116943359375	0.676055908203125	2.362060546875E-07	1.59688497092247E-07	2862144.75	2.56635285040829E-05
1	252	62.6377488418549	0.666046142578125	0.66595458984375	2.32849121093751E-07	1.55066942397752E-07	2860026.25	2.56871462624986E-05
1	253	62.7384568416006	0.655975341796875	0.65594482421875	2.2918701171875E-07	1.50334031445709E-07	2862050.75	2.57104129559593E-05
1	254	62.8391648413464	0.645904541015625	0.645843505859375	2.2552490234375E-07	1.4565378592124E-07	2863734.75	2.57333085755818E-05
1	255	62.9398728410921	0.635833740234375	0.6357421875	2.21862792968749E-07	1.41047536317274E-07	2865474.5	2.57558367593447E-05
1	256	63.0405808408378	0.625762939453125	0.625701904296875	2.18811035156249E-07	1.36910472292584E-07	2859553.75	2.57780266110785E-05
1	257	63.1412888405836	0.615692138671875	0.615692138671875	2.1514892578125E-07	1.3246550167878E-07	2861702.25	2.57998781307833E-05
1	258	63.2419968403293	0.605621337890625	0.605560302734375	2.11486816406251E-07	1.2806800953058E-07	2863348	2.58213603956392E-05
1	259	63.342704840075	0.595550537109375	0.595489501953125	2.08435058593751E-07	1.24120887790014E-07	2856954.75	2.58425061474554E-05
1	260	63.4434128398208	0.585479736328125	0.585479736328125	2.0477294921875E-07	1.19890415817281E-07	2859165.5	2.58633117482532E-05
1	261	63.5441208395665	0.575408935546875	0.57537841796875	2.01416015625E-07	1.15890429697174E-07	2856666.75	2.58837662840961E-05
1	262	63.6448288393123	0.565338134765625	0.56524658203125	1.983642578125E-07	1.12124709517047E-07	2849538.5	2.59038970398251E-05
1	263	63.745536839058	0.555267333984375	0.555267333984375	1.953125E-07	1.08450649349834E-07	2842968.75	2.59237185673555E-05
1	264	63.8462448388037	0.545196533203125	0.545135498046875	1.9195556640625E-07	1.04641792120219E-07	2839904.75	2.5943219952751E-05
1	265	63.9469528385495	0.535125732421875	0.53509521484375	1.8890380859375E-07	1.0108151826671E-07	2832633.5	2.59623975580325E-05
1	266	64.0476608382952	0.525054931640625	0.524993896484375	1.861572265625E-07	9.77314087435843E-08	2820164	2.59812841250096E-05
1	267	64.1483688380409	0.514984130859375	0.514923095703125	1.8280029296875E-07	9.4128090211143E-08	2816861.5	2.5999861463788E-05
1	268	64.2490768377867	0.504913330078125	0.5048828125	1.7974853515625E-07	9.07519392967515E-08	2808828.75	2.6018116841442E-05
1	269	64.3497848375324	0.494842529296875	0.494781494140625	1.7730712890625E-07	8.77282886335706E-08	2790533.5	2.6036097551696E-05
1	270	64.4504928372781	0.484771728515625	0.4847412109375	1.751708984375E-07	8.49125498803005E-08	2767247.5	2.60538454313064E-05
1	271	64.5512008370239	0.474700927734375	0.474639892578125	1.71813964843751E-07	8.15497642747687E-08	2762522.25	2.60713168245275E-05
1	272	64.6519088367696	0.464630126953125	0.46466064453125	1.6937255859375E-07	7.87007579106103E-08	2743423.5	2.60884971794439E-05
1	273	64.7526168365154	0.454559326171875	0.45452880859375	1.6632080078125E-07	7.55975975152978E-08	2732844	2.61054010479711E-05
1	274	64.8533248362611	0.444488525390625	0.444488525390625	1.6357421875E-07	7.27068609762682E-08	2717350.75	2.61220120592043E-05
1	275	64.9540328360068	0.434417724609375	0.434478759765625	1.6021728515625E-07	6.96110049602794E-08	2711809.5	2.61383174802177E-05
1	276	65.0547408357526	0.424346923828125	0.42431640625	1.57470703125E-07	6.68173996132282E-08	2694573.75	2.61543136730324E-05
1	277	65.1554488354983	0.414276123046875	0.414215087890625	1.55029296875001E-07	6.4215477380003E-08	2671850.5	2.61700497503625E-05
1	278	65.256156835244	0.404205322265625	0.404205322265625	1.51977539062501E-07	6.14301285395413E-08	2659638.75	2.61855093413033E-05
1	279	65.3568648349898	0.394134521484375	0.394195556640625	1.4923095703125E-07	5.88261812595192E-08	2641513.25	2.620067607495E-05
1	280	65.4575728347355	0.384063720703125	0.38409423828125	1.4678955078125E-07	5.63810189646574E-08	2616632	2.62155808741227E-05
1	281	65.5582808344813	0.373992919921875	0.37396240234375	1.44042968749999E-07	5.38666569127599E-08	2596186.5	2.62302255578106E-05
1	282	65.658988834227	0.363922119140625	0.3638916015625	1.41296386718751E-07	5.14165670040256E-08	2575378	2.62445937551092E-05
1	283	65.7596968339727	0.353851318359375	0.35382080078125	1.38244628906251E-07	4.89138258785715E-08	2559382	2.62586690951139E-05
1	284	65.8604048337185	0.343780517578125	0.34375	1.35498046875E-07	4.65774512292683E-08	2536937	2.62724533968139E-05
1	285	65.9611128334642	0.333709716796875	0.333740234375	1.324462890625E-07	4.42026539815288E-08	2519815.75	2.62859466602094E-05
1	286	66.0618208332099	0.323638916015625	0.323638916015625	1.2939453125E-07	4.18771044508048E-08	2501179.5	2.62991306954063E-05
1	287	66.1625288329557	0.313568115234375	0.313568115234375	1.2664794921875E-07	3.97127593032565E-08	2475903.75	2.63120236922987E-05
1	288	66.2632368327014	0.303497314453125	0.303466796875	1.23291015625E-07	3.74147290926885E-08	2461386	2.63246092799818E-05
1	289	66.3639448324471	0.293426513671875	0.293426513671875	1.19934082031251E-07	3.51918423291409E-08	2446564.75	2.63368565356359E-05
1	290	66.4646528321929	0.283355712890625	0.2833251953125	1.16577148437499E-07	3.30292415640088E-08	2430366.5	2.63487654592609E-05
1	291	66.5653608319386	0.273284912109375	0.27325439453125	1.1322021484375E-07	3.09379188934145E-08	2413477.25	2.63603360508569E-05
1	292	66.6660688316844	0.263214111328125	0.263153076171875	1.08642578125E-07	2.85896284424325E-08	2422191	2.63715082837734E-05
1	293	66.7667768314301	0.253143310546875	0.25311279296875	1.04675292968751E-07	2.64946535821764E-08	2418076	2.63822494162014E-05
1	294	66.8674848311758	0.243072509765625	0.243011474609375	1.007080078125E-07	2.44732021315031E-08	2413030.25	2.63925921899499E-05
1	295	66.9681928309216	0.233001708984375	0.232940673828125	9.613037109375E-08	2.23926726050649E-08	2423174.5	2.64025038632099E-05
1	296	67.0689008306673	0.222930908203125	0.222930908203125	9.09423828125006E-08	2.02738679178083E-08	2451342.5	2.64119225903414E-05
1	297	67.169608830413	0.212860107421875	0.212890625	8.57543945312497E-08	1.82563066886132E-08	2482562.25	2.64208210865036E-05
1	298	67.2703168301588	0.202789306640625	0.202789306640625	7.9345703125E-08	1.60904605195356E-08	2555769.25	2.64291338680778E-05
1	299	67.3710248299045	0.192718505859375	0.19268798828125	7.20214843749997E-08	1.38776750091552E-08	2675423.75	2.64367554336786E-05
1	300	67.4717328296503	0.182647705078125	0.182647705078125	6.31713867187495E-08	1.15381082466115E-08	2891304.5	2.64435639110161E-05
1	301	67.572440829396	0.172576904296875	0.17254638671875	5.18798828125E-08	8.95168561498849E-09	3325882.5	2.64493573922664E-05
1	302	67.6731488291417	0.162506103515625	0.1624755859375	3.814697265625E-08	6.19795148537605E-09	4259200	2.645389031386E-05
1	303	67.7738568288875	0.152435302734375	0.152496337890625	1.95312500000003E-08	2.97844393593039E-09	7807812.5	2.64567952399375E-05
1	304	67.8745648286332	0.142364501953125	0.1424560546875	-5.79833984375028E-09	-8.26008594856376E-10	-24568422	2.64574864559108E-05
1	305	67.9752728283789	0.132293701171875	0.13232421875	-3.93676757812503E-08	-5.20929654967972E-09	-3361240.5	2.6455210900167E-05
1	306	68.0759808281247	0.122222900390625	0.122222900390625	-8.57543945312497E-08	-1.04811510581726E-08	-1425266.875	2.64489117398625E-05
1	307	68.1766888278704	0.112152099609375	0.1121826171875	-1.48620605468749E-07	-1.66726472627943E-08	-754825.5	2.64371101366123E-05
1	308	68.2773968276161	0.102081298828125	0.10211181640625	-2.34069824218749E-07	-2.39012933889171E-08	-436245.125	2.64178397628712E-05
1	309	68.3781048273619	0.092010498046875	0.092041015625	-3.48510742187499E-07	-3.20772812756331E-08	-264098.09375	2.63885049207602E-05
1	310	68.4788128271076	0.081939697265625	0.08197021484375	-4.986572265625E-07	-4.08750366887034E-08	-164381.890625	2.63458459812682E-05
1	311	68.5795208268534	0.071868896484375	0.071929931640625	-6.87561035156251E-07	-4.94562151232003E-08	-104616.0703125	2.6286115826224E-05
1	312	68.6802288265991	0.061798095703125	0.06182861328125	-9.11865234375001E-07	-5.63793598473694E-08	-67804.5546875	2.62055782513926E-05
1	313	68.7809368263448	0.051727294921875	0.05181884765625	-1.1639404296875E-06	-6.03140506427735E-08	-44520.19140625	2.61010518443072E-05
1	314	68.8816448260906	0.041656494140625	0.04176025390625	-1.42364501953125E-06	-5.94517786112192E-08	-29333.333984375	2.59707576333312E-05
1	315	68.9823528258363	0.031585693359375	0.0316741943359375	-1.66595458984375E-06	-5.27677670447702E-08	-19012.640625	2.58151831076248E-05
1	316	69.083060825582	0.021514892578125	0.021588134765625	-1.86492919921875E-06	-4.02603426152837E-08	-11575.84765625	2.5637389626354E-05
1	317	69.1837688253278	0.011444091796875	0.0115264892578125	-2.00347900390625E-06	-2.30930812250563E-08	-5753.23681640625	2.54425995080965E-05
1	318	69.2844768250735	0.001373291015625	0.0014373779296875	-2.0758056640625E-06	-2.98371727325275E-09	-692.443359375	2.52371919486905E-05
1	319	69.3851848248192	-0.008697509765625	-0.008624267578125	-2.088623046875E-06	1.80128445492755E-08	4129.16455078125	2.50274952122709E-05
1	320	69.485892824565	-0.018768310546875	-0.01861572265625	-2.05780029296875E-06	3.83074372223291E-08	9046.4189453125	2.48187061515637E-05
1	321	69.5866008243107	-0.028839111328125	-0.0287384033203125	-1.9976806640625E-06	5.74101512995639E-08	14385.8857421875	2.46144973061746E-05
1	322	69.6873088240565	-0.038909912109375	-0.038800048828125	-1.92291259765625E-06	7.46091046721631E-08	20177.75	2.4417078748229E-05
1	323	69.7880168238022	-0.048980712890625	-0.048858642578125	-1.8438720703125E-06	9.00890881894156E-08	26497.849609375	2.4227407266153E-05
1	324	69.8887248235479	-0.059051513671875	-0.059051513671875	-1.76544189453125E-06	1.04252016797091E-07	33448.57421875	2.40456629398977E-05
1	325	69.9894328232937	-0.069122314453125	-0.06903076171875	-1.69342041015625E-06	1.16898100088747E-07	40764.1015625	2.38714965234976E-05
1	326	70.0901408230394	-0.079193115234375	-0.079193115234375	-1.62689208984375E-06	1.2883864997093E-07	48677.546875	2.37043041124707E-05
1	327	70.1908488227851	-0.089263916015625	-0.0892333984375	-1.56768798828125E-06	1.39890119044139E-07	56920.3828125	2.35434454225469E-05
1	328	70.2915568225309	-0.099334716796875	-0.0992431640625	-1.5155029296875E-06	1.50403295151591E-07	65485.3046875	2.33881946769543E-05
1	329	70.3922648222766	-0.109405517578125	-0.10931396484375	-1.46942138671875E-06	1.60628275125418E-07	74392.5234375	2.32378915825393E-05
1	330	70.4929728220224	-0.119476318359375	-0.119415283203125	-1.429443359375E-06	1.70697376233875E-07	83539.7109375	2.30919213208836E-05
1	331	70.5936808217681	-0.129547119140625	-0.129486083984375	-1.3946533203125E-06	1.80588187959074E-07	92844.640625	2.29497163672931E-05
1	332	70.6943888215138	-0.139617919921875	-0.139617919921875	-1.363525390625E-06	1.90372574593312E-07	102394.8125	2.28108310693642E-05
1	333	70.7950968212596	-0.149688720703125	-0.149566650390625	-1.33758544921875E-06	2.00058181576424E-07	111818.390625	2.26748197746929E-05
1	334	70.8958048210053	-0.159759521484375	-0.159637451171875	-1.31439208984375E-06	2.09826197306029E-07	121453.4453125	2.25412823056104E-05
1	335	70.996512820751	-0.169830322265625	-0.169647216796875	-1.29486083984375E-06	2.19669530565625E-07	131015.796875	2.24098967009922E-05
1	336	71.0972208204968	-0.179901123046875	-0.179656982421875	-1.2774658203125E-06	2.29505644711026E-07	140635.453125	2.22803682845552E-05
1	337	71.1979288202425	-0.189971923828125	-0.1898193359375	-1.263427734375E-06	2.39823009451356E-07	150241.546875	2.21524242078885E-05
1	338	71.2986368199882	-0.200042724609375	-0.199920654296875	-1.25152587890625E-06	2.50205857810215E-07	159741.53125	2.20257861656137E-05
1	339	71.399344819734	-0.189971923828125	-0.189788818359375	-1.10809326171875E-06	2.10303696235314E-07	171275.140625	2.19069697777741E-05
2	340	71.5000528194797	-0.179901123046875	-0.17974853515625	-1.0113525390625E-06	1.81789133080201E-07	177730.84375	2.18002478504786E-05
2	341	71.6007608192255	-0.169830322265625	-0.169647216796875	-9.33837890625E-07	1.58422992058149E-07	181666.671875	2.17023007280659E-05
2	342	71.7014688189712	-0.159759521484375	-0.15966796875	-8.6883544921875E-07	1.38725184228861E-07	183772.40625	2.16115276998607E-05
2	343	71.8021768187169	-0.149688720703125	-0.14959716796875	-8.1146240234375E-07	1.21392474738968E-07	184355.03125	2.15269192267442E-05
2	344	71.9028848184627	-0.139617919921875	-0.1395263671875	-7.598876953125E-07	1.06024366175461E-07	183614.46875	2.14477950066794E-05
2	345	72.0035928182084	-0.129547119140625	-0.12945556640625	-7.13500976562501E-07	9.23666760854758E-08	181437.125	2.13736038858769E-05
2	346	72.1043008179541	-0.119476318359375	-0.119415283203125	-6.70166015625E-07	8.00280659518648E-08	178187.625	2.13039311347529E-05
2	347	72.2050088176999	-0.109405517578125	-0.109283447265625	-6.2835693359375E-07	6.86690100337728E-08	173919.375	2.12385439226637E-05
2	348	72.3057168174456	-0.099334716796875	-0.099334716796875	-5.8868408203125E-07	5.84767683164955E-08	168740.28125	2.11772621696582E-05
2	349	72.4064248171914	-0.089263916015625	-0.08917236328125	-5.474853515625E-07	4.88205635917893E-08	162876.25	2.11200513149379E-05
2	350	72.5071328169371	-0.079193115234375	-0.07916259765625	-5.05981445312501E-07	4.00548039181103E-08	156453.578125	2.10670041269623E-05
2	351	72.6078408166828	-0.069122314453125	-0.069000244140625	-4.595947265625E-07	3.17121475745807E-08	150132.8125	2.10183843591949E-05
2	352	72.7085488164286	-0.059051513671875	-0.05902099609375	-4.071044921875E-07	2.40277131524635E-08	144977.515625	2.0974743165425E-05
2	353	72.8092568161743	-0.048980712890625	-0.0488372802734375	-3.448486328125E-07	1.68414686640972E-08	141619.484375	2.09368790820008E-05
2	354	72.90996481592	-0.038909912109375	-0.0387939453125	-2.67333984375E-07	1.03709387744289E-08	145114.15625	2.09060526685789E-05
2	355	73.0106728156658	-0.028839111328125	-0.0287322998046875	-1.68762207031251E-07	4.84892614949217E-09	170253.171875	2.08840938284993E-05
2	356	73.1113808154115	-0.018768310546875	-0.018682861328125	-4.33349609374994E-08	8.09621092390245E-10	431126.78125	2.08734145417111E-05
2	357	73.2120888151572	-0.008697509765625	-0.0086212158203125	1.15966796875E-07	-9.99774707466372E-10	-74342.109375	2.08770707104122E-05
2	358	73.312796814903	0.001373291015625	0.00147705078125	3.131103515625E-07	4.62479887719525E-10	4717.34912109375	2.08986766665475E-05
2	359	73.4135048146487	0.011444091796875	0.01151123046875	5.474853515625E-07	6.30223029318699E-09	21025.642578125	2.09420104511082E-05
2	360	73.5142128143945	0.021514892578125	0.0216217041015625	8.087158203125E-07	1.74858136858802E-08	26735.849609375	2.10103007702855E-05
2	361	73.6149208141402	0.031585693359375	0.0316650390625	1.0784912109375E-06	3.41504637901835E-08	29360.498046875	2.1105330233695E-05
2	362	73.7156288138859	0.041656494140625	0.041748046875	1.33392333984375E-06	5.56886909919285E-08	31297.1875	2.12268041650532E-05
2	363	73.8163368136317	0.051727294921875	0.051788330078125	1.5472412109375E-06	8.01290340746164E-08	33471.40234375	2.13718831219012E-05
2	364	73.9170448133774	0.061798095703125	0.061859130859375	1.70166015625E-06	1.0526321858606E-07	36352.22265625	2.15354775718879E-05
2	365	74.0177528131231	0.071868896484375	0.071929931640625	1.7901611328125E-06	1.28766160401028E-07	40180.703125	2.17113047256134E-05
2	366	74.1184608128689	0.081939697265625	0.0819091796875	1.81884765625E-06	1.48980319636394E-07	45033.55859375	2.18930326809641E-05
2	367	74.2191688126146	0.092010498046875	0.092041015625	1.8017578125E-06	1.65835615462129E-07	51084.01171875	2.20753445319133E-05
2	368	74.3198768123603	0.102081298828125	0.10211181640625	1.754150390625E-06	1.79119481913403E-07	58211.55078125	2.22543985728407E-05
2	369	74.4205848121061	0.112152099609375	0.112152099609375	1.689453125E-06	1.89475699130526E-07	66383.671875	2.24277991947019E-05
2	370	74.5212928118518	0.122222900390625	0.12225341796875	1.61865234375E-06	1.97885768216111E-07	75527.90625	2.25943749683211E-05
2	371	74.6220008115976	0.132293701171875	0.132293701171875	1.54693603515625E-06	2.04649893476017E-07	85519.828125	2.27537748287432E-05
2	372	74.7227088113433	0.142364501953125	0.14239501953125	1.4794921875E-06	2.10672325806627E-07	96245.875	2.29061679419829E-05
2	373	74.823416811089	0.152435302734375	0.152496337890625	1.417236328125E-06	2.16123339669139E-07	107601.2109375	2.30520290642744E-05
2	374	74.9241248108348	0.162506103515625	0.16253662109375	1.361083984375E-06	2.21225988639162E-07	119417.046875	2.31919293582905E-05
2	375	75.0248328105805	0.172576904296875	0.172607421875	1.31103515625E-06	2.26294389449322E-07	131657.359375	2.33264800044708E-05
2	376	75.1255408103262	0.182647705078125	0.18267822265625	1.26678466796875E-06	2.31413949336456E-07	144206.21875	2.34562849072972E-05
2	377	75.226248810072	0.192718505859375	0.192718505859375	1.22711181640625E-06	2.36487139204655E-07	157050.5	2.35818624787498E-05
2	378	75.3269568098177	0.202789306640625	0.2027587890625	1.19293212890625E-06	2.41877472717533E-07	169966.75	2.37037202168722E-05
2	379	75.4276648095635	0.212860107421875	0.212921142578125	1.162109375E-06	2.47437640155113E-07	183219.546875	2.38223074120469E-05
2	380	75.5283728093092	0.222930908203125	0.222991943359375	1.13555908203125E-06	2.53220520107789E-07	196371.953125	2.39380042330595E-05
2	381	75.6290808090549	0.233001708984375	0.233001708984375	1.11083984375E-06	2.58827554944219E-07	209752.765625	2.4051118089119E-05
2	382	75.7297888088007	0.243072509765625	0.243072509765625	1.0894775390625E-06	2.64822034523604E-07	223109.234375	2.4161912733689E-05
2	383	75.8304968085464	0.253143310546875	0.253143310546875	1.06964111328125E-06	2.70772460453372E-07	236661.9375	2.42706337303389E-05
2	384	75.9312048082921	0.263214111328125	0.26318359375	1.05316162109375E-06	2.77174848406503E-07	249898.59375	2.43775248236489E-05
2	385	76.0319128080379	0.273284912109375	0.273223876953125	1.03759765625E-06	2.83496433439723E-07	263323.53125	2.44828024733579E-05
2	386	76.1326208077836	0.283355712890625	0.283355712890625	1.02325439453125E-06	2.89944978248968E-07	276916.1875	2.45865758188302E-05
2	387	76.2333288075293	0.293426513671875	0.293365478515625	1.0107421875E-06	2.96516844855432E-07	290247.59375	2.46889958361862E-05
2	388	76.3340368072751	0.303497314453125	0.303436279296875	9.9945068359375E-07	3.03269587220711E-07	303603.0625	2.47902171395253E-05
2	389	76.4347448070208	0.313568115234375	0.313568115234375	9.8907470703125E-07	3.10142297621496E-07	317031.78125	2.48903470492223E-05
2	390	76.5354528067666	0.323638916015625	0.3236083984375	9.80224609374999E-07	3.17208929345725E-07	330136.96875	2.49895092565566E-05
2	391	76.6361608065123	0.333709716796875	0.333770751953125	9.716796875E-07	3.24318250477518E-07	343498.75	2.50877947109984E-05
2	392	76.736868806258	0.343780517578125	0.343780517578125	9.63745117187501E-07	3.31316755364242E-07	356713.125	2.51852507062722E-05
2	393	76.8375768060038	0.353851318359375	0.353851318359375	9.5703125E-07	3.38646771069762E-07	369738.53125	2.52819700108375E-05
2	394	76.9382848057495	0.363922119140625	0.363922119140625	9.51232910156249E-07	3.46174687138046E-07	382579.40625	2.53780581260798E-05
2	395	77.0389928054952	0.373992919921875	0.37396240234375	9.45434570312501E-07	3.53556970367208E-07	395545.53125	2.5473564164713E-05
2	396	77.139700805241	0.384063720703125	0.384033203125	9.40551757812499E-07	3.61203092325013E-07	408306.3125	2.55685299634933E-05
2	397	77.2404088049867	0.394134521484375	0.39422607421875	9.3658447265625E-07	3.69226000884737E-07	420918.875	2.56630519288592E-05
2	398	77.3411168047325	0.404205322265625	0.404266357421875	9.33227539062501E-07	3.77272499463288E-07	433191.65625	2.57572046393761E-05
2	399	77.4418248044782	0.414276123046875	0.41424560546875	9.30175781250001E-07	3.85321214935175E-07	445341.21875	2.58510335697792E-05
2	400	77.5425328042239	0.424346923828125	0.424346923828125	9.2742919921875E-07	3.93551715660578E-07	457551.8125	2.59445714618778E-05
2	401	77.6432408039697	0.434417724609375	0.434417724609375	9.25598144531251E-07	4.02096219431769E-07	469337.3125	2.60378801613115E-05
2	402	77.7439488037154	0.444488525390625	0.44451904296875	9.234619140625E-07	4.10496397762472E-07	481361.5625	2.61309869529214E-05
2	403	77.8446568034611	0.454559326171875	0.454559326171875	9.2193603515625E-07	4.19074609681047E-07	493048.65625	2.62239100266015E-05
2	404	77.9453648032069	0.464630126953125	0.464599609375	9.2041015625E-07	4.27622182996856E-07	504774.5625	2.63166803051718E-05
2	405	78.0460728029526	0.474700927734375	0.474609375	9.19494628906251E-07	4.36400767966916E-07	516163.3125	2.64093268924626E-05
2	406	78.1467808026983	0.484771728515625	0.4847412109375	9.1888427734375E-07	4.45421079575681E-07	527532.375	2.6501895263209E-05
2	407	78.2474888024441	0.494842529296875	0.49481201171875	9.1888427734375E-07	4.54674960792545E-07	538492.1875	2.6594434530125E-05
2	408	78.3481968021898	0.504913330078125	0.504913330078125	9.185791015625E-07	4.63802820149795E-07	549667.8125	2.66869592451258E-05
2	409	78.4489048019356	0.514984130859375	0.514984130859375	9.19189453124999E-07	4.73367947506631E-07	560259	2.67794966930524E-05
2	410	78.5496128016813	0.525054931640625	0.525054931640625	9.2041015625E-07	4.83265864659188E-07	570457.5625	2.68721287284279E-05
2	411	78.650320801427	0.535125732421875	0.5350341796875	9.2193603515625E-07	4.93267293677491E-07	580337.625	2.69648990069982E-05
2	412	78.7510288011728	0.545196533203125	0.545166015625	9.228515625E-07	5.03107287386229E-07	590740.75	2.70577911578584E-05
2	413	78.8517368009185	0.555267333984375	0.55523681640625	9.24072265625001E-07	5.13078930453048E-07	600858.6875	2.71507906290935E-05
2	414	78.9524448006642	0.565338134765625	0.565338134765625	9.2620849609375E-07	5.23620997228136E-07	610378.9375	2.72439592663432E-05
2	415	79.05315280041	0.575408935546875	0.575408935546875	9.2803955078125E-07	5.34002253971266E-07	620026.3125	2.73373279924272E-05
2	416	79.1538608001557	0.585479736328125	0.585418701171875	9.30175781250001E-07	5.44542274383275E-07	629363.5625	2.74308968073456E-05
2	417	79.2545687999014	0.595550537109375	0.595489501953125	9.326171875E-07	5.55363726562064E-07	638514.375	2.75246966339182E-05
2	418	79.3552767996472	0.605621337890625	0.605560302734375	9.3536376953125E-07	5.66419146252883E-07	647406.1875	2.76187565759756E-05
2	419	79.4559847993929	0.615692138671875	0.6156005859375	9.3841552734375E-07	5.77689149849903E-07	656000	2.77131093753269E-05
2	420	79.5566927991387	0.625762939453125	0.62567138671875	9.40856933593751E-07	5.88667262491072E-07	665001.625	2.78077368420782E-05
2	421	79.6574007988844	0.635833740234375	0.635772705078125	9.4451904296875E-07	6.00499390657205E-07	673117.9375	2.7902673537028E-05
2	422	79.7581087986301	0.645904541015625	0.645843505859375	9.478759765625E-07	6.12179519521305E-07	681358.6875	2.79979631159222E-05
2	423	79.8588167983759	0.655975341796875	0.6558837890625	9.50927734375E-07	6.23698042545584E-07	689730.4375	2.80935764749302E-05
2	424	79.9595247981216	0.666046142578125	0.66595458984375	9.5489501953125E-07	6.35916705959971E-07	697411.375	2.8189540898893E-05
2	425	80.0602327978673	0.676116943359375	0.675994873046875	9.58251953125E-07	6.47773390483053E-07	705445.875	2.82858763966942E-05
2	426	80.1609407976131	0.686187744140625	0.68609619140625	9.6160888671875E-07	6.59756153709168E-07	713487.8125	2.83825484075351E-05
2	427	80.2616487973588	0.696258544921875	0.696136474609375	9.64965820312499E-07	6.71747898195463E-07	721410.5	2.84795605693944E-05
2	428	80.3623567971046	0.706329345703125	0.70623779296875	9.686279296875E-07	6.84081612689624E-07	729111.5625	2.85769237962086E-05
2	429	80.4630647968503	0.716400146484375	0.71630859375	9.7198486328125E-07	6.96241102104977E-07	736954.5	2.86746417259565E-05
2	430	80.563772796596	0.726470947265625	0.726409912109375	9.7564697265625E-07	7.08719596786977E-07	744541.8125	2.87727125396486E-05
2	431	80.6644807963418	0.736541748046875	0.736419677734375	9.79003906250001E-07	7.20957700650615E-07	752213.25	2.88711362372851E-05
2	432	80.7651887960875	0.746612548828125	0.746551513671875	9.8236083984375E-07	7.33382933049143E-07	759956.5625	2.896990008594E-05
2	433	80.8658967958332	0.756683349609375	0.75714111328125	9.8541259765625E-07	7.46096418424713E-07	768349.3125	2.906898407673E-05
2	434	80.966604795579	0.766754150390625	0.7666015625	9.8907470703125E-07	7.58226178732002E-07	775069.4375	2.91684082185384E-05
2	435	81.0673127953247	0.776824951171875	0.7769775390625	9.92431640625E-07	7.71097063534398E-07	782902.8125	2.92681852442911E-05
2	436	81.1680207950704	0.786895751953125	0.787353515625	9.9609375E-07	7.84277915499842E-07	790441.1875	2.93683151539881E-05
2	437	81.2687287948162	0.796966552734375	0.79742431640625	1.00006103515625E-06	7.97472978320002E-07	797375.625	2.94688288704492E-05
2	438	81.3694367945619	0.807037353515625	0.806884765625	1.00372314453125E-06	8.09888888397836E-07	803891.75	2.95697282126639E-05
2	439	81.4701447943077	0.817108154296875	0.81634521484375	1.0076904296875E-06	8.22623292151548E-07	810115.0625	2.96710113616427E-05
2	440	81.5708527940534	0.827178955078125	0.8270263671875	1.01104736328125E-06	8.36162769246585E-07	817989.8125	2.97726619464811E-05
2	441	81.6715607937991	0.837249755859375	0.83709716796875	1.01531982421875E-06	8.49921264034492E-07	824466.5625	2.9874698157073E-05
2	442	81.7722687935449	0.847320556640625	0.84747314453125	1.01959228515625E-06	8.64077037476818E-07	831188.3125	2.99771636491641E-05
2	443	81.8729767932906	0.857391357421875	0.8575439453125	1.024169921875E-06	8.78270725479524E-07	837306.3125	3.00800747936592E-05
2	444	81.9736847930363	0.867462158203125	0.86700439453125	1.0284423828125E-06	8.9166405814467E-07	843026.6875	3.01834334095474E-05
2	445	82.0743927927821	0.877532958984375	0.87738037109375	1.03240966796875E-06	9.05815909391094E-07	849837.4375	3.02872049360303E-05
2	446	82.1751007925278	0.887603759765625	0.887451171875	1.03668212890625E-06	9.20004708859778E-07	856049.5	3.03913911920972E-05
2	447	82.2758087922736	0.897674560546875	0.8978271484375	1.041259765625E-06	9.34871309254959E-07	862250.875	3.04960249195574E-05
2	448	82.3765167920193	0.907745361328125	0.90789794921875	1.0455322265625E-06	9.49236493852368E-07	868359.6875	3.0601102480432E-05
2	449	82.477224791765	0.917816162109375	0.91796875	1.0498046875E-06	9.6368785307277E-07	874418.6875	3.07066111417953E-05
2	450	82.5779327915108	0.927886962890625	0.92803955078125	1.0546875E-06	9.78791717898275E-07	879919	3.08125818264671E-05
2	451	82.6786407912565	0.937957763671875	0.93780517578125	1.05926513671875E-06	9.93384219327709E-07	885335.6875	3.09190254483838E-05
2	452	82.7793487910022	0.948028564453125	0.94818115234375	1.0638427734375E-06	1.00871568520233E-06	891279.375	3.10259347315878E-05
2	453	82.880056790748	0.958099365234375	0.95794677734375	1.068115234375E-06	1.02319756933866E-06	896857.125	3.11332878482062E-05
2	454	82.9807647904937	0.968170166015625	0.96832275390625	1.072998046875E-06	1.03900833892112E-06	902446	3.12410993501544E-05
2	455	83.0814727902394	0.978240966796875	0.97869873046875	1.0772705078125E-06	1.05432320651744E-06	908498.625	3.13493765133899E-05
2	456	83.1821807899852	0.988311767578125	0.98846435546875	1.08154296875E-06	1.06906657038053E-06	913939.125	3.14580793201458E-05
2	457	83.2828887897309	0.998382568359375	0.99884033203125	1.08642578125E-06	1.08516587715712E-06	919382.0625	3.15672441502102E-05
2	458	83.3835967894767	1.00845336914063	1.00860595703125	1.09039306640625E-06	1.09977690954111E-06	924993	3.16768564516678E-05
2	459	83.4843047892224	1.01852416992188	1.01837158203125	1.09466552734375E-06	1.11477629616274E-06	930303.875	3.17868834827095E-05
2	460	83.5850127889681	1.02859497070313	1.0284423828125	1.0986328125E-06	1.12988050204876E-06	936111.125	3.18973252433352E-05
2	461	83.6857207887139	1.03866577148438	1.0382080078125	1.10321044921875E-06	1.1453618071755E-06	941078.9375	3.20081962854601E-05
2	462	83.7864287884596	1.04873657226563	1.04827880859375	1.10687255859375E-06	1.16031105790171E-06	947063.6875	3.21194820571691E-05
2	463	83.8871367882053	1.05880737304688	1.05865478515625	1.11083984375E-06	1.17599586246797E-06	953022.0625	3.22311534546316E-05
2	464	83.9878447879511	1.06887817382813	1.06903076171875	1.114501953125E-06	1.19143692245416E-06	959200.4375	3.23432104778476E-05
2	465	84.0885527876968	1.07894897460938	1.0791015625	1.11785888671875E-06	1.20628328659222E-06	965328.9375	3.24556167470291E-05
2	466	84.1892607874425	1.08901977539063	1.08917236328125	1.121826171875E-06	1.22186202133889E-06	970892.3125	3.2568394090049E-05
2	467	84.2899687871883	1.09909057617188	1.0986328125	1.12579345703125E-06	1.23683366837213E-06	975874.1875	3.26815716107376E-05
2	468	84.390676786934	1.10916137695313	1.1083984375	1.12945556640625E-06	1.25188671518117E-06	981356.4375	3.2795131119201E-05
2	469	84.4913847866798	1.11923217773438	1.119384765625	1.134033203125E-06	1.26941938560776E-06	987082.9375	3.29091089952271E-05
2	470	84.5920927864255	1.12930297851563	1.12945556640625	1.1376953125E-06	1.28497629248159E-06	992757.5	3.30234979628585E-05
2	471	84.6928007861712	1.13937377929688	1.13922119140625	1.142578125E-06	1.30164914935449E-06	997062	3.3138319849968E-05
2	472	84.793508785917	1.14944458007813	1.14990234375	1.14715576171875E-06	1.31911713197042E-06	1002394.25	3.32536146743223E-05
2	473	84.8942167856627	1.15951538085938	1.15966796875	1.1529541015625E-06	1.33704384097655E-06	1005823.25	3.33694370056037E-05
2	474	84.9949247854084	1.16958618164063	1.16973876953125	1.15875244140625E-06	1.35543757551204E-06	1009481.1875	3.34858377755154E-05
2	475	85.0956327851542	1.17965698242188	1.1798095703125	1.16546630859375E-06	1.37502831876191E-06	1012306.875	3.36028715537395E-05
2	476	85.1963407848999	1.18972778320313	1.18927001953125	1.17218017578125E-06	1.39403880439204E-06	1014579.5	3.37205819960218E-05
2	477	85.2970487846457	1.19979858398438	1.19964599609375	1.17950439453125E-06	1.41498765060533E-06	1017076.375	3.38389982061926E-05
2	478	85.3977567843914	1.20986938476563	1.209716796875	1.187744140625E-06	1.43683405440242E-06	1018499.5	3.39582002197858E-05
2	479	85.4984647841371	1.21994018554688	1.21978759765625	1.1962890625E-06	1.45921853800246E-06	1019642.875	3.40782462444622E-05
2	480	85.5991727838829	1.23001098632813	1.23046875	1.20574951171875E-06	1.48363710650301E-06	1020501.125	3.41991981258616E-05
2	481	85.6998807836286	1.24008178710938	1.2396240234375	1.2152099609375E-06	1.50640346419095E-06	1020090.375	3.43211031577084E-05
2	482	85.8005887833743	1.25015258789063	1.25030517578125	1.2261962890625E-06	1.53311952999502E-06	1019661.5625	3.44440377375577E-05
2	483	85.9012967831201	1.26022338867188	1.259765625	1.23779296875E-06	1.5593290072502E-06	1017751.5	3.45681110047735E-05
2	484	86.0020047828658	1.27029418945313	1.26983642578125	1.2493896484375E-06	1.58652039772278E-06	1016365.4375	3.46933484252077E-05
2	485	86.1027127826115	1.28036499023438	1.280517578125	1.26220703125E-06	1.61627826855693E-06	1014506.8125	3.48198191204574E-05
2	486	86.2034207823573	1.29043579101563	1.29058837890625	1.27532958984375E-06	1.64592540841113E-06	1011964.625	3.49475922121201E-05
2	487	86.304128782103	1.30050659179688	1.3006591796875	1.2896728515625E-06	1.6774247342255E-06	1008518.75	3.50767513737082E-05
2	488	86.4048367818488	1.31057739257813	1.3104248046875	1.30523681640625E-06	1.71041460816923E-06	1003974.8125	3.52074166585226E-05
2	489	86.5055447815945	1.32064819335938	1.32080078125	1.32080078125E-06	1.74451463408332E-06	1000000.0625	3.53396462742239E-05
2	490	86.6062527813402	1.33071899414063	1.33056640625	1.3372802734375E-06	1.7793400957089E-06	994979.5	3.54734911525156E-05
2	491	86.706960781086	1.34078979492188	1.34124755859375	1.3543701171875E-06	1.81654547759535E-06	990311	3.56090276909526E-05
2	492	86.8076687808317	1.35086059570313	1.35101318359375	1.3739013671875E-06	1.85615886039159E-06	983340.75	3.5746405046666E-05
2	493	86.9083767805774	1.36093139648438	1.36138916015625	1.3946533203125E-06	1.89866591426835E-06	976148.8125	3.58858123945538E-05
2	494	87.0090847803232	1.37100219726563	1.37115478515625	1.417236328125E-06	1.94325025404396E-06	967485	3.60274025297258E-05
2	495	87.1097927800689	1.38107299804688	1.3812255859375	1.4422607421875E-06	1.99208739104506E-06	957680.9375	3.61713900929317E-05
2	496	87.2105007798147	1.39114379882813	1.39068603515625	1.470947265625E-06	2.0456259335333E-06	945435.6875	3.631808431237E-05
2	497	87.3112087795604	1.40121459960938	1.40106201171875	1.50360107421875E-06	2.10663824873336E-06	931804.3125	3.64678635378368E-05
2	498	87.4119167793061	1.41128540039063	1.41082763671875	1.54144287109375E-06	2.17471028918226E-06	915264.3125	3.66211934306193E-05
2	499	87.5126247790519	1.42135620117188	1.42181396484375	1.5850830078125E-06	2.25369308282097E-06	896996.5625	3.67786269634962E-05
2	500	87.6133327787976	1.43142700195313	1.4312744140625	1.63665771484375E-06	2.3425061499438E-06	874510.5625	3.69408553524408E-05
2	501	87.7140407785433	1.44149780273438	1.44134521484375	1.69921875E-06	2.44916077463131E-06	848239.9375	3.71088281099219E-05
2	502	87.8147487782891	1.45156860351563	1.45172119140625	1.77581787109375E-06	2.57799251812685E-06	817494.4375	3.72838112525642E-05
2	503	87.9154567780348	1.46163940429688	1.4617919921875	1.86798095703125E-06	2.73059958999511E-06	782551.875	3.74672890757211E-05
2	504	88.0161647777805	1.47171020507813	1.4715576171875	1.97540283203125E-06	2.90691900772799E-06	744940.5625	3.76608186343219E-05
2	505	88.1168727775263	1.48178100585938	1.48193359375	2.09716796875E-06	3.10786367663241E-06	706635.625	3.78658914996777E-05
2	506	88.217580777272	1.49185180664063	1.49200439453125	2.23175048828125E-06	3.3297812933597E-06	668535.5	3.80838682758622E-05
2	507	88.3182887770178	1.50192260742188	1.50177001953125	2.3760986328125E-06	3.56835357706586E-06	632031.875	3.83158912882209E-05
2	508	88.4189967767635	1.49185180664063	1.4923095703125	2.00958251953125E-06	2.99891917165951E-06	742596.8125	3.85367275157478E-05
2	509	88.5197047765092	1.48178100585938	1.48162841796875	1.74224853515625E-06	2.58136492448102E-06	850411.625	3.87256477552E-05
2	510	88.620412776255	1.47171020507813	1.47216796875	1.5338134765625E-06	2.25803114517475E-06	959809	3.88906119042076E-05
2	511	88.7211207760007	1.46163940429688	1.461181640625	1.3653564453125E-06	1.99503369913145E-06	1070183.25	3.90365967177786E-05
2	512	88.8218287757464	1.45156860351563	1.451416015625	1.2274169921875E-06	1.78149264229432E-06	1182496.25	3.91671528632287E-05
2	513	88.9225367754922	1.44149780273438	1.4410400390625	1.11419677734375E-06	1.60560205131333E-06	1293344.375	3.92850633943453E-05
2	514	89.0232447752379	1.43142700195313	1.43096923828125	1.021728515625E-06	1.46206207318755E-06	1400537.625	3.93926165997982E-05
2	515	89.1239527749836	1.42135620117188	1.42120361328125	9.4512939453125E-07	1.34322124267783E-06	1503713.25	3.94916532968637E-05
2	516	89.2246607747294	1.41128540039063	1.41143798828125	8.837890625E-07	1.2474133654905E-06	1597030.5	3.95837487303652E-05
2	517	89.3253687744751	1.40121459960938	1.40106201171875	8.3282470703125E-07	1.16683906981052E-06	1682301.25	3.96701871068217E-05
2	518	89.4260767742209	1.39114379882813	1.3909912109375	7.916259765625E-07	1.10114478957257E-06	1757131.875	3.97519834223203E-05
2	519	89.5267847739666	1.38107299804688	1.3812255859375	7.5836181640625E-07	1.04746868601069E-06	1821328	3.98300326196477E-05
2	520	89.6274927737123	1.37100219726563	1.370849609375	7.31201171875E-07	1.00236684374977E-06	1874791.375	3.99050368287135E-05
2	521	89.7282007734581	1.36093139648438	1.36077880859375	7.09228515625E-07	9.65103140515566E-07	1918674.75	3.99775672121905E-05
2	522	89.8289087732038	1.35086059570313	1.35101318359375	6.9000244140625E-07	9.32202397052606E-07	1957983.25	4.00480239477474E-05
2	523	89.9296167729495	1.34078979492188	1.3409423828125	6.732177734375E-07	9.02746194242354E-07	1991840.5	4.01166689698584E-05
2	524	90.0303247726953	1.33071899414063	1.33056640625	6.591796875E-07	8.77082300121401E-07	2018518.625	4.01837605750188E-05
2	525	90.131032772441	1.32064819335938	1.32110595703125	6.45751953125E-07	8.53106712384033E-07	2045841.25	4.02494697482325E-05
2	526	90.2317407721868	1.31057739257813	1.3104248046875	6.3323974609375E-07	8.29813018299319E-07	2069397.625	4.03138728870545E-05
2	527	90.3324487719325	1.30050659179688	1.30035400390625	6.21643066406249E-07	8.08355991921417E-07	2091801.75	4.03770609409548E-05
2	528	90.4331567716782	1.29043579101563	1.290283203125	6.1065673828125E-07	7.87920157563349E-07	2112943.5	4.04391103074886E-05
2	529	90.533864771424	1.28036499023438	1.280517578125	5.9967041015625E-07	7.67888479913381E-07	2135369	4.05000573664438E-05
2	530	90.6345727711697	1.27029418945313	1.270751953125	5.89904785156251E-07	7.49622586226906E-07	2154164.75	4.05599566875026E-05
2	531	90.7352807709154	1.26022338867188	1.2603759765625	5.8013916015625E-07	7.31193438241462E-07	2172540.75	4.06188701163046E-05
2	532	90.8359887706612	1.25015258789063	1.25	5.70068359375001E-07	7.12585404016863E-07	2192719.75	4.06767903768923E-05
2	533	90.9366967704069	1.24008178710938	1.23992919921875	5.6121826171875E-07	6.95870880917937E-07	2209353	4.07337538490538E-05
2	534	91.0374047701526	1.23001098632813	1.2298583984375	5.5206298828125E-07	6.78959338529239E-07	2227750	4.07898114644922E-05
2	535	91.1381127698984	1.21994018554688	1.2200927734375	5.43212890625E-07	6.62770105464006E-07	2246067.5	4.08449632232077E-05
2	536	91.2388207696441	1.20986938476563	1.209716796875	5.34973144531251E-07	6.47166018552525E-07	2261266.5	4.08992564189248E-05
2	537	91.3395287693899	1.19979858398438	1.199951171875	5.25817871093751E-07	6.30955810265732E-07	2282066	4.09526692237705E-05
2	538	91.4402367691356	1.18972778320313	1.18988037109375	5.17578125E-07	6.15855981322966E-07	2298938.75	4.10052089137025E-05
2	539	91.5409447688813	1.17965698242188	1.17950439453125	5.0933837890625E-07	6.00766838942945E-07	2315758	4.10569191444665E-05
2	540	91.6416527686271	1.16958618164063	1.16973876953125	5.0048828125E-07	5.85440545819438E-07	2337195	4.11077671742532E-05
2	541	91.7423607683728	1.15951538085938	1.15966796875	4.91943359374999E-07	5.70490954032721E-07	2357320.25	4.11577384511475E-05
2	542	91.8430687681185	1.14944458007813	1.14990234375	4.840087890625E-07	5.56562781639514E-07	2375788.25	4.12068839068525E-05
2	543	91.9437767678643	1.13937377929688	1.13983154296875	4.75463867187501E-07	5.41948679710913E-07	2397304.25	4.12551962654106E-05
2	544	92.04448476761	1.12930297851563	1.129150390625	4.6722412109375E-07	5.27566271557589E-07	2416721.25	4.13026646128856E-05
2	545	92.1451927673558	1.11923217773438	1.119384765625	4.58679199218751E-07	5.13438465077343E-07	2440452.5	4.13492889492773E-05
2	546	92.2459007671015	1.10916137695313	1.1090087890625	4.50439453125E-07	4.99541329190833E-07	2462059.75	4.13950656366069E-05
2	547	92.3466087668472	1.09909057617188	1.0992431640625	4.41894531250001E-07	4.85749524159473E-07	2487569.25	4.14399983128533E-05
2	548	92.447316766593	1.08901977539063	1.0894775390625	4.3304443359375E-07	4.71792162670681E-07	2515856.25	4.14840542362072E-05
2	549	92.5480247663387	1.07894897460938	1.0784912109375	4.25109863281251E-07	4.58477245501854E-07	2536970.75	4.15272661484778E-05
2	550	92.6487327660844	1.06887817382813	1.0693359375	4.1656494140625E-07	4.45447852825964E-07	2567033	4.15696486015804E-05
2	551	92.7494407658302	1.05880737304688	1.05865478515625	4.08020019531249E-07	4.31952344115416E-07	2594614.75	4.16111688537057E-05
2	552	92.8501487655759	1.04873657226563	1.04888916015625	3.9947509765625E-07	4.1900509017978E-07	2625668.5	4.16518305428326E-05
2	553	92.9508567653216	1.03866577148438	1.038818359375	3.9093017578125E-07	4.06105414185731E-07	2657299.25	4.16916300309822E-05
2	554	93.0515647650674	1.02859497070313	1.0284423828125	3.826904296875E-07	3.93575049884021E-07	2687400.5	4.17305855080485E-05
2	555	93.1522727648131	1.01852416992188	1.0186767578125	3.74450683593749E-07	3.81444209551773E-07	2720456.5	4.1768707887968E-05
2	556	93.2529807645589	1.00845336914063	1.0089111328125	3.6651611328125E-07	3.69782185316581E-07	2752706.25	4.18060189986136E-05
2	557	93.3536887643046	0.998382568359375	0.99884033203125	3.582763671875E-07	3.57860898247964E-07	2787904.5	4.18425152020063E-05
2	558	93.4543967640503	0.988311767578125	0.98846435546875	3.50341796875001E-07	3.46300367937147E-07	2821428.5	4.18781964981463E-05
2	559	93.5551047637961	0.978240966796875	0.97808837890625	3.42712402343751E-07	3.35202997803208E-07	2853962.75	4.19130956288427E-05
2	560	93.6558127635418	0.968170166015625	0.968017578125	3.35693359375E-07	3.24957056818675E-07	2883636.5	4.19472562498413E-05
2	561	93.7565207632875	0.958099365234375	0.95855712890625	3.28674316406249E-07	3.1505308584201E-07	2916434.75	4.19807111029513E-05
2	562	93.8572287630333	0.948028564453125	0.9478759765625	3.21350097656251E-07	3.04600035860858E-07	2949667.75	4.20134419982787E-05
2	563	93.957936762779	0.937957763671875	0.93841552734375	3.1463623046875E-07	2.9525952527365E-07	2982541.25	4.20454671257176E-05
2	564	94.0586447625248	0.927886962890625	0.92803955078125	3.07617187500001E-07	2.85480894035572E-07	3016865.25	4.20767973992042E-05
2	565	94.1593527622705	0.917816162109375	0.9173583984375	3.0181884765625E-07	2.76876050975261E-07	3039434	4.21074873884209E-05
2	566	94.2600607620162	0.907745361328125	0.9075927734375	2.95104980468749E-07	2.67835133627159E-07	3075491.25	4.2137544369325E-05
2	567	94.360768761762	0.897674560546875	0.89752197265625	2.89306640625001E-07	2.59659060475315E-07	3102320.75	4.21669719798956E-05
2	568	94.4614767615077	0.887603759765625	0.88775634765625	2.8411865234375E-07	2.52228119279607E-07	3124597.25	4.21958466176875E-05
2	569	94.5621847612534	0.877532958984375	0.87738037109375	2.7801513671875E-07	2.43925029508318E-07	3155872.75	4.22241500928067E-05
2	570	94.6628927609992	0.867462158203125	0.86761474609375	2.74047851562501E-07	2.37767949329282E-07	3165924.5	4.22519515268505E-05
2	571	94.7636007607449	0.857391357421875	0.85693359375	2.6885986328125E-07	2.30395031053376E-07	3187287.25	4.22792872996069E-05
2	572	94.8643087604906	0.847320556640625	0.84686279296875	2.6397705078125E-07	2.23552348188605E-07	3208092.5	4.23061173933093E-05
2	573	94.9650167602364	0.837249755859375	0.83740234375	2.5909423828125E-07	2.16966114408024E-07	3232037.75	4.23324563598726E-05
2	574	95.0657247599821	0.827178955078125	0.82763671875	2.5482177734375E-07	2.10899855801472E-07	3247904.25	4.23583333031274E-05
2	575	95.1664327597279	0.817108154296875	0.81756591796875	2.50244140625E-07	2.0459107474835E-07	3267073.25	4.23837664129678E-05
2	576	95.2671407594736	0.807037353515625	0.80718994140625	2.4566650390625E-07	1.98299517251144E-07	3285714.5	4.24087374994997E-05
2	577	95.3678487592193	0.796966552734375	0.7977294921875	2.4139404296875E-07	1.9256715688698E-07	3304677.5	4.24332647526171E-05
2	578	95.4685567589651	0.786895751953125	0.787353515625	2.3651123046875E-07	1.86217945952194E-07	3329032.25	4.24573263444472E-05
2	579	95.5692647587108	0.776824951171875	0.77667236328125	2.3193359375E-07	1.80136410676823E-07	3348684.25	4.24809149990324E-05
2	580	95.6699727584565	0.766754150390625	0.7666015625	2.2735595703125E-07	1.74291429289042E-07	3371812	4.25040416303091E-05
2	581	95.7706807582023	0.756683349609375	0.75653076171875	2.2247314453125E-07	1.68307764170095E-07	3400548.75	4.2526691686362E-05
2	582	95.871388757948	0.746612548828125	0.746551513671875	2.1697998046875E-07	1.61986719149354E-07	3440647.25	4.25488215114456E-05
2	583	95.9720967576937	0.736541748046875	0.7364501953125	2.1209716796875E-07	1.5619899329522E-07	3472230.25	4.25704274675809E-05
2	584	96.0728047574395	0.726470947265625	0.72637939453125	2.06909179687501E-07	1.50294567902165E-07	3510619.5	4.2591527744662E-05
2	585	96.1735127571852	0.716400146484375	0.71636962890625	2.01416015625E-07	1.44288321735075E-07	3556666.75	4.26120859629009E-05
2	586	96.274220756931	0.706329345703125	0.70623779296875	1.9683837890625E-07	1.39014701971973E-07	3587907	4.26321421400644E-05
2	587	96.3749287566767	0.696258544921875	0.696136474609375	1.91345214843749E-07	1.33202377128327E-07	3638118.25	4.26516853622161E-05
2	588	96.4756367564224	0.686187744140625	0.686126708984375	1.8646240234375E-07	1.27936829130704E-07	3679705.5	4.26707119913772E-05
2	589	96.5763447561682	0.676116943359375	0.676055908203125	1.8157958984375E-07	1.22757953135988E-07	3723193.5	4.26892438554205E-05
2	590	96.6770527559139	0.666046142578125	0.665924072265625	1.7669677734375E-07	1.176666373226E-07	3768739.25	4.27072845923249E-05
2	591	96.7777607556596	0.655975341796875	0.655914306640625	1.72119140625E-07	1.1289539969539E-07	3810815.75	4.27248487540055E-05
2	592	96.8784687554054	0.645904541015625	0.645843505859375	1.678466796875E-07	1.0840268771517E-07	3847818.25	4.27419654442929E-05
2	593	96.9791767551511	0.635833740234375	0.63580322265625	1.64794921875E-07	1.04777136300527E-07	3858148.5	4.27587183366995E-05
2	594	97.0798847548969	0.625762939453125	0.625701904296875	1.61132812500001E-07	1.00821104354054E-07	3883144.25	4.27751292590983E-05
2	595	97.1805927546426	0.615692138671875	0.615631103515625	1.57775878906249E-07	9.71317319908849E-08	3901934.5	4.27911872975528E-05
2	596	97.2813007543883	0.605621337890625	0.605560302734375	1.54724121093749E-07	9.36947870400218E-08	3913806.75	4.28069215558935E-05
2	597	97.3820087541341	0.595550537109375	0.595550537109375	1.5289306640625E-07	9.10555471023144E-08	3895209.5	4.28224120696541E-05
2	598	97.4827167538798	0.585479736328125	0.585479736328125	1.4984130859375E-07	8.77290418088705E-08	3907332.25	4.28376552008558E-05
2	599	97.5834247536255	0.575408935546875	0.57537841796875	1.47399902343751E-07	8.48107220008387E-08	3903519.75	4.28526218456682E-05
2	600	97.6841327533713	0.565338134765625	0.565338134765625	1.45263671875E-07	8.21230941028261E-08	3891806.75	4.28673592978157E-05
2	601	97.784840753117	0.555267333984375	0.555206298828125	1.434326171875E-07	7.9634688177066E-08	3870851	4.28818966611288E-05
2	602	97.8855487528627	0.545196533203125	0.545196533203125	1.41296386718751E-07	7.703430071615E-08	3858531.5	4.28962339356076E-05
2	603	97.9862567526085	0.535125732421875	0.535064697265625	1.40380859375E-07	7.51128439446802E-08	3811521.75	4.29104184149764E-05
2	604	98.0869647523542	0.525054931640625	0.524993896484375	1.385498046875E-07	7.27378051124106E-08	3789207	4.29244646511506E-05
2	605	98.1876727521	0.514984130859375	0.51495361328125	1.3702392578125E-07	7.05609579654265E-08	3758129.5	4.29383399023209E-05
2	606	98.2883807518457	0.504913330078125	0.5048828125	1.35498046875E-07	6.84106353787683E-08	3726126.25	4.29520623583812E-05
2	607	98.3890887515914	0.494842529296875	0.494873046875	1.3427734375E-07	6.64502408653789E-08	3685454.5	4.29656465712469E-05
2	608	98.4897967513372	0.484771728515625	0.4847412109375	1.324462890625E-07	6.42021760199896E-08	3659907.75	4.29790779890027E-05
2	609	98.5905047510829	0.474700927734375	0.474700927734375	1.3092041015625E-07	6.21480396034713E-08	3625874	4.29923384217545E-05
2	610	98.6912127508286	0.464630126953125	0.464630126953125	1.2939453125E-07	6.01205911721081E-08	3590802.25	4.30054460593965E-05
2	611	98.7919207505744	0.454559326171875	0.45458984375	1.2786865234375E-07	5.81277888045406E-08	3555131.5	4.30184009019285E-05
2	612	98.8926287503201	0.444488525390625	0.444488525390625	1.263427734375E-07	5.61579120983424E-08	3518116	4.30312029493507E-05
2	613	98.9933367500659	0.434417724609375	0.4344482421875	1.2481689453125E-07	5.42264793068625E-08	3480684.75	4.30438485636842E-05
2	614	99.0940447498116	0.424346923828125	0.42437744140625	1.22680664062499E-07	5.20629050981825E-08	3459204	4.30563122790772E-05
2	615	99.1947527495573	0.414276123046875	0.414306640625	1.21154785156249E-07	5.0195232859096E-08	3419647.5	4.30685904575512E-05
2	616	99.2954607493031	0.404205322265625	0.404266357421875	1.1932373046875E-07	4.82385686950693E-08	3387979.5	4.30806976510212E-05
2	617	99.3961687490488	0.394134521484375	0.394134521484375	1.18103027343749E-07	4.65484788492176E-08	3337209.5	4.30926520493813E-05
2	618	99.4968767487945	0.384063720703125	0.3841552734375	1.16577148437499E-07	4.47837251726924E-08	3295288	4.31044718425255E-05
2	619	99.5975847485403	0.373992919921875	0.373992919921875	1.15051269531249E-07	4.30283577657065E-08	3250663.25	4.31161352025811E-05
2	620	99.698292748286	0.363922119140625	0.363922119140625	1.141357421875E-07	4.15365200012729E-08	3188502.75	4.31276748713572E-05
2	621	99.7990007480317	0.353851318359375	0.35382080078125	1.1260986328125E-07	3.9843712329457E-08	3142005.5	4.31390908488538E-05
2	622	99.8997087477775	0.343780517578125	0.34381103515625	1.11083984375E-07	3.81918994207808E-08	3095055	4.31503540312406E-05
2	623	100.000416747523	0.333709716796875	0.333770751953125	1.09252929687501E-07	3.6465433339572E-08	3055028	4.31614498666022E-05
2	624	100.101124747269	0.323638916015625	0.32366943359375	1.07727050781251E-07	3.48679520811856E-08	3004532.75	4.31723747169599E-05
2	625	100.201832747015	0.313568115234375	0.313568115234375	1.06201171875001E-07	3.3301301272104E-08	2952586.25	4.31831504101865E-05
2	626	100.30254074676	0.303497314453125	0.303497314453125	1.04370117187499E-07	3.16760484508904E-08	2907894.75	4.31937514804304E-05
2	627	100.403248746506	0.293426513671875	0.29339599609375	1.025390625E-07	3.00845499623392E-08	2861309.5	4.32041706517339E-05
2	628	100.503956746252	0.283355712890625	0.283355712890625	1.0040283203125E-07	2.8449715472334E-08	2822188.5	4.3214389734203E-05
2	629	100.604664745998	0.273284912109375	0.273284912109375	9.79614257812497E-08	2.67713797796887E-08	2789719.75	4.32243759860285E-05
2	630	100.705372745743	0.263214111328125	0.26318359375	9.55200195312506E-08	2.51393004191414E-08	2755271.75	4.32341221312527E-05
2	631	100.806080745489	0.253143310546875	0.25311279296875	9.24682617187506E-08	2.34048993519309E-08	2737293.75	4.32435845141299E-05
2	632	100.906788745235	0.243072509765625	0.2430419921875	8.97216796875003E-08	2.18061355639065E-08	2708843.5	4.32527594966814E-05
2	633	101.007496744981	0.233001708984375	0.233062744140625	8.63647460937506E-08	2.01284038325866E-08	2698586.75	4.32616252510343E-05
2	634	101.108204744726	0.222930908203125	0.222991943359375	8.23974609375E-08	1.83739690129414E-08	2706296.5	4.32701235695276E-05
2	635	101.208912744472	0.212860107421875	0.212860107421875	7.781982421875E-08	1.65647353611575E-08	2735294.25	4.32781926065218E-05
2	636	101.309620744218	0.202789306640625	0.20281982421875	7.20214843749997E-08	1.46073846352124E-08	2816101.75	4.32857377745677E-05
2	637	101.410328743964	0.192718505859375	0.192718505859375	6.561279296875E-08	1.26447980974831E-08	2937209.5	4.32926681241952E-05
2	638	101.511036743709	0.182647705078125	0.18267822265625	5.76782226562503E-08	1.05365547398151E-08	3167195.75	4.32988745160401E-05
2	639	101.611744743455	0.172576904296875	0.172607421875	4.730224609375E-08	8.16471867892687E-09	3649032.5	4.33041641372256E-05
2	640	101.712452743201	0.162506103515625	0.1624755859375	3.38745117187497E-08	5.50378098651549E-09	4796396.5	4.3308249587426E-05
2	641	101.813160742946	0.152435302734375	0.15240478515625	1.64794921875003E-08	2.51155340968978E-09	9248149	4.33107852586545E-05
2	642	101.913868742692	0.142364501953125	0.14239501953125	-6.71386718749945E-09	-9.56021151132802E-10	-21209092	4.33112763857935E-05
2	643	102.014576742438	0.132293701171875	0.13238525390625	-3.87573242187494E-08	-5.13089837284042E-09	-3415748	4.33089880971238E-05
2	644	102.115284742184	0.122222900390625	0.12225341796875	-8.17871093750006E-08	-9.99875293672403E-09	-1494776.125	4.33029163104948E-05
2	645	102.215992741929	0.112152099609375	0.112213134765625	-1.4190673828125E-07	-1.59237991681493E-08	-790752.6875	4.3291653128108E-05
2	646	102.316700741675	0.102081298828125	0.102142333984375	-2.23693847656251E-07	-2.28486118913906E-08	-456616.65625	4.32732449553441E-05
2	647	102.417408741421	0.092010498046875	0.09210205078125	-3.338623046875E-07	-3.07494012474763E-08	-275868.375	4.32451706728898E-05
2	648	102.518116741167	0.081939697265625	0.08197021484375	-4.7882080078125E-07	-3.9249041350331E-08	-171191.859375	4.32042470492888E-05
2	649	102.618824740912	0.071868896484375	0.0718994140625	-6.63146972656251E-07	-4.76798796000821E-08	-108421.5390625	4.31467451562639E-05
2	650	102.719532740658	0.061798095703125	0.0618896484375	-8.8470458984375E-07	-5.47540537354507E-08	-69955.1640625	4.30688050983008E-05
2	651	102.820240740404	0.051727294921875	0.051788330078125	-1.1358642578125E-06	-5.88245079313765E-08	-45593.76953125	4.29670617450029E-05
2	652	102.92094874015	0.041656494140625	0.0417816162109375	-1.39801025390625E-06	-5.84111248258523E-08	-29886.48828125	4.28394705522805E-05
2	653	103.021656739895	0.031585693359375	0.0316925048828125	-1.64764404296875E-06	-5.22179668394074E-08	-19235.04296875	4.26861079176888E-05
2	654	103.122364739641	0.021514892578125	0.021588134765625	-1.856689453125E-06	-4.00824617940998E-08	-11627.2197265625	4.25096513936296E-05
2	655	103.223072739387	0.011444091796875	0.011505126953125	-2.00592041015625E-06	-2.30783676613555E-08	-5735.5849609375	4.23151541326661E-05
2	656	103.323780739133	0.001373291015625	0.0014617919921875	-2.08831787109375E-06	-3.05268632594391E-09	-699.985412597656	4.2108993511647E-05
2	657	103.424488738878	-0.008697509765625	-0.00859985351562501	-2.10906982421875E-06	1.81376904606623E-08	4077.55737304688	4.18976378568914E-05
2	658	103.525196738624	-0.018768310546875	-0.0186737060546875	-2.08221435546875E-06	3.88826570940637E-08	8968.1962890625	4.16865877923556E-05
2	659	103.62590473837	-0.028839111328125	-0.028729248046875	-2.025146484375E-06	5.81809338484618E-08	14186.2578125	4.14797686971724E-05
2	660	103.726612738115	-0.038909912109375	-0.038787841796875	-1.95037841796875E-06	7.56509663801808E-08	19887.341796875	4.12795852753334E-05
2	661	103.827320737861	-0.048980712890625	-0.0488128662109375	-1.8707275390625E-06	9.13155702164659E-08	26092.986328125	4.10871762142051E-05
2	662	103.928028737607	-0.059051513671875	-0.05902099609375	-1.79168701171875E-06	1.05747147927104E-07	32941.578125	4.0902759792516E-05
2	663	104.028736737353	-0.069122314453125	-0.069091796875	-1.7169189453125E-06	1.18625010259166E-07	40241.73828125	4.07260849897284E-05
2	664	104.129444737098	-0.079193115234375	-0.079132080078125	-1.64886474609375E-06	1.3047808522515E-07	47991.859375	4.05566061090212E-05
2	665	104.230152736844	-0.089263916015625	-0.08917236328125	-1.58782958984375E-06	1.41590504654232E-07	56159.91015625	4.03936246584635E-05
2	666	104.33086073659	-0.099334716796875	-0.099212646484375	-1.534423828125E-06	1.52234235883952E-07	64657.91796875	4.02364057663362E-05
2	667	104.431568736336	-0.109405517578125	-0.109344482421875	-1.48712158203125E-06	1.62608529308272E-07	73527.6015625	4.00842618546449E-05
2	668	104.532276736081	-0.119476318359375	-0.119384765625	-1.4453125E-06	1.72548297427966E-07	82601.3515625	3.99365999328438E-05
2	669	104.632984735827	-0.129547119140625	-0.129486083984375	-1.40869140625E-06	1.82405926807405E-07	91919.4140625	3.97928888560273E-05
2	670	104.733692735573	-0.139617919921875	-0.1395263671875	-1.37725830078125E-06	1.92163838619308E-07	101307.3359375	3.9652604755247E-05
2	671	104.834400735319	-0.149688720703125	-0.14959716796875	-1.35009765625E-06	2.01970777879978E-07	110804.703125	3.95152746932581E-05
2	672	104.935108735064	-0.159759521484375	-0.15960693359375	-1.3262939453125E-06	2.11685716067223E-07	120340.5390625	3.93805057683494E-05
2	673	105.03581673481	-0.169830322265625	-0.169708251953125	-1.30615234375E-06	2.21664819832768E-07	129929.9140625	3.92479523725342E-05
2	674	105.136524734556	-0.179901123046875	-0.17974853515625	-1.28875732421875E-06	2.31652236948321E-07	139474.3125	3.91172870877199E-05
2	675	105.237232734302	-0.189971923828125	-0.189910888671875	-1.27410888671875E-06	2.41967143210786E-07	149053.890625	3.89882370654959E-05
2	676	105.337940734047	-0.200042724609375	-0.199920654296875	-1.26251220703125E-06	2.52402259093287E-07	158351.453125	3.88605076295789E-05
2	677	105.438648733793	-0.189971923828125	-0.1898193359375	-1.11572265625E-06	2.11785732062708E-07	170131.296875	3.87407526432071E-05
