Potential - Start -0.2 V, Upper Vertex 1.5 V, Lower Vertex -0.2 V, Stop -0.19 V; Scan - # end cross 5, Rate 0.1 Vps, Step 0.01 V 
Scan	Index	Time (s)	Potential applied (V)	WE(1).Potential (V)	WE(1).Current (A)	WE(1).Power (W)	WE(1).Resistance (Ω)	WE(1).Charge (C)
1	1	65.679563834175	-0.189971923828125	-0.1898193359375	-2.32849121093751E-07	4.41992646926792E-08	815203.1875	0
1	2	65.7802718339208	-0.179901123046875	-0.17974853515625	-1.98974609374999E-07	3.57653924254464E-08	903374.25	-2.17440518923695E-08
1	3	65.8809798336665	-0.169830322265625	-0.169677734375	-1.73034667968749E-07	2.93601303269497E-08	980599.6875	-4.04762054984076E-08
1	4	65.9816878334123	-0.159759521484375	-0.159637451171875	-1.5106201171875E-07	2.4115154317883E-08	1056767.625	-5.67957698649479E-08
1	5	66.082395833158	-0.149688720703125	-0.149505615234375	-1.3153076171875E-07	1.96645864036782E-08	1136659	-7.10254468572202E-08
1	6	66.1831038329037	-0.139617919921875	-0.139495849609375	-1.13525390624999E-07	1.58363206992362E-08	1228763.5	-8.33650020126697E-08
1	7	66.2838118326495	-0.129547119140625	-0.12945556640625	-9.64355468749997E-08	1.24841177395751E-08	1342405.125	-9.39373734354376E-08
1	8	66.3845198323952	-0.119476318359375	-0.119384765625	-8.11767578124997E-08	9.69126823235911E-09	1470676.75	-1.0288086826904E-07
1	9	66.4852278321409	-0.109405517578125	-0.109344482421875	-6.561279296875E-08	7.17439618824756E-09	1666511.75	-1.10272303288639E-07
1	10	66.5859358318867	-0.099334716796875	-0.099212646484375	-4.97436523437506E-08	4.93519936028974E-09	1994478.625	-1.16080961731768E-07
1	11	66.6866438316324	-0.089263916015625	-0.08917236328125	-3.35693359375E-08	2.99345703780318E-09	2656363.75	-1.20276112625106E-07
1	12	66.7873518313781	-0.079193115234375	-0.079132080078125	-1.55639648437497E-08	1.23160892595564E-09	5084314	-1.22750165587604E-07
1	13	66.8880598311239	-0.069122314453125	-0.06915283203125	5.49316406250056E-09	-3.79867859390259E-10	-12588889	-1.23257265727261E-07
1	14	66.9887678308696	-0.059051513671875	-0.058990478515625	3.02124023437503E-08	-1.78224401903293E-09	-1952525.25	-1.21459351021258E-07
1	15	67.0894758306154	-0.048980712890625	-0.0488037109375	6.19506835937506E-08	-3.02342284541623E-09	-787783.3125	-1.16818569040333E-07
1	16	67.1901838303611	-0.038909912109375	-0.0387481689453125	1.02844238281249E-07	-3.98502564280534E-09	-376765.59375	-1.08520488595332E-07
1	17	67.2908918301068	-0.028839111328125	-0.028717041015625	1.568603515625E-07	-4.50456516531972E-09	-183073.921875	-9.5443326131317E-08
1	18	67.3915998298526	-0.018768310546875	-0.0186370849609375	2.29492187499999E-07	-4.27706536854089E-09	-81210.109375	-7.59889289270177E-08
1	19	67.4923078295983	-0.008697509765625	-0.0085784912109375	3.27148437499999E-07	-2.80643996930507E-09	-26222.015625	-4.79598476488263E-08
1	20	67.593015829344	0.001373291015625	0.0014801025390625	4.547119140625E-07	6.73020250641088E-10	3255.03369140625	-8.59005222508813E-09
1	21	67.6937238290898	0.011444091796875	0.0115631103515625	6.1920166015625E-07	7.15989711963516E-09	18674.22265625	4.54857911336148E-08
1	22	67.7944318288355	0.021514892578125	0.021588134765625	8.197021484375E-07	1.76958394604299E-08	26336.5625	1.17940352595269E-07
1	23	67.8951398285813	0.031585693359375	0.0316650390625	1.05133056640625E-06	3.32904193101058E-08	30119.013671875	2.12154333212311E-07
1	24	67.995847828327	0.041656494140625	0.041766357421875	1.2994384765625E-06	5.42728066932341E-08	32141.8515625	3.3052495496122E-07
1	25	68.0965558280727	0.051727294921875	0.051788330078125	1.54144287109375E-06	7.98287516090568E-08	33597.30859375	4.73574687021028E-07
1	26	68.1972638278185	0.061798095703125	0.06182861328125	1.7529296875E-06	1.08381208008268E-07	35271.58984375	6.3945952888389E-07
1	27	68.2979718275642	0.071868896484375	0.071929931640625	1.9140625E-06	1.37678384248829E-07	37579.71875	8.24107246444328E-07
1	28	68.3986798273099	0.081939697265625	0.08197021484375	2.0147705078125E-06	1.65151163855626E-07	40684.64453125	1.02193973816611E-06
1	29	68.4993878270557	0.092010498046875	0.092041015625	2.05474853515625E-06	1.89121124094527E-07	44794.30078125	1.22685628412E-06
1	30	68.6000958268014	0.102081298828125	0.10211181640625	2.0465087890625E-06	2.08972736004398E-07	49895.61328125	1.43337092595175E-06
1	31	68.7008038265471	0.112152099609375	0.112152099609375	2.00408935546875E-06	2.24762828793246E-07	55961.62890625	1.63733477620553E-06
1	32	68.8015118262929	0.122222900390625	0.122283935546875	1.9415283203125E-06	2.37417722814826E-07	62983.3359375	1.83601241587894E-06
1	33	68.9022198260386	0.132293701171875	0.13232421875	1.86981201171875E-06	2.47421411359028E-07	70768.7265625	2.02792853087885E-06
1	34	69.0029278257844	0.142364501953125	0.14239501953125	1.796875E-06	2.5586604124328E-07	79245.9296875	2.21256095755962E-06
1	35	69.1036358255301	0.152435302734375	0.15252685546875	1.72607421875E-06	2.63272653455715E-07	88366.3359375	2.38995562540367E-06
1	36	69.2043438252758	0.162506103515625	0.162567138671875	1.65985107421875E-06	2.69837244104565E-07	97940.8046875	2.56045041169273E-06
1	37	69.3050518250216	0.172576904296875	0.172637939453125	1.5997314453125E-06	2.76174318969424E-07	107916.828125	2.72458350991656E-06
1	38	69.4057598247673	0.182647705078125	0.182708740234375	1.54571533203125E-06	2.82415697938632E-07	118203.3515625	2.88296928374621E-06
1	39	69.506467824513	0.192718505859375	0.19281005859375	1.497802734375E-06	2.88791426328316E-07	128728.609375	3.03622255160008E-06
1	40	69.6071758242588	0.202789306640625	0.20281982421875	1.4544677734375E-06	2.94994890737144E-07	139446.078125	3.18488127959426E-06
1	41	69.7078838240045	0.212860107421875	0.212860107421875	1.41571044921875E-06	3.01348251241507E-07	150355.6875	3.32940612679522E-06
1	42	69.8085918237502	0.222930908203125	0.222930908203125	1.38092041015625E-06	3.07849830960549E-07	161436.46875	3.47022773894423E-06
1	43	69.909299823496	0.233001708984375	0.233001708984375	1.35009765625E-06	3.1457503268939E-07	172581.375	3.60774538421538E-06
1	44	70.0100078232417	0.243072509765625	0.243011474609375	1.3214111328125E-06	3.21118051260783E-07	183903	3.74226647181786E-06
1	45	70.1107158229875	0.253143310546875	0.253143310546875	1.29638671875E-06	3.28171608998673E-07	195268.359375	3.87408317692461E-06
1	46	70.2114238227332	0.263214111328125	0.26318359375	1.27349853515625E-06	3.35163917952741E-07	206661.890625	4.00348699258757E-06
1	47	70.3121318224789	0.273284912109375	0.27325439453125	1.25213623046875E-06	3.4215170785501E-07	218230.578125	4.13066300097853E-06
1	48	70.4128398222247	0.283355712890625	0.2833251953125	1.23291015625E-06	3.49314490222241E-07	229801.984375	4.25579492002726E-06
1	49	70.5135478219704	0.293426513671875	0.293487548828125	1.2152099609375E-06	3.56648996557851E-07	241511.796875	4.37906737715821E-06
1	50	70.6142558217161	0.303497314453125	0.303466796875	1.19903564453125E-06	3.63867513897276E-07	253092.390625	4.50063453172334E-06
1	51	70.7149638214619	0.313568115234375	0.3135986328125	1.1846923828125E-06	3.71517899111495E-07	264708.9375	4.62066464024247E-06
1	52	70.8156718212076	0.323638916015625	0.323577880859375	1.17156982421875E-06	3.79094075242392E-07	276191.71875	4.73931186206755E-06
1	53	70.9163798209534	0.333709716796875	0.333740234375	1.15875244140625E-06	3.86722291523256E-07	288016.875	4.85665304950089E-06
1	54	71.0170878206991	0.343780517578125	0.343780517578125	1.14776611328125E-06	3.94579615203838E-07	299521.40625	4.97279552291729E-06
1	55	71.1177958204448	0.353851318359375	0.353912353515625	1.1383056640625E-06	4.02860422354934E-07	310911.53125	5.08790844833129E-06
1	56	71.2185038201906	0.363922119140625	0.363922119140625	1.12823486328125E-06	4.10589620969404E-07	322558.8125	5.20203775522532E-06
1	57	71.3192118199363	0.373992919921875	0.374053955078125	1.12091064453125E-06	4.1928103655664E-07	333705.4375	5.31529121872154E-06
1	58	71.419919819682	0.384063720703125	0.384033203125	1.11328125E-06	4.27536946290274E-07	344956.15625	5.42779162060469E-06
1	59	71.5206278194278	0.394134521484375	0.39410400390625	1.1065673828125E-06	4.36102595813281E-07	356150.0625	5.53956988369464E-06
1	60	71.6213358191735	0.404205322265625	0.40423583984375	1.10137939453125E-06	4.45216983280261E-07	367026.90625	5.65074878977612E-06
1	61	71.7220438189192	0.414276123046875	0.414276123046875	1.097412109375E-06	4.54631646107373E-07	377502.78125	5.76146658204379E-06
1	62	71.822751818665	0.424346923828125	0.42431640625	1.0931396484375E-06	4.63837096731368E-07	388163.03125	5.87176964472746E-06
1	63	71.9234598184107	0.434417724609375	0.43438720703125	1.090087890625E-06	4.7352020260405E-07	398488.25	5.98170390730957E-06
1	64	72.0241678181565	0.444488525390625	0.444427490234375	1.08734130859375E-06	4.83244377846859E-07	408728.625	6.0913462220924E-06
1	65	72.1248758179022	0.454559326171875	0.45458984375	1.08489990234375E-06	4.9318447281621E-07	419015.5	6.20072751189582E-06
1	66	72.2255838176479	0.464630126953125	0.464630126953125	1.08306884765625E-06	5.03226374348742E-07	428994.09375	6.30989325145492E-06
1	67	72.3262918173937	0.474700927734375	0.474700927734375	1.08154296875E-06	5.13409418090305E-07	438910.875	6.41889027974685E-06
1	68	72.4269998171394	0.484771728515625	0.4847412109375	1.0797119140625E-06	5.23380833783449E-07	448954.21875	6.52771814202424E-06
1	69	72.5277078168851	0.494842529296875	0.494781494140625	1.07940673828125E-06	5.34070466073899E-07	458382.8125	6.63643822917948E-06
1	70	72.6284158166309	0.504913330078125	0.504913330078125	1.07940673828125E-06	5.45006855645624E-07	467769.3125	6.74514330967213E-06
1	71	72.7291238163766	0.514984130859375	0.514923095703125	1.0797119140625E-06	5.55968597382162E-07	476907.875	6.85386339682736E-06
1	72	72.8298318161224	0.525054931640625	0.52508544921875	1.080322265625E-06	5.67261508876982E-07	486045.21875	6.96262986821239E-06
1	73	72.9305398158681	0.535125732421875	0.53521728515625	1.08184814453125E-06	5.79023833324754E-07	494724.96875	7.07150365997222E-06
1	74	73.0312478156138	0.545196533203125	0.545196533203125	1.083984375E-06	5.90984484460932E-07	502956.09375	7.18056207915652E-06
1	75	73.1319558153596	0.555267333984375	0.555267333984375	1.08673095703125E-06	6.03426144607511E-07	510952	7.28986606191029E-06
1	76	73.2326638151053	0.565338134765625	0.56536865234375	1.09039306640625E-06	6.16474096659658E-07	518499.84375	7.39949291528319E-06
1	77	73.333371814851	0.575408935546875	0.575347900390625	1.094970703125E-06	6.29989074241166E-07	525445.9375	7.50953495298745E-06
1	78	73.4340798145968	0.585479736328125	0.585479736328125	1.1004638671875E-06	6.44299234409118E-07	532030	7.6200835792406E-06
1	79	73.5347878143425	0.595550537109375	0.59552001953125	1.1077880859375E-06	6.59709996853053E-07	537575.75	7.73127794673201E-06
1	80	73.6354958140882	0.605621337890625	0.6055908203125	1.11724853515625E-06	6.76595448112494E-07	542037.6875	7.84331768954871E-06
1	81	73.736203813834	0.615692138671875	0.61572265625	1.1297607421875E-06	6.9561923510264E-07	545002.75	7.95646337792277E-06
1	82	73.8369118135797	0.625762939453125	0.62567138671875	1.14501953125E-06	7.16405963885336E-07	546428.5625	8.07100786914816E-06
1	83	73.9376198133255	0.635833740234375	0.63580322265625	1.165771484375E-06	7.41201233722677E-07	545392.6875	8.18736498331418E-06
1	84	74.0383278130712	0.645904541015625	0.6458740234375	1.19384765625E-06	7.71075178818137E-07	541002.0625	8.3061813711538E-06
1	85	74.1390358128169	0.655975341796875	0.65594482421875	1.23016357421875E-06	8.06919388196548E-07	533217.5625	8.42824010760523E-06
1	86	74.2397438125627	0.666046142578125	0.665985107421875	1.27685546875E-06	8.50366689064685E-07	521582.25	8.55447888170602E-06
1	87	74.3404518123084	0.676116943359375	0.67608642578125	1.33575439453125E-06	9.03085435766116E-07	506145.75	8.68603365233866E-06
1	88	74.4411598120541	0.686187744140625	0.68603515625	1.40594482421875E-06	9.64527544056182E-07	487953.125	8.82408949109958E-06
1	89	74.5418678117999	0.696258544921875	0.696136474609375	1.4837646484375E-06	1.03290267361444E-06	469169.0625	8.96959772944683E-06
1	90	74.6425758115456	0.706329345703125	0.70623779296875	1.56219482421875E-06	1.1032810789402E-06	452080.46875	9.12297400645912E-06
1	91	74.7432838112913	0.716400146484375	0.716339111328125	1.63299560546875E-06	1.16977855668665E-06	438665.6875	9.28386452869745E-06
1	92	74.8439918110371	0.726470947265625	0.7264404296875	1.689453125E-06	1.22728692986129E-06	429985.5625	9.45116335060447E-06
1	93	74.9446998107828	0.736541748046875	0.7364501953125	1.72698974609375E-06	1.27184193843277E-06	426435.78125	9.62319518293953E-06
1	94	75.0454078105286	0.746612548828125	0.74652099609375	1.74530029296875E-06	1.3029032288614E-06	427732.15625	9.79803826339776E-06
1	95	75.1461158102743	0.756683349609375	0.7568359375	1.7474365234375E-06	1.3225227348812E-06	433112.125	9.9739118013531E-06
1	96	75.24682381002	0.766754150390625	0.7672119140625	1.7376708984375E-06	1.33316177652887E-06	441517.40625	1.01494006230496E-05
1	97	75.3475318097658	0.776824951171875	0.77728271484375	1.72027587890625E-06	1.33714070216229E-06	451836.09375	1.03235224742093E-05
1	98	75.4482398095115	0.786895751953125	0.78704833984375	1.69921875E-06	1.33736728002987E-06	463182.46875	1.0495708011149E-05
1	99	75.5489478092572	0.796966552734375	0.79742431640625	1.67724609375E-06	1.33747676045459E-06	475436.6875	1.06657262222143E-05
1	100	75.649655809003	0.807037353515625	0.80780029296875	1.65557861328125E-06	1.33737682972423E-06	487926.28125	1.08335470940801E-05
1	101	75.7503638087487	0.817108154296875	0.81695556640625	1.63604736328125E-06	1.33657795231557E-06	499347.15625	1.09992934085312E-05
1	102	75.8510718084945	0.827178955078125	0.8270263671875	1.61865234375E-06	1.33866808482708E-06	510935.15625	1.11631807158119E-05
1	103	75.9517798082402	0.837249755859375	0.83740234375	1.60308837890625E-06	1.34242986860045E-06	522368.1875	1.13254081952618E-05
1	104	76.0524878079859	0.847320556640625	0.84747314453125	1.5899658203125E-06	1.34745334889885E-06	533013.4375	1.14861913971254E-05
1	105	76.1531958077317	0.857391357421875	0.8575439453125	1.578369140625E-06	1.35352081542806E-06	543310.1875	1.16457295007422E-05
1	106	76.2539038074774	0.867462158203125	0.867919921875	1.56951904296875E-06	1.36221683533222E-06	552984.6875	1.18042389658513E-05
1	107	76.3546118072231	0.877532958984375	0.87738037109375	1.5625E-06	1.37090682983398E-06	561523.4375	1.19619480756228E-05
1	108	76.4553198069689	0.887603759765625	0.887451171875	1.5582275390625E-06	1.38285076900502E-06	569526.0625	1.21190896607004E-05
1	109	76.5560278067146	0.897674560546875	0.8978271484375	1.55487060546875E-06	1.39600501825043E-06	577428.875	1.22758465295192E-05
1	110	76.6567358064603	0.907745361328125	0.908203125	1.5545654296875E-06	1.41186114888114E-06	584216.75	1.24324187709135E-05
1	111	76.7574438062061	0.917816162109375	0.91766357421875	1.55609130859375E-06	1.42796830004954E-06	589723.5	1.25890528579475E-05
1	112	76.8581518059518	0.927886962890625	0.927734375	1.561279296875E-06	1.44845250815706E-06	594214.25	1.27460252770106E-05
1	113	76.9588598056976	0.937957763671875	0.93780517578125	1.57073974609375E-06	1.47304785969027E-06	597046.8125	1.29037343867822E-05
1	114	77.0595678054433	0.948028564453125	0.94818115234375	1.585693359375E-06	1.50352457239933E-06	597960	1.30626740428852E-05
1	115	77.160275805189	0.958099365234375	0.958251953125	1.6082763671875E-06	1.5411338836202E-06	595825.4375	1.32235027194838E-05
1	116	77.2609838049348	0.968170166015625	0.968017578125	1.640625E-06	1.58815385020716E-06	590029.75	1.33870980789652E-05
1	117	77.3616918046805	0.978240966796875	0.9783935546875	1.6851806640625E-06	1.64876996677776E-06	580586.75	1.35545651573921E-05
1	118	77.4623998044262	0.988311767578125	0.98846435546875	1.7449951171875E-06	1.72486545579886E-06	566456.8125	1.37272891151952E-05
1	119	77.563107804172	0.998382568359375	0.99884033203125	1.82220458984375E-06	1.82009148375073E-06	548149.375	1.39069115903112E-05
1	120	77.6638158039177	1.00845336914063	1.00860595703125	1.9171142578125E-06	1.93361279343662E-06	526106.375	1.40952006404405E-05
1	121	77.7645238036635	1.01852416992188	1.01837158203125	2.0263671875E-06	2.06359482035623E-06	502560.25	1.42937715281732E-05
1	122	77.8652318034092	1.02859497070313	1.02874755859375	2.1429443359375E-06	2.20454876398435E-06	480062.65625	1.45037129186676E-05
1	123	77.9659398031549	1.03866577148438	1.03851318359375	2.2564697265625E-06	2.34337358051562E-06	460238.03125	1.47252403621678E-05
1	124	78.0666478029007	1.04873657226563	1.04888916015625	2.35443115234375E-06	2.46953709392983E-06	445495.8125	1.49574179886258E-05
1	125	78.1673558026464	1.05880737304688	1.058349609375	2.4273681640625E-06	2.5690042093629E-06	436007.03125	1.51982003444573E-05
1	126	78.2680638023921	1.06887817382813	1.06903076171875	2.470703125E-06	2.6412576517032E-06	432682.8125	1.54448389366735E-05
1	127	78.3687718021379	1.07894897460938	1.07879638671875	2.4847412109375E-06	2.68052963292575E-06	434168.53125	1.56943642650731E-05
1	128	78.4694798018836	1.08901977539063	1.0894775390625	2.47528076171875E-06	2.69676274911035E-06	440143	1.59441224241164E-05
1	129	78.5701878016293	1.09909057617188	1.09893798828125	2.45086669921875E-06	2.6933503249893E-06	448387.53125	1.61921725521097E-05
1	130	78.6708958013751	1.10916137695313	1.10931396484375	2.415771484375E-06	2.67984887614148E-06	459196.59375	1.64372268045554E-05
1	131	78.7716038011208	1.11923217773438	1.11907958984375	2.376708984375E-06	2.65972630586475E-06	470852.625	1.6678548490745E-05
1	132	78.8723118008666	1.12930297851563	1.12945556640625	2.33795166015625E-06	2.64061259258597E-06	483096.21875	1.691595025477E-05
1	133	78.9730198006123	1.13937377929688	1.13983154296875	2.30010986328125E-06	2.6217376216664E-06	495555.28125	1.71494957612595E-05
1	134	79.073727800358	1.14944458007813	1.14990234375	2.264404296875E-06	2.60384376815637E-06	507816.71875	1.73793359863339E-05
1	135	79.1744358001038	1.15951538085938	1.15936279296875	2.232666015625E-06	2.58846989709127E-06	519272.8125	1.76057819771813E-05
1	136	79.2751437998495	1.16958618164063	1.16973876953125	2.20428466796875E-06	2.57843703366234E-06	530665.9375	1.78292011696612E-05
1	137	79.3758517995952	1.17965698242188	1.17950439453125	2.178955078125E-06	2.57008719017904E-06	541316.5	1.80499137059087E-05
1	138	79.476559799341	1.18972778320313	1.18988037109375	2.1575927734375E-06	2.56727707892423E-06	551485.1875	1.82682761078468E-05
1	139	79.5772677990867	1.19979858398438	1.199951171875	2.13897705078125E-06	2.56666794484772E-06	560993.0625	1.84846267075045E-05
1	140	79.6779757988324	1.20986938476563	1.21002197265625	2.12249755859375E-06	2.56826865552284E-06	570093.4375	1.86992074304726E-05
1	141	79.7786837985782	1.21994018554688	1.2200927734375	2.10968017578125E-06	2.57400529335428E-06	578330.6875	1.89123147720238E-05
1	142	79.8793917983239	1.23001098632813	1.22955322265625	2.09808349609375E-06	2.57970532402396E-06	586036.375	1.91241924767382E-05
1	143	79.9800997980697	1.24008178710938	1.23992919921875	2.0892333984375E-06	2.59050125350768E-06	593485.3125	1.93350406334503E-05
1	144	80.0808077978154	1.25015258789063	1.2506103515625	2.08282470703125E-06	2.60480214819836E-06	600439.5625	1.9545121176634E-05
1	145	80.1815157975611	1.26022338867188	1.26068115234375	2.07794189453125E-06	2.61962213699007E-06	606697	1.97546323761344E-05
1	146	80.2822237973069	1.27029418945313	1.27044677734375	2.07489013671875E-06	2.6360373794887E-06	612295.9375	1.9963743397966E-05
1	147	80.3829317970526	1.28036499023438	1.28082275390625	2.07366943359375E-06	2.65600283455569E-06	617660.0625	2.0172639779048E-05
1	148	80.4836397967983	1.29043579101563	1.2908935546875	2.073974609375E-06	2.67728046310367E-06	622424.9375	2.0381490685395E-05
1	149	80.5843477965441	1.30050659179688	1.3006591796875	2.07611083984375E-06	2.70031250693137E-06	626488.3125	2.05904634640319E-05
1	150	80.6850557962898	1.31057739257813	1.31011962890625	2.07977294921875E-06	2.72475131168903E-06	629934	2.07997290999629E-05
1	151	80.7857637960356	1.32064819335938	1.32080078125	2.08465576171875E-06	2.75341494671011E-06	633582.1875	2.10094258363824E-05
1	152	80.8864717957813	1.33071899414063	1.33026123046875	2.09075927734375E-06	2.78125594377343E-06	636257.5	2.12196737265913E-05
1	153	80.987179795527	1.34078979492188	1.34063720703125	2.09930419921875E-06	2.81440520666365E-06	638610.3125	2.1430660126498E-05
1	154	81.0878877952728	1.35086059570313	1.35101318359375	2.10906982421875E-06	2.84938118966238E-06	640573	2.16425687540323E-05
1	155	81.1885957950185	1.36093139648438	1.36077880859375	2.12066650390625E-06	2.88575802187552E-06	641675.0625	2.1855552404304E-05
1	156	81.2893037947642	1.37100219726563	1.370849609375	2.13409423828125E-06	2.92552203973173E-06	642356.6875	2.20697966142325E-05
1	157	81.39001179451	1.38107299804688	1.38153076171875	2.14874267578125E-06	2.96855409942509E-06	642948.4375	2.22854559979169E-05
1	158	81.4907197942557	1.39114379882813	1.3909912109375	2.16522216796875E-06	3.0118051199679E-06	642424.25	2.25026815314777E-05
1	159	81.5914277940014	1.40121459960938	1.40106201171875	2.18231201171875E-06	3.05755429508281E-06	642008.1875	2.27215969061945E-05
1	160	81.6921357937472	1.41128540039063	1.4111328125	2.20123291015625E-06	3.10623181576375E-06	641064.8125	2.29423258133465E-05
1	161	81.7928437934929	1.42135620117188	1.4208984375	2.2216796875E-06	3.15678107654094E-06	639560.5	2.31650374189485E-05
1	162	81.8935517932387	1.43142700195313	1.4312744140625	2.24273681640625E-06	3.20997196467943E-06	638182.0625	2.33898372243857E-05
1	163	81.9942597929844	1.44149780273438	1.44134521484375	2.265625E-06	3.26554777529964E-06	636179.9375	2.36168525589164E-05
1	164	82.0949677927301	1.45156860351563	1.45111083984375	2.2900390625E-06	3.32310037265415E-06	633662.0625	2.3846247131587E-05
1	165	82.1956757924759	1.46163940429688	1.4617919921875	2.31658935546875E-06	3.38637141794607E-06	631010.4375	2.40782101172954E-05
1	166	82.2963837922216	1.47171020507813	1.47125244140625	2.3480224609375E-06	3.45453372574411E-06	626592.125	2.43130925809965E-05
1	167	82.3970917919673	1.48178100585938	1.48162841796875	2.386474609375E-06	3.53586847268161E-06	620844	2.4551492970204E-05
1	168	82.4977997917131	1.49185180664063	1.49200439453125	2.435302734375E-06	3.63348203791247E-06	612656.6875	2.47942880378105E-05
1	169	82.5985077914588	1.50192260742188	1.50177001953125	2.498779296875E-06	3.75259173779341E-06	601001.5	2.5042740162462E-05
1	170	82.6992157912046	1.49185180664063	1.49169921875	2.275390625E-06	3.39419852934952E-06	655579.375	2.52831378020346E-05
1	171	82.7999237909503	1.48178100585938	1.48162841796875	2.1160888671875E-06	3.13525720230245E-06	700173.0625	2.55042668868555E-05
1	172	82.900631790696	1.47171020507813	1.47216796875	1.9915771484375E-06	2.93193602374231E-06	739197.0625	2.57111041719327E-05
1	173	83.0013397904418	1.46163940429688	1.4617919921875	1.8914794921875E-06	2.76494938589167E-06	772830	2.59066309808986E-05
1	174	83.1020477901875	1.45156860351563	1.4520263671875	1.80908203125E-06	2.62683465734881E-06	802631.625	2.60929700743873E-05
1	175	83.2027557899332	1.44149780273438	1.44134521484375	1.73919677734375E-06	2.50678294833051E-06	828741.9375	2.62716403085506E-05
1	176	83.303463789679	1.43142700195313	1.43157958984375	1.6802978515625E-06	2.40548001784191E-06	851979.6875	2.64438240265008E-05
1	177	83.4041717894247	1.42135620117188	1.4215087890625	1.62933349609375E-06	2.31611193157732E-06	872448	2.66104780166643E-05
1	178	83.5048797891704	1.41128540039063	1.41143798828125	1.58477783203125E-06	2.23681558964017E-06	890622	2.67723207798554E-05
1	179	83.6055877889162	1.40121459960938	1.40106201171875	1.54541015625E-06	2.16521539186942E-06	906595.625	2.6929938030662E-05
1	180	83.7062957886619	1.39114379882813	1.39129638671875	1.50970458984375E-06	2.10044663617737E-06	921568.625	2.70837754214881E-05
1	181	83.8070037884077	1.38107299804688	1.3812255859375	1.478271484375E-06	2.04182629204297E-06	934351.8125	2.72342331300024E-05
1	182	83.9077117881534	1.37100219726563	1.37115478515625	1.44927978515625E-06	1.98718680621823E-06	946094	2.73816458502552E-05
1	183	84.0084197878991	1.36093139648438	1.36077880859375	1.42303466796875E-06	1.93643541024358E-06	956251.375	2.75262791546993E-05
1	184	84.1091277876449	1.35086059570313	1.3507080078125	1.39801025390625E-06	1.8883035863837E-06	966164.625	2.76683294941904E-05
1	185	84.2098357873906	1.34078979492188	1.34063720703125	1.3751220703125E-06	1.84353973509133E-06	974922.375	2.78079678537324E-05
1	186	84.3105437871363	1.33071899414063	1.33087158203125	1.3531494140625E-06	1.80086806267354E-06	983536.3125	2.79453470284352E-05
1	187	84.4112517868821	1.32064819335938	1.3201904296875	1.33331298828125E-06	1.76022706455115E-06	990157.9375	2.80806216323981E-05
1	188	84.5119597866278	1.31057739257813	1.3104248046875	1.31439208984375E-06	1.72241198015399E-06	996981.6875	2.8213944460731E-05
1	189	84.6126677863735	1.30050659179688	1.30035400390625	1.2957763671875E-06	1.68496796959516E-06	1003532.75	2.83453773590736E-05
1	190	84.7133757861193	1.29043579101563	1.29058837890625	1.279296875E-06	1.65104563620844E-06	1008826.375	2.8475042199716E-05
1	191	84.814083785865	1.28036499023438	1.28021240234375	1.2628173828125E-06	1.61667446718639E-06	1013774.8125	2.86030481220223E-05
1	192	84.9147917856108	1.27029418945313	1.2701416015625	1.24786376953125E-06	1.58496368385386E-06	1017852.75	2.87294697045581E-05
1	193	85.0154997853565	1.26022338867188	1.26007080078125	1.23321533203125E-06	1.55393865952647E-06	1021776.75	2.88544033537619E-05
1	194	85.1162077851022	1.25015258789063	1.25	1.21978759765625E-06	1.52473444359202E-06	1024768.5625	2.89779218292097E-05
1	195	85.216915784848	1.24008178710938	1.240234375	1.2060546875E-06	1.49579045682913E-06	1028340.125	2.9100072424626E-05
1	196	85.3176237845937	1.23001098632813	1.23016357421875	1.1932373046875E-06	1.46787704125018E-06	1030946.3125	2.92208860628307E-05
1	197	85.4183317843394	1.21994018554688	1.21978759765625	1.18133544921875E-06	1.44097828069789E-06	1032549.75	2.93404555122834E-05
1	198	85.5190397840852	1.20986938476563	1.21002197265625	1.16943359375E-06	1.41504028761119E-06	1034707.8125	2.94588262477191E-05
1	199	85.6197477838309	1.19979858398438	1.19964599609375	1.1566162109375E-06	1.3875300055588E-06	1037203.125	2.95759509754134E-05
1	200	85.7204557835767	1.18972778320313	1.1895751953125	1.14410400390625E-06	1.36099765768449E-06	1039743.9375	2.96918024105253E-05
1	201	85.8211637833224	1.17965698242188	1.1798095703125	1.13189697265625E-06	1.33542289404431E-06	1042329.5	2.98064078378957E-05
1	202	85.9218717830681	1.16958618164063	1.16973876953125	1.11785888671875E-06	1.30760292904597E-06	1046410	2.99196926789591E-05
1	203	86.0225797828139	1.15951538085938	1.15936279296875	1.102294921875E-06	1.27795965454425E-06	1051772	3.00314859487116E-05
1	204	86.1232877825596	1.14944458007813	1.14898681640625	1.08489990234375E-06	1.24653558941645E-06	1059071.75	3.01416203001281E-05
1	205	86.2239957823053	1.13937377929688	1.13922119140625	1.064453125E-06	1.21264747576788E-06	1070240.875	3.02498483506497E-05
1	206	86.3247037820511	1.12930297851563	1.129150390625	1.038818359375E-06	1.17298213808681E-06	1086956.5	3.03557571896818E-05
1	207	86.4254117817968	1.11923217773438	1.11907958984375	1.00738525390625E-06	1.12734426238603E-06	1110875.5	3.04587902064668E-05
1	208	86.5261197815425	1.10916137695313	1.1090087890625	9.66796875000001E-07	1.07218625089445E-06	1147096	3.055819979636E-05
1	209	86.6268277812883	1.09909057617188	1.0986328125	9.1400146484375E-07	1.00415195447567E-06	1202003.375	3.06529036606662E-05
1	210	86.727535781034	1.08901977539063	1.0894775390625	8.465576171875E-07	9.22305503081589E-07	1286950.25	3.07415539282374E-05
1	211	86.8282437807798	1.07894897460938	1.07879638671875	7.6141357421875E-07	8.21410196749639E-07	1416833.75	3.08225244225468E-05
1	212	86.9289517805255	1.06887817382813	1.06903076171875	6.5765380859375E-07	7.03052137396298E-07	1625522.125	3.08939779642969E-05
1	213	87.0296597802712	1.05880737304688	1.0589599609375	5.38024902343751E-07	5.69746816836414E-07	1968236	3.09541865135543E-05
1	214	87.130367780017	1.04873657226563	1.048583984375	4.0771484375E-07	4.2752321860462E-07	2571856.5	3.10018076561391E-05
1	215	87.2310757797627	1.03866577148438	1.0382080078125	2.789306640625E-07	2.89588030000232E-07	3722100.75	3.10363830067217E-05
1	216	87.3317837795084	1.02859497070313	1.0284423828125	1.629638671875E-07	1.67598940947755E-07	6310862	3.10586328851059E-05
1	217	87.4324917792542	1.01852416992188	1.0186767578125	7.04956054687497E-08	7.18122308285274E-08	14450217	3.10703908326104E-05
1	218	87.5331997789999	1.00845336914063	1.0089111328125	7.32421875000028E-09	7.38948546796792E-09	137750000	3.10743089357857E-05
1	219	87.6339077787457	0.998382568359375	0.99853515625	-2.68554687500006E-08	-2.68161297611869E-08	-37181816	3.10733266815078E-05
1	220	87.7346157784914	0.988311767578125	0.98876953125	-3.54003906249997E-08	-3.50028273032876E-08	-27931034	3.1070190743776E-05
1	221	87.8353237782371	0.978240966796875	0.97900390625	-2.593994140625E-08	-2.53953018614084E-08	-37741180	3.10671020997688E-05
1	222	87.9360317779829	0.968170166015625	0.96832275390625	-3.35693359374972E-09	-3.25059490435819E-09	-288454560	3.10656250803731E-05
1	223	88.0367397777286	0.958099365234375	0.95794677734375	2.65502929687494E-08	2.54337670924087E-08	36080460	3.10667928715702E-05
1	224	88.1374477774743	0.948028564453125	0.9478759765625	6.16455078124994E-08	5.84322954466643E-08	15376238	3.10712348436937E-05
1	225	88.2381557772201	0.937957763671875	0.93841552734375	9.79614257812497E-08	9.19285199074693E-08	9579439	3.10792711388785E-05
1	226	88.3388637769658	0.927886962890625	0.927734375	1.30615234375001E-07	1.21176242373622E-07	7102803.5	3.10907817038242E-05
1	227	88.4395717767115	0.917816162109375	0.91796875	1.57775878906249E-07	1.44833322224258E-07	5818182	3.11053045152221E-05
1	228	88.5402797764573	0.907745361328125	0.908203125	1.80664062499999E-07	1.640796654101E-07	5027027	3.11223448079545E-05
1	229	88.640987776203	0.897674560546875	0.89752197265625	1.995849609375E-07	1.7913188798957E-07	4496942	3.11414914904162E-05
1	230	88.7416957759488	0.887603759765625	0.88775634765625	2.154541015625E-07	1.91270743243876E-07	4120396.75	3.1162391678663E-05
1	231	88.8424037756945	0.877532958984375	0.877685546875	2.27966308593749E-07	2.00082723722517E-07	3850067.25	3.11847179546021E-05
1	232	88.9431117754402	0.867462158203125	0.8673095703125	2.3956298828125E-07	2.07775258331822E-07	3620382.25	3.12082629534416E-05
1	233	89.043819775186	0.857391357421875	0.85784912109375	2.490234375E-07	2.13624531397727E-07	3444853	3.12328629661351E-05
1	234	89.1445277749317	0.847320556640625	0.8477783203125	2.5665283203125E-07	2.17584712913776E-07	3303210.25	3.1258325179806E-05
1	235	89.2452357746774	0.837249755859375	0.83709716796875	2.62451171875E-07	2.19697113834627E-07	3189535	3.12844640575349E-05
1	236	89.3459437744232	0.827178955078125	0.82763671875	2.655029296875E-07	2.19739973772448E-07	3117241.25	3.13110504066572E-05
1	237	89.4466517741689	0.817108154296875	0.8172607421875	2.6702880859375E-07	2.18232159454601E-07	3060571.5	3.13378659484442E-05
1	238	89.5473597739146	0.807037353515625	0.80718994140625	2.64587402343749E-07	2.13572278084939E-07	3050750	3.13646341965068E-05
1	239	89.6480677736604	0.796966552734375	0.79681396484375	2.57263183593751E-07	2.04990882934908E-07	3097271.75	3.13909113174304E-05
1	240	89.7487757734061	0.786895751953125	0.78704833984375	2.45056152343751E-07	1.9287104180421E-07	3211706	3.14162061840761E-05
1	241	89.8494837731519	0.776824951171875	0.77728271484375	2.2613525390625E-07	1.75771020849425E-07	3437247.25	3.1439933081856E-05
1	242	89.9501917728976	0.766754150390625	0.76690673828125	1.9683837890625E-07	1.50956680045056E-07	3896124.25	3.14612298097927E-05
1	243	90.0508997726433	0.756683349609375	0.7568359375	1.556396484375E-07	1.17793675258326E-07	4862745.5	3.14789795083925E-05
1	244	90.1516077723891	0.746612548828125	0.746551513671875	1.019287109375E-07	7.60950271683214E-08	7324252	3.14919489028398E-05
1	245	90.2523157721348	0.736541748046875	0.7364501953125	3.47900390625003E-08	2.56211301064013E-08	21168422	3.14988319587428E-05
1	246	90.3530237718805	0.726470947265625	0.7264404296875	-4.425048828125E-08	-3.21453441642916E-08	-16416552	3.14983553835191E-05
1	247	90.4537317716263	0.716400146484375	0.71630859375	-1.28784179687499E-07	-9.22492162658273E-08	-5562085.5	3.14896424242761E-05
1	248	90.554439771372	0.706329345703125	0.70623779296875	-2.09960937500001E-07	-1.48282339296202E-07	-3363663	3.14725875796285E-05
1	249	90.6551477711178	0.696258544921875	0.696197509765625	-2.8076171875E-07	-1.95465617025548E-07	-2479673.75	3.14478747895919E-05
1	250	90.7558557708635	0.686187744140625	0.68609619140625	-3.326416015625E-07	-2.28224138254518E-07	-2062568.75	3.14169883495197E-05
1	251	90.8565637706092	0.676116943359375	0.676116943359375	-3.643798828125E-07	-2.46363413225481E-07	-1855527.75	3.13818927679677E-05
1	252	90.957271770355	0.666046142578125	0.665985107421875	-3.7567138671875E-07	-2.50191561690372E-07	-1772786.375	3.13446253130678E-05
1	253	91.0579797701007	0.655975341796875	0.65594482421875	-3.7078857421875E-07	-2.43216845774441E-07	-1769053.5	3.13070377160329E-05
1	254	91.1586877698464	0.645904541015625	0.645843505859375	-3.5400390625E-07	-2.28631122922707E-07	-1824396.625	3.12705415126402E-05
1	255	91.2593957695922	0.635833740234375	0.63580322265625	-3.30505371093751E-07	-2.10136377631898E-07	-1923730.375	3.12360753014218E-05
1	256	91.3601037693379	0.625762939453125	0.625762939453125	-3.03039550781251E-07	-1.89630910085725E-07	-2064954.75	3.12041738652624E-05
1	257	91.4608117690836	0.615692138671875	0.615692138671875	-2.7313232421875E-07	-1.68165414038413E-07	-2254190	3.11751609842759E-05
1	258	91.5615197688294	0.605621337890625	0.605621337890625	-2.43225097656249E-07	-1.47302301911623E-07	-2489962.5	3.11491603497416E-05
1	259	91.6622277685751	0.595550537109375	0.595489501953125	-2.1240234375E-07	-1.26483371332142E-07	-2803592	3.11262192553841E-05
1	260	91.7629357683209	0.585479736328125	0.585479736328125	-1.812744140625E-07	-1.06132496568989E-07	-3229798	3.11063959088642E-05
1	261	91.8636437680666	0.575408935546875	0.5753173828125	-1.52587890625E-07	-8.77864607673473E-08	-3770400	3.10895848087966E-05
1	262	91.9643517678123	0.565338134765625	0.565338134765625	-1.28173828125E-07	-7.24615532021744E-08	-4410714.5	3.10754476231523E-05
1	263	92.0650597675581	0.555267333984375	0.55523681640625	-1.080322265625E-07	-5.99834706349611E-08	-5139548	3.10635514324531E-05
1	264	92.1657677673038	0.545196533203125	0.545196533203125	-9.03320312499997E-08	-4.92487082226489E-08	-6035473	3.10535651806276E-05
1	265	92.2664757670495	0.535125732421875	0.535125732421875	-7.53784179687494E-08	-4.03369320167712E-08	-7099190.5	3.10452196572442E-05
1	266	92.3671837667953	0.525054931640625	0.524993896484375	-6.16455078124994E-08	-3.23635163113067E-08	-8516337	3.10383184114471E-05
1	267	92.467891766541	0.514984130859375	0.51495361328125	-5.00488281250003E-08	-2.57728238750587E-08	-10289025	3.10326940962113E-05
1	268	92.5685997662868	0.504913330078125	0.504852294921875	-3.93676757812503E-08	-1.98748608681854E-08	-12824032	3.1028193916427E-05
1	269	92.6693077660325	0.494842529296875	0.494781494140625	-3.08227539062497E-08	-1.52505279515935E-08	-16052475	3.10246578010265E-05
1	270	92.7700157657782	0.484771728515625	0.484771728515625	-2.22778320312506E-08	-1.07996624976181E-08	-21760274	3.10219838866033E-05
1	271	92.870723765524	0.474700927734375	0.47479248046875	-1.49536132812503E-08	-7.09986336389079E-09	-31751020	3.10201103275176E-05
1	272	92.9714317652697	0.464630126953125	0.46466064453125	-9.1552734375E-09	-4.25409485416139E-09	-50753336	3.1018895242596E-05
1	273	93.0721397650154	0.454559326171875	0.454559326171875	-3.35693359374972E-09	-1.52592538604779E-09	-135409104	3.10182658722624E-05
1	274	93.1728477647612	0.444488525390625	0.44451904296875	9.15527343750555E-10	4.06969319355355E-10	485533344	3.1018142180983E-05
1	275	93.2735557645069	0.434417724609375	0.434417724609375	5.49316406250056E-09	2.38632780202863E-09	79083336	3.10184659610968E-05
1	276	93.3742637642526	0.424346923828125	0.424346923828125	8.85009765625028E-09	3.75551145737063E-09	47948276	3.10191862809006E-05
1	277	93.4749717639984	0.414276123046875	0.414276123046875	1.25122070312497E-08	5.18350828926373E-09	33109758	3.10202631226275E-05
1	278	93.5756797637441	0.404205322265625	0.404205322265625	1.58691406249994E-08	6.41439124038357E-09	25471154	3.10216928482987E-05
1	279	93.6763877634899	0.394134521484375	0.3941650390625	1.92260742187506E-08	7.57824558661468E-09	20501588	3.10234609059989E-05
1	280	93.7770957632356	0.384063720703125	0.384063720703125	2.288818359375E-08	8.79052119984181E-09	16780000	3.10255818476435E-05
1	281	93.8778037629813	0.373992919921875	0.3740234375	2.593994140625E-08	9.70214575346517E-09	14418824	3.10280411213171E-05
1	282	93.9785117627271	0.363922119140625	0.36395263671875	2.83813476562506E-08	1.03294661712994E-08	12823656	3.10307732434012E-05
1	283	94.0792197624728	0.353851318359375	0.353851318359375	3.11279296874994E-08	1.10146585186044E-08	11367647	3.10337709379382E-05
1	284	94.1799277622185	0.343780517578125	0.34381103515625	3.32641601562503E-08	1.14365841241693E-08	10335781	3.10370123770554E-05
1	285	94.2806357619643	0.333709716796875	0.333740234375	3.54003906249997E-08	1.18145342398179E-08	9427586	3.10404720949009E-05
1	286	94.38134376171	0.323638916015625	0.323699951171875	3.69262695312497E-08	1.19530314535155E-08	8766116	3.10441137116868E-05
1	287	94.4820517614558	0.313568115234375	0.3135986328125	3.84521484374997E-08	1.20585408325269E-08	8155556	3.10479081235826E-05
1	288	94.5827597612015	0.303497314453125	0.303466796875	3.87573242187494E-08	1.17615615025102E-08	7829921	3.10517971229274E-05
1	289	94.6834677609472	0.293426513671875	0.293426513671875	3.93676757812503E-08	1.15515188525706E-08	7453489	3.10557297780178E-05
1	290	94.784175760693	0.283355712890625	0.283416748046875	3.93676757812503E-08	1.11574580685669E-08	7199225	3.10596951749176E-05
1	291	94.8848837604387	0.273284912109375	0.2733154296875	3.90625000000006E-08	1.06763833329637E-08	6996875	3.10636460199021E-05
1	292	94.9855917601844	0.263214111328125	0.263214111328125	3.78417968750003E-08	9.96049465129545E-09	6955645	3.10675168293528E-05
1	293	95.0862997599302	0.253143310546875	0.253143310546875	3.662109375E-08	9.27038446008055E-09	6912500.5	3.10712675855029E-05
1	294	95.1870077596759	0.243072509765625	0.243011474609375	3.44848632812506E-08	8.38021740889872E-09	7046902.5	3.10748473566491E-05
1	295	95.2877157594216	0.233001708984375	0.233001708984375	3.204345703125E-08	7.46617967450902E-09	7271429	3.10781979351304E-05
1	296	95.3884237591674	0.222930908203125	0.222991943359375	2.92968749999997E-08	6.53296705621642E-09	7611458.5	3.10812865791377E-05
1	297	95.4891317589131	0.212860107421875	0.21295166015625	2.47192382812497E-08	5.26400301126273E-09	8614815	3.10840041493066E-05
1	298	95.5898397586589	0.202789306640625	0.20281982421875	1.89208984374994E-08	3.83753340216231E-09	10719355	3.1086201488506E-05
1	299	95.6905477584046	0.192718505859375	0.1927490234375	1.12915039062494E-08	2.17642637245774E-09	17070270	3.10877258016262E-05
1	300	95.7912557581503	0.182647705078125	0.1826171875	1.22070312500028E-09	2.22921361925366E-10	149600000	3.10883551719598E-05
1	301	95.8919637578961	0.172576904296875	0.17254638671875	-1.220703125E-08	-2.10627915109285E-09	-14135000	3.10878021991812E-05
1	302	95.9926717576418	0.162506103515625	0.162567138671875	-3.11279296874994E-08	-5.06037833858386E-09	-5222549	3.10856194118969E-05
1	303	96.0933797573875	0.152435302734375	0.1524658203125	-5.55419921874995E-08	-8.46825543021623E-09	-2745055	3.10812538373284E-05
1	304	96.1940877571333	0.142364501953125	0.142425537109375	-8.94165039062506E-08	-1.27351933443265E-08	-1592832.75	3.10739560518414E-05
1	305	96.294795756879	0.132293701171875	0.13232421875	-1.3702392578125E-07	-1.81315833458484E-08	-965701.625	3.106255462626E-05
1	306	96.3955037566247	0.122222900390625	0.12225341796875	-2.01416015625E-07	-2.46237963352769E-08	-606969.6875	3.10455106955487E-05
1	307	96.4962117563705	0.112152099609375	0.112152099609375	-2.9022216796875E-07	-3.2549024808759E-08	-386435.375	3.10207542497665E-05
1	308	96.5969197561162	0.102081298828125	0.10211181640625	-4.0771484375E-07	-4.16325001140194E-08	-250449.109375	3.098561137449E-05
1	309	96.697627755862	0.092010498046875	0.09210205078125	-5.60302734375E-07	-5.16050313592586E-08	-164379.078125	3.09368697344325E-05
1	310	96.7983357556077	0.081939697265625	0.081939697265625	-7.50732421875E-07	-6.15147826010798E-08	-109146.34375	3.08708513330203E-05
1	311	96.8990437553534	0.071868896484375	0.0718994140625	-9.75341796875E-07	-7.01265037150733E-08	-73717.1484375	3.078393638134E-05
1	312	96.9997517550992	0.061798095703125	0.06182861328125	-1.22039794921875E-06	-7.54555102844279E-08	-50662.6640625	3.06733745674137E-05
1	313	97.1004597548449	0.051727294921875	0.05181884765625	-1.4678955078125E-06	-7.60646514663676E-08	-35301.45703125	3.05380053760018E-05
1	314	97.2011677545906	0.041656494140625	0.0417633056640625	-1.6912841796875E-06	-7.06336180655853E-08	-24693.251953125	3.03789292956935E-05
1	315	97.3018757543364	0.031585693359375	0.031683349609375	-1.86981201171875E-06	-5.92419020506441E-08	-16944.669921875	3.0199613320292E-05
1	316	97.4025837540821	0.021514892578125	0.02161865234375	-1.98577880859375E-06	-4.29298587789617E-08	-10886.73828125	3.00054689432727E-05
1	317	97.5032917538279	0.011444091796875	0.0115478515625	-2.03887939453125E-06	-2.35446755425528E-08	-5663.82275390625	2.98028116958449E-05
1	318	97.6039997535736	0.001373291015625	0.001446533203125	-2.0379638671875E-06	-2.94798252475914E-09	-709.793334960938	2.95975260087289E-05
1	319	97.7047077533193	-0.008697509765625	-0.0085601806640625	-1.99676513671875E-06	1.70926703901841E-08	4287.0244140625	2.93943612632575E-05
1	320	97.8054157530651	-0.018768310546875	-0.018646240234375	-1.93206787109375E-06	3.60257992326751E-08	9650.9248046875	2.91965297947172E-05
1	321	97.9061237528108	-0.028839111328125	-0.0287139892578125	-1.85699462890625E-06	5.33217239251371E-08	15462.6142578125	2.90057341771899E-05
1	322	98.0068317525565	-0.038909912109375	-0.0387939453125	-1.778564453125E-06	6.89975294676515E-08	21811.94140625	2.88226692646276E-05
1	323	98.1075397523023	-0.048980712890625	-0.0488311767578125	-1.7034912109375E-06	8.31834796599651E-08	28665.353515625	2.86473350570304E-05
1	324	98.208247752048	-0.059051513671875	-0.05902099609375	-1.6339111328125E-06	9.64350590493268E-08	36122.52734375	2.84792822640156E-05
1	325	98.3089557517937	-0.069122314453125	-0.06915283203125	-1.571044921875E-06	1.08642204565967E-07	44017.09375	2.8317901524133E-05
1	326	98.4096637515395	-0.079193115234375	-0.0791015625	-1.51519775390625E-06	1.19854504987416E-07	52205.44140625	2.81624961644411E-05
1	327	98.5103717512852	-0.089263916015625	-0.08917236328125	-1.466064453125E-06	1.30732431102842E-07	60824.31640625	2.80123767879559E-05
1	328	98.611079751031	-0.099334716796875	-0.099273681640625	-1.42333984375E-06	1.413001768924E-07	69747	2.78668849205133E-05
1	329	98.7117877507767	-0.109405517578125	-0.10931396484375	-1.38641357421875E-06	1.51554360172668E-07	78846.5859375	2.77254021057161E-05
1	330	98.8124957505224	-0.119476318359375	-0.119415283203125	-1.35467529296875E-06	1.61768937800844E-07	88150.484375	2.7587377189775E-05
1	331	98.9132037502682	-0.129547119140625	-0.129486083984375	-1.32720947265625E-06	1.71855162989232E-07	97562.65625	2.74523335974663E-05
1	332	99.0139117500139	-0.139617919921875	-0.139495849609375	-1.30401611328125E-06	1.81904837859292E-07	106974.0234375	2.73198402283015E-05
1	333	99.1146197497596	-0.149688720703125	-0.14959716796875	-1.28387451171875E-06	1.92063978943224E-07	116520.09375	2.71895296464209E-05
1	334	99.2153277495054	-0.159759521484375	-0.15966796875	-1.26739501953125E-06	2.02362386403365E-07	125981.2265625	2.70610635197954E-05
1	335	99.3160357492511	-0.169830322265625	-0.169677734375	-1.25457763671875E-06	2.12873885629961E-07	135246.90625	2.69340725935763E-05
1	336	99.4167437489969	-0.179901123046875	-0.17974853515625	-1.2445068359375E-06	2.23698279455675E-07	144433.546875	2.68082330876496E-05
1	337	99.5174517487426	-0.189971923828125	-0.189788818359375	-1.236572265625E-06	2.34687576039505E-07	153479.765625	2.66833012574352E-05
1	338	99.6181597484883	-0.200042724609375	-0.199920654296875	-1.23199462890625E-06	2.46301169681828E-07	162273.96875	2.65589987975545E-05
1	339	99.7188677482341	-0.189971923828125	-0.18988037109375	-1.087646484375E-06	2.06522699386369E-07	174579.140625	2.64421960309846E-05
2	340	99.8195757479798	-0.179901123046875	-0.179779052734375	-9.8846435546875E-07	1.77705175019582E-07	181877.125	2.6337655071984E-05
2	341	99.9202837477255	-0.169830322265625	-0.169677734375	-9.08813476562501E-07	1.54205409330643E-07	186702.5	2.62421199295204E-05
2	342	100.020991747471	-0.159759521484375	-0.159637451171875	-8.41674804687501E-07	1.34362807102661E-07	189666.4375	2.61539753410034E-05
2	343	100.121699747217	-0.149688720703125	-0.149566650390625	-7.8338623046875E-07	1.17168454494276E-07	190923.265625	2.60721481026849E-05
2	344	100.222407746963	-0.139617919921875	-0.1395263671875	-7.3150634765625E-07	1.02064419138514E-07	190738.4375	2.59958669630578E-05
2	345	100.323115746708	-0.129547119140625	-0.129425048828125	-6.8511962890625E-07	8.86716406967025E-08	188908.6875	2.59245334746083E-05
2	346	100.423823746454	-0.119476318359375	-0.11944580078125	-6.4208984375E-07	7.66949384001236E-08	186026.609375	2.5857703803922E-05
2	347	100.5245317462	-0.109405517578125	-0.10931396484375	-6.01806640625E-07	6.57858691965885E-08	181643.015625	2.57950687228004E-05
2	348	100.625239745946	-0.099334716796875	-0.09930419921875	-5.63964843750001E-07	5.60040760433367E-08	176082.265625	2.57363662967691E-05
2	349	100.725947745691	-0.089263916015625	-0.089202880859375	-5.267333984375E-07	4.69861376473091E-08	169351.09375	2.56814455497079E-05
2	350	100.826655745437	-0.079193115234375	-0.0791015625	-4.8980712890625E-07	3.87445098226635E-08	161495.328125	2.56302591878921E-05
2	351	100.927363745183	-0.069122314453125	-0.069000244140625	-4.5135498046875E-07	3.11436032518486E-08	152873.5625	2.55828672379721E-05
2	352	101.028071744929	-0.059051513671875	-0.0589599609375	-4.0924072265625E-07	2.41288162783349E-08	144071.59375	2.55395334534114E-05
2	353	101.128779744674	-0.048980712890625	-0.048846435546875	-3.619384765625E-07	1.76794046069517E-08	134957.84375	2.55007016676245E-05
2	354	101.22948774442	-0.038909912109375	-0.0387847900390625	-3.04565429687501E-07	1.18125056403073E-08	127344.6953125	2.54671394941397E-05
2	355	101.330195744166	-0.028839111328125	-0.0287261962890625	-2.3529052734375E-07	6.75900180269196E-09	122088.1953125	2.54399565164931E-05
2	356	101.430903743912	-0.018768310546875	-0.01866455078125	-1.4678955078125E-07	2.73976086262451E-09	127151.765625	2.54207170655718E-05
2	357	101.531611743657	-0.008697509765625	-0.00856933593750001	-3.35693359375E-08	2.87666890308458E-10	255272.71875	2.54116348514799E-05
2	358	101.632319743403	0.001373291015625	0.001483154296875	1.1138916015625E-07	1.65207306168647E-10	13315.068359375	2.54155547736445E-05
2	359	101.733027743149	0.011444091796875	0.011529541015625	2.92358398437501E-07	3.37075789502705E-09	39436.328125	2.54358837992186E-05
2	360	101.833735742895	0.021514892578125	0.0216094970703125	5.10253906249999E-07	1.10263291830393E-08	42350.48046875	2.54762981057866E-05
2	361	101.93444374264	0.031585693359375	0.0316741943359375	7.574462890625E-07	2.39915021182924E-08	41817.0859375	2.55401319009252E-05
2	362	102.035151742386	0.041656494140625	0.0417633056640625	1.02020263671875E-06	4.26070343451102E-08	40936.28515625	2.56296443694737E-05
2	363	102.135859742132	0.051727294921875	0.051849365234375	1.27410888671875E-06	6.60617374137473E-08	40694.61328125	2.57451720244717E-05
2	364	102.236567741877	0.061798095703125	0.061859130859375	1.49566650390625E-06	9.25206222746056E-08	41358.91015625	2.58846412179992E-05
2	365	102.337275741623	0.071868896484375	0.071929931640625	1.663818359375E-06	1.19678347232366E-07	43231.83984375	2.60437336692121E-05
2	366	102.437983741369	0.081939697265625	0.08203125	1.7694091796875E-06	1.45146842100985E-07	46360.81640625	2.62166104221251E-05
2	367	102.538691741115	0.092010498046875	0.09210205078125	1.8133544921875E-06	1.67013652685455E-07	50790.98046875	2.63970177911688E-05
2	368	102.63939974086	0.102081298828125	0.10211181640625	1.8084716796875E-06	1.84666333780115E-07	56463.04296875	2.65793914877577E-05
2	369	102.740107740606	0.112152099609375	0.112152099609375	1.768798828125E-06	1.98374507931476E-07	63405.796875	2.67595205514226E-05
2	370	102.840815740352	0.122222900390625	0.12225341796875	1.71051025390625E-06	2.09115725624542E-07	71471.8984375	2.69347183348145E-05
2	371	102.941523740098	0.132293701171875	0.13232421875	1.6424560546875E-06	2.17336705077287E-07	80564.84375	2.71035532932729E-05
2	372	103.042231739843	0.142364501953125	0.14239501953125	1.57379150390625E-06	2.24100062951038E-07	90478.9609375	2.72655033768388E-05
2	373	103.142939739589	0.152435302734375	0.152496337890625	1.50726318359375E-06	2.29852119559837E-07	101174.328125	2.74206468020566E-05
2	374	103.243647739335	0.162506103515625	0.162567138671875	1.44622802734375E-06	2.35109141044632E-07	112407.6796875	2.75693673756905E-05
2	375	103.344355739081	0.172576904296875	0.172576904296875	1.3909912109375E-06	2.40052969502358E-07	124067.578125	2.77122326224344E-05
2	376	103.445063738826	0.182647705078125	0.182647705078125	1.34185791015625E-06	2.45087278472056E-07	136115.53125	2.78498428087914E-05
2	377	103.545771738572	0.192718505859375	0.192779541015625	1.2982177734375E-06	2.50269806656434E-07	148495.53125	2.79827818303602E-05
2	378	103.646479738318	0.202789306640625	0.20281982421875	1.25946044921875E-06	2.55443552532597E-07	161037.078125	2.811156991811E-05
2	379	103.747187738064	0.212860107421875	0.212921142578125	1.22467041015625E-06	2.60758213244117E-07	173859.953125	2.82366563624237E-05
2	380	103.847895737809	0.222930908203125	0.222900390625	1.19415283203125E-06	2.66177124785827E-07	186659.859375	2.83584540738957E-05
2	381	103.948603737555	0.233001708984375	0.233001708984375	1.1669921875E-06	2.71911176241701E-07	199660.03125	2.84773468592903E-05
2	382	104.049311737301	0.243072509765625	0.243072509765625	1.14288330078125E-06	2.77803508197394E-07	212683.578125	2.85936584987212E-05
2	383	104.150019737046	0.253143310546875	0.25311279296875	1.1212158203125E-06	2.83794037159169E-07	225748.515625	2.87076654785778E-05
2	384	104.250727736792	0.263214111328125	0.26318359375	1.10137939453125E-06	2.89864971136922E-07	238958.171875	2.88195806206204E-05
2	385	104.351435736538	0.273284912109375	0.273284912109375	1.08428955078125E-06	2.96319996095917E-07	252040.515625	2.89296385744819E-05
2	386	104.452143736284	0.283355712890625	0.283355712890625	1.0687255859375E-06	3.02829477050182E-07	265134.21875	2.90380521619227E-05
2	387	104.552851736029	0.293426513671875	0.29345703125	1.0540771484375E-06	3.09326338765459E-07	278401.875	2.91449432552326E-05
2	388	104.653559735775	0.303497314453125	0.303497314453125	1.04095458984375E-06	3.15926911298448E-07	291556.75	2.92504355456913E-05
2	389	104.754267735521	0.313568115234375	0.313629150390625	1.02996826171875E-06	3.23028046977925E-07	304503.71875	2.93547145702178E-05
2	390	104.854975735267	0.323638916015625	0.3236083984375	1.01898193359375E-06	3.29751117078558E-07	317580.125	2.94578876491869E-05
2	391	104.955683735012	0.333709716796875	0.333770751953125	1.00982666015625E-06	3.3705060786815E-07	330522.8125	2.95600475510582E-05
2	392	105.056391734758	0.343780517578125	0.343780517578125	1.00067138671875E-06	3.44011311881331E-07	343549.875	2.96612834063126E-05
2	393	105.157099734504	0.353851318359375	0.35382080078125	9.930419921875E-07	3.51358920624989E-07	356299.9375	2.97616752504837E-05
2	394	105.25780773425	0.363922119140625	0.363922119140625	9.86328124999999E-07	3.58946635969914E-07	368966.59375	2.98613449558616E-05
2	395	105.358515733995	0.373992919921875	0.37396240234375	9.80529785156251E-07	3.66681263130886E-07	381388.125	2.99603834719164E-05
2	396	105.459223733741	0.384063720703125	0.38409423828125	9.747314453125E-07	3.74388719137642E-07	394051.375	3.00588380923728E-05
2	397	105.559931733487	0.394134521484375	0.394195556640625	9.7015380859375E-07	3.82430300760461E-07	406322.75	3.01567706628703E-05
2	398	105.660639733233	0.404205322265625	0.404205322265625	9.66796875000001E-07	3.90784435921887E-07	418087.125	3.02543048746884E-05
2	399	105.761347732978	0.414276123046875	0.414215087890625	9.6405029296875E-07	3.99324164845893E-07	429661.28125	3.03515298583079E-05
2	400	105.862055732724	0.424346923828125	0.424346923828125	9.6160888671875E-07	4.08055768730264E-07	441288.5	3.04484947264427E-05
2	401	105.96276373247	0.434417724609375	0.4344482421875	9.6038818359375E-07	4.17238965155775E-07	452367.3125	3.05452740576584E-05
2	402	106.063471732215	0.444488525390625	0.444488525390625	9.59167480468751E-07	4.26338914394364E-07	463410.78125	3.0641931516584E-05
2	403	106.164179731961	0.454559326171875	0.45452880859375	9.57641601562501E-07	4.35275666177404E-07	474633.5625	3.0738450732315E-05
2	404	106.264887731707	0.464630126953125	0.464599609375	9.5672607421875E-07	4.4449453184825E-07	485614.0625	3.08348462567665E-05
2	405	106.365595731453	0.474700927734375	0.474639892578125	9.56115722656251E-07	4.53810685030476E-07	496425.15625	3.0931165383663E-05
2	406	106.466303731198	0.484771728515625	0.48480224609375	9.5550537109375E-07	4.63231145886311E-07	507377.84375	3.10274263028987E-05
2	407	106.567011730944	0.494842529296875	0.49481201171875	9.56115722656251E-07	4.7309754336311E-07	517523.125	3.11236835841555E-05
2	408	106.66771973069	0.504913330078125	0.504913330078125	9.5672607421875E-07	4.83063729461719E-07	527751.25	3.12200027110521E-05
2	409	106.768427730436	0.514984130859375	0.51495361328125	9.57336425781249E-07	4.92983815547632E-07	537902.5	3.13163836835884E-05
2	410	106.869135730181	0.525054931640625	0.525054931640625	9.58862304687499E-07	5.03455396483332E-07	547581.1875	3.141287015751E-05
2	411	106.969843729927	0.535125732421875	0.53509521484375	9.6099853515625E-07	5.14225689585146E-07	556811.75	3.15095421683509E-05
2	412	107.070551729673	0.545196533203125	0.545166015625	9.63745117187501E-07	5.25401048889762E-07	565674.5	3.16064615617506E-05
2	413	107.171259729419	0.555267333984375	0.555267333984375	9.66796875000001E-07	5.36830725650361E-07	574337.125	3.17036719934549E-05
2	414	107.271967729164	0.565338134765625	0.565277099609375	9.7076416015625E-07	5.48750733742054E-07	582301.125	3.18012353091035E-05
2	415	107.37267572891	0.575408935546875	0.57537841796875	9.7564697265625E-07	5.6136616422009E-07	589740.4375	3.18992460961454E-05
2	416	107.473383728656	0.585479736328125	0.58544921875	9.82055664062501E-07	5.74943726405763E-07	596146.6875	3.19978244078811E-05
2	417	107.574091728402	0.595550537109375	0.59552001953125	9.906005859375E-07	5.89922478866356E-07	601170.6875	3.209715578123E-05
2	418	107.674799728147	0.605621337890625	0.605621337890625	1.0009765625E-06	6.06212779530324E-07	605030.5	3.21974403050262E-05
2	419	107.775507727893	0.615692138671875	0.615631103515625	1.01409912109375E-06	6.24310928287741E-07	607071.9375	3.22989071719348E-05
2	420	107.876215727639	0.625762939453125	0.625701904296875	1.031494140625E-06	6.45407794763742E-07	606597.6875	3.24019092659E-05
2	421	107.976923727384	0.635833740234375	0.63580322265625	1.05438232421875E-06	6.70379677103483E-07	603010.125	3.25069413520396E-05
2	422	108.07763172713	0.645904541015625	0.645843505859375	1.0845947265625E-06	7.00478437920538E-07	595469.875	3.26146473526023E-05
2	423	108.178339726876	0.655975341796875	0.65594482421875	1.1236572265625E-06	7.37057121114049E-07	583758.875	3.27258421748411E-05
2	424	108.279047726622	0.666046142578125	0.665985107421875	1.17431640625E-06	7.82077222538646E-07	567125.8125	3.28415553667583E-05
2	425	108.379755726367	0.676116943359375	0.67608642578125	1.23626708984375E-06	8.35823357192567E-07	546877.3125	3.29629365296569E-05
2	426	108.480463726113	0.686187744140625	0.686126708984375	1.309814453125E-06	8.98698601758952E-07	523835.0625	3.30911425407976E-05
2	427	108.581171725859	0.696258544921875	0.696136474609375	1.390380859375E-06	9.67894834502658E-07	500680.4375	3.32271083607338E-05
2	428	108.681879725605	0.706329345703125	0.70623779296875	1.470947265625E-06	1.0388386044724E-06	480124.46875	3.33711868734099E-05
2	429	108.78258772535	0.716400146484375	0.716339111328125	1.54266357421875E-06	1.10507028239226E-06	464352.125	3.35229342454113E-05
2	430	108.883295725096	0.726470947265625	0.72637939453125	1.59912109375E-06	1.16156866170058E-06	454236.625	3.36811353918165E-05
2	431	108.984003724842	0.736541748046875	0.736480712890625	1.6357421875E-06	1.20469258035882E-06	450242.5625	3.3844025892904E-05
2	432	109.084711724588	0.746612548828125	0.7464599609375	1.65435791015625E-06	1.23491190606728E-06	451208.28125	3.40096958098002E-05
2	433	109.185419724333	0.756683349609375	0.75714111328125	1.65679931640625E-06	1.25443091292254E-06	456990.25	3.41764243785292E-05
2	434	109.286127724079	0.766754150390625	0.76690673828125	1.64703369140625E-06	1.26312113479798E-06	465629.0625	3.43427855113987E-05
2	435	109.386835723825	0.776824951171875	0.7769775390625	1.6314697265625E-06	1.26761528917996E-06	476243.9375	3.45078697137069E-05
2	436	109.487543723571	0.786895751953125	0.7867431640625	1.6119384765625E-06	1.26818156331865E-06	488072.71875	3.46711894962937E-05
2	437	109.588251723316	0.796966552734375	0.797119140625	1.591796875E-06	1.26885174722702E-06	500766.875	3.48325120285153E-05
2	438	109.688959723062	0.807037353515625	0.806884765625	1.57257080078125E-06	1.26888346585474E-06	513099.15625	3.49918482243083E-05
2	439	109.789667722808	0.817108154296875	0.81756591796875	1.55426025390625E-06	1.27071018596325E-06	526016.125	3.51492963091005E-05
2	440	109.890375722553	0.827178955078125	0.82733154296875	1.5380859375E-06	1.27250700643344E-06	537896.8125	3.53050090780016E-05
2	441	109.991083722299	0.837249755859375	0.8380126953125	1.52435302734375E-06	1.27742714539636E-06	549749.75	3.54592157236766E-05
2	442	110.091791722045	0.847320556640625	0.84747314453125	1.512451171875E-06	1.28176168345817E-06	560330.9375	3.56121308868751E-05
2	443	110.192499721791	0.857391357421875	0.8575439453125	1.50299072265625E-06	1.28888052586262E-06	570558.375	3.57639692083467E-05
2	444	110.293207721536	0.867462158203125	0.86700439453125	1.495361328125E-06	1.29648481106415E-06	579795.9375	3.59149489668198E-05
2	445	110.393915721282	0.877532958984375	0.877685546875	1.4892578125E-06	1.30709997847589E-06	589344.25	3.60652375093196E-05
2	446	110.494623721028	0.887603759765625	0.88775634765625	1.4849853515625E-06	1.31830518057541E-06	597821.625	3.62150021828711E-05
2	447	110.595331720774	0.897674560546875	0.89752197265625	1.4825439453125E-06	1.33061575979809E-06	605393.1875	3.63644285243936E-05
2	448	110.696039720519	0.907745361328125	0.90728759765625	1.4825439453125E-06	1.3450936648951E-06	611980.25	3.65137348126154E-05
2	449	110.796747720265	0.917816162109375	0.9173583984375	1.48468017578125E-06	1.36198389100173E-06	617882.8125	3.66631429642439E-05
2	450	110.897455720011	0.927886962890625	0.92803955078125	1.49078369140625E-06	1.38350617362448E-06	622517.9375	3.68129694834352E-05
2	451	110.998163719757	0.937957763671875	0.93780517578125	1.50115966796875E-06	1.40779525281687E-06	624720.5	3.69636290997732E-05
2	452	111.098871719502	0.948028564453125	0.9478759765625	1.517333984375E-06	1.4382444533112E-06	624698.3125	3.71156202163547E-05
2	453	111.199579719248	0.958099365234375	0.95855712890625	1.54266357421875E-06	1.47873117839481E-06	621365	3.72697031707503E-05
2	454	111.300287718994	0.968170166015625	0.968017578125	1.57684326171875E-06	1.52641200656944E-06	613895.875	3.74267838196829E-05
2	455	111.40099571874	0.978240966796875	0.9783935546875	1.624755859375E-06	1.58965053742577E-06	602178.8125	3.75879972125404E-05
2	456	111.501703718485	0.988311767578125	0.98846435546875	1.68792724609375E-06	1.6684558659108E-06	585608.375	3.77548021788243E-05
2	457	111.602411718231	0.998382568359375	0.9979248046875	1.76849365234375E-06	1.76482365077391E-06	564279.5625	3.79288467229344E-05
2	458	111.703119717977	1.00845336914063	1.00830078125	1.8658447265625E-06	1.88133265055512E-06	540399.125	3.81118516088463E-05
2	459	111.803827717722	1.01852416992188	1.01898193359375	1.97784423828125E-06	2.01538750843611E-06	515198.28125	3.83053957193624E-05
2	460	111.904535717468	1.02859497070313	1.0284423828125	2.0953369140625E-06	2.15493332689221E-06	490824.375	3.85104976885486E-05
2	461	112.005243717214	1.03866577148438	1.038818359375	2.2076416015625E-06	2.29333841161861E-06	470555.71875	3.87271684303414E-05
2	462	112.10595171696	1.04873657226563	1.04827880859375	2.3040771484375E-06	2.41531506617321E-06	454966.90625	3.89543529308867E-05
2	463	112.206659716705	1.05880737304688	1.0589599609375	2.37640380859375E-06	2.51651636062888E-06	445614.5	3.91900357499253E-05
2	464	112.307367716451	1.06887817382813	1.0693359375	2.418212890625E-06	2.5858817025437E-06	442200.9375	3.94314629375003E-05
2	465	112.408075716197	1.07894897460938	1.07879638671875	2.431640625E-06	2.62324488176091E-06	443649.625	3.96756731788628E-05
2	466	112.508783715943	1.08901977539063	1.0894775390625	2.42340087890625E-06	2.64024083662662E-06	449565.53125	3.99201417167205E-05
2	467	112.609491715688	1.09909057617188	1.09954833984375	2.3992919921875E-06	2.63813763012877E-06	458280.3125	4.01629840780515E-05
2	468	112.710199715434	1.10916137695313	1.1090087890625	2.36541748046875E-06	2.62326875599683E-06	468842.71875	4.04029051424004E-05
2	469	112.81090771518	1.11923217773438	1.11907958984375	2.327880859375E-06	2.60508386418223E-06	480728.90625	4.06392318836879E-05
2	470	112.911615714926	1.12930297851563	1.13006591796875	2.2894287109375E-06	2.58720547208213E-06	493601.71875	4.08717314712703E-05
2	471	113.012323714671	1.13937377929688	1.138916015625	2.25250244140625E-06	2.56541102316987E-06	505622.5625	4.1100436646957E-05
2	472	113.113031714417	1.14944458007813	1.1492919921875	2.21771240234375E-06	2.54879910244199E-06	518233.125	4.13255293096881E-05
2	473	113.213739714163	1.15951538085938	1.15936279296875	2.18597412109375E-06	2.53433699981542E-06	530364.375	4.15472750319168E-05
2	474	113.314447713909	1.16958618164063	1.16973876953125	2.1575927734375E-06	2.5238198304578E-06	542149.9375	4.17659903177992E-05
2	475	113.415155713654	1.17965698242188	1.17919921875	2.13348388671875E-06	2.51580240728799E-06	552710.625	4.19820607930887E-05
2	476	113.5158637134	1.18972778320313	1.18988037109375	2.11029052734375E-06	2.51099322667869E-06	563846.6875	4.21957520302385E-05
2	477	113.616571713146	1.19979858398438	1.19964599609375	2.091064453125E-06	2.50853690886288E-06	573701.125	4.24073077738285E-05
2	478	113.717279712891	1.20986938476563	1.21002197265625	2.073974609375E-06	2.50955486080784E-06	583431.4375	4.26170336140785E-05
2	479	113.817987712637	1.21994018554688	1.2200927734375	2.05902099609375E-06	2.51219671554281E-06	592559.6875	4.2825147829717E-05
2	480	113.918695712383	1.23001098632813	1.2298583984375	2.0477294921875E-06	2.51841720455559E-06	600596.1875	4.30319378210697E-05
2	481	114.019403712129	1.24008178710938	1.240234375	2.0367431640625E-06	2.52603877015645E-06	608930.1875	4.32376073149499E-05
2	482	114.120111711874	1.25015258789063	1.25030517578125	2.02850341796875E-06	2.5362483029312E-06	616368.3125	4.34423091064673E-05
2	483	114.22081971162	1.26022338867188	1.26007080078125	2.02178955078125E-06	2.54759788731462E-06	623245.3125	4.36462578363717E-05
2	484	114.321527711366	1.27029418945313	1.2701416015625	2.0166015625E-06	2.56136945608887E-06	629842.625	4.38496062997729E-05
2	485	114.422235711112	1.28036499023438	1.280517578125	2.0135498046875E-06	2.57838564721169E-06	635950.3125	4.405254003359E-05
2	486	114.522943710857	1.29043579101563	1.290283203125	2.0123291015625E-06	2.59647435996158E-06	641188.9375	4.42552591266576E-05
2	487	114.623651710603	1.30050659179688	1.3006591796875	2.0123291015625E-06	2.6173543119512E-06	646345.1875	4.44579200120643E-05
2	488	114.724359710349	1.31057739257813	1.31072998046875	2.01385498046875E-06	2.63962010649266E-06	650856.1875	4.46606536570471E-05
2	489	114.825067710095	1.32064819335938	1.32049560546875	2.01690673828125E-06	2.66331630882632E-06	654713.3125	4.48636164946947E-05
2	490	114.92577570984	1.33071899414063	1.33087158203125	2.022705078125E-06	2.69196061708499E-06	657966.1875	4.50670304417145E-05
2	491	115.026483709586	1.34078979492188	1.3409423828125	2.0294189453125E-06	2.72133388534712E-06	660751.875	4.5271070121089E-05
2	492	115.127191709332	1.35086059570313	1.35101318359375	2.03826904296875E-06	2.75372826763487E-06	662823.75	4.54758919659071E-05
2	493	115.227899709078	1.36093139648438	1.36077880859375	2.04986572265625E-06	2.78941388387466E-06	663838	4.56817469967064E-05
2	494	115.328607708823	1.37100219726563	1.370849609375	2.06268310546875E-06	2.82762835013273E-06	664595.375	4.58888316643424E-05
2	495	115.429315708569	1.38107299804688	1.38153076171875	2.07794189453125E-06	2.87074067273352E-06	664855.375	4.60973278677557E-05
2	496	115.530023708315	1.39114379882813	1.3909912109375	2.09503173828125E-06	2.9141706363589E-06	663947.5625	4.63074538856745E-05
2	497	115.63073170806	1.40121459960938	1.40167236328125	2.1136474609375E-06	2.96264124699519E-06	663153.3125	4.6519377065124E-05
2	498	115.731439707806	1.41128540039063	1.41143798828125	2.1343994140625E-06	3.01257250612252E-06	661281.0625	4.67332829430234E-05
2	499	115.832147707552	1.42135620117188	1.42120361328125	2.15576171875E-06	3.06377614833764E-06	659258.25	4.69493097625673E-05
2	500	115.932855707298	1.43142700195313	1.4312744140625	2.178955078125E-06	3.11868279823102E-06	656862.75	4.71675812150352E-05
2	501	116.033563707043	1.44149780273438	1.44195556640625	2.20428466796875E-06	3.17848048325686E-06	654160.375	4.73882937512826E-05
2	502	116.134271706789	1.45156860351563	1.451416015625	2.23052978515625E-06	3.23742642649449E-06	650704.6875	4.76116038043983E-05
2	503	116.234979706535	1.46163940429688	1.46148681640625	2.259521484375E-06	3.30226066580508E-06	646812.5625	4.78376969113015E-05
2	504	116.335687706281	1.47171020507813	1.47186279296875	2.29156494140625E-06	3.37286905960354E-06	642295.9375	4.80668641102966E-05
2	505	116.436395706026	1.48178100585938	1.48193359375	2.330322265625E-06	3.45338253282534E-06	635935.0625	4.82995928905439E-05
2	506	116.537103705772	1.49185180664063	1.49200439453125	2.37884521484375E-06	3.54924759449204E-06	627196.9375	4.85367199871689E-05
2	507	116.637811705518	1.50192260742188	1.5020751953125	2.44171142578125E-06	3.6676340187114E-06	615173.125	4.87794532091357E-05
2	508	116.738519705264	1.49185180664063	1.4923095703125	2.230224609375E-06	3.32818535753177E-06	669129.75	4.90147031086963E-05
2	509	116.839227705009	1.48178100585938	1.4813232421875	2.080078125E-06	3.08126800518949E-06	712147.9375	4.92317449243274E-05
2	510	116.939935704755	1.47171020507813	1.4715576171875	1.96441650390625E-06	2.89075205728295E-06	749106.75	4.94354026159272E-05
2	511	117.040643704501	1.46163940429688	1.4617919921875	1.87164306640625E-06	2.73595264843607E-06	781020.75	4.96285611006897E-05
2	512	117.141351704247	1.45156860351563	1.45172119140625	1.795654296875E-06	2.60678939412173E-06	808463.625	4.98132249049377E-05
2	513	117.242059703992	1.44149780273438	1.44134521484375	1.73187255859375E-06	2.49622621595336E-06	832246.6875	4.99908492201939E-05
2	514	117.342767703738	1.43142700195313	1.43157958984375	1.67816162109375E-06	2.4024218419072E-06	853064.25	5.01625581819098E-05
2	515	117.443475703484	1.42135620117188	1.4215087890625	1.6314697265625E-06	2.31914850701287E-06	871305.6875	5.03292103530839E-05
2	516	117.544183703229	1.41128540039063	1.41143798828125	1.590576171875E-06	2.24499967771408E-06	887375.3125	5.04914532939438E-05
2	517	117.644891702975	1.40121459960938	1.4007568359375	1.55426025390625E-06	2.1771404590254E-06	901237.0625	5.06498108734377E-05
2	518	117.745599702721	1.39114379882813	1.39129638671875	1.52252197265625E-06	2.1182793261687E-06	913810.375	5.08047378389165E-05
2	519	117.846307702467	1.38107299804688	1.3812255859375	1.492919921875E-06	2.06205913855229E-06	925184	5.09565761603881E-05
2	520	117.947015702212	1.37100219726563	1.3702392578125	1.46575927734375E-06	2.00844101527764E-06	934832.375	5.11055586684961E-05
2	521	118.047723701958	1.36093139648438	1.361083984375	1.4410400390625E-06	1.96137648345029E-06	944515.0625	5.12519291078206E-05
2	522	118.148431701704	1.35086059570313	1.35101318359375	1.41845703125E-06	1.91635422197578E-06	952452.6875	5.13959166710265E-05
2	523	118.24913970145	1.34078979492188	1.3409423828125	1.396484375E-06	1.87260502571007E-06	960227.3125	5.15376596013084E-05
2	524	118.349847701195	1.33071899414063	1.33087158203125	1.3763427734375E-06	1.83173551704385E-06	966962.3125	5.16772815899458E-05
2	525	118.450555700941	1.32064819335938	1.32080078125	1.357421875E-06	1.79288383606035E-06	973021.5625	5.18149390700273E-05
2	526	118.551263700687	1.31057739257813	1.31072998046875	1.33941650390625E-06	1.75561331161589E-06	978582.8125	5.19507339049596E-05
2	527	118.651971700433	1.30050659179688	1.3006591796875	1.322021484375E-06	1.7194994370584E-06	983841.1875	5.20847497682553E-05
2	528	118.752679700178	1.29043579101563	1.2908935546875	1.3055419921875E-06	1.68531573763175E-06	988779.8125	5.22170557815116E-05
2	529	118.853387699924	1.28036499023438	1.28021240234375	1.2896728515625E-06	1.65105507221597E-06	992664.5	5.23477356182411E-05
2	530	118.95409569967	1.27029418945313	1.27044677734375	1.2744140625E-06	1.61907519213855E-06	996887	5.24768474861048E-05
2	531	119.054803699416	1.26022338867188	1.26068115234375	1.26007080078125E-06	1.58854754772619E-06	1000484.375	5.26044714206364E-05
2	532	119.155511699161	1.25015258789063	1.25030517578125	1.2457275390625E-06	1.55753957642446E-06	1003674.6875	5.27306474396028E-05
2	533	119.256219698907	1.24008178710938	1.240234375	1.2322998046875E-06	1.52834047639772E-06	1006438.875	5.28554264747072E-05
2	534	119.356927698653	1.23001098632813	1.23016357421875	1.21917724609375E-06	1.49978734498291E-06	1009011.3125	5.29788667336106E-05
2	535	119.457635698398	1.21994018554688	1.2200927734375	1.20635986328125E-06	1.47187085985934E-06	1011383.8125	5.31010009581223E-05
2	536	119.558343698144	1.20986938476563	1.209716796875	1.19354248046875E-06	1.44384830491617E-06	1013551.5625	5.32218473381363E-05
2	537	119.65905169789	1.19979858398438	1.199951171875	1.18011474609375E-06	1.41608006742899E-06	1016808.875	5.33413694938645E-05
2	538	119.759759697636	1.18972778320313	1.1895751953125	1.16729736328125E-06	1.38858797527064E-06	1019085	5.34595710632857E-05
2	539	119.860467697381	1.17965698242188	1.17950439453125	1.15325927734375E-06	1.36027438202291E-06	1022757.3125	5.35764193045907E-05
2	540	119.961175697127	1.16958618164063	1.1700439453125	1.1383056640625E-06	1.33186756556825E-06	1027882.0625	5.36918123543728E-05
2	541	120.061883696873	1.15951538085938	1.15966796875	1.1224365234375E-06	1.301653696828E-06	1033170.1875	5.38056483492255E-05
2	542	120.162591696619	1.14944458007813	1.14990234375	1.10443115234375E-06	1.26998793348321E-06	1041171.625	5.39177781320177E-05
2	543	120.263299696364	1.13937377929688	1.1395263671875	1.08306884765625E-06	1.23418544717424E-06	1052127.375	5.40279288543388E-05
2	544	120.36400769611	1.12930297851563	1.129150390625	1.05712890625E-06	1.19365745376854E-06	1068129.375	5.41356967005413E-05
2	545	120.464715695856	1.11923217773438	1.11907958984375	1.02508544921875E-06	1.14715226118278E-06	1091694	5.42405432497617E-05
2	546	120.565423695602	1.10916137695313	1.10931396484375	9.8419189453125E-07	1.09177778995218E-06	1127131.875	5.43417190783657E-05
2	547	120.666131695347	1.09909057617188	1.0992431640625	9.31396484375E-07	1.02383125977212E-06	1180209.75	5.44381764484569E-05
2	548	120.766839695093	1.08901977539063	1.0888671875	8.648681640625E-07	9.41726511882734E-07	1258997.875	5.45286275155377E-05
2	549	120.867547694839	1.07894897460938	1.07879638671875	7.8125E-07	8.42809640744235E-07	1380859.375	5.46115152246784E-05
2	550	120.968255694585	1.06887817382813	1.0687255859375	6.78405761718751E-07	7.25029565273871E-07	1575348.625	5.46850133105181E-05
2	551	121.06896369433	1.05880737304688	1.058349609375	5.60302734375E-07	5.92996173054416E-07	1888888.875	5.47473864571657E-05
2	552	121.169671694076	1.04873657226563	1.048583984375	4.3060302734375E-07	4.51523447964064E-07	2435152.5	5.47972849744838E-05
2	553	121.270379693822	1.03866577148438	1.03851318359375	3.0181884765625E-07	3.13442825472521E-07	3440849.5	5.48341631656513E-05
2	554	121.371087693567	1.02859497070313	1.0284423828125	1.8463134765625E-07	1.89882698009569E-07	5570248	5.48586576769594E-05
2	555	121.471795693313	1.01852416992188	1.01837158203125	8.88061523437497E-08	9.04376662447248E-08	11467354	5.48724274267443E-05
2	556	121.572503693059	1.00845336914063	1.00830078125	2.19726562499994E-08	2.21550457979447E-08	45888892	5.48780044482555E-05
2	557	121.673211692805	0.998382568359375	0.99822998046875	-1.70898437499997E-08	-1.70595928494777E-08	-58410720	5.48782518308144E-05
2	558	121.77391969255	0.988311767578125	0.98846435546875	-2.96020507812494E-08	-2.92605726315287E-08	-33391752	5.4875901696505E-05
2	559	121.874627692296	0.978240966796875	0.97900390625	-2.31933593749997E-08	-2.27063878810441E-08	-42210528	5.4873242333997E-05
2	560	121.975335692042	0.968170166015625	0.96771240234375	-3.0517578125E-09	-2.9532238876584E-09	-317100000	5.48719217476901E-05
2	561	122.076043691788	0.958099365234375	0.95855712890625	2.62451171874997E-08	2.5157444127899E-08	36523256	5.48730895388871E-05
2	562	122.176751691533	0.948028564453125	0.948486328125	6.07299804687503E-08	5.7601557301723E-08	15618090	5.48774696653709E-05
2	563	122.277459691279	0.937957763671875	0.9381103515625	9.64355468749997E-08	9.04671821899683E-08	9727849	5.48853822692763E-05
2	564	122.378167691025	0.927886962890625	0.9283447265625	1.26953125E-07	1.1785626696792E-07	7312500	5.48966308997478E-05
2	565	122.478875690771	0.917816162109375	0.91827392578125	1.53503417968751E-07	1.40958178462824E-07	5982108	5.4910753533477E-05
2	566	122.579583690516	0.907745361328125	0.90789794921875	1.76391601562501E-07	1.60145560812452E-07	5147059	5.49273645447101E-05
2	567	122.680291690262	0.897674560546875	0.89752197265625	1.953125E-07	1.75297259374929E-07	4595312.5	5.49460819456726E-05
2	568	122.780999690008	0.887603759765625	0.88775634765625	2.117919921875E-07	1.88019683378116E-07	4191642.75	5.49665819562506E-05
2	569	122.881707689754	0.877532958984375	0.87799072265625	2.2552490234375E-07	1.98008763163671E-07	3893098.75	5.49886026419699E-05
2	570	122.982415689499	0.867462158203125	0.8673095703125	2.37426757812501E-07	2.05922489726618E-07	3652956.5	5.5011911172187E-05
2	571	123.083123689245	0.857391357421875	0.8575439453125	2.471923828125E-07	2.11978331776663E-07	3469135.75	5.50363147340249E-05
2	572	123.183831688991	0.847320556640625	0.84747314453125	2.545166015625E-07	2.15695990846143E-07	3329736.25	5.50615768588614E-05
2	573	123.284539688736	0.837249755859375	0.8380126953125	2.5970458984375E-07	2.17635744093059E-07	3226792	5.50874719920103E-05
2	574	123.385247688482	0.827178955078125	0.82763671875	2.63366699218751E-07	2.17971958704766E-07	3142526	5.51138109585736E-05
2	575	123.485955688228	0.817108154296875	0.81756591796875	2.63061523437499E-07	2.15070130593631E-07	3107888.75	5.51403172721621E-05
2	576	123.586663687974	0.807037353515625	0.806884765625	2.6123046875E-07	2.10782886256311E-07	3088785	5.51667180843651E-05
2	577	123.687371687719	0.796966552734375	0.79742431640625	2.5360107421875E-07	2.0222765328981E-07	3144404.5	5.51926423213445E-05
2	578	123.788079687465	0.786895751953125	0.78704833984375	2.4139404296875E-07	1.89988782040018E-07	3260429.75	5.52175661141519E-05
2	579	123.888787687211	0.776824951171875	0.77667236328125	2.215576171875E-07	1.72077676552362E-07	3505509.75	5.52408782823477E-05
2	580	123.989495686957	0.766754150390625	0.7672119140625	1.92871093749999E-07	1.47972997410761E-07	3977848.25	5.52617457287852E-05
2	581	124.090203686702	0.756683349609375	0.7568359375	1.52587890625E-07	1.15483999252319E-07	4960000	5.52791425434407E-05
2	582	124.190911686448	0.746612548828125	0.7464599609375	9.88769531250003E-08	7.38076835204993E-08	7549382.5	5.52918027096894E-05
2	583	124.291619686194	0.736541748046875	0.7364501953125	3.23486328124997E-08	2.38231550042656E-08	22766040	5.52984129171818E-05
2	584	124.39232768594	0.726470947265625	0.726409912109375	-4.69970703125003E-08	-3.41391377389755E-08	-15456494	5.5297674407484E-05
2	585	124.493035685685	0.716400146484375	0.71630859375	-1.324462890625E-07	-9.48724121485611E-08	-5408295	5.52886376681272E-05
2	586	124.593743685431	0.706329345703125	0.70623779296875	-2.1636962890625E-07	-1.52808411257865E-07	-3264033.75	5.52710735064466E-05
2	587	124.694451685177	0.696258544921875	0.696136474609375	-2.8961181640625E-07	-2.01609353212007E-07	-2403688	5.52455967408605E-05
2	588	124.795159684923	0.686187744140625	0.68609619140625	-3.45458984374999E-07	-2.37018085158525E-07	-1986042.5	5.52136189071462E-05
2	589	124.895867684668	0.676116943359375	0.676116943359375	-3.7994384765625E-07	-2.5688646587696E-07	-1779518.125	5.51770899619441E-05
2	590	124.996575684414	0.666046142578125	0.666015625	-3.9337158203125E-07	-2.61991630168268E-07	-1693095.375	5.51381526747718E-05
2	591	125.09728368416	0.655975341796875	0.6558837890625	-3.9031982421875E-07	-2.56004454968206E-07	-1680375.25	5.50986878806725E-05
2	592	125.197991683905	0.645904541015625	0.645843505859375	-3.74450683593749E-07	-2.41836545455953E-07	-1724775.875	5.50601798749994E-05
2	593	125.298699683651	0.635833740234375	0.635772705078125	-3.50341796875001E-07	-2.2273775357462E-07	-1814721.25	5.50236836716067E-05
2	594	125.399407683397	0.625762939453125	0.625732421875	-3.216552734375E-07	-2.01270140109955E-07	-1945351	5.49898468307219E-05
2	595	125.500115683143	0.615692138671875	0.61566162109375	-2.899169921875E-07	-1.78490765279093E-07	-2123579	5.49590513401199E-05
2	596	125.600823682888	0.605621337890625	0.60565185546875	-2.5634765625E-07	-1.55257424694355E-07	-2362619.25	5.49315445823595E-05
2	597	125.701531682634	0.595550537109375	0.59552001953125	-2.2125244140625E-07	-1.31760259591829E-07	-2691586.25	5.49074939044658E-05
2	598	125.80223968238	0.585479736328125	0.585479736328125	-1.88293457031249E-07	-1.10242005746386E-07	-3109400.25	5.48868738405872E-05
2	599	125.902947682126	0.575408935546875	0.57550048828125	-1.60827636718749E-07	-9.25563838904964E-08	-3578368	5.48692914890125E-05
2	600	126.003655681871	0.565338134765625	0.565399169921875	-1.3763427734375E-07	-7.78183064653604E-08	-4107982.25	5.48542629985604E-05
2	601	126.104363681617	0.555267333984375	0.5552978515625	-1.18103027343749E-07	-6.55823555462121E-08	-4701809	5.48413881915621E-05
2	602	126.205071681363	0.545196533203125	0.545135498046875	-1.007080078125E-07	-5.48995089388882E-08	-5413030.5	5.48303687537555E-05
2	603	126.305779681109	0.535125732421875	0.53515625	-8.544921875E-08	-4.57286830624071E-08	-6262857.5	5.48209936823696E-05
2	604	126.406487680854	0.525054931640625	0.525054931640625	-7.171630859375E-08	-3.76550026714995E-08	-7321276.5	5.48130810784642E-05
2	605	126.5071956806	0.514984130859375	0.5150146484375	-5.950927734375E-08	-3.06481489076305E-08	-8654359	5.48064745089505E-05
2	606	126.607903680346	0.504913330078125	0.504913330078125	-4.8828125E-08	-2.46539713089078E-08	-10340625	5.48010175407398E-05
2	607	126.708611680092	0.494842529296875	0.49481201171875	-3.90625000000006E-08	-1.93285938365761E-08	-12667188	5.47965937585104E-05
2	608	126.809319679837	0.484771728515625	0.4847412109375	-3.02124023437503E-08	-1.46451961668959E-08	-16044445	5.47931049368344E-05
2	609	126.910027679583	0.474700927734375	0.474700927734375	-2.19726562499994E-08	-1.04304396231214E-08	-21604168	5.47904783161357E-05
2	610	127.010735679329	0.464630126953125	0.46466064453125	-1.49536132812503E-08	-6.94835566861229E-09	-31073470	5.47886156709865E-05
2	611	127.111443679074	0.454559326171875	0.45452880859375	-9.1552734375E-09	-4.16133527636475E-09	-49646668	5.47874042240437E-05
2	612	127.21215167882	0.444488525390625	0.4444580078125	-3.96728515625056E-09	-1.76329162382416E-09	-112030768	5.47867421119008E-05
2	613	127.312859678566	0.434417724609375	0.434478759765625	9.15527343750555E-10	3.9777717231182E-10	474566688	5.47865893167909E-05
2	614	127.413567678312	0.424346923828125	0.42431640625	5.79833984375028E-09	2.46033060591344E-09	73178952	5.478692764882E-05
2	615	127.514275678057	0.414276123046875	0.41424560546875	1.00708007812506E-08	4.17178469547252E-09	41133336	5.47877243661787E-05
2	616	127.614983677803	0.404205322265625	0.4041748046875	1.373291015625E-08	5.55049606276725E-09	29431112	5.47889248991851E-05
2	617	127.715691677549	0.394134521484375	0.394134521484375	1.77001953125006E-08	6.97625779366717E-09	22267242	5.47905074199662E-05
2	618	127.816399677295	0.384063720703125	0.384033203125	2.16674804687497E-08	8.32103186354516E-09	17723944	5.4792490118416E-05
2	619	127.91710767704	0.373992919921875	0.3740234375	2.50244140624994E-08	9.35971655735557E-09	14946342	5.47948402527254E-05
2	620	128.017815676786	0.363922119140625	0.363922119140625	2.86865234375003E-08	1.04396606914747E-08	12686170	5.47975469089579E-05
2	621	128.118523676532	0.353851318359375	0.353851318359375	3.204345703125E-08	1.13386189326548E-08	11042858	5.48006028111558E-05
2	622	128.219231676278	0.343780517578125	0.343780517578125	3.47900390625003E-08	1.19601368808731E-08	9881579	5.48039679415524E-05
2	623	128.319939676023	0.333709716796875	0.333709716796875	3.72314453124994E-08	1.24244952104391E-08	8963115	5.48075950064231E-05
2	624	128.420647675769	0.323638916015625	0.32366943359375	3.87573242187494E-08	1.2544560945571E-08	8351181	5.48114221601281E-05
2	625	128.521355675515	0.313568115234375	0.3135986328125	4.02832031249994E-08	1.26327570626472E-08	7784849	5.48154021089431E-05
2	626	128.622063675261	0.303497314453125	0.30352783203125	4.15039062499997E-08	1.25975905262976E-08	7313235.5	5.48195203009527E-05
2	627	128.722771675006	0.293426513671875	0.2933349609375	4.24194335937503E-08	1.24431025483318E-08	6915108	5.48237476323266E-05
2	628	128.823479674752	0.283355712890625	0.28338623046875	4.2724609375E-08	1.21075656167591E-08	6632857.5	5.48280331713613E-05
2	629	128.924187674498	0.273284912109375	0.273284912109375	4.30297851562497E-08	1.1759389906274E-08	6351064	5.48323514522053E-05
2	630	129.024895674243	0.263214111328125	0.263275146484375	4.21142578125006E-08	1.10876365866375E-08	6251449.5	5.48366369912401E-05
2	631	129.125603673989	0.253143310546875	0.253143310546875	4.119873046875E-08	1.04291819624791E-08	6144445	5.48408352187835E-05
2	632	129.226311673735	0.243072509765625	0.243072509765625	3.96728515625E-08	9.64337942832572E-09	6126923	5.48449061170686E-05
2	633	129.327019673481	0.233001708984375	0.233001708984375	3.75366210937506E-08	8.74609629164524E-09	6207317.5	5.48487951164134E-05
2	634	129.427727673226	0.222930908203125	0.22296142578125	3.38745117187497E-08	7.55270868069147E-09	6581982.5	5.48523894394748E-05
2	635	129.528435672972	0.212860107421875	0.212860107421875	2.96020507812494E-08	6.30109564525583E-09	7190721.5	5.48555872228462E-05
2	636	129.629143672718	0.202789306640625	0.2027587890625	2.44140625E-08	4.9501656107509E-09	8305000	5.48583047930151E-05
2	637	129.729851672464	0.192718505859375	0.192718505859375	1.678466796875E-08	3.2347160505708E-09	11481818	5.4860382078914E-05
2	638	129.830559672209	0.182647705078125	0.18267822265625	7.01904296875056E-09	1.28222621409435E-09	26026088	5.48615789739415E-05
2	639	129.931267671955	0.172576904296875	0.17266845703125	-6.40869140624972E-09	-1.10657882856913E-09	-26942858	5.4861608077772E-05
2	640	130.031975671701	0.162506103515625	0.162567138671875	-2.47192382812497E-08	-4.01853572640221E-09	-6576543	5.48600437468849E-05
2	641	130.132683671447	0.152435302734375	0.1524658203125	-5.00488281250003E-08	-7.63073515486212E-09	-3046341.5	5.48562784388196E-05
2	642	130.233391671192	0.142364501953125	0.142425537109375	-8.45336914062495E-08	-1.20397558589502E-08	-1684837.625	5.4849500884302E-05
2	643	130.334099670938	0.132293701171875	0.13232421875	-1.324462890625E-07	-1.75258509926834E-08	-999078.375	5.48385760339443E-05
2	644	130.434807670684	0.122222900390625	0.122283935546875	-1.97753906250001E-07	-2.41821265234421E-08	-618364.1875	5.4821946832817E-05
2	645	130.53551567043	0.112152099609375	0.112213134765625	-2.87475585937499E-07	-3.22585371748119E-08	-390339.6875	5.47975141671486E-05
2	646	130.636223670175	0.102081298828125	0.102142333984375	-4.06799316406251E-07	-4.15514307405829E-08	-251087.78125	5.47625568287913E-05
2	647	130.736931669921	0.092010498046875	0.092071533203125	-5.6304931640625E-07	-5.18408107552659E-08	-163523.046875	5.47137206012849E-05
2	648	130.837639669667	0.081939697265625	0.08203125	-7.568359375E-07	-6.20841973386632E-08	-108387.1015625	5.46472583664581E-05
2	649	130.938347669412	0.071868896484375	0.0718994140625	-9.857177734375E-07	-7.08725309550573E-08	-72941.1796875	5.45595139556099E-05
2	650	131.039055669158	0.061798095703125	0.06182861328125	-1.236572265625E-06	-7.64555423415914E-08	-50000.00390625	5.44476133654825E-05
2	651	131.139763668904	0.051727294921875	0.051788330078125	-1.49017333984375E-06	-7.71735884086411E-08	-34753.2265625	5.43103087693453E-05
2	652	131.24047166865	0.041656494140625	0.0417266845703125	-1.719970703125E-06	-7.17686745588253E-08	-24260.115234375	5.41486660949886E-05
2	653	131.341179668395	0.031585693359375	0.031689453125	-1.90460205078125E-06	-6.03557950284994E-08	-16638.361328125	5.39661559741944E-05
2	654	131.441887668141	0.021514892578125	0.0216217041015625	-2.02606201171875E-06	-4.38069136521335E-08	-10671.7880859375	5.37682280992158E-05
2	655	131.542595667887	0.011444091796875	0.0115570068359375	-2.08343505859375E-06	-2.40782735971834E-08	-5547.0927734375	5.35612998646684E-05
2	656	131.643303667633	0.001373291015625	0.00147094726562499	-2.08465576171875E-06	-3.0664186745355E-09	-705.606811523438	5.33514212293085E-05
2	657	131.744011667378	-0.008697509765625	-0.008624267578125	-2.044677734375E-06	1.76338481594485E-08	4217.91064453125	5.31434925505891E-05
2	658	131.844719667124	-0.018768310546875	-0.0186431884765625	-1.98028564453125E-06	3.69188377646879E-08	9414.39453125	5.29408171132673E-05
2	659	131.94542766687	-0.028839111328125	-0.0286865234375	-1.903076171875E-06	5.45926397421681E-08	15073.765625	5.27452757523861E-05
2	660	132.046135666616	-0.038909912109375	-0.038800048828125	-1.82342529296875E-06	7.07489888895907E-08	21278.662109375	5.25576324434951E-05
2	661	132.146843666361	-0.048980712890625	-0.048828125	-1.74713134765625E-06	8.53091464136924E-08	27947.599609375	5.23778398928698E-05
2	662	132.247551666107	-0.059051513671875	-0.0589599609375	-1.67694091796875E-06	9.88723698469585E-08	35159.23828125	5.22054251632653E-05
2	663	132.348259665853	-0.069122314453125	-0.06903076171875	-1.61346435546875E-06	1.11378668066209E-07	42784.1875	5.20397406944539E-05
2	664	132.448967665599	-0.079193115234375	-0.07916259765625	-1.5576171875E-06	1.23305014199104E-07	50822.88671875	5.18800625286531E-05
2	665	132.549675665344	-0.089263916015625	-0.08917236328125	-1.50848388671875E-06	1.3451506220008E-07	59113.90234375	5.17256703460589E-05
2	666	132.65038366509	-0.099334716796875	-0.099273681640625	-1.46636962890625E-06	1.45571902976371E-07	67700.3125	5.15758765686769E-05
2	667	132.751091664836	-0.109405517578125	-0.109344482421875	-1.4300537109375E-06	1.56368471948554E-07	76461.8046875	5.14300299983006E-05
2	668	132.851799664581	-0.119476318359375	-0.119415283203125	-1.39892578125E-06	1.67053116228999E-07	85362.1328125	5.12875776621513E-05
2	669	132.952507664327	-0.129547119140625	-0.12945556640625	-1.373291015625E-06	1.77780165699915E-07	94266.671875	5.11479884153232E-05
2	670	133.053215664073	-0.139617919921875	-0.139495849609375	-1.351318359375E-06	1.88503307185783E-07	103229.4453125	5.10107929585502E-05
2	671	133.153923663819	-0.149688720703125	-0.14959716796875	-1.3336181640625E-06	1.9950549301484E-07	112173.9140625	5.08755947521422E-05
2	672	133.254631663564	-0.159759521484375	-0.15966796875	-1.319580078125E-06	2.10694665270239E-07	120999.078125	5.07419972564094E-05
2	673	133.35533966331	-0.169830322265625	-0.169647216796875	-1.3092041015625E-06	2.22102826796799E-07	129580.421875	5.06096257595345E-05
2	674	133.456047663056	-0.179901123046875	-0.179779052734375	-1.30126953125E-06	2.33941008787042E-07	138156.65625	5.04781783092767E-05
2	675	133.556755662802	-0.189971923828125	-0.189788818359375	-1.29730224609375E-06	2.46213460286526E-07	146295	5.0347331125522E-05
2	676	133.657463662547	-0.200042724609375	-0.199859619140625	-1.29608154296875E-06	2.59034379723744E-07	154202.96875	5.02167422382627E-05
2	677	133.758171662293	-0.189971923828125	-0.189788818359375	-1.14044189453125E-06	2.16443126532795E-07	166416.90625	5.00940550409723E-05
