Potential - Start -0.2 V, Upper Vertex 1.5 V, Lower Vertex -0.2 V, Stop -0.19 V; Scan - # end cross 5, Rate 0.1 Vps, Step 0.01 V 
Scan	Index	Time (s)	Potential applied (V)	WE(1).Potential (V)	WE(1).Current (A)	WE(1).Power (W)	WE(1).Resistance (Ω)	WE(1).Charge (C)
1	1	53.2310018656046	-0.189971923828125	-0.189849853515625	-2.5054931640625E-07	4.75667505384081E-08	757734.5	0
1	2	53.3317098653504	-0.179901123046875	-0.17974853515625	-2.2430419921875E-07	4.03183477715174E-08	801360.5625	-2.39107720290122E-08
1	3	53.4324178650961	-0.169830322265625	-0.169677734375	-2.044677734375E-07	3.46936275263943E-08	829850.75	-4.55011566202757E-08
1	4	53.5331258648418	-0.159759521484375	-0.159637451171875	-1.873779296875E-07	2.99125346714391E-08	851954.4375	-6.5232150348038E-08
1	5	53.6338338645876	-0.149688720703125	-0.149566650390625	-1.739501953125E-07	2.60171457711067E-08	859824.625	-8.34264710647403E-08
1	6	53.7345418643333	-0.139617919921875	-0.139495849609375	-1.61132812500001E-07	2.24773568646697E-08	865719.75	-1.00299239136348E-07
1	7	53.8352498640791	-0.129547119140625	-0.12939453125	-1.48925781250001E-07	1.92701818946261E-08	868852.5	-1.15911930720358E-07
1	8	53.9359578638248	-0.119476318359375	-0.119354248046875	-1.3702392578125E-07	1.63543862896631E-08	871046.8125	-1.3031063872404E-07
1	9	54.0366658635705	-0.109405517578125	-0.1092529296875	-1.2542724609375E-07	1.37032944991233E-08	871046.1875	-1.43526108331571E-07
1	10	54.1373738633163	-0.099334716796875	-0.09930419921875	-1.1260986328125E-07	1.11826317095165E-08	881842.8125	-1.55512225319399E-07
1	11	54.238081863062	-0.089263916015625	-0.08917236328125	-9.85717773437506E-08	8.78987815866594E-09	904644	-1.66146065794237E-07
1	12	54.3387898628077	-0.079193115234375	-0.079132080078125	-8.20922851562503E-08	6.49613340897304E-09	963940.5	-1.75243229705302E-07
1	13	54.4394978625535	-0.069122314453125	-0.06903076171875	-6.103515625E-08	4.21330303979062E-09	1131000.125	-1.82450264674117E-07
1	14	54.5402058622992	-0.059051513671875	-0.05902099609375	-3.38745117187497E-08	1.99930738631338E-09	1742342.375	-1.8722934669313E-07
1	15	54.640913862045	-0.048980712890625	-0.048822021484375	3.0517578125E-09	-1.48992984616569E-10	-15998001	-1.88781399401705E-07
1	16	54.7416218617907	-0.038909912109375	-0.0387481689453125	5.37109374999997E-08	-2.08120032318959E-09	-721420.5	-1.85923170192837E-07
1	17	54.8423298615364	-0.028839111328125	-0.0287078857421875	1.220703125E-07	-3.50438034146805E-09	-235175.015625	-1.77071868279199E-07
1	18	54.9430378612822	-0.018768310546875	-0.0185943603515625	2.14538574218751E-07	-3.9892076308945E-09	-86671.40625	-1.60122269221574E-07
1	19	55.0437458610279	-0.008697509765625	-0.0085784912109375	3.3599853515625E-07	-2.88236035039802E-09	-25531.3359375	-1.32400529651022E-07
1	20	55.1444538607736	0.001373291015625	0.00148925781250001	4.9285888671875E-07	7.33993921198106E-10	3021.671875	-9.0664244112304E-08
1	21	55.2451618605194	0.011444091796875	0.0115966796875	6.84509277343751E-07	7.93803422993733E-09	16941.59765625	-3.13790486927701E-08
1	22	55.3458698602651	0.021514892578125	0.021661376953125	9.04541015625E-07	1.95936031843758E-08	23947.369140625	4.86359859053209E-08
1	23	55.4465778600108	0.031585693359375	0.03173828125	1.1383056640625E-06	3.61278651439534E-08	27882.0390625	1.51501481582272E-07
1	24	55.5472858597566	0.041656494140625	0.041802978515625	1.36627197265625E-06	5.71142386718293E-08	30596.3828125	2.77616976518402E-07
1	25	55.6479938595023	0.051727294921875	0.05181884765625	1.563720703125E-06	8.10302012155262E-08	33138.17578125	4.25153814376245E-07
1	26	55.7487018592481	0.061798095703125	0.061859130859375	1.71234130859375E-06	1.05923945170616E-07	36125.46875	5.90116655985184E-07
1	27	55.8494098589938	0.071868896484375	0.071929931640625	1.80206298828125E-06	1.29622264921636E-07	39915.328125	7.67080962305045E-07
1	28	55.9501178587395	0.081939697265625	0.082000732421875	1.83502197265625E-06	1.50473141502516E-07	44686.51171875	9.50222727169603E-07
1	29	56.0508258584853	0.092010498046875	0.092041015625	1.82159423828125E-06	1.67661383443374E-07	50527.7265625	1.13434794002387E-06
1	30	56.151533858231	0.102081298828125	0.10211181640625	1.77581787109375E-06	1.81331984094868E-07	57501.2890625	1.31549211346282E-06
1	31	56.2522418579767	0.112152099609375	0.1121826171875	1.71142578125E-06	1.91992214126913E-07	65549.21875	1.49108871028147E-06
1	32	56.3529498577225	0.122222900390625	0.122314453125	1.6387939453125E-06	2.00448184273228E-07	74636.875	1.6597856529188E-06
1	33	56.4536578574682	0.132293701171875	0.132354736328125	1.56494140625E-06	2.0712739967621E-07	84574.8828125	1.82110659352475E-06
1	34	56.554365857214	0.142364501953125	0.1424560546875	1.49444580078125E-06	2.12892842910151E-07	95323.671875	1.97515896616096E-06
1	35	56.6550738569597	0.152435302734375	0.152496337890625	1.4288330078125E-06	2.17891795273317E-07	106727.890625	2.12235772778513E-06
1	36	56.7557818567054	0.162506103515625	0.16259765625	1.36962890625E-06	2.22698446350478E-07	118716.578125	2.26327142627269E-06
1	37	56.8564898564512	0.172576904296875	0.17266845703125	1.31561279296875E-06	2.27164818511483E-07	131245.65625	2.39848418459587E-06
1	38	56.9571978561969	0.182647705078125	0.18267822265625	1.26739501953125E-06	2.31525461913407E-07	144136.78125	2.52854897553334E-06
1	39	57.0579058559426	0.192718505859375	0.192779541015625	1.22406005859375E-06	2.35973729445504E-07	157491.90625	2.65400353782752E-06
1	40	57.1586138556884	0.202789306640625	0.20281982421875	1.18499755859375E-06	2.40340966684016E-07	171156.328125	2.77530921266589E-06
1	41	57.2593218554341	0.212860107421875	0.212860107421875	1.15020751953125E-06	2.44833302076586E-07	185062.359375	2.89289619104238E-06
1	42	57.3600298551798	0.222930908203125	0.22296142578125	1.11846923828125E-06	2.49375489147496E-07	199345.171875	3.00713327305857E-06
1	43	57.4607378549256	0.233001708984375	0.233062744140625	1.09039306640625E-06	2.54130014809562E-07	213741.953125	3.11835833599616E-06
1	44	57.5614458546713	0.243072509765625	0.24310302734375	1.0650634765625E-06	2.58920152873543E-07	228252.15625	3.22689402310061E-06
1	45	57.6621538544171	0.253143310546875	0.253173828125	1.04156494140625E-06	2.63696989577511E-07	243070.609375	3.33297134602617E-06
1	46	57.7628618541628	0.263214111328125	0.263275146484375	1.0198974609375E-06	2.68513645096391E-07	258138.84375	3.43677402270259E-06
1	47	57.8635698539085	0.273284912109375	0.27325439453125	1.00128173828125E-06	2.73604626954693E-07	272904.625	3.53854852619406E-06
1	48	57.9642778536543	0.283355712890625	0.28338623046875	9.83581542968751E-07	2.78733466529957E-07	288116.65625	3.63849449058762E-06
1	49	58.0649858534	0.293426513671875	0.293426513671875	9.68017578125E-07	2.84041988152239E-07	303121.09375	3.73676516574051E-06
1	50	58.1656938531457	0.303497314453125	0.303466796875	9.53063964843751E-07	2.89223265781402E-07	318411.78125	3.83349924959475E-06
1	51	58.2664018528915	0.313568115234375	0.3135986328125	9.40551757812499E-07	2.94955725621548E-07	333419.875	3.92885067412863E-06
1	52	58.3671098526372	0.323638916015625	0.323577880859375	9.2926025390625E-07	3.00688071774857E-07	348210.1875	4.02300292989821E-06
1	53	58.467817852383	0.333709716796875	0.333770751953125	9.17968750000001E-07	3.06391115145743E-07	363597.0625	4.11601831729058E-06
1	54	58.5685258521287	0.343780517578125	0.343841552734375	9.0911865234375E-07	3.12592760565167E-07	378214.1875	4.20801961809047E-06
1	55	58.6692338518744	0.353851318359375	0.3538818359375	9.0057373046875E-07	3.18696663725859E-07	392951.5625	4.29914462074521E-06
1	56	58.7699418516202	0.363922119140625	0.363922119140625	8.93554687500001E-07	3.25184316807281E-07	407274.59375	4.38948609371437E-06
1	57	58.8706498513659	0.373992919921875	0.3740234375	8.8775634765625E-07	3.32041651063264E-07	421313.1875	4.47918228019262E-06
1	58	58.9713578511116	0.384063720703125	0.3841552734375	8.82873535156251E-07	3.39160521889426E-07	435119.28125	4.56834050055477E-06
1	59	59.0720658508574	0.394134521484375	0.39422607421875	8.795166015625E-07	3.46728370459459E-07	448230.40625	4.65708399133291E-06
1	60	59.1727738506031	0.404205322265625	0.40423583984375	8.770751953125E-07	3.54545221625813E-07	460890.75	4.74553553431178E-06
1	61	59.2734818503488	0.414276123046875	0.414276123046875	8.758544921875E-07	3.62845611334706E-07	472996.53125	4.8338024498662E-06
1	62	59.3741898500946	0.424346923828125	0.42431640625	8.758544921875E-07	3.7163943034102E-07	484459.9375	4.92200797452824E-06
1	63	59.4748978498403	0.434417724609375	0.4344482421875	8.7615966796875E-07	3.8064601426413E-07	495855.125	5.01022896060022E-06
1	64	59.5756058495861	0.444488525390625	0.444488525390625	8.770751953125E-07	3.89849873272397E-07	506784.96875	5.09851133756456E-06
1	65	59.6763138493318	0.454559326171875	0.454620361328125	8.7890625E-07	3.99568676812123E-07	517256.96875	5.18693195772357E-06
1	66	59.7770218490775	0.464630126953125	0.464630126953125	8.81042480468749E-07	4.09358875685939E-07	527364.0625	5.27555266671698E-06
1	67	59.8777298488233	0.474700927734375	0.47479248046875	8.84094238281249E-07	4.19761278180886E-07	537038.3125	5.36443440068979E-06
1	68	59.978437848569	0.484771728515625	0.484771728515625	8.8775634765625E-07	4.30359165193295E-07	546063.9375	5.45365401194431E-06
1	69	60.0791458483147	0.494842529296875	0.494842529296875	8.9263916015625E-07	4.41715826582367E-07	554359	5.54330381419277E-06
1	70	60.1798538480605	0.504913330078125	0.504913330078125	8.9752197265625E-07	4.5317079866436E-07	562563.75	5.63344565307489E-06
1	71	60.2805618478062	0.514984130859375	0.5150146484375	9.03930664062499E-07	4.6553751076317E-07	569750.1875	5.72415592614561E-06
1	72	60.3812698475519	0.525054931640625	0.52508544921875	9.1094970703125E-07	4.78326398933859E-07	576415.4375	5.81554240852711E-06
1	73	60.4819778472977	0.535125732421875	0.535064697265625	9.19189453124999E-07	4.91825801418599E-07	582104.9375	5.9076974139316E-06
1	74	60.5826858470434	0.545196533203125	0.545196533203125	9.28649902343751E-07	5.06296657931671E-07	587085.125	6.00074372414383E-06
1	75	60.6833938467892	0.555267333984375	0.55523681640625	9.3994140625E-07	5.21890058280405E-07	590714.3125	6.09483458902105E-06
1	76	60.7841018465349	0.565338134765625	0.5653076171875	9.53369140625E-07	5.38946835604293E-07	592957.75	6.19017055214499E-06
1	77	60.8848098462806	0.575408935546875	0.575408935546875	9.70458984375E-07	5.58410761186678E-07	592924.5625	6.28704265182023E-06
1	78	60.9855178460264	0.585479736328125	0.58544921875	9.9212646484375E-07	5.80839639496844E-07	590095.375	6.38586698187282E-06
1	79	61.0862258457721	0.595550537109375	0.595611572265625	1.02142333984375E-06	6.08371522048401E-07	583119.25	6.48725699647912E-06
1	80	61.1869338455178	0.605621337890625	0.605682373046875	1.0601806640625E-06	6.42132761186076E-07	571301.0625	6.59207398712169E-06
1	81	61.2876418452636	0.615692138671875	0.61566162109375	1.11419677734375E-06	6.85968132074777E-07	552561	6.70156259729993E-06
1	82	61.3883498450093	0.625762939453125	0.625732421875	1.18804931640625E-06	7.43400960345753E-07	526688.9375	6.81748997521936E-06
1	83	61.4890578447551	0.635833740234375	0.635833740234375	1.29058837890625E-06	8.20599609596684E-07	492669.6875	6.94229947839631E-06
1	84	61.5897658445008	0.645904541015625	0.645843505859375	1.4276123046875E-06	9.22014066873089E-07	452394.21875	7.07917160980287E-06
1	85	61.6904738442465	0.655975341796875	0.65594482421875	1.6046142578125E-06	1.05253843685205E-06	408786.625	7.23185621609446E-06
1	86	61.7911818439923	0.666046142578125	0.666046142578125	1.82647705078125E-06	1.21651794415811E-06	364661.65625	7.40462564863265E-06
1	87	61.891889843738	0.676116943359375	0.67608642578125	2.08526611328125E-06	1.40982001539669E-06	324220.71875	7.60159764467971E-06
1	88	61.9925978434837	0.686187744140625	0.6861572265625	2.36968994140625E-06	1.6259797348539E-06	289555.71875	7.8259226938826E-06
1	89	62.0933058432295	0.696258544921875	0.69622802734375	2.65838623046875E-06	1.85084297754656E-06	261898.75	8.07910600997275E-06
1	90	62.1940138429752	0.706329345703125	0.70623779296875	2.92694091796875E-06	2.06711615646782E-06	241288.71875	8.36034996609669E-06
1	91	62.2947218427209	0.716400146484375	0.716339111328125	3.1475830078125E-06	2.25473672799126E-06	227583.875	8.66622576722875E-06
1	92	62.3954298424667	0.726470947265625	0.726470947265625	3.30474853515625E-06	2.40080362345907E-06	219826.40625	8.9911272880272E-06
1	93	62.4961378422124	0.736541748046875	0.7364501953125	3.39263916015625E-06	2.49850972977583E-06	217072.96875	9.3283670139499E-06
1	94	62.5968458419582	0.746612548828125	0.746551513671875	3.41949462890625E-06	2.55282884609187E-06	218322.1875	9.67138566920767E-06
1	95	62.6975538417039	0.756683349609375	0.7562255859375	3.402099609375E-06	2.57275473813934E-06	222282.03125	1.00148799901945E-05
1	96	62.7982618414496	0.766754150390625	0.7672119140625	3.3612060546875E-06	2.57875717579736E-06	228254.953125	1.03554393717786E-05
1	97	62.8989698411954	0.776824951171875	0.77728271484375	3.31512451171875E-06	2.57678880188905E-06	234465.625	1.06916195363738E-05
1	98	62.9996778409411	0.786895751953125	0.7867431640625	3.282470703125E-06	2.58246132034401E-06	239680.1875	1.10238343040692E-05
1	99	63.1003858406868	0.796966552734375	0.797119140625	3.275146484375E-06	2.61068180407165E-06	243384.28125	1.13540363599895E-05
1	100	63.2010938404326	0.807037353515625	0.80718994140625	3.3062744140625E-06	2.66879123955732E-06	244138.828125	1.16854380394216E-05
1	101	63.3018018401783	0.817108154296875	0.8172607421875	3.38531494140625E-06	2.76668492915633E-06	241413.515625	1.2022385817545E-05
1	102	63.4025098399241	0.827178955078125	0.82733154296875	3.52020263671875E-06	2.91237461169658E-06	235023.84375	1.23701065604109E-05
1	103	63.5032178396698	0.837249755859375	0.83709716796875	3.709716796875E-06	3.10539348902239E-06	225649.890625	1.27341618281207E-05
1	104	63.6039258394155	0.847320556640625	0.84716796875	3.94683837890625E-06	3.34363494403078E-06	214644.71875	1.31197002701811E-05
1	105	63.7046338391613	0.857391357421875	0.85784912109375	4.2138671875E-06	3.61486218025675E-06	203577.640625	1.35306236188626E-05
1	106	63.805341838907	0.867462158203125	0.86761474609375	4.4873046875E-06	3.89325168725918E-06	193348.75	1.3968762687E-05
1	107	63.9060498386527	0.877532958984375	0.87799072265625	4.7344970703125E-06	4.15684462495847E-06	185445.40625	1.44331170304213E-05
1	108	64.0067578383985	0.887603759765625	0.8880615234375	4.931640625E-06	4.37960034105345E-06	180074.265625	1.49198458530009E-05
1	109	64.1074658381442	0.897674560546875	0.89813232421875	5.059814453125E-06	4.54438259112067E-06	177503.03125	1.54229564941488E-05
1	110	64.2081738378899	0.907745361328125	0.90728759765625	5.11474609375E-06	4.64054528492852E-06	177386.640625	1.59352857735939E-05
1	111	64.3088818376357	0.917816162109375	0.91796875	5.1055908203125E-06	4.68677262688288E-06	179796.765625	1.64499197126133E-05
1	112	64.4095898373814	0.927886962890625	0.92803955078125	5.0537109375E-06	4.69004362457781E-06	183635.265625	1.69614813785302E-05
1	113	64.5102978371272	0.937957763671875	0.9381103515625	4.98046875E-06	4.67222889710683E-06	188357.859375	1.74667438841425E-05
1	114	64.6110058368729	0.948028564453125	0.9478759765625	4.9029541015625E-06	4.64739241579082E-06	193327.53125	1.7964412108995E-05
1	115	64.7117138366186	0.958099365234375	0.95794677734375	4.84039306640625E-06	4.6368390940188E-06	197906.8125	1.84550299309194E-05
1	116	64.8124218363644	0.968170166015625	0.9686279296875	4.803466796875E-06	4.65277207695181E-06	201651.84375	1.8940636437037E-05
1	117	64.9131298361101	0.978240966796875	0.9783935546875	4.80255126953125E-06	4.6987852329039E-06	203723.703125	1.94243384612491E-05
1	118	65.0138378358558	0.988311767578125	0.98846435546875	4.84222412109375E-06	4.78636593470583E-06	204134.375	1.99099904421018E-05
1	119	65.1145458356016	0.998382568359375	0.99884033203125	4.9249267578125E-06	4.91921537104645E-06	202813.25	2.04018051590538E-05
1	120	65.2152538353473	1.00845336914063	1.00860595703125	5.0506591796875E-06	5.09412484461791E-06	199697.890625	2.09041172638535E-05
1	121	65.315961835093	1.01852416992188	1.0186767578125	5.2032470703125E-06	5.30042689206311E-06	195777.125	2.14204410440288E-05
1	122	65.4166698348388	1.02859497070313	1.02874755859375	5.3680419921875E-06	5.52235997020034E-06	191642.984375	2.19527482840931E-05
1	123	65.5173778345845	1.03866577148438	1.038818359375	5.5206298828125E-06	5.73493161937222E-06	188170.265625	2.25010371650569E-05
1	124	65.6180858343303	1.04873657226563	1.0491943359375	5.645751953125E-06	5.92349124417524E-06	185837.828125	2.30633086175658E-05
1	125	65.718793834076	1.05880737304688	1.05865478515625	5.7220458984375E-06	6.05767127126455E-06	185013.328125	2.36357227549888E-05
1	126	65.8195018338217	1.06887817382813	1.06903076171875	5.743408203125E-06	6.13988004261046E-06	186131.78125	2.42130536207696E-05
1	127	65.9202098335675	1.07894897460938	1.0784912109375	5.718994140625E-06	6.1678847487201E-06	188580.578125	2.47902316914406E-05
1	128	66.0209178333132	1.08901977539063	1.08917236328125	5.657958984375E-06	6.16249235463329E-06	192502.703125	2.53631060331827E-05
1	129	66.1216258330589	1.09909057617188	1.0992431640625	5.5755615234375E-06	6.1288974393392E-06	197153.8125	2.59287589869928E-05
1	130	66.2223338328047	1.10916137695313	1.10870361328125	5.4779052734375E-06	6.07337324254331E-06	202395.546875	2.64853460976155E-05
1	131	66.3230418325504	1.11923217773438	1.1199951171875	5.38330078125E-06	6.02927048021229E-06	208049.890625	2.70322507276433E-05
1	132	66.4237498322962	1.12930297851563	1.12945556640625	5.28564453125E-06	5.96990048506996E-06	213683.609375	2.75694746960653E-05
1	133	66.5244578320419	1.13937377929688	1.13922119140625	5.1971435546875E-06	5.92069591220934E-06	219201.421875	2.80973254120909E-05
1	134	66.6251658317876	1.14944458007813	1.14959716796875	5.11474609375E-06	5.87989734412986E-06	224761.34375	2.86165704892483E-05
1	135	66.7258738315334	1.15951538085938	1.1590576171875	5.04150390625E-06	5.84339341003215E-06	229903.15625	2.91279775410658E-05
1	136	66.8265818312791	1.16958618164063	1.16943359375	4.9774169921875E-06	5.82075836064178E-06	234947.90625	2.96324706141604E-05
1	137	66.9272898310248	1.17965698242188	1.18011474609375	4.923095703125E-06	5.80981804887415E-06	239709.890625	3.01310010399902E-05
1	138	67.0279978307706	1.18972778320313	1.18988037109375	4.881591796875E-06	5.808510195493E-06	243748.4375	3.06247056869324E-05
1	139	67.1287058305163	1.19979858398438	1.199951171875	4.85107421875E-06	5.82105212743045E-06	247357.828125	3.11147850879934E-05
1	140	67.229413830262	1.20986938476563	1.21002197265625	4.8345947265625E-06	5.84996587349451E-06	250284.0625	3.16024961648509E-05
1	141	67.3301218300078	1.21994018554688	1.2200927734375	4.835205078125E-06	5.89939872952527E-06	252335.28125	3.20894105243497E-05
1	142	67.4308298297535	1.23001098632813	1.23016357421875	4.85595703125E-06	5.97362122789491E-06	253330.828125	3.25773980875965E-05
1	143	67.5315378294993	1.24008178710938	1.24053955078125	4.9029541015625E-06	6.08230857324088E-06	253018.796875	3.30687980749644E-05
1	144	67.632245829245	1.25015258789063	1.25030517578125	4.9774169921875E-06	6.22328980171005E-06	251195.609375	3.35663171426859E-05
1	145	67.7329538289907	1.26022338867188	1.2603759765625	5.078125E-06	6.4003465922724E-06	248197.109375	3.40726510330569E-05
1	146	67.8336618287365	1.27029418945313	1.270751953125	5.1971435546875E-06	6.60427986076684E-06	244509.703125	3.45900516549591E-05
1	147	67.9343698284822	1.28036499023438	1.280517578125	5.3253173828125E-06	6.81916208122857E-06	240458.46875	3.51199014403392E-05
1	148	68.0350778282279	1.29043579101563	1.29058837890625	5.4534912109375E-06	7.03821251590853E-06	236653.609375	3.56626587745268E-05
1	149	68.1357858279737	1.30050659179688	1.3006591796875	5.5694580078125E-06	7.24396613804856E-06	233534.265625	3.62177052011248E-05
1	150	68.2364938277194	1.31057739257813	1.3104248046875	5.670166015625E-06	7.43032614991535E-06	231108.71875	3.6783665564144E-05
1	151	68.3372018274652	1.32064819335938	1.32080078125	5.74951171875E-06	7.59395970817422E-06	229723.984375	3.73586917703506E-05
1	152	68.4379098272109	1.33071899414063	1.33056640625	5.804443359375E-06	7.72319708630675E-06	229232.390625	3.79404809791595E-05
1	153	68.5386178269566	1.34078979492188	1.34033203125	5.841064453125E-06	7.82896586315474E-06	229467.09375	3.8526879507117E-05
1	154	68.6393258267024	1.35086059570313	1.35040283203125	5.8563232421875E-06	7.90839567343937E-06	230588.84375	3.9115890103858E-05
1	155	68.7400338264481	1.36093139648438	1.36077880859375	5.8563232421875E-06	7.96916083345423E-06	232360.609375	3.97056683141273E-05
1	156	68.8407418261938	1.37100219726563	1.370849609375	5.84716796875E-06	8.01558780949563E-06	234446.765625	4.0294984501088E-05
1	157	68.9414498259396	1.38107299804688	1.38092041015625	5.828857421875E-06	8.04918818175793E-06	236911	4.08829182561021E-05
1	158	69.0421578256853	1.39114379882813	1.3909912109375	5.804443359375E-06	8.07393007562496E-06	239642.484375	4.14687019656412E-05
1	159	69.142865825431	1.40121459960938	1.40106201171875	5.7830810546875E-06	8.10245455795666E-06	242269.140625	4.20521828345954E-05
1	160	69.2435738251768	1.41128540039063	1.41143798828125	5.76171875E-06	8.13230872154236E-06	244968.234375	4.2633506382117E-05
1	161	69.3442818249225	1.42135620117188	1.42120361328125	5.7464599609375E-06	8.16688952909317E-06	247318.109375	4.32129927503411E-05
1	162	69.4449898246683	1.43142700195313	1.4312744140625	5.7342529296875E-06	8.20728928374592E-06	249600.859375	4.37910894106608E-05
1	163	69.545697824414	1.44149780273438	1.44134521484375	5.7281494140625E-06	8.25624010758474E-06	251624.953125	4.43682693003211E-05
1	164	69.6464058241597	1.45156860351563	1.45172119140625	5.731201171875E-06	8.32010573503794E-06	253301.390625	4.49452927568927E-05
1	165	69.7471138239055	1.46163940429688	1.4617919921875	5.7373046875E-06	8.38674532133155E-06	254787.25	4.55227782367729E-05
1	166	69.8478218236512	1.47171020507813	1.47216796875	5.74951171875E-06	8.46424700284842E-06	256050.953125	4.61011841252912E-05
1	167	69.9485298233969	1.48178100585938	1.48162841796875	5.7708740234375E-06	8.55029065860435E-06	256742.46875	4.66812816739548E-05
1	168	70.0492378231427	1.49185180664063	1.49169921875	5.804443359375E-06	8.65848323883256E-06	256992.640625	4.72641477244906E-05
1	169	70.1499458228884	1.50192260742188	1.50177001953125	5.853271484375E-06	8.79026720213005E-06	256569.34375	4.78511574328877E-05
1	170	70.2506538226341	1.49185180664063	1.49200439453125	5.5084228515625E-06	8.21859157440485E-06	270858.71875	4.84232659800909E-05
1	171	70.3513618223799	1.48178100585938	1.4825439453125	5.26123046875E-06	7.80000482336618E-06	281786.53125	4.89655612909701E-05
1	172	70.4520698221256	1.47171020507813	1.47186279296875	5.072021484375E-06	7.46531941331341E-06	290192.53125	4.94858795718756E-05
1	173	70.5527778218714	1.46163940429688	1.4617919921875	4.91424560546875E-06	7.1836047936813E-06	297460.125	4.99887282785494E-05
1	174	70.6534858216171	1.45156860351563	1.45111083984375	4.78515625E-06	6.94379241394927E-06	303252.5625	5.04771342093591E-05
1	175	70.7541938213628	1.44149780273438	1.44134521484375	4.67529296875E-06	6.73871136314119E-06	308289.8125	5.09535057062749E-05
1	176	70.8549018211086	1.43142700195313	1.4312744140625	4.578857421875E-06	6.553601451742E-06	312583.3125	5.14194871357176E-05
1	177	70.9556098208543	1.42135620117188	1.42120361328125	4.49188232421875E-06	6.38387882645475E-06	316393.8125	5.1876235374948E-05
1	178	71.0563178206	1.41128540039063	1.41143798828125	4.4097900390625E-06	6.22414518147707E-06	320069.1875	5.23244707437698E-05
1	179	71.1570258203458	1.40121459960938	1.40106201171875	4.32830810546875E-06	6.06422781856963E-06	323697.375	5.27644697285723E-05
1	180	71.2577338200915	1.39114379882813	1.3909912109375	4.24560546875E-06	5.90559966440196E-06	327630.8125	5.31961995875463E-05
1	181	71.3584418198373	1.38107299804688	1.380615234375	4.156494140625E-06	5.73851912122336E-06	332158.59375	5.3619278332917E-05
1	182	71.459149819583	1.37100219726563	1.37115478515625	4.0582275390625E-06	5.56445820620866E-06	337870.34375	5.4032923799241E-05
1	183	71.5598578193287	1.36093139648438	1.361083984375	3.94561767578125E-06	5.37031701242086E-06	344960.9375	5.4435950005427E-05
1	184	71.6605658190745	1.35086059570313	1.35040283203125	3.81622314453125E-06	5.15343845108873E-06	353858.46875	5.48267889826093E-05
1	185	71.7612738188202	1.34078979492188	1.3409423828125	3.6688232421875E-06	4.9196805775864E-06	365496.59375	5.52036908629816E-05
1	186	71.8619818185659	1.33071899414063	1.33087158203125	3.504638671875E-06	4.66422352474183E-06	379745.75	5.55649021407589E-05
1	187	71.9626898183117	1.32064819335938	1.32080078125	3.3270263671875E-06	4.39433870269568E-06	396991.40625	5.59089057787787E-05
1	188	72.0633978180574	1.31057739257813	1.31103515625	3.1427001953125E-06	4.12019016948761E-06	417168.40625	5.6234683142975E-05
1	189	72.1641058178031	1.30050659179688	1.30035400390625	2.95928955078125E-06	3.84812392439926E-06	439414.25	5.65419395570643E-05
1	190	72.2648138175489	1.29043579101563	1.2908935546875	2.78778076171875E-06	3.59872797162097E-06	463054.21875	5.6831329857232E-05
1	191	72.3655218172946	1.28036499023438	1.280517578125	2.63671875E-06	3.37636447511613E-06	485648.1875	5.71044729440473E-05
1	192	72.4662298170404	1.27029418945313	1.2701416015625	2.5146484375E-06	3.19395962833369E-06	505097.0625	5.73638644709717E-05
1	193	72.5669378167861	1.26022338867188	1.2603759765625	2.425537109375E-06	3.0570886337955E-06	519627.59375	5.76126258238219E-05
1	194	72.6676458165318	1.25015258789063	1.24969482421875	2.366943359375E-06	2.95795689453371E-06	527978.3125	5.78539438720327E-05
1	195	72.7683538162776	1.24008178710938	1.23992919921875	2.3345947265625E-06	2.89473200609791E-06	531111.125	5.80906853429042E-05
1	196	72.8690618160233	1.23001098632813	1.2298583984375	2.32147216796875E-06	2.85508190245309E-06	529775.25	5.8325138525106E-05
1	197	72.969769815769	1.21994018554688	1.219482421875	2.32025146484375E-06	2.82950600194454E-06	525582	5.85588677495252E-05
1	198	73.0704778155148	1.20986938476563	1.20941162109375	2.32391357421875E-06	2.81056804851687E-06	520420.21875	5.87927206652239E-05
1	199	73.1711858152605	1.19979858398438	1.1993408203125	2.330322265625E-06	2.79485038845451E-06	514667.40625	5.90270792599767E-05
1	200	73.2718938150063	1.18972778320313	1.18927001953125	2.3358154296875E-06	2.77791536973382E-06	509145.53125	5.92620381212328E-05
1	201	73.372601814752	1.17965698242188	1.1798095703125	2.33856201171875E-06	2.75905767921358E-06	504502.1875	5.94974117120728E-05
1	202	73.4733098144977	1.16958618164063	1.16973876953125	2.33642578125E-06	2.73300770459173E-06	500653.09375	5.97328144067433E-05
1	203	73.5740178142435	1.15951538085938	1.15936279296875	2.32940673828125E-06	2.70062741947186E-06	497707.34375	5.99677587160841E-05
1	204	73.6747258139892	1.14944458007813	1.14959716796875	2.3162841796875E-06	2.66279357674648E-06	496310.96875	6.02016880293377E-05
1	205	73.7754338137349	1.13937377929688	1.13922119140625	2.2943115234375E-06	2.61372838394891E-06	496541.625	6.0433849284891E-05
1	206	73.8761418134807	1.12930297851563	1.12945556640625	2.26318359375E-06	2.55616510003165E-06	499056.125	6.06633366260212E-05
1	207	73.9768498132264	1.11923217773438	1.1187744140625	2.21954345703125E-06	2.48316837314633E-06	504056.125	6.08890622970648E-05
1	208	74.0775578129721	1.10916137695313	1.1090087890625	2.16094970703125E-06	2.39651217270875E-06	513204.375	6.11096329521388E-05
1	209	74.1782658127179	1.09909057617188	1.0986328125	2.08160400390625E-06	2.28691851589247E-06	527781.875	6.13232623436488E-05
1	210	74.2789738124636	1.08901977539063	1.0894775390625	1.9775390625E-06	2.15448449125688E-06	550925.9375	6.15276585449465E-05
1	211	74.3796818122094	1.07894897460938	1.07879638671875	1.8438720703125E-06	1.98916245608416E-06	585071.1875	6.17200857959688E-05
1	212	74.4803898119551	1.06887817382813	1.06903076171875	1.6778564453125E-06	1.79368009867176E-06	637140.8125	6.18974154349416E-05
1	213	74.5810978117008	1.05880737304688	1.0589599609375	1.480712890625E-06	1.56801559114683E-06	715169	6.20564605924301E-05
1	214	74.6818058114466	1.04873657226563	1.0491943359375	1.25885009765625E-06	1.3207783240432E-06	833454.5625	6.2194412748795E-05
1	215	74.7825138111923	1.03866577148438	1.038818359375	1.0260009765625E-06	1.06582865555538E-06	1012492.5625	6.23094601905905E-05
1	216	74.883221810938	1.02859497070313	1.029052734375	8.0078125E-07	8.24046082925634E-07	1285061	6.24014501227066E-05
1	217	74.9839298106838	1.01852416992188	1.0186767578125	6.0150146484375E-07	6.12735505001183E-07	1693556.625	6.24720560153946E-05
1	218	75.0846378104295	1.00845336914063	1.0089111328125	4.4586181640625E-07	4.49834942628513E-07	2262833.75	6.25247994321398E-05
1	219	75.1853458101752	0.998382568359375	0.99853515625	3.42407226562499E-07	3.41905632694761E-07	2916221	6.25644897809252E-05
1	220	75.286053809921	0.988311767578125	0.98846435546875	2.886962890625E-07	2.85365985064345E-07	3423890.25	6.2596271163784E-05
1	221	75.3867618096667	0.978240966796875	0.97747802734375	2.76794433593749E-07	2.70560462922731E-07	3531422.5	6.26247419859283E-05
1	222	75.4874698094125	0.968170166015625	0.968017578125	2.91748046875E-07	2.82417232710941E-07	3317991.5	6.26533728791401E-05
1	223	75.5881778091582	0.958099365234375	0.9576416015625	3.18298339843751E-07	3.04815728213725E-07	3008629	6.26840919721872E-05
1	224	75.6888858089039	0.948028564453125	0.94818115234375	3.35693359375E-07	3.18298106094517E-07	2824545.5	6.2717022956349E-05
1	225	75.7895938086497	0.937957763671875	0.938720703125	3.28674316406249E-07	3.08533373072351E-07	2856081.75	6.2750477809459E-05
1	226	75.8903018083954	0.927886962890625	0.9283447265625	2.8350830078125E-07	2.63193413729823E-07	3274489	6.27812987659127E-05
1	227	75.9910098081411	0.917816162109375	0.91766357421875	1.90124511718751E-07	1.74470343949906E-07	4826645.5	6.28051493549719E-05
1	228	76.0917178078869	0.907745361328125	0.90789794921875	4.36401367187506E-08	3.96207902042534E-08	20804196	6.28169218543917E-05
1	229	76.1924258076326	0.897674560546875	0.8978271484375	-1.61132812500001E-07	-1.44669400015118E-07	-5571970	6.28110065008514E-05
1	230	76.2931338073784	0.887603759765625	0.8880615234375	-4.14123535156249E-07	-3.67767171383093E-07	-2144436.25	6.27820409135893E-05
1	231	76.3938418071241	0.877532958984375	0.87738037109375	-7.0343017578125E-07	-6.17175828665495E-07	-1247288.5	6.27257613814436E-05
1	232	76.4945498068698	0.867462158203125	0.86761474609375	-1.0028076171875E-06	-8.70050655521482E-07	-865185.625	6.26398468739353E-05
1	233	76.5952578066156	0.857391357421875	0.85784912109375	-1.28814697265625E-06	-1.10503572159359E-06	-665956	6.252449384192E-05
1	234	76.6959658063613	0.847320556640625	0.84747314453125	-1.5252685546875E-06	-1.29262411974196E-06	-555622.25	6.23828236712143E-05
1	235	76.796673806107	0.837249755859375	0.83770751953125	-1.697998046875E-06	-1.42242561196326E-06	-493350.125	6.22205188847147E-05
1	236	76.8973818058528	0.827178955078125	0.82733154296875	-1.7938232421875E-06	-1.48408651057252E-06	-461211.3125	6.2044695368968E-05
1	237	76.9980898055985	0.817108154296875	0.8172607421875	-1.8206787109375E-06	-1.48796925714123E-06	-448876.96875	6.18626872892492E-05
1	238	77.0987978053442	0.807037353515625	0.806884765625	-1.79046630859375E-06	-1.44469993301755E-06	-450656.21875	6.16808538325131E-05
1	239	77.19950580509	0.796966552734375	0.79681396484375	-1.7266845703125E-06	-1.37584640924615E-06	-461470.5	6.15037497482263E-05
1	240	77.3002138048357	0.786895751953125	0.787353515625	-1.650390625E-06	-1.29944078253175E-06	-477071.03125	6.13337033428252E-05
1	241	77.4009218045815	0.776824951171875	0.7769775390625	-1.58050537109375E-06	-1.22801714041998E-06	-491600.71875	6.1171012930572E-05
1	242	77.5016298043272	0.766754150390625	0.7672119140625	-1.53076171875E-06	-1.17441857128142E-06	-501196.1875	6.10143470112234E-05
1	243	77.6023378040729	0.756683349609375	0.75653076171875	-1.51580810546875E-06	-1.14675549411913E-06	-499094.03125	6.0860940720886E-05
1	244	77.7030458038187	0.746612548828125	0.746551513671875	-1.5447998046875E-06	-1.15327259209153E-06	-483267.5	6.07068250246812E-05
1	245	77.8037538035644	0.736541748046875	0.73651123046875	-1.6229248046875E-06	-1.19530227493669E-06	-453817.25	6.05473178438842E-05
1	246	77.9044618033101	0.726470947265625	0.726409912109375	-1.7523193359375E-06	-1.27290206819453E-06	-414542	6.03773623879533E-05
1	247	78.0051698030559	0.716400146484375	0.71636962890625	-1.9281005859375E-06	-1.38123266424373E-06	-371541.625	6.01920364715625E-05
1	248	78.1058778028016	0.706329345703125	0.706329345703125	-2.13531494140625E-06	-1.50823552758084E-06	-330784.625	5.9987429267494E-05
1	249	78.2065858025474	0.696258544921875	0.696197509765625	-2.3516845703125E-06	-1.63723689183826E-06	-296042.0625	5.97614889557008E-05
1	250	78.3072938022931	0.686187744140625	0.6861572265625	-2.547607421875E-06	-1.74805927599664E-06	-269333.96875	5.95147903368343E-05
1	251	78.4080018020388	0.676116943359375	0.67608642578125	-2.6983642578125E-06	-1.8243273416374E-06	-250554.1875	5.92506366956513E-05
1	252	78.5087098017846	0.666046142578125	0.666015625	-2.784423828125E-06	-1.85446970135672E-06	-239193.34375	5.897455412196E-05
1	253	78.6094178015303	0.655975341796875	0.65594482421875	-2.802734375E-06	-1.83843906143011E-06	-234037.453125	5.86932183068711E-05
1	254	78.710125801276	0.645904541015625	0.645843505859375	-2.7587890625E-06	-1.78174593656877E-06	-234104	5.84131739742588E-05
1	255	78.8108338010218	0.635833740234375	0.635833740234375	-2.66998291015625E-06	-1.69766519775294E-06	-238141.5	5.81398126087151E-05
1	256	78.9115418007675	0.625762939453125	0.625732421875	-2.55340576171875E-06	-1.59774867825035E-06	-245057.96875	5.787679401692E-05
1	257	79.0122498005132	0.615692138671875	0.61572265625	-2.42431640625E-06	-1.49270647398225E-06	-253977.859375	5.76261481910478E-05
1	258	79.112957800259	0.605621337890625	0.6055908203125	-2.2930908203125E-06	-1.38867471832782E-06	-264093.6875	5.73886063648388E-05
1	259	79.2136658000047	0.595550537109375	0.595489501953125	-2.1661376953125E-06	-1.28991223391495E-06	-274908.4375	5.71640666748863E-05
1	260	79.3143737997505	0.585479736328125	0.585479736328125	-2.04742431640625E-06	-1.19872538562049E-06	-285959.15625	5.69518961128779E-05
1	261	79.4150817994962	0.575408935546875	0.575408935546875	-1.9366455078125E-06	-1.11436315819446E-06	-297116.28125	5.67512834095396E-05
1	262	79.5157897992419	0.565338134765625	0.56536865234375	-1.8353271484375E-06	-1.0376363661635E-06	-308047.90625	5.65613481740002E-05
1	263	79.6164977989877	0.555267333984375	0.555267333984375	-1.7437744140625E-06	-9.6826101980696E-07	-318428.40625	5.63811263418756E-05
1	264	79.7172057987334	0.545196533203125	0.545257568359375	-1.65924072265625E-06	-9.04713488125708E-07	-328618.75	5.6209770264104E-05
1	265	79.8179137984791	0.535125732421875	0.53515625	-1.58294677734375E-06	-8.47123828862095E-07	-338075.96875	5.60465159651358E-05
1	266	79.9186217982249	0.525054931640625	0.525054931640625	-1.51275634765625E-06	-7.94280140326009E-07	-347084.9375	5.58906322112307E-05
1	267	80.0193297979706	0.514984130859375	0.51495361328125	-1.4483642578125E-06	-7.45840338822745E-07	-355541.53125	5.5741529649822E-05
1	268	80.1200377977163	0.504913330078125	0.504913330078125	-1.38885498046875E-06	-7.01251337886788E-07	-363546.5	5.55986625840887E-05
1	269	80.2207457974621	0.494842529296875	0.49481201171875	-1.33392333984375E-06	-6.60041223454755E-07	-370944.875	5.54615617147647E-05
1	270	80.3214537972078	0.484771728515625	0.484771728515625	-1.28326416015625E-06	-6.22090169599687E-07	-377764.5625	5.53297759324778E-05
1	271	80.4221617969536	0.474700927734375	0.474761962890625	-1.23565673828125E-06	-5.86642784128344E-07	-384218.34375	5.52029378013685E-05
1	272	80.5228697966993	0.464630126953125	0.46466064453125	-1.19140625E-06	-5.53599591057718E-07	-390010.25	5.50807271793019E-05
1	273	80.623577796445	0.454559326171875	0.454620361328125	-1.1505126953125E-06	-5.2304648079371E-07	-395145.90625	5.496280209627E-05
1	274	80.7242857961908	0.444488525390625	0.444549560546875	-1.1126708984375E-06	-4.94637333758874E-07	-399533.75	5.48488387721591E-05
1	275	80.8249937959365	0.434417724609375	0.434356689453125	-1.07666015625E-06	-4.67654558633512E-07	-403429.6875	5.47385971003678E-05
1	276	80.9257017956822	0.424346923828125	0.42437744140625	-1.04278564453125E-06	-4.42534684452767E-07	-406965.1875	5.46318769920617E-05
1	277	81.026409795428	0.414276123046875	0.414306640625	-1.0113525390625E-06	-4.19010063978931E-07	-409656	5.45284419786185E-05
1	278	81.1271177951737	0.404205322265625	0.4041748046875	-9.8114013671875E-07	-3.96552138681727E-07	-411944	5.44281101610977E-05
1	279	81.2278257949195	0.394134521484375	0.3941650390625	-9.51538085937501E-07	-3.75063052615587E-07	-414239.90625	5.4330794228008E-05
1	280	81.3285337946652	0.384063720703125	0.38409423828125	-9.2376708984375E-07	-3.54813607827964E-07	-415791.21875	5.42363632121123E-05
1	281	81.4292417944109	0.373992919921875	0.3740234375	-8.9752197265625E-07	-3.35694238629003E-07	-416729.03125	5.41446570423432E-05
1	282	81.5299497941567	0.363922119140625	0.363922119140625	-8.7249755859375E-07	-3.17521141823818E-07	-417103.90625	5.40555265615694E-05
1	283	81.6306577939024	0.353851318359375	0.353912353515625	-8.47473144531249E-07	-2.99931201652726E-07	-417608.9375	5.39689208380878E-05
1	284	81.7313657936481	0.343780517578125	0.34381103515625	-8.251953125E-07	-2.83711244719598E-07	-416642.03125	5.3884694352746E-05
1	285	81.8320737933939	0.333709716796875	0.333770751953125	-8.026123046875E-07	-2.67888509597469E-07	-415855.5	5.38027270522434E-05
1	286	81.9327817931396	0.323638916015625	0.323699951171875	-7.81860351562499E-07	-2.53088131785262E-07	-414012.5	5.37229425390251E-05
1	287	82.0334897928853	0.313568115234375	0.31365966796875	-7.62023925781249E-07	-2.39016145542337E-07	-411613.96875	5.36452025698964E-05
1	288	82.1341977926311	0.303497314453125	0.303497314453125	-7.4310302734375E-07	-2.25529760200516E-07	-408418.90625	5.35694125574082E-05
1	289	82.2349057923768	0.293426513671875	0.29339599609375	-7.25708007812501E-07	-2.129198151124E-07	-404289.3125	5.349545244826E-05
1	290	82.3356137921226	0.283355712890625	0.283416748046875	-7.0831298828125E-07	-2.00747763301479E-07	-400129.25	5.34232458448969E-05
1	291	82.4363217918683	0.273284912109375	0.2733154296875	-6.927490234375E-07	-1.89338990708166E-07	-394537.46875	5.3352694521891E-05
1	292	82.537029791614	0.263214111328125	0.263214111328125	-6.77490234375E-07	-1.78324981447986E-07	-388513.53125	5.32837002538145E-05
1	293	82.6377377913598	0.253143310546875	0.253204345703125	-6.640625E-07	-1.68143515111296E-07	-381295.96875	5.32161466253456E-05
1	294	82.7384457911055	0.243072509765625	0.24310302734375	-6.512451171875E-07	-1.5831965072266E-07	-373289.59375	5.31499135831837E-05
1	295	82.8391537908512	0.233001708984375	0.233062744140625	-6.4056396484375E-07	-1.49291594198075E-07	-363839.9375	5.30848665221129E-05
1	296	82.939861790597	0.222930908203125	0.22296142578125	-6.304931640625E-07	-1.40575650675601E-07	-353630.21875	5.30208635609597E-05
1	297	83.0405697903427	0.212860107421875	0.212890625	-6.21337890625E-07	-1.32277008901838E-07	-342632.625	5.29578283021692E-05
1	298	83.1412777900885	0.202789306640625	0.202789306640625	-6.146240234375E-07	-1.24639171872332E-07	-329940.4375	5.28955933987163E-05
1	299	83.2419857898342	0.192718505859375	0.1927490234375	-6.1004638671875E-07	-1.17585841508117E-07	-315958	5.28339260199573E-05
1	300	83.3426937895799	0.182647705078125	0.182708740234375	-6.0760498046875E-07	-1.11014742287807E-07	-300703.15625	5.27726151631214E-05
1	301	83.4434017893257	0.172576904296875	0.172576904296875	-6.07910156249999E-07	-1.04911244136474E-07	-283885.5625	5.27114061696921E-05
1	302	83.5441097890714	0.162506103515625	0.16253662109375	-6.12792968750001E-07	-9.960130142872E-08	-265239.03125	5.26499388797674E-05
1	303	83.6448177888171	0.152435302734375	0.15252685546875	-6.2255859375E-07	-9.49569027852704E-08	-245000.015625	5.25877367181238E-05
1	304	83.7455257885629	0.142364501953125	0.1424560546875	-6.39953613281249E-07	-9.11652691115705E-08	-222603.71875	5.25241630384699E-05
1	305	83.8462337883086	0.132293701171875	0.132354736328125	-6.66198730468751E-07	-8.81745592096195E-08	-198671.546875	5.24583920196164E-05
1	306	83.9469417880543	0.122222900390625	0.122314453125	-7.04345703125001E-07	-8.61516582517652E-08	-173656.859375	5.23893795616459E-05
1	307	84.0476497878001	0.112152099609375	0.112213134765625	-7.59277343750001E-07	-8.5200888122472E-08	-147789.390625	5.23156813869718E-05
1	308	84.1483577875458	0.102081298828125	0.102142333984375	-8.343505859375E-07	-8.52225099379211E-08	-122421.3671875	5.2235434850445E-05
1	309	84.2490657872916	0.092010498046875	0.092071533203125	-9.36279296875001E-07	-8.62046647398529E-08	-98337.6796875	5.21462789038196E-05
1	310	84.3497737870373	0.081939697265625	0.082000732421875	-1.0687255859375E-06	-8.76362733492897E-08	-76727.5859375	5.20453177159652E-05
1	311	84.450481786783	0.071868896484375	0.07196044921875	-1.23626708984375E-06	-8.89623308353293E-08	-58207.8515625	5.19292516401038E-05
1	312	84.5511897865288	0.061798095703125	0.0618896484375	-1.435546875E-06	-8.88454891878609E-08	-43112.24609375	5.17947155458387E-05
1	313	84.6518977862745	0.051727294921875	0.051849365234375	-1.66015625E-06	-8.60780460243404E-08	-31231.619140625	5.16388354299124E-05
1	314	84.7526057860202	0.041656494140625	0.041802978515625	-1.890869140625E-06	-7.90439642628371E-08	-22107.8125	5.14600251335651E-05
1	315	84.853313785766	0.031585693359375	0.0316925048828125	-2.10784912109375E-06	-6.68030182282564E-08	-15035.4716796875	5.1258673920529E-05
1	316	84.9540217855117	0.021514892578125	0.0216278076171875	-2.28790283203125E-06	-4.94823240160258E-08	-9453.115234375	5.10373320139479E-05
1	317	85.0547297852575	0.011444091796875	0.0115631103515625	-2.4169921875E-06	-2.79479461795518E-08	-4784.0908203125	5.08004195580725E-05
1	318	85.1554377850032	0.001373291015625	0.00148620605468749	-2.489013671875E-06	-3.69918717879614E-09	-597.1064453125	5.05533826071769E-05
1	319	85.2561457847489	-0.008697509765625	-0.008526611328125	-2.50885009765625E-06	2.13919886249414E-08	3398.61328125	5.03017217852175E-05
1	320	85.3568537844947	-0.018768310546875	-0.0186187744140625	-2.48870849609375E-06	4.63366980341107E-08	7481.2998046875	5.00500755151734E-05
1	321	85.4575617842404	-0.028839111328125	-0.0286895751953125	-2.4432373046875E-06	7.00954387866659E-08	11742.443359375	4.98017288919073E-05
1	322	85.5582697839861	-0.038909912109375	-0.0387298583984375	-2.38372802734375E-06	9.23214429349173E-08	16247.6005859375	4.95586718898267E-05
1	323	85.6589777837319	-0.048980712890625	-0.048809814453125	-2.31964111328125E-06	1.13221247488582E-07	21041.96875	4.9321839469485E-05
1	324	85.7596857834776	-0.059051513671875	-0.05902099609375	-2.2552490234375E-06	1.33107036504043E-07	26170.5	4.90914753754623E-05
1	325	85.8603937832233	-0.069122314453125	-0.069000244140625	-2.1954345703125E-06	1.51485522792427E-07	31428.970703125	4.88673649670091E-05
1	326	85.9611017829691	-0.079193115234375	-0.0791015625	-2.14080810546875E-06	1.69341248579258E-07	36949.3984375	4.8649020754965E-05
1	327	86.0618097827148	-0.089263916015625	-0.08917236328125	-2.0916748046875E-06	1.86519585554379E-07	42632.0390625	4.84358970425092E-05
1	328	86.1625177824606	-0.099334716796875	-0.09918212890625	-2.04742431640625E-06	2.03067898496556E-07	48442.39453125	4.82274772366509E-05
1	329	86.2632257822063	-0.109405517578125	-0.109222412109375	-2.008056640625E-06	2.19324775230234E-07	54392.1015625	4.80232665722724E-05
1	330	86.363933781952	-0.119476318359375	-0.119354248046875	-1.97418212890625E-06	2.35627027223018E-07	60457.56640625	4.78227448184043E-05
1	331	86.4646417816978	-0.129547119140625	-0.12939453125	-1.94427490234375E-06	2.51578512688866E-07	66551.5625	4.76254353998229E-05
1	332	86.5653497814435	-0.139617919921875	-0.139495849609375	-1.91802978515625E-06	2.67557197730639E-07	72728.71875	4.74309526907746E-05
1	333	86.6660577811892	-0.149688720703125	-0.149505615234375	-1.89544677734375E-06	2.83379932852768E-07	78876.1875	4.72389292553999E-05
1	334	86.766765780935	-0.159759521484375	-0.15960693359375	-1.876220703125E-06	2.99457809660453E-07	85068.3203125	4.70490122097544E-05
1	335	86.8674737806807	-0.169830322265625	-0.169647216796875	-1.86065673828125E-06	3.15655228178002E-07	91175.9921875	4.68608450319152E-05
1	336	86.9681817804264	-0.179901123046875	-0.17974853515625	-1.84783935546875E-06	3.32146413484224E-07	97274.984375	4.66741075797472E-05
1	337	87.0688897801722	-0.189971923828125	-0.189788818359375	-1.83868408203125E-06	3.48961663121372E-07	103219.921875	4.64884760731366E-05
1	338	87.1695977799179	-0.200042724609375	-0.199859619140625	-1.8328857421875E-06	3.66319824252059E-07	109040.9609375	4.6303597628139E-05
1	339	87.2703057796637	-0.189971923828125	-0.189788818359375	-1.644287109375E-06	3.12067300001218E-07	115423.1640625	4.61285089841112E-05
2	340	87.3710137794094	-0.179901123046875	-0.17974853515625	-1.5069580078125E-06	2.70873471208688E-07	119279.0703125	4.59698312624823E-05
2	341	87.4717217791551	-0.169830322265625	-0.169647216796875	-1.3970947265625E-06	2.37013225046212E-07	121428.5703125	4.58235990663525E-05
2	342	87.5724297789009	-0.159759521484375	-0.159576416015625	-1.3037109375E-06	2.08041512905766E-07	122401.6953125	4.56876041425858E-05
2	343	87.6731377786466	-0.149688720703125	-0.14959716796875	-1.22314453125E-06	1.82978951102086E-07	122305.390625	4.55603658338077E-05
2	344	87.7738457783923	-0.139617919921875	-0.13946533203125	-1.15203857421875E-06	1.60669429760674E-07	121059.609375	4.54407636425458E-05
2	345	87.8745537781381	-0.129547119140625	-0.12939453125	-1.08856201171875E-06	1.40853956054343E-07	118867.40625	4.53279426437803E-05
2	346	87.9752617778838	-0.119476318359375	-0.119354248046875	-1.0308837890625E-06	1.23040351240888E-07	115778.578125	4.52212188974954E-05
2	347	88.0759697776296	-0.109405517578125	-0.109283447265625	-9.771728515625E-07	1.06788810683156E-07	111836.359375	4.51201049145311E-05
2	348	88.1766777773753	-0.099334716796875	-0.0992431640625	-9.25598144531251E-07	9.18592846232968E-08	107220.578125	4.50242951046675E-05
2	349	88.277385777121	-0.089263916015625	-0.089202880859375	-8.76770019531251E-07	7.82104123686622E-08	101740.34375	4.4933538447367E-05
2	350	88.3780937768668	-0.079193115234375	-0.07916259765625	-8.27941894531251E-07	6.55420251405303E-08	95613.71875	4.48476966994349E-05
2	351	88.4788017766125	-0.069122314453125	-0.0689697265625	-7.7667236328125E-07	5.35668789325427E-08	88801.578125	4.47669008281082E-05
2	352	88.5795097763582	-0.059051513671875	-0.0589599609375	-7.1990966796875E-07	4.24458441727893E-08	81899.1171875	4.46915400971193E-05
2	353	88.680217776104	-0.048980712890625	-0.0488128662109375	-6.5582275390625E-07	3.20125899122559E-08	74429.96875	4.46222657046746E-05
2	354	88.7809257758497	-0.038909912109375	-0.0387298583984375	-5.78918457031249E-07	2.24214282695812E-08	66900.3671875	4.45600926468614E-05
2	355	88.8816337755954	-0.028839111328125	-0.028680419921875	-4.84619140625001E-07	1.38990801090699E-08	59181.359375	4.45065379608423E-05
2	356	88.9823417753412	-0.018768310546875	-0.018585205078125	-3.67431640625E-07	6.82879219837673E-09	50581.3984375	4.44636352767702E-05
2	357	89.0830497750869	-0.008697509765625	-0.00853881835937501	-2.20336914062499E-07	1.88141680013132E-09	38753.4609375	4.44340403191745E-05
2	358	89.1837577748327	0.001373291015625	0.001513671875	-3.96728515625E-08	-6.00516789073247E-11	-38153.84375	4.44209472334478E-05
2	359	89.2844657745784	0.011444091796875	0.0115753173828125	1.739501953125E-07	2.0135284550804E-09	66543.859375	4.44277065980714E-05
2	360	89.3851737743241	0.021514892578125	0.021636962890625	4.1046142578125E-07	8.88113849129013E-09	52713.7578125	4.44571342086419E-05
2	361	89.4858817740699	0.031585693359375	0.0317413330078125	6.573486328125E-07	2.08651211863753E-08	48286.91015625	4.45109035354108E-05
2	362	89.5865897738156	0.041656494140625	0.041790771484375	8.9263916015625E-07	3.73040798251623E-08	46817.09375	4.45889527327381E-05
2	363	89.6872977735613	0.051727294921875	0.051788330078125	1.0931396484375E-06	5.66118778522195E-08	47375.76953125	4.4688942580251E-05
2	364	89.7880057733071	0.061798095703125	0.0618896484375	1.24053955078125E-06	7.67765513387531E-08	49889.30078125	4.48064529336989E-05
2	365	89.8887137730528	0.071868896484375	0.071990966796875	1.32904052734375E-06	9.56789136807856E-08	54167.625	4.49358412879519E-05
2	366	89.9894217727986	0.081939697265625	0.08203125	1.36383056640625E-06	1.1187672299684E-07	60147.6875	4.50714396720286E-05
2	367	90.0901297725443	0.092010498046875	0.09210205078125	1.35528564453125E-06	1.24824580893801E-07	67957.671875	4.52083586424123E-05
2	368	90.19083777229	0.102081298828125	0.1021728515625	1.31744384765625E-06	1.34606992219233E-07	77553.859375	4.53429383924231E-05
2	369	90.2915457720358	0.112152099609375	0.1121826171875	1.26373291015625E-06	1.41768865091763E-07	88770.828125	4.54729124612641E-05
2	370	90.3922537717815	0.122222900390625	0.12225341796875	1.20269775390625E-06	1.47033901498617E-07	101649.328125	4.55971057817806E-05
2	371	90.4929617715272	0.132293701171875	0.13238525390625	1.14105224609375E-06	1.51058486608235E-07	116020.3359375	4.57151254522614E-05
2	372	90.593669771273	0.142364501953125	0.14239501953125	1.0833740234375E-06	1.54267056018398E-07	131436.625	4.58271315437742E-05
2	373	90.6943777710187	0.152435302734375	0.152435302734375	1.02935791015625E-06	1.56910488158246E-07	148087.75	4.59335169580299E-05
2	374	90.7950857707644	0.162506103515625	0.16253662109375	9.81750488281249E-07	1.59570390678709E-07	165557.984375	4.60347837361041E-05
2	375	90.8957937705102	0.172576904296875	0.172637939453125	9.38720703125E-07	1.62058810815324E-07	183907.671875	4.61314884887543E-05
2	376	90.9965017702559	0.182647705078125	0.182708740234375	9.0087890625E-07	1.64598446872333E-07	202811.65625	4.62241187051404E-05
2	377	91.0972097700017	0.192718505859375	0.192779541015625	8.67309570312499E-07	1.6719953066513E-07	222273.046875	4.63131545984652E-05
2	378	91.1979177697474	0.202789306640625	0.20281982421875	8.3831787109375E-07	1.70027490753455E-07	241936.65625	4.6399040002143E-05
2	379	91.2986257694931	0.212860107421875	0.21282958984375	8.1146240234375E-07	1.72703209955216E-07	262279.0625	4.64821132482029E-05
2	380	91.3993337692389	0.222930908203125	0.222991943359375	7.8857421875E-07	1.75845698890953E-07	282778.65625	4.65626799268648E-05
2	381	91.5000417689846	0.233001708984375	0.2330322265625	7.68432617187501E-07	1.79069559180789E-07	303256.5625	4.66410820081364E-05
2	382	91.6007497687303	0.243072509765625	0.24310302734375	7.50732421875E-07	1.82505317525283E-07	323821.15625	4.67175777885132E-05
2	383	91.7014577684761	0.253143310546875	0.253204345703125	7.3455810546875E-07	1.85993300760856E-07	344702.9375	4.67923709948082E-05
2	384	91.8021657682218	0.263214111328125	0.263275146484375	7.2052001953125E-07	1.89695015251345E-07	365396.03125	4.6865639887983E-05
2	385	91.9028737679675	0.273284912109375	0.273345947265625	7.0831298828125E-07	1.93614482668636E-07	385911.25	4.6937584556872E-05
2	386	92.0035817677133	0.283355712890625	0.283355712890625	6.97021484375E-07	1.97505002574871E-07	406523.65625	4.70083505206276E-05
2	387	92.104289767459	0.293426513671875	0.293426513671875	6.87255859375E-07	2.0165909120351E-07	426953.8125	4.70780541945715E-05
2	388	92.2049977672048	0.303497314453125	0.303497314453125	6.78100585937499E-07	2.05801697461538E-07	447569.78125	4.71468047180679E-05
2	389	92.3057057669505	0.313568115234375	0.313629150390625	6.70471191406249E-07	2.10279310408623E-07	467774.25	4.7214711230481E-05
2	390	92.4064137666962	0.323638916015625	0.32366943359375	6.63146972656251E-07	2.14640408557898E-07	488081	4.72818646812811E-05
2	391	92.507121766442	0.333709716796875	0.333709716796875	6.57958984375E-07	2.19567311887658E-07	507189.21875	4.73483887617476E-05
2	392	92.6078297661877	0.343780517578125	0.343780517578125	6.52465820312501E-07	2.2430504031945E-07	526894.3125	4.74143707833719E-05
2	393	92.7085377659334	0.353851318359375	0.3538818359375	6.4849853515625E-07	2.29491860181952E-07	545694.125	4.74798798677512E-05
2	394	92.8092457656792	0.363922119140625	0.36395263671875	6.44836425781251E-07	2.34689906619678E-07	564410.8125	4.75450069643557E-05
2	395	92.9099537654249	0.373992919921875	0.3740234375	6.427001953125E-07	2.40384935068505E-07	581956.3125	4.76098393846769E-05
2	396	93.0106617651707	0.384063720703125	0.384033203125	6.41479492187499E-07	2.46349401322732E-07	598667.9375	4.76745008199941E-05
2	397	93.1113697649164	0.394134521484375	0.394134521484375	6.40869140625E-07	2.52588648663732E-07	615000	4.77390713058412E-05
2	398	93.2120777646621	0.404205322265625	0.404327392578125	6.4056396484375E-07	2.58997545188322E-07	631205.375	4.78035981359426E-05
2	399	93.3127857644079	0.414276123046875	0.414276123046875	6.4117431640625E-07	2.65623214090738E-07	646120.875	4.78681395179592E-05
2	400	93.4134937641536	0.424346923828125	0.424346923828125	6.4239501953125E-07	2.725983279106E-07	660570.125	4.7932771849446E-05
2	401	93.5142017638993	0.434417724609375	0.4344482421875	6.43310546875001E-07	2.79485135479263E-07	675332.0625	4.7997513320297E-05
2	402	93.6149097636451	0.444488525390625	0.444549560546875	6.44836425781251E-07	2.86661730797277E-07	689399	4.80623748444486E-05
2	403	93.7156177633908	0.454559326171875	0.454559326171875	6.4697265625E-07	2.9408744239845E-07	702594.375	4.81274219055194E-05
2	404	93.8163257631365	0.464630126953125	0.464630126953125	6.49108886718749E-07	3.01595548535261E-07	715796.9375	4.81926872453187E-05
2	405	93.9170337628823	0.474700927734375	0.474700927734375	6.512451171875E-07	3.0914665671844E-07	728912.875	4.82581635878887E-05
2	406	94.017741762628	0.484771728515625	0.4847412109375	6.53991699218751E-07	3.17016713324847E-07	741203.9375	4.83238873130176E-05
2	407	94.1184497623738	0.494842529296875	0.494873046875	6.573486328125E-07	3.2530411431253E-07	752832	4.83899202663451E-05
2	408	94.2191577621195	0.504913330078125	0.504913330078125	6.6192626953125E-07	3.3421540024392E-07	762793.9375	4.84563497593626E-05
2	409	94.3198657618652	0.514984130859375	0.51495361328125	6.6680908203125E-07	3.43375745615049E-07	772265.5	4.85232558276039E-05
2	410	94.420573761611	0.525054931640625	0.52508544921875	6.7291259765625E-07	3.53336588432285E-07	780317.5	4.85907185066026E-05
2	411	94.5212817613567	0.535125732421875	0.53515625	6.805419921875E-07	3.64196296231967E-07	786367.75	4.86588687635958E-05
2	412	94.6219897611024	0.545196533203125	0.545166015625	6.884765625E-07	3.75333996771587E-07	791844	4.87278048240114E-05
2	413	94.7226977608482	0.555267333984375	0.5552978515625	6.99768066406251E-07	3.88579707077952E-07	793545.5625	4.87977085867897E-05
2	414	94.8234057605939	0.565338134765625	0.565338134765625	7.12890625E-07	4.03024245088091E-07	793022.3125	4.88688419864047E-05
2	415	94.9241137603397	0.575408935546875	0.57537841796875	7.305908203125E-07	4.20366177422693E-07	787552.25	4.89415251649916E-05
2	416	95.0248217600854	0.585479736328125	0.585418701171875	7.537841796875E-07	4.41279325968935E-07	776639.6875	4.90162710775621E-05
2	417	95.1255297598311	0.595550537109375	0.595550537109375	7.8582763671875E-07	4.68000081355058E-07	757864.0625	4.90937964059412E-05
2	418	95.2262377595769	0.605621337890625	0.6055908203125	8.29467773437501E-07	5.02318073358765E-07	730095.6875	4.91751343361102E-05
2	419	95.3269457593226	0.615692138671875	0.615692138671875	8.90502929687501E-07	5.48275636447215E-07	691398.25	4.92617400595918E-05
2	420	95.4276537590683	0.625762939453125	0.625762939453125	9.747314453125E-07	6.09950802754611E-07	641985	4.93556617584545E-05
2	421	95.5283617588141	0.635833740234375	0.635711669921875	1.0906982421875E-06	6.93369599957805E-07	582848.375	4.94596642965917E-05
2	422	95.6290697585598	0.645904541015625	0.6458740234375	1.24359130859375E-06	8.03203306531941E-07	519361.96875	4.95772073918488E-05
2	423	95.7297777583055	0.655975341796875	0.65594482421875	1.44012451171875E-06	9.44642181366362E-07	455477.875	4.9712343752617E-05
2	424	95.8304857580513	0.666046142578125	0.665924072265625	1.68121337890625E-06	1.11956046566775E-06	396097.3125	4.98695153510198E-05
2	425	95.931193757797	0.676116943359375	0.67608642578125	1.9598388671875E-06	1.32502043470595E-06	344970.4375	5.0052854930982E-05
2	426	96.0319017575428	0.686187744140625	0.68609619140625	2.2601318359375E-06	1.55066788920522E-06	303564.6875	5.02653492731042E-05
2	427	96.1326097572885	0.696258544921875	0.696136474609375	2.5592041015625E-06	1.78155517005507E-06	272012.90625	5.05080206494313E-05
2	428	96.2333177570342	0.706329345703125	0.706268310546875	2.830810546875E-06	1.99931173483492E-06	249493.328125	5.07794284203555E-05
2	429	96.33402575678	0.716400146484375	0.716278076171875	3.04779052734375E-06	2.18306536226009E-06	235015.53125	5.10754398419522E-05
2	430	96.4347337565257	0.726470947265625	0.726409912109375	3.19610595703125E-06	2.32168304137303E-06	227279.6875	5.13898448843975E-05
2	431	96.5354417562714	0.736541748046875	0.73651123046875	3.27301025390625E-06	2.41060865846521E-06	225025.640625	5.17155931447633E-05
2	432	96.6361497560172	0.746612548828125	0.746551513671875	3.2916259765625E-06	2.45736828219378E-06	226803.265625	5.20461471751332E-05
2	433	96.7368577557629	0.756683349609375	0.75653076171875	3.267822265625E-06	2.47220805249526E-06	231509.15625	5.23764429090079E-05
2	434	96.8375657555086	0.766754150390625	0.7672119140625	3.226318359375E-06	2.47526986640878E-06	237797.953125	5.27034462720621E-05
2	435	96.9382737552544	0.776824951171875	0.777587890625	3.18359375E-06	2.47552384280425E-06	244248.46875	5.30262113898061E-05
2	436	97.0389817550001	0.786895751953125	0.787353515625	3.1573486328125E-06	2.48594960794435E-06	249371.734375	5.33455022377893E-05
2	437	97.1396897547459	0.796966552734375	0.79681396484375	3.16162109375E-06	2.51922369898239E-06	252027.03125	5.3663690778194E-05
2	438	97.2403977544916	0.807037353515625	0.806884765625	3.2080078125E-06	2.58849263445882E-06	251522.078125	5.39844259037636E-05
2	439	97.3411057542373	0.817108154296875	0.8172607421875	3.30474853515625E-06	2.70084115072677E-06	247298.9375	5.43123678653501E-05
2	440	97.4418137539831	0.827178955078125	0.82794189453125	3.45916748046875E-06	2.86398949356226E-06	239347.15625	5.46529590792488E-05
2	441	97.5425217537288	0.837249755859375	0.83740234375	3.665771484375E-06	3.06972560792929E-06	228438.234375	5.50117292732466E-05
2	442	97.6432297534745	0.847320556640625	0.84747314453125	3.917236328125E-06	3.3197527500306E-06	216344.65625	5.53935642528813E-05
2	443	97.7439377532203	0.857391357421875	0.85784912109375	4.1900634765625E-06	3.59444220521254E-06	204734.15625	5.58017964067403E-05
2	444	97.844645752966	0.867462158203125	0.8673095703125	4.4610595703125E-06	3.86911915484234E-06	194417.859375	5.62374152650591E-05
2	445	97.9453537527118	0.877532958984375	0.87738037109375	4.69635009765625E-06	4.12048530051834E-06	186821.75	5.6698529078858E-05
2	446	98.0460617524575	0.887603759765625	0.88775634765625	4.87396240234375E-06	4.3268905756122E-06	182142.640625	5.71804339415394E-05
2	447	98.1467697522032	0.897674560546875	0.8978271484375	4.98046875E-06	4.47159982286394E-06	180269.625	5.76766433368903E-05
2	448	98.247477751949	0.907745361328125	0.9075927734375	5.01708984375E-06	4.55347435490694E-06	180900.25	5.8180059568258E-05
2	449	98.3481857516947	0.917816162109375	0.91766357421875	4.9896240234375E-06	4.57879605164635E-06	183914.375	5.86839378229342E-05
2	450	98.4488937514404	0.927886962890625	0.927734375	4.92706298828125E-06	4.57100577477831E-06	188293.59375	5.91832831560168E-05
2	451	98.5496017511862	0.937957763671875	0.93780517578125	4.84954833984375E-06	4.54793143944698E-06	193379.90625	5.96755744481925E-05
2	452	98.6503097509319	0.948028564453125	0.9478759765625	4.77386474609375E-06	4.52503127235104E-06	198555.28125	6.01601495873183E-05
2	453	98.7510177506776	0.958099365234375	0.95855712890625	4.7161865234375E-06	4.52073436463252E-06	203248.34375	6.0638012655545E-05
2	454	98.8517257504234	0.968170166015625	0.9686279296875	4.68780517578125E-06	4.54073870059801E-06	206627.1875	6.11115392530337E-05
2	455	98.9524337501691	0.978240966796875	0.9783935546875	4.698486328125E-06	4.59696821053512E-06	208235.921875	6.15841781836934E-05
2	456	99.0531417499149	0.988311767578125	0.98785400390625	4.7515869140625E-06	4.69387396151433E-06	207899.8125	6.2060025811661E-05
2	457	99.1538497496606	0.998382568359375	0.99884033203125	4.84832763671875E-06	4.8427050387545E-06	206017.5	6.25434186076745E-05
2	458	99.2545577494063	1.00845336914063	1.00799560546875	4.9835205078125E-06	5.02336661156733E-06	202265.78125	6.30384965916164E-05
2	459	99.3552657491521	1.01852416992188	1.0186767578125	5.1483154296875E-06	5.24446932104183E-06	197866.046875	6.35486721876077E-05
2	460	99.4559737488978	1.02859497070313	1.029052734375	5.3131103515625E-06	5.46747060070629E-06	193681.796875	6.40754515188746E-05
2	461	99.5566817486435	1.03866577148438	1.038818359375	5.462646484375E-06	5.67469714951585E-06	190167.609375	6.46180487819947E-05
2	462	99.6573897483893	1.04873657226563	1.048583984375	5.5755615234375E-06	5.84644431000925E-06	188067.875	6.51738664600998E-05
2	463	99.758097748135	1.05880737304688	1.05926513671875	5.6365966796875E-06	5.97065036345157E-06	187926.375	6.57384443911724E-05
2	464	99.8588057478808	1.06887817382813	1.06903076171875	5.6427001953125E-06	6.03221997153014E-06	189453.765625	6.63064056425355E-05
2	465	99.9595137476265	1.07894897460938	1.0784912109375	5.6060791015625E-06	6.04610704613151E-06	192378.890625	6.68728243908845E-05
2	466	100.060221747372	1.08901977539063	1.08917236328125	5.5328369140625E-06	6.02621321377228E-06	196856.046875	6.74337134114467E-05
2	467	100.160929747118	1.09909057617188	1.0992431640625	5.4412841796875E-06	5.98129417994642E-06	202019.078125	6.7986300564371E-05
2	468	100.261637746864	1.10916137695313	1.109619140625	5.340576171875E-06	5.92600554227829E-06	207771.4375	6.85292106936686E-05
2	469	100.362345746609	1.11923217773438	1.119384765625	5.23681640625E-06	5.86201258556684E-06	213752.921875	6.9061825342942E-05
2	470	100.463053746355	1.12930297851563	1.12945556640625	5.13916015625E-06	5.80445248488104E-06	219774.359375	6.95842973073013E-05
2	471	100.563761746101	1.13937377929688	1.1395263671875	5.047607421875E-06	5.75188187212916E-06	225755.75	7.00972450431436E-05
2	472	100.664469745847	1.14944458007813	1.14959716796875	4.96368408203125E-06	5.70623660678393E-06	231601.609375	7.06013524904847E-05
2	473	100.765177745592	1.15951538085938	1.15966796875	4.89105224609375E-06	5.67199640499894E-06	237099.90625	7.10975800757296E-05
2	474	100.865885745338	1.16958618164063	1.16943359375	4.827880859375E-06	5.64588572160574E-06	242225.03125	7.15869682608172E-05
2	475	100.966593745084	1.17965698242188	1.1798095703125	4.77569580078125E-06	5.63441153644817E-06	247044.546875	7.20705429557711E-05
2	476	101.06730174483	1.18972778320313	1.18988037109375	4.73541259765625E-06	5.63457433599979E-06	251272.8125	7.25494683138095E-05
2	477	101.168009744575	1.19979858398438	1.1993408203125	4.70794677734375E-06	5.6464323279215E-06	254748.1875	7.30249739717692E-05
2	478	101.268717744321	1.20986938476563	1.2103271484375	4.69635009765625E-06	5.68411996937357E-06	257716.546875	7.34985223971307E-05
2	479	101.369425744067	1.21994018554688	1.219482421875	4.70489501953125E-06	5.7375364121981E-06	259194.40625	7.39719107514247E-05
2	480	101.470133743813	1.23001098632813	1.23016357421875	4.7381591796875E-06	5.82871052756673E-06	259629.015625	7.44474091334268E-05
2	481	101.570841743558	1.24008178710938	1.23992919921875	4.7979736328125E-06	5.94914718021755E-06	258427.703125	7.49275859561749E-05
2	482	101.671549743304	1.25015258789063	1.24969482421875	4.88616943359375E-06	6.10622055319254E-06	255761.671875	7.54152279114351E-05
2	483	101.77225774305	1.26022338867188	1.26068115234375	5.0018310546875E-06	6.30571412330028E-06	252043.921875	7.59131216909736E-05
2	484	101.872965742795	1.27029418945313	1.2701416015625	5.1300048828125E-06	6.51583241051412E-06	247590.71875	7.64233045629226E-05
2	485	101.973673742541	1.28036499023438	1.28021240234375	5.26123046875E-06	6.73549220664427E-06	243329.46875	7.69465405028313E-05
2	486	102.074381742287	1.29043579101563	1.29058837890625	5.3863525390625E-06	6.95156359142857E-06	239603.40625	7.74826912675053E-05
2	487	102.175089742033	1.30050659179688	1.30035400390625	5.4962158203125E-06	7.14702582627069E-06	236590.796875	7.80306727392599E-05
2	488	102.275797741778	1.31057739257813	1.31072998046875	5.584716796875E-06	7.32005582904094E-06	234699.453125	7.85886441008188E-05
2	489	102.376505741524	1.32064819335938	1.32049560546875	5.6488037109375E-06	7.45921988709597E-06	233765.546875	7.91542915976606E-05
2	490	102.47721374127	1.33071899414063	1.33056640625	5.6915283203125E-06	7.57295629227883E-06	233780.15625	7.9725323303137E-05
2	491	102.577921741016	1.34078979492188	1.3409423828125	5.712890625E-06	7.66065659263404E-06	234722.234375	8.0299585533794E-05
2	492	102.678629740761	1.35086059570313	1.35040283203125	5.7159423828125E-06	7.71882423578063E-06	236252	8.08750701253302E-05
2	493	102.779337740507	1.36093139648438	1.361083984375	5.706787109375E-06	7.76741580921225E-06	238502.6875	8.14502491266467E-05
2	494	102.880045740253	1.37100219726563	1.3714599609375	5.6884765625E-06	7.80151731305523E-06	241094.421875	8.20240456960164E-05
2	495	102.980753739999	1.38107299804688	1.38092041015625	5.6640625E-06	7.82161896495381E-06	243803.875	8.259569585789E-05
2	496	103.081461739744	1.39114379882813	1.39129638671875	5.6365966796875E-06	7.84217627369799E-06	246832.703125	8.31647266750224E-05
2	497	103.18216973949	1.40121459960938	1.4013671875	5.615234375E-06	7.86900545790559E-06	249565.21875	8.37313054944389E-05
2	498	103.282877739236	1.41128540039063	1.4111328125	5.5938720703125E-06	7.89369551057462E-06	252264.0625	8.42957233544439E-05
2	499	103.383585738982	1.42135620117188	1.42181396484375	5.57861328125E-06	7.9317496783915E-06	254868.71875	8.48583076731302E-05
2	500	103.484293738727	1.43142700195313	1.43157958984375	5.572509765625E-06	7.97749089542776E-06	256900.34375	8.54198078741319E-05
2	501	103.585001738473	1.44149780273438	1.4410400390625	5.5694580078125E-06	8.02581143943826E-06	258739.734375	8.5980849689804E-05
2	502	103.685709738219	1.45156860351563	1.451416015625	5.5755615234375E-06	8.09245921118418E-06	260317.46875	8.6542044300586E-05
2	503	103.786417737964	1.46163940429688	1.46209716796875	5.5908203125E-06	8.17432282929076E-06	261517.46875	8.71043230290525E-05
2	504	103.88712573771	1.47171020507813	1.47216796875	5.615234375E-06	8.26656832941808E-06	262173.90625	8.76685880939476E-05
2	505	103.987833737456	1.48178100585938	1.48162841796875	5.645751953125E-06	8.36490653455257E-06	262432.4375	8.82356252986938E-05
2	506	104.088541737202	1.49185180664063	1.49078369140625	5.682373046875E-06	8.47118917590706E-06	262352.3125	8.88060385477729E-05
2	507	104.189249736947	1.50192260742188	1.50177001953125	5.731201171875E-06	8.60694581206189E-06	262034.09375	8.93807591637596E-05
2	508	104.289957736693	1.49185180664063	1.49169921875	5.4046630859375E-06	8.06213211035356E-06	276002.25	8.99414953892119E-05
2	509	104.390665736439	1.48178100585938	1.48193359375	5.1727294921875E-06	7.66564153309446E-06	286489.6875	9.04741100384854E-05
2	510	104.491373736185	1.47171020507813	1.47125244140625	4.99267578125E-06	7.34548621039721E-06	294682.15625	9.09859809326008E-05
2	511	104.59208173593	1.46163940429688	1.4617919921875	4.84649658203125E-06	7.08456946085789E-06	301618.3125	9.14814227144234E-05
2	512	104.692789735676	1.45156860351563	1.4520263671875	4.72747802734375E-06	6.86442263031495E-06	307146.09375	9.19635058380663E-05
2	513	104.793497735422	1.44149780273438	1.441650390625	4.625244140625E-06	6.66798496240517E-06	311691.75	9.24344567465596E-05
2	514	104.894205735168	1.43142700195313	1.43096923828125	4.53643798828125E-06	6.49150297249435E-06	315438.96875	9.28957815631293E-05
2	515	104.994913734913	1.42135620117188	1.4208984375	4.456787109375E-06	6.33264153293567E-06	318816.78125	9.33486298890784E-05
2	516	105.095621734659	1.41128540039063	1.41082763671875	4.38140869140625E-06	6.18141211816692E-06	322003.21875	9.379366383655E-05
2	517	105.196329734405	1.40121459960938	1.4013671875	4.3084716796875E-06	6.03775060881162E-06	325258.5625	9.42312326515093E-05
2	518	105.297037734151	1.39114379882813	1.3909912109375	4.23431396484375E-06	5.88989360039704E-06	328504.5	9.46614018175751E-05
2	519	105.397745733896	1.38107299804688	1.3812255859375	4.1552734375E-06	5.73936995351687E-06	332403.0625	9.50838511926122E-05
2	520	105.498453733642	1.37100219726563	1.37115478515625	4.06646728515625E-06	5.57575594939408E-06	337185.75	9.54978459049016E-05
2	521	105.599161733388	1.36093139648438	1.3604736328125	3.96514892578125E-06	5.39448001291021E-06	343107.84375	9.59022727329284E-05
2	522	105.699869733133	1.35086059570313	1.3507080078125	3.84796142578125E-06	5.19747209182242E-06	351019.15625	9.62956910370849E-05
2	523	105.800577732879	1.34078979492188	1.3409423828125	3.7115478515625E-06	4.97697192258784E-06	361289.25	9.66763400356285E-05
2	524	105.901285732625	1.33071899414063	1.33026123046875	3.55804443359375E-06	4.73312866233755E-06	373874.25	9.70423934631981E-05
2	525	106.001993732371	1.32064819335938	1.32080078125	3.38897705078125E-06	4.47616321253008E-06	389734.375	9.73922069533728E-05
2	526	106.102701732116	1.31057739257813	1.31072998046875	3.2098388671875E-06	4.20723199567874E-06	408347.625	9.77244853856973E-05
2	527	106.203409731862	1.30050659179688	1.3006591796875	3.02886962890625E-06	3.93952677768539E-06	429420.65625	9.80386248556897E-05
2	528	106.304117731608	1.29043579101563	1.29058837890625	2.855224609375E-06	3.68491942026594E-06	452009.4375	9.83349164016545E-05
2	529	106.404825731354	1.28036499023438	1.2799072265625	2.70050048828125E-06	3.45638977705676E-06	473951.875	9.86146696959622E-05
2	530	106.505533731099	1.27029418945313	1.27044677734375	2.57080078125E-06	3.26606550515862E-06	494183.3125	9.88800966297276E-05
2	531	106.606241730845	1.26022338867188	1.2603759765625	2.47283935546875E-06	3.11670714836509E-06	509687.78125	9.91340639302507E-05
2	532	106.706949730591	1.25015258789063	1.25	2.406005859375E-06	3.007507075381E-06	519533.25	9.93797366390936E-05
2	533	106.807657730337	1.24008178710938	1.240234375	2.36785888671875E-06	2.93669972961652E-06	523778.875	9.9620119726751E-05
2	534	106.908365730082	1.23001098632813	1.23016357421875	2.34954833984375E-06	2.89032891487295E-06	523574.46875	9.98576579149812E-05
2	535	107.009073729828	1.21994018554688	1.22039794921875	2.3455810546875E-06	2.86254226011806E-06	520296.6875	0.000100094075605739
2	536	107.109781729574	1.20986938476563	1.20941162109375	2.349853515625E-06	2.84194015875983E-06	514675.3125	0.000100330507848412
2	537	107.21048972932	1.19979858398438	1.19964599609375	2.3565673828125E-06	2.82704672827094E-06	509065	0.000100567500339821
2	538	107.311197729065	1.18972778320313	1.1895751953125	2.3626708984375E-06	2.81057464235346E-06	503487.5	0.0001008051331155
2	539	107.411905728811	1.17965698242188	1.17950439453125	2.3675537109375E-06	2.79253981716465E-06	498195.4375	0.000101043318863958
2	540	107.512613728557	1.16958618164063	1.16943359375	2.36785888671875E-06	2.76905348073342E-06	493878.09375	0.00010128176654689
2	541	107.613321728302	1.15951538085938	1.15966796875	2.36358642578125E-06	2.74097556030028E-06	490639.125	0.000101520010503009
2	542	107.714029728048	1.14944458007813	1.1492919921875	2.35321044921875E-06	2.70452596851101E-06	488393.21875	0.000101757519587409
2	543	107.814737727794	1.13937377929688	1.1395263671875	2.33551025390625E-06	2.66137521975907E-06	487913.28125	0.000101993617136031
2	544	107.91544572754	1.12930297851563	1.12945556640625	2.30865478515625E-06	2.60752290159871E-06	489226.71875	0.000102227466413751
2	545	108.016153727285	1.11923217773438	1.119384765625	2.27020263671875E-06	2.54123028753384E-06	493077.03125	0.000102458034234587
2	546	108.116861727031	1.10916137695313	1.10931396484375	2.216796875E-06	2.45912383434188E-06	500412.96875	0.000102683967270423
2	547	108.217569726777	1.09909057617188	1.0992431640625	2.14508056640625E-06	2.35796505876351E-06	512448.4375	0.000102903606602922
2	548	108.318277726523	1.08901977539063	1.08917236328125	2.04925537109375E-06	2.231992311863E-06	531496.6875	0.000103114813100547
2	549	108.418985726268	1.07894897460938	1.0791015625	1.92657470703125E-06	2.0789698282897E-06	560114.0625	0.000103315011074301
2	550	108.519693726014	1.06887817382813	1.06903076171875	1.76971435546875E-06	1.89187903743004E-06	604069.6875	0.000103501130070072
2	551	108.62040172576	1.05880737304688	1.05865478515625	1.58233642578125E-06	1.67514792792645E-06	669045.3125	0.000103669925010763
2	552	108.721109725506	1.04873657226563	1.048583984375	1.365966796875E-06	1.43233091876027E-06	767649.6875	0.000103818383649923
2	553	108.821817725251	1.03866577148438	1.03912353515625	1.13525390625E-06	1.17966908419476E-06	915322.5625	0.000103944323200267
2	554	108.922525724997	1.02859497070313	1.0284423828125	9.0606689453125E-07	9.31837575990357E-07	1135062.375	0.00010404711792944
2	555	109.023233724743	1.01852416992188	1.01837158203125	6.9915771484375E-07	7.12002304226189E-07	1456569.25	0.000104127946542576
2	556	109.123941724489	1.00845336914063	1.00830078125	5.30395507812501E-07	5.34798175522155E-07	1901035.75	0.000104189857665915
2	557	109.224649724234	0.998382568359375	0.99822998046875	4.13818359375E-07	4.13085899708676E-07	2412242	0.000104237406048924
2	558	109.32535772398	0.988311767578125	0.98846435546875	3.4912109375E-07	3.45093752684988E-07	2831293.75	0.000104275823105127
2	559	109.426065723726	0.978240966796875	0.9783935546875	3.28979492187501E-07	3.21871425512654E-07	2974026	0.000104309961898252
2	560	109.526773723471	0.968170166015625	0.9686279296875	3.41186523437501E-07	3.30482777144425E-07	2838998.25	0.000104343707789667
2	561	109.627481723217	0.958099365234375	0.95855712890625	3.6895751953125E-07	3.53666848695866E-07	2598015	0.000104379469121341
2	562	109.728189722963	0.948028564453125	0.9478759765625	3.94592285156251E-07	3.74024523353E-07	2402165.75	0.000104417915281374
2	563	109.828897722709	0.937957763671875	0.93780517578125	4.00695800781251E-07	3.75774590111178E-07	2340441.75	0.000104457962152082
2	564	109.929605722454	0.927886962890625	0.9283447265625	3.74450683593749E-07	3.47619305784974E-07	2479217.75	0.000104496997664683
2	565	110.0303137222	0.917816162109375	0.91827392578125	3.03955078125E-07	2.7911400479752E-07	3021084.5	0.000104531158285681
2	566	110.131021721946	0.907745361328125	0.90789794921875	1.800537109375E-07	1.6347038922504E-07	5042373	0.000104555525467731
2	567	110.231729721692	0.897674560546875	0.8978271484375	-1.83105468749972E-09	-1.64397051527487E-09	-490333344	0.000104564503999427
2	568	110.332437721437	0.887603759765625	0.887451171875	-2.35595703124999E-07	-2.0907967268613E-07	-3766839.5	0.000104552542325109
2	569	110.433145721183	0.877532958984375	0.87738037109375	-5.10559082031251E-07	-4.47954505489179E-07	-1718469.875	0.000104514976555947
2	570	110.533853720929	0.867462158203125	0.867919921875	-8.05053710937501E-07	-6.98722146807995E-07	-1078089.5	0.00010444872896187
2	571	110.634561720675	0.857391357421875	0.85784912109375	-1.09222412109375E-06	-9.3696348812955E-07	-785414.9375	0.000104353188362438
2	572	110.73526972042	0.847320556640625	0.8477783203125	-1.3397216796875E-06	-1.13578698801575E-06	-632801.875	0.000104230733995792
2	573	110.835977720166	0.837249755859375	0.83740234375	-1.5264892578125E-06	-1.278285594708E-06	-548580.5625	0.000104086408100557
2	574	110.936685719912	0.827178955078125	0.82733154296875	-1.6387939453125E-06	-1.3558259297497E-06	-504841.71875	0.00010392702097306
2	575	111.037393719658	0.817108154296875	0.8172607421875	-1.67816162109375E-06	-1.37149550027971E-06	-486997.65625	0.000103760001366027
2	576	111.138101719403	0.807037353515625	0.80718994140625	-1.65618896484375E-06	-1.33685909986525E-06	-487377.9375	0.000103592101368122
2	577	111.238809719149	0.796966552734375	0.79742431640625	-1.59454345703125E-06	-1.27152770801331E-06	-500095.71875	0.000103428414149676
2	578	111.339517718895	0.786895751953125	0.7867431640625	-1.5142822265625E-06	-1.19135120257852E-06	-519548.59375	0.000103271871921606
2	579	111.44022571864	0.776824951171875	0.7769775390625	-1.4361572265625E-06	-1.11586189177615E-06	-541011.5	0.00010312331141904
2	580	111.540933718386	0.766754150390625	0.76690673828125	-1.37603759765625E-06	-1.05529250049585E-06	-557329.8125	0.000102981699455995
2	581	111.641641718132	0.756683349609375	0.75653076171875	-1.34857177734375E-06	-1.02023602721601E-06	-560986.625	0.00010284451127518
2	582	111.742349717878	0.746612548828125	0.74652099609375	-1.36322021484375E-06	-1.01767250271223E-06	-547615.8125	0.000102707956102677
2	583	111.843057717623	0.736541748046875	0.736480712890625	-1.42852783203125E-06	-1.05208312106697E-06	-515552.25	0.000102567384601571
2	584	111.943765717369	0.726470947265625	0.726318359375	-1.54632568359375E-06	-1.12312466171716E-06	-469705.96875	0.00010241758718621
2	585	112.044473717115	0.716400146484375	0.716400146484375	-1.71356201171875E-06	-1.22759604437306E-06	-418076.59375	0.000102253441582434
2	586	112.145181716861	0.706329345703125	0.706329345703125	-1.91802978515625E-06	-1.35476068408025E-06	-368257.75	0.000102070574939717
2	587	112.245889716606	0.696258544921875	0.69622802734375	-2.1380615234375E-06	-1.48857839121774E-06	-325635.15625	0.000101866331533529
2	588	112.346597716352	0.686187744140625	0.6861572265625	-2.3443603515625E-06	-1.60859985953721E-06	-292684.1875	0.000101640624052379
2	589	112.447305716098	0.676116943359375	0.676055908203125	-2.509765625E-06	-1.69674183325697E-06	-269370.125	0.000101396202808246
2	590	112.548013715844	0.666046142578125	0.665985107421875	-2.613525390625E-06	-1.74056890500651E-06	-254822.515625	0.00010113821917912
2	591	112.648721715589	0.655975341796875	0.655975341796875	-2.64801025390625E-06	-1.73702937900089E-06	-247723.875	0.000100873279734515
2	592	112.749429715335	0.645904541015625	0.645904541015625	-2.61627197265625E-06	-1.6898619605854E-06	-246879.734375	0.000100608202046715
2	593	112.850137715081	0.635833740234375	0.635833740234375	-2.53509521484375E-06	-1.61189893788105E-06	-250812.578125	0.000100348814157769
2	594	112.950845714827	0.625762939453125	0.62579345703125	-2.421875E-06	-1.51559356709186E-06	-258392.140625	0.000100099212431815
2	595	113.051553714572	0.615692138671875	0.615692138671875	-2.29217529296875E-06	-1.41127418373799E-06	-268606.0625	9.98618415906094E-05
2	596	113.152261714318	0.605621337890625	0.605621337890625	-2.1588134765625E-06	-1.30742353121605E-06	-280534.34375	9.96377129922621E-05
2	597	113.252969714064	0.595550537109375	0.59552001953125	-2.02880859375E-06	-1.20819606763689E-06	-293531.90625	9.94268484646454E-05
2	598	113.353677713809	0.585479736328125	0.585479736328125	-1.90643310546875E-06	-1.11617794118501E-06	-307107.40625	9.92286950349808E-05
2	599	113.454385713555	0.575408935546875	0.57537841796875	-1.79229736328125E-06	-1.03124921224662E-06	-321028.4375	9.90424523479305E-05
2	600	113.555093713301	0.565338134765625	0.565338134765625	-1.68914794921875E-06	-9.54939764596929E-07	-334688.34375	9.88671454251744E-05
2	601	113.655801713047	0.555267333984375	0.555206298828125	-1.59454345703125E-06	-8.8530055109004E-07	-348191.40625	9.87017992883921E-05
2	602	113.756509712792	0.545196533203125	0.545196533203125	-1.5087890625E-06	-8.22586571302963E-07	-361347.09375	9.85455335467122E-05
2	603	113.857217712538	0.535125732421875	0.535125732421875	-1.4306640625E-06	-7.65585127737722E-07	-374040.09375	9.83975187409669E-05
2	604	113.957925712284	0.525054931640625	0.52508544921875	-1.3592529296875E-06	-7.13723920853226E-07	-386304.4375	9.82570345513523E-05
2	605	114.05863371203	0.514984130859375	0.515045166015625	-1.29486083984375E-06	-6.66911773805623E-07	-397761.03125	9.81233897618949E-05
2	606	114.159341711775	0.504913330078125	0.504913330078125	-1.2353515625E-06	-6.23745449956914E-07	-408720.375	9.7995980468113E-05
2	607	114.260049711521	0.494842529296875	0.494781494140625	-1.18011474609375E-06	-5.83898952299933E-07	-419265.59375	9.78743555606343E-05
2	608	114.360757711267	0.484771728515625	0.484771728515625	-1.1297607421875E-06	-5.47676052065071E-07	-429092.40625	9.77580421022139E-05
2	609	114.461465711013	0.474700927734375	0.474700927734375	-1.08306884765625E-06	-5.14133773776848E-07	-438292.5	9.76466180873103E-05
2	610	114.562173710758	0.464630126953125	0.464630126953125	-1.0394287109375E-06	-4.82949872093741E-07	-447005.3125	9.75397415459156E-05
2	611	114.662881710504	0.454559326171875	0.454620361328125	-9.9945068359375E-07	-4.54370621127964E-07	-454870.25	9.74370777839795E-05
2	612	114.76358971025	0.444488525390625	0.44451904296875	-9.6221923828125E-07	-4.277247853679E-07	-461972.71875	9.73382993834093E-05
2	613	114.864297709996	0.434417724609375	0.43438720703125	-9.27124023437501E-07	-4.02730819359931E-07	-468531.9375	9.72431662376039E-05
2	614	114.965005709741	0.424346923828125	0.42437744140625	-8.9447021484375E-07	-3.79592961508024E-07	-474445.59375	9.71514382399619E-05
2	615	115.065713709487	0.414276123046875	0.414306640625	-8.6334228515625E-07	-3.5768843531514E-07	-479886.875	9.70629262155853E-05
2	616	115.166421709233	0.404205322265625	0.404266357421875	-8.349609375E-07	-3.3754662354113E-07	-484173.96875	9.69774118857458E-05
2	617	115.267129708978	0.394134521484375	0.394134521484375	-8.0718994140625E-07	-3.18141417210427E-07	-488279.78125	9.68947206274606E-05
2	618	115.367837708724	0.384063720703125	0.384124755859375	-7.80639648437501E-07	-2.99863017971802E-07	-492064.125	9.68147651292384E-05
2	619	115.46854570847	0.373992919921875	0.3740234375	-7.55615234375E-07	-2.82617804714391E-07	-494991.9375	9.67374071478844E-05
2	620	115.569253708216	0.363922119140625	0.36395263671875	-7.3150634765625E-07	-2.66233655565884E-07	-497538.625	9.66625302680768E-05
2	621	115.669961707961	0.353851318359375	0.3538818359375	-7.0770263671875E-07	-2.50443093818831E-07	-500043.125	9.65900617302395E-05
2	622	115.770669707707	0.343780517578125	0.343780517578125	-6.86035156250001E-07	-2.35845519114264E-07	-501112.09375	9.65198778430931E-05
2	623	115.871377707453	0.333709716796875	0.333770751953125	-6.6497802734375E-07	-2.21950216428013E-07	-501927.5	9.64518476394005E-05
2	624	115.972085707199	0.323638916015625	0.32373046875	-6.451416015625E-07	-2.08851986371883E-07	-501797.53125	9.63858765317127E-05
2	625	116.072793706944	0.313568115234375	0.3135986328125	-6.26220703124999E-07	-1.96381961359293E-07	-500779.71875	9.63218626566231E-05
2	626	116.17350170669	0.303497314453125	0.303497314453125	-6.085205078125E-07	-1.84684338933039E-07	-498746.25	9.62596895988099E-05
2	627	116.274209706436	0.293426513671875	0.29351806640625	-5.9112548828125E-07	-1.73505995348933E-07	-496541.0625	9.61992773227394E-05
2	628	116.374917706182	0.283355712890625	0.283416748046875	-5.74951171875E-07	-1.62950797744088E-07	-492940.5625	9.61405603447929E-05
2	629	116.475625705927	0.273284912109375	0.273345947265625	-5.60302734375E-07	-1.53156477722405E-07	-487854.03125	9.60834004217759E-05
2	630	116.576333705673	0.263214111328125	0.26324462890625	-5.45654296875001E-07	-1.43640562555447E-07	-482438.46875	9.60277102421969E-05
2	631	116.677041705419	0.253143310546875	0.253173828125	-5.33447265625001E-07	-1.35054875727292E-07	-474599.5625	9.59733733907342E-05
2	632	116.777749705165	0.243072509765625	0.243072509765625	-5.21240234375001E-07	-1.26699163160993E-07	-466334.90625	9.59202661761083E-05
2	633	116.87845770491	0.233001708984375	0.233062744140625	-5.0994873046875E-07	-1.18850053354436E-07	-457031.71875	9.58683376666158E-05
2	634	116.979165704656	0.222930908203125	0.2230224609375	-5.01098632812499E-07	-1.11756243370564E-07	-445067	9.58174277911894E-05
2	635	117.079873704402	0.212860107421875	0.21295166015625	-4.92248535156251E-07	-1.04825147673182E-07	-432610.03125	9.57674128585495E-05
2	636	117.180581704147	0.202789306640625	0.202880859375	-4.85839843749999E-07	-9.85676038567362E-08	-417587.9375	9.57181619014591E-05
2	637	117.281289703893	0.192718505859375	0.1927490234375	-4.81262207031249E-07	-9.27628178715167E-08	-400507.3125	9.56694639171474E-05
2	638	117.381997703639	0.182647705078125	0.18267822265625	-4.7882080078125E-07	-8.74701271413869E-08	-381516.90625	9.56211151788011E-05
2	639	117.482705703385	0.172576904296875	0.17266845703125	-4.7943115234375E-07	-8.27826340810134E-08	-360152.78125	9.55728683038615E-05
2	640	117.58341370313	0.162506103515625	0.162567138671875	-4.84313964843749E-07	-7.87335352470109E-08	-335664.78125	9.55243376665749E-05
2	641	117.684121702876	0.152435302734375	0.1524658203125	-4.93774414062501E-07	-7.52837152617758E-08	-308776.28125	9.54750867094845E-05
2	642	117.784829702622	0.142364501953125	0.14239501953125	-5.096435546875E-07	-7.25706996718145E-08	-279401.21875	9.54245624598116E-05
2	643	117.885537702368	0.132293701171875	0.132293701171875	-5.34973144531251E-07	-7.0773573668248E-08	-247290.359375	9.53719645622186E-05
2	644	117.986245702113	0.122222900390625	0.122283935546875	-5.71289062499999E-07	-6.98594746495473E-08	-214049.15625	9.53162598307244E-05
2	645	118.086953701859	0.112152099609375	0.112152099609375	-6.24694824218749E-07	-7.00608353554344E-08	-179531.03125	9.52560367295519E-05
2	646	118.187661701605	0.102081298828125	0.102203369140625	-6.98242187500001E-07	-7.13626988613214E-08	-146372.390625	9.51894180616364E-05
2	647	118.288369701351	0.092010498046875	0.092041015625	-7.977294921875E-07	-7.34238270183596E-08	-115378.734375	9.51140900724567E-05
2	648	118.389077701096	0.081939697265625	0.08203125	-9.30175781250001E-07	-7.63034790907113E-08	-88188.9765625	9.50270841713063E-05
2	649	118.489785700842	0.071868896484375	0.07196044921875	-1.097412109375E-06	-7.89702667702841E-08	-65572.859375	9.49249879340641E-05
2	650	118.590493700588	0.061798095703125	0.0618896484375	-1.298828125E-06	-8.03840194407712E-08	-47650.375	9.48043234529905E-05
2	651	118.691201700334	0.051727294921875	0.0518798828125	-1.5264892578125E-06	-7.91940806266211E-08	-33986.40625	9.46620566537604E-05
2	652	118.791909700079	0.041656494140625	0.041766357421875	-1.7645263671875E-06	-7.36978407189781E-08	-23670.009765625	9.44963467190973E-05
2	653	118.892617699825	0.031585693359375	0.0316925048828125	-1.9921875E-06	-6.31374135195983E-08	-15908.3955078125	9.43071790970862E-05
2	654	118.993325699571	0.021514892578125	0.021624755859375	-2.183837890625E-06	-4.72249581662254E-08	-9902.1806640625	9.40968966460787E-05
2	655	119.094033699316	0.011444091796875	0.01156005859375	-2.3248291015625E-06	-2.68751580989601E-08	-4972.43359375	9.38698722166009E-05
2	656	119.194741699062	0.001373291015625	0.001483154296875	-2.40692138671875E-06	-3.56983553828627E-09	-616.203857421875	9.36316064326093E-05
2	657	119.295449698808	-0.008697509765625	-0.0085906982421875	-2.4346923828125E-06	2.09157065000909E-08	3528.45336914063	9.33878109208308E-05
2	658	119.396157698554	-0.018768310546875	-0.0185943603515625	-2.41973876953125E-06	4.49934915991435E-08	7684.44970703125	9.31433751247823E-05
2	659	119.496865698299	-0.028839111328125	-0.028692626953125	-2.376708984375E-06	6.81940193203445E-08	12072.419921875	9.29018497117795E-05
2	660	119.597573698045	-0.038909912109375	-0.0387451171875	-2.318115234375E-06	8.98156358175584E-08	16714.060546875	9.26654465729371E-05
2	661	119.698281697791	-0.048980712890625	-0.048809814453125	-2.25372314453125E-06	1.10003810505077E-07	21657.4140625	9.24352352740243E-05
2	662	119.798989697537	-0.059051513671875	-0.05902099609375	-2.1893310546875E-06	1.29216502386953E-07	26958.4609375	9.22115141293034E-05
2	663	119.899697697282	-0.069122314453125	-0.069061279296875	-2.127685546875E-06	1.4694069250254E-07	32458.404296875	9.19941376196221E-05
2	664	120.000405697028	-0.079193115234375	-0.0791015625	-2.071533203125E-06	1.63861500368512E-07	38185.03515625	9.17826837394387E-05
2	665	120.101113696774	-0.089263916015625	-0.0892333984375	-2.02117919921875E-06	1.80356693135764E-07	44149.17578125	9.15765995159745E-05
2	666	120.20182169652	-0.099334716796875	-0.099212646484375	-1.9757080078125E-06	1.96015207620803E-07	50216.25390625	9.13753465283662E-05
2	667	120.302529696265	-0.109405517578125	-0.109283447265625	-1.9354248046875E-06	2.11509885161831E-07	56464.83984375	9.11784009076655E-05
2	668	120.403237696011	-0.119476318359375	-0.119384765625	-1.90032958984375E-06	2.26870398023493E-07	62823.19140625	9.09852533368394E-05
2	669	120.503945695757	-0.129547119140625	-0.12939453125	-1.86920166015625E-06	2.41864455574614E-07	69224.4921875	9.07954454305582E-05
2	670	120.604653695503	-0.139617919921875	-0.139556884765625	-1.84173583984375E-06	2.57026897543255E-07	75774.6484375	9.06085842871107E-05
2	671	120.705361695248	-0.149688720703125	-0.1495361328125	-1.8182373046875E-06	2.71892162118093E-07	82242.3671875	9.04242915567011E-05
2	672	120.806069694994	-0.159759521484375	-0.159637451171875	-1.7987060546875E-06	2.87140835553146E-07	88751.2734375	9.02421597857028E-05
2	673	120.90677769474	-0.169830322265625	-0.169647216796875	-1.7828369140625E-06	3.0245331572587E-07	95155.7734375	9.00618179002777E-05
2	674	121.007485694485	-0.179901123046875	-0.1796875	-1.7706298828125E-06	3.18160061851813E-07	101482.25	8.98828875506297E-05
2	675	121.108193694231	-0.189971923828125	-0.18975830078125	-1.7626953125E-06	3.34486060182826E-07	107652.3515625	8.970496855909E-05
2	676	121.208901693977	-0.200042724609375	-0.19989013671875	-1.7584228515625E-06	3.51491394212644E-07	113675.8046875	8.95276680239476E-05
2	677	121.309609693723	-0.189971923828125	-0.18975830078125	-1.5557861328125E-06	2.95223316015836E-07	121969.40625	8.93607866601087E-05
