Potential - Start -0.2 V, Upper Vertex 1.5 V, Lower Vertex -0.2 V, Stop -0.19 V; Scan - # end cross 5, Rate 0.1 Vps, Step 0.01 V 
Scan	Index	Time (s)	Potential applied (V)	WE(1).Potential (V)	WE(1).Current (A)	WE(1).Power (W)	WE(1).Resistance (Ω)	WE(1).Charge (C)
1	1	60.8784788462966	-0.189971923828125	-0.189788818359375	-2.14538574218751E-07	4.07170226424114E-08	884637.25	0
1	2	60.9791868460424	-0.179901123046875	-0.17974853515625	-1.80969238281251E-07	3.25289555291874E-08	993254.625	-1.99154008839741E-08
1	3	61.0798948457881	-0.169830322265625	-0.16973876953125	-1.5380859375E-07	2.61072798934947E-08	1103571.5	-3.67728034689208E-08
1	4	61.1806028455338	-0.159759521484375	-0.15966796875	-1.300048828125E-07	2.07576142940979E-08	1228169	-5.106394596055E-08
1	5	61.2813108452796	-0.149688720703125	-0.149627685546875	-1.08947753906249E-07	1.63016000698235E-08	1373389.375	-6.30961665137875E-08
1	6	61.3820188450253	-0.139617919921875	-0.139495849609375	-8.91113281249995E-08	1.24306600568502E-08	1565411	-7.30692306660785E-08
1	7	61.482726844771	-0.129547119140625	-0.129486083984375	-7.04956054687497E-08	9.12819952958444E-09	1836796.625	-8.1106080074278E-08
1	8	61.5834348445168	-0.119476318359375	-0.119354248046875	-4.97436523437506E-08	5.93711613205983E-09	2399386.5	-8.71606076202625E-08
1	9	61.6841428442625	-0.109405517578125	-0.1092529296875	-2.80761718749994E-08	3.06740388644755E-09	3891304.5	-9.1079144226569E-08
1	10	61.7848508440082	-0.099334716796875	-0.09930419921875	-2.74658203125028E-09	2.72747130436457E-10	36155556	-9.26311969351445E-08
1	11	61.885558843754	-0.089263916015625	-0.0892333984375	2.71606445312503E-08	-2.42363662472656E-09	-3285393.5	-9.14018514208692E-08
1	12	61.9862668434997	-0.079193115234375	-0.079132080078125	6.50024414062506E-08	-5.1437782921937E-09	-1217370.875	-8.67610694399445E-08
1	13	62.0869748432455	-0.069122314453125	-0.069091796875	1.141357421875E-07	-7.88584308963891E-09	-605347.625	-7.77407436203248E-08
1	14	62.1876828429912	-0.059051513671875	-0.05889892578125	1.7974853515625E-07	-1.05869952804483E-08	-327674.03125	-6.29424974363246E-08
1	15	62.2883908427369	-0.048980712890625	-0.04879150390625	2.67639160156249E-07	-1.30585178226283E-08	-182303.3125	-4.04147399990507E-08
1	16	62.3890988424827	-0.038909912109375	-0.03875732421875	3.8482666015625E-07	-1.49148515760089E-08	-100713.71875	-7.56047580097174E-09
1	17	62.4898068422284	-0.028839111328125	-0.02867431640625	5.37109375E-07	-1.54012429476325E-08	-53386.36328125	3.88626908431888E-08
1	18	62.5905148419741	-0.018768310546875	-0.0186676025390625	7.28454589843749E-07	-1.35985001037398E-08	-25626.310546875	1.02588899153488E-07
1	19	62.6912228417199	-0.008697509765625	-0.00858459472656251	9.57336425781249E-07	-8.21834422737311E-09	-8967.166015625	1.87475208690557E-07
1	20	62.7919308414656	0.001373291015625	0.0014617919921875	1.21337890625E-06	1.77370751419659E-09	1204.728515625	2.9677940460715E-07
1	21	62.8926388412114	0.011444091796875	0.0115203857421875	1.478271484375E-06	1.7030256316275E-08	7793.146484375	4.32314777754073E-07
1	22	62.9933468409571	0.021514892578125	0.021624755859375	1.7266845703125E-06	3.73391308983173E-08	12523.859375	5.93697109252389E-07
1	23	63.0940548407028	0.031585693359375	0.031671142578125	1.932373046875E-06	6.12004598110616E-08	16389.767578125	7.77945274421654E-07
1	24	63.1947628404486	0.041656494140625	0.041790771484375	2.0782470703125E-06	8.68515499519162E-08	20108.6640625	9.79896071839903E-07
1	25	63.2954708401943	0.051727294921875	0.051849365234375	2.156982421875E-06	1.11838168947997E-07	24037.91796875	1.19315677693521E-06
1	26	63.39617883994	0.061798095703125	0.061767578125	2.17529296875E-06	1.34362565518131E-07	28395.064453125	1.41130419706315E-06
1	27	63.4968868396858	0.071868896484375	0.071929931640625	2.14691162109375E-06	1.54427198140183E-07	33503.91015625	1.628944460208E-06
1	28	63.5975948394315	0.081939697265625	0.08203125	2.08831787109375E-06	1.71307320329106E-07	39281.01953125	1.84220516530331E-06
1	29	63.6983028391772	0.092010498046875	0.092041015625	2.01416015625E-06	1.85385346185285E-07	45696.96875	2.0487814254011E-06
1	30	63.799010838923	0.102081298828125	0.102081298828125	1.93389892578125E-06	1.97414905755977E-07	52785.23046875	2.24758196054609E-06
1	31	63.8997188386687	0.112152099609375	0.1121826171875	1.854248046875E-06	2.08014398594969E-07	60500.33203125	2.43833028434892E-06
1	32	64.0004268384145	0.122222900390625	0.122314453125	1.77947998046875E-06	2.17656108247866E-07	68736.0703125	2.62130311057263E-06
1	33	64.1011348381602	0.132293701171875	0.132293701171875	1.71142578125E-06	2.26410847403713E-07	77300.2890625	2.79708410744206E-06
1	34	64.2018428379059	0.142364501953125	0.14239501953125	1.64947509765625E-06	2.34877035154568E-07	86327.4765625	2.96631878882181E-06
1	35	64.3025508376517	0.152435302734375	0.152496337890625	1.5936279296875E-06	2.43022412860228E-07	95691.3125	3.12962220050395E-06
1	36	64.4032588373974	0.162506103515625	0.1624755859375	1.54327392578125E-06	2.50744335517084E-07	105279.8125	3.28757755596598E-06
1	37	64.5039668371431	0.172576904296875	0.172576904296875	1.49932861328125E-06	2.58749480508413E-07	115102.7890625	3.44078489433741E-06
1	38	64.6046748368889	0.182647705078125	0.1827392578125	1.4599609375E-06	2.66792170577901E-07	125167.2265625	3.58979696102324E-06
1	39	64.7053828366346	0.192718505859375	0.19268798828125	1.42486572265625E-06	2.74554508905567E-07	135232.390625	3.73505940842733E-06
1	40	64.8060908363803	0.202789306640625	0.202850341796875	1.39312744140625E-06	2.82596374745481E-07	145607.890625	3.87695672543487E-06
1	41	64.9067988361261	0.212860107421875	0.212890625	1.36474609375E-06	2.90541635195041E-07	155992.859375	4.01582656195387E-06
1	42	65.0075068358718	0.222930908203125	0.22296142578125	1.33880615234375E-06	2.98502129680855E-07	166537.5	4.15196154790465E-06
1	43	65.1082148356176	0.233001708984375	0.23297119140625	1.31591796875E-06	3.06570967723019E-07	177040.8125	4.28563726018183E-06
1	44	65.2089228353633	0.243072509765625	0.243072509765625	1.29425048828125E-06	3.14596690031976E-07	187809.484375	4.41706970377709E-06
1	45	65.309630835109	0.253143310546875	0.25311279296875	1.27532958984375E-06	3.22802208074791E-07	198468.546875	4.54645851277746E-06
1	46	65.4103388348548	0.263214111328125	0.26324462890625	1.2579345703125E-06	3.31144491383384E-07	209267.359375	4.67401832793257E-06
1	47	65.5110468346005	0.273284912109375	0.273223876953125	1.2420654296875E-06	3.39361918122449E-07	219975.4375	4.79990330859437E-06
1	48	65.6117548343462	0.283355712890625	0.283294677734375	1.22772216796875E-06	3.478071448626E-07	230748.203125	4.92426715936745E-06
1	49	65.712462834092	0.293426513671875	0.29339599609375	1.21429443359375E-06	3.56269140411314E-07	241618.5	5.0472322072892E-06
1	50	65.8131708338377	0.303497314453125	0.303466796875	1.202392578125E-06	3.6488623322839E-07	252385.78125	5.16892214363907E-06
1	51	65.9138788335835	0.313568115234375	0.3135986328125	1.19140625E-06	3.7362335092439E-07	263217.21875	5.28945929545444E-06
1	52	66.0145868333292	0.323638916015625	0.323699951171875	1.18133544921875E-06	3.82398212650514E-07	274011.90625	5.40893643119489E-06
1	53	66.1152948330749	0.333709716796875	0.33367919921875	1.1724853515625E-06	3.91233953678238E-07	284591.375	5.52746087123523E-06
1	54	66.2160028328207	0.343780517578125	0.343780517578125	1.16363525390625E-06	4.00035133907295E-07	295436.65625	5.64509400646784E-06
1	55	66.3167108325664	0.353851318359375	0.35394287109375	1.1566162109375E-06	4.09376070820144E-07	306015.8125	5.76192769585759E-06
1	56	66.4174188323121	0.363922119140625	0.36395263671875	1.14990234375E-06	4.18509984001503E-07	316507.4375	5.878070169274E-06
1	57	66.5181268320579	0.373992919921875	0.374053955078125	1.14349365234375E-06	4.27728309659869E-07	327115.03125	5.99355189478956E-06
1	58	66.6188348318036	0.384063720703125	0.384063720703125	1.13800048828125E-06	4.3706469909921E-07	337489.9375	6.10843426329666E-06
1	59	66.7195428315493	0.394134521484375	0.3941650390625	1.1334228515625E-06	4.46755677785404E-07	347765.21875	6.22280958850752E-06
1	60	66.8202508312951	0.404205322265625	0.4041748046875	1.12945556640625E-06	4.5649747448806E-07	357849.25	6.33675426797708E-06
1	61	66.9209588310408	0.414276123046875	0.41424560546875	1.12548828125E-06	4.66228556206261E-07	368058.59375	6.45029967927258E-06
1	62	67.0216668307866	0.424346923828125	0.424346923828125	1.123046875E-06	4.7656149604336E-07	377853.25	6.56352267469629E-06
1	63	67.1223748305323	0.434417724609375	0.434417724609375	1.12060546875E-06	4.86810904476442E-07	387663.40625	6.67649965180317E-06
1	64	67.223082830278	0.444488525390625	0.444488525390625	1.1187744140625E-06	4.97282371725305E-07	397299.5	6.78926107866573E-06
1	65	67.3237908300238	0.454559326171875	0.454559326171875	1.11785888671875E-06	5.08133211951645E-07	406633.90625	6.90188471708097E-06
1	66	67.4244988297695	0.464630126953125	0.464599609375	1.11663818359375E-06	5.1878964768548E-07	416069.96875	7.01440058037406E-06
1	67	67.5252068295152	0.474700927734375	0.4747314453125	1.11663818359375E-06	5.30103250184766E-07	425143.5	7.12685505277477E-06
1	68	67.625914829261	0.484771728515625	0.48480224609375	1.11724853515625E-06	5.41644624263427E-07	433925.15625	7.239339993248E-06
1	69	67.7266228290067	0.494842529296875	0.494842529296875	1.11907958984375E-06	5.5376818863806E-07	442187.09375	7.35194817025331E-06
1	70	67.8273308287525	0.504913330078125	0.504913330078125	1.12091064453125E-06	5.65962693599431E-07	450449.25	7.46474051993573E-06
1	71	67.9280388284982	0.514984130859375	0.514923095703125	1.12396240234375E-06	5.78754224989098E-07	458131.9375	7.57777888793498E-06
1	72	68.0287468282439	0.525054931640625	0.524993896484375	1.12823486328125E-06	5.92316439451679E-07	465323.21875	7.69118651078315E-06
1	73	68.1294548279897	0.535125732421875	0.535064697265625	1.1334228515625E-06	6.06454591434158E-07	472078.625	7.80506979936035E-06
1	74	68.2301628277354	0.545196533203125	0.545196533203125	1.1395263671875E-06	6.21265826339368E-07	478441.34375	7.91952152212616E-06
1	75	68.3308708274811	0.555267333984375	0.55523681640625	1.1480712890625E-06	6.37451478269213E-07	483625.71875	8.03471175458981E-06
1	76	68.4315788272269	0.565338134765625	0.565338134765625	1.1602783203125E-06	6.55949577321735E-07	487243.5625	8.15094608697109E-06
1	77	68.5322868269726	0.575408935546875	0.57537841796875	1.17523193359375E-06	6.76203057992097E-07	489587.125	8.26854829938384E-06
1	78	68.6329948267183	0.585479736328125	0.585418701171875	1.1962890625E-06	7.00330019753892E-07	489362.25	8.38796404423192E-06
1	79	68.7337028264641	0.595550537109375	0.595550537109375	1.22528076171875E-06	7.29716589376039E-07	486052.34375	8.50989999889862E-06
1	80	68.8344108262098	0.605621337890625	0.6055908203125	1.2646484375E-06	7.65859454077145E-07	478861.03125	8.63527748151682E-06
1	81	68.9351188259556	0.615692138671875	0.615631103515625	1.31927490234375E-06	8.12186613075028E-07	466643.5625	8.76538797456305E-06
1	82	69.0358268257013	0.625762939453125	0.625732421875	1.39251708984375E-06	8.7134310433612E-07	449353.5	8.90193769009784E-06
1	83	69.136534825447	0.635833740234375	0.635772705078125	1.488037109375E-06	9.46053376083E-07	427255.9375	9.04698572412599E-06
1	84	69.2372428251928	0.645904541015625	0.645843505859375	1.605224609375E-06	1.03672391560394E-06	402338.40625	9.20274305826752E-06
1	85	69.3379508249385	0.655975341796875	0.655914306640625	1.74072265625E-06	1.14176486931683E-06	376805.75	9.37122513278155E-06
1	86	69.4386588246842	0.666046142578125	0.665985107421875	1.884765625E-06	1.25522581129189E-06	353351.6875	9.55378345679492E-06
1	87	69.53936682443	0.676116943359375	0.675994873046875	2.0245361328125E-06	1.36857602228702E-06	333901.125	9.75063176156254E-06
1	88	69.6400748241757	0.686187744140625	0.6861572265625	2.14508056640625E-06	1.47186256072018E-06	319874.8125	9.96058861346683E-06
1	89	69.7407828239214	0.696258544921875	0.6961669921875	2.237548828125E-06	1.55770771925745E-06	311129.28125	1.01812720458838E-05
1	90	69.8414908236672	0.706329345703125	0.70623779296875	2.29949951171875E-06	1.62399351211207E-06	307126.75	1.04097307485063E-05
1	91	69.9421988234129	0.716400146484375	0.716339111328125	2.332763671875E-06	1.67104985848709E-06	307077.4375	1.06429833977018E-05
1	92	70.0429068231587	0.726470947265625	0.72637939453125	2.34710693359375E-06	1.70488999629015E-06	309478.625	1.08786334749311E-05
1	93	70.1436148229044	0.736541748046875	0.7364501953125	2.35260009765625E-06	1.73257274127536E-06	313036.71875	1.1115282177343E-05
1	94	70.2443228226501	0.746612548828125	0.746551513671875	2.362060546875E-06	1.76339983681828E-06	316059.4375	1.13526848508627E-05
1	95	70.3450308223959	0.756683349609375	0.75714111328125	2.38525390625E-06	1.80597373855562E-06	317425.8125	1.15917309813085E-05
1	96	70.4457388221416	0.766754150390625	0.76629638671875	2.43438720703125E-06	1.86546208169602E-06	314780	1.18344187285402E-05
1	97	70.5464468218873	0.776824951171875	0.77667236328125	2.51953125E-06	1.95685015569325E-06	308260.6875	1.20838685688796E-05
1	98	70.6471548216331	0.786895751953125	0.78704833984375	2.6513671875E-06	2.08675419344218E-06	296846.21875	1.23442441690713E-05
1	99	70.7478628213788	0.796966552734375	0.797119140625	2.83782958984375E-06	2.26208817366569E-06	280890.4375	1.26206468848977E-05
1	100	70.8485708211246	0.807037353515625	0.80780029296875	3.08135986328125E-06	2.48912328970619E-06	262157.0625	1.29187019410892E-05
1	101	70.9492788208703	0.817108154296875	0.81756591796875	3.37493896484375E-06	2.75923503068043E-06	242246.140625	1.32438026412274E-05
1	102	71.049986820616	0.827178955078125	0.8270263671875	3.7042236328125E-06	3.06349056700128E-06	223265.78125	1.36002663566615E-05
1	103	71.1506948203618	0.837249755859375	0.83709716796875	4.04205322265625E-06	3.38359132001642E-06	207097.015625	1.39903222589055E-05
1	104	71.2514028201075	0.847320556640625	0.84747314453125	4.36004638671875E-06	3.69502208741324E-06	194372.515625	1.44134019137709E-05
1	105	71.3521108198532	0.857391357421875	0.8575439453125	4.625244140625E-06	3.96635005017743E-06	185405.125	1.48658473335672E-05
1	106	71.452818819599	0.867462158203125	0.8673095703125	4.815673828125E-06	4.17667979490943E-06	180101.40625	1.53412347572157E-05
1	107	71.5535268193447	0.877532958984375	0.87799072265625	4.91943359375E-06	4.31921716881334E-06	178473.9375	1.58314360305667E-05
1	108	71.6542348190904	0.887603759765625	0.88775634765625	4.9407958984375E-06	4.38622282672441E-06	179678.8125	1.63279382832116E-05
1	109	71.7549428188362	0.897674560546875	0.8978271484375	4.89990234375E-06	4.39926543549518E-06	183233.6875	1.68234564625891E-05
1	110	71.8556508185819	0.907745361328125	0.90789794921875	4.820556640625E-06	4.37657354268595E-06	188338.828125	1.73129210452316E-05
1	111	71.9563588183277	0.917816162109375	0.91827392578125	4.7247314453125E-06	4.33859759141342E-06	194354.734375	1.77935653482564E-05
1	112	72.0570668180734	0.927886962890625	0.9283447265625	4.63043212890625E-06	4.29863712270162E-06	200487.703125	1.82646344910609E-05
1	113	72.1577748178191	0.937957763671875	0.9381103515625	4.5526123046875E-06	4.27085251430981E-06	206059.796875	1.87270379683468E-05
1	114	72.2584828175649	0.948028564453125	0.9478759765625	4.49951171875E-06	4.26497899752576E-06	210661.96875	1.9182847609045E-05
1	115	72.3591908173106	0.958099365234375	0.95794677734375	4.4793701171875E-06	4.29099827670143E-06	213857.46875	1.96349701582221E-05
1	116	72.4598988170563	0.968170166015625	0.96832275390625	4.4964599609375E-06	4.35402444054489E-06	215352.25	2.00869399122894E-05
1	117	72.5606068168021	0.978240966796875	0.9783935546875	4.552001953125E-06	4.45364912593504E-06	214936.984375	2.05425658350578E-05
1	118	72.6613148165478	0.988311767578125	0.9881591796875	4.637451171875E-06	4.5825399865862E-06	213082.390625	2.10052912734682E-05
1	119	72.7620228162936	0.998382568359375	0.99853515625	4.74273681640625E-06	4.73578938908759E-06	210539.875	2.14776209759293E-05
1	120	72.8627308160393	1.00845336914063	1.00830078125	4.84771728515625E-06	4.88795694764121E-06	207994.96875	2.19605390157085E-05
1	121	72.963438815785	1.01852416992188	1.01837158203125	4.93408203125E-06	5.02472903463058E-06	206395.34375	2.24530922423583E-05
1	122	73.0641468155308	1.02859497070313	1.0284423828125	4.986572265625E-06	5.12840188093833E-06	206242.359375	2.29526376642752E-05
1	123	73.1648548152765	1.03866577148438	1.038818359375	4.998779296875E-06	5.19282366440166E-06	207814.40625	2.34554390772246E-05
1	124	73.2655628150222	1.04873657226563	1.0479736328125	4.9713134765625E-06	5.20980529472581E-06	210804.171875	2.39574728766456E-05
1	125	73.366270814768	1.05880737304688	1.0589599609375	4.90997314453125E-06	5.199464794714E-06	215675.3125	2.44550356001128E-05
1	126	73.4669788145137	1.06887817382813	1.06903076171875	4.832763671875E-06	5.16637282999E-06	221204.859375	2.49456206802279E-05
1	127	73.5676868142594	1.07894897460938	1.07940673828125	4.74578857421875E-06	5.12263613927644E-06	227445.1875	2.54279402724933E-05
1	128	73.6683948140052	1.08901977539063	1.08917236328125	4.656982421875E-06	5.07225604451378E-06	233879.4375	2.59014068433316E-05
1	129	73.7691028137509	1.09909057617188	1.0992431640625	4.57000732421875E-06	5.02354896525503E-06	240534.234375	2.63660222117323E-05
1	130	73.8698108134967	1.10916137695313	1.1090087890625	4.48944091796875E-06	4.97882956551621E-06	247026.03125	2.68222029262688E-05
1	131	73.9705188132424	1.11923217773438	1.11907958984375	4.415283203125E-06	4.94105324833072E-06	253455.921875	2.72705910902005E-05
1	132	74.0712268129881	1.12930297851563	1.12884521484375	4.3475341796875E-06	4.90769343741704E-06	259651.828125	2.7711834263755E-05
1	133	74.1719348127339	1.13937377929688	1.1395263671875	4.287109375E-06	4.88527393827098E-06	265802.96875	2.81466218439164E-05
1	134	74.2726428124796	1.14944458007813	1.1492919921875	4.232177734375E-06	4.86400767840678E-06	271560.4375	2.85756032099016E-05
1	135	74.3733508122253	1.15951538085938	1.15936279296875	4.18365478515625E-06	4.8503734433325E-06	277117.21875	2.89993731712457E-05
1	136	74.4740588119711	1.16958618164063	1.16973876953125	4.14031982421875E-06	4.84309248349746E-06	282523.78125	2.94185192615259E-05
1	137	74.5747668117168	1.17965698242188	1.17950439453125	4.1021728515625E-06	4.83853045807336E-06	287531.625	2.98335617117118E-05
1	138	74.6754748114625	1.18972778320313	1.1895751953125	4.068603515625E-06	4.83991016153595E-06	292379.21875	3.02449916489422E-05
1	139	74.7761828112083	1.19979858398438	1.19964599609375	4.03900146484375E-06	4.8453716772201E-06	297015.5	3.06532419926953E-05
1	140	74.876890810954	1.20986938476563	1.21002197265625	4.01275634765625E-06	4.85552300233394E-06	301543.875	3.10586801788304E-05
1	141	74.9775988106998	1.21994018554688	1.21978759765625	3.99078369140625E-06	4.86790850118268E-06	305651.15625	3.14616918331012E-05
1	142	75.0783068104455	1.23001098632813	1.2298583984375	3.9715576171875E-06	4.88445311930263E-06	309666.53125	3.18626262014732E-05
1	143	75.1790148101912	1.24008178710938	1.23992919921875	3.95477294921875E-06	4.90363800054183E-06	313527.3125	3.22617488563992E-05
1	144	75.279722809937	1.25015258789063	1.25	3.94073486328125E-06	4.92591834699851E-06	317199.75	3.26593180943746E-05
1	145	75.3804308096827	1.26022338867188	1.26007080078125	3.929443359375E-06	4.95137646794319E-06	320674.125	3.30556140397675E-05
1	146	75.4811388094284	1.27029418945313	1.26983642578125	3.9202880859375E-06	4.97812425237498E-06	323914.09375	3.3450880437158E-05
1	147	75.5818468091742	1.28036499023438	1.280517578125	3.91387939453125E-06	5.01179147249786E-06	327173.46875	3.38453610311262E-05
1	148	75.6825548089199	1.29043579101563	1.29058837890625	3.90960693359375E-06	5.04569288750645E-06	330106.96875	3.42393068422098E-05
1	149	75.7832628086657	1.30050659179688	1.30035400390625	3.90869140625E-06	5.0826824917749E-06	332682.71875	3.46329870808404E-05
1	150	75.8839708084114	1.31057739257813	1.31103515625	3.90869140625E-06	5.12443148181774E-06	335415.375	3.50266236637253E-05
1	151	75.9846788081571	1.32064819335938	1.32110595703125	3.9129638671875E-06	5.16943964612437E-06	337622.84375	3.54204748873599E-05
1	152	76.0853868079029	1.33071899414063	1.33087158203125	3.9190673828125E-06	5.21577521794825E-06	339588.875	3.58148499799427E-05
1	153	76.1860948076486	1.34078979492188	1.34033203125	3.9288330078125E-06	5.26594067196129E-06	341152.71875	3.62100217898842E-05
1	154	76.2868028073943	1.35086059570313	1.3507080078125	3.941650390625E-06	5.32401872987975E-06	342675.75	3.66063322871923E-05
1	155	76.3875108071401	1.36093139648438	1.361083984375	3.95782470703125E-06	5.38693166163284E-06	343897	3.70041052519809E-05
1	156	76.4882188068858	1.37100219726563	1.37176513671875	3.978271484375E-06	5.45725379197393E-06	344814.375	3.74037190340459E-05
1	157	76.5889268066315	1.38107299804688	1.38153076171875	4.000244140625E-06	5.52646042706328E-06	345361.59375	3.78054683096707E-05
1	158	76.6896348063773	1.39114379882813	1.39068603515625	4.02557373046875E-06	5.59830914426129E-06	345462.8125	3.82096004614141E-05
1	159	76.790342806123	1.40121459960938	1.4013671875	4.05487060546875E-06	5.68236282560974E-06	345600.96875	3.86164829251356E-05
1	160	76.8910508058688	1.41128540039063	1.41082763671875	4.0887451171875E-06	5.76851425648783E-06	345051.53125	3.90265449823346E-05
1	161	76.9917588056145	1.42135620117188	1.42120361328125	4.1259765625E-06	5.86385249334853E-06	344452.6875	3.94401904486585E-05
1	162	77.0924668053602	1.43142700195313	1.43096923828125	4.1680908203125E-06	5.964409410808E-06	343315.3125	3.98578304157127E-05
1	163	77.193174805106	1.44149780273438	1.4410400390625	4.2156982421875E-06	6.07498986937571E-06	341827.15625	4.02799887524452E-05
1	164	77.2938828048517	1.45156860351563	1.451416015625	4.27093505859375E-06	6.19890306552406E-06	339835.6875	4.07073239330202E-05
1	165	77.3945908045974	1.46163940429688	1.46148681640625	4.33349609375E-06	6.33334684607689E-06	337253.53125	4.11405890190508E-05
1	166	77.4952988043432	1.47171020507813	1.4715576171875	4.4049072265625E-06	6.48207469566842E-06	334072.34375	4.15806025557686E-05
1	167	77.5960068040889	1.48178100585938	1.4813232421875	4.48638916015625E-06	6.64579238218721E-06	330181.625	4.20283176936209E-05
1	168	77.6967148038347	1.49185180664063	1.49261474609375	4.57855224609375E-06	6.83401458445587E-06	326001.46875	4.24847712565679E-05
1	169	77.7974228035804	1.50192260742188	1.50177001953125	4.6807861328125E-06	7.02946408637217E-06	320837.15625	4.29510182584636E-05
1	170	77.8981308033261	1.49185180664063	1.49139404296875	4.38507080078125E-06	6.53986808174523E-06	340107.1875	4.34075191151351E-05
1	171	77.9988388030719	1.48178100585938	1.48193359375	4.16839599609375E-06	6.17728619545233E-06	355516.5	4.38382194261067E-05
1	172	78.0995468028176	1.47171020507813	1.47186279296875	3.997802734375E-06	5.88421698921593E-06	368167.9375	4.42494201706722E-05
1	173	78.2002548025633	1.46163940429688	1.4617919921875	3.85772705078125E-06	5.63919411433744E-06	378925.75	4.46449776063673E-05
1	174	78.3009628023091	1.45156860351563	1.451416015625	3.74176025390625E-06	5.43085070603411E-06	387896.59375	4.50276420451701E-05
1	175	78.4016708020548	1.44149780273438	1.44195556640625	3.642578125E-06	5.25243558513466E-06	395861.25	4.53994725830853E-05
1	176	78.5023788018005	1.43142700195313	1.43218994140625	3.558349609375E-06	5.09623259858927E-06	402487.125	4.57620699307881E-05
1	177	78.6030868015463	1.42135620117188	1.4215087890625	3.4844970703125E-06	4.95324320581858E-06	407952.375	4.61167037428822E-05
1	178	78.703794801292	1.41128540039063	1.4111328125	3.419189453125E-06	4.8249303290504E-06	412709.75	4.64643344457727E-05
1	179	78.8045028010378	1.40121459960938	1.4013671875	3.3624267578125E-06	4.7119942792051E-06	416772.5625	4.68058133265004E-05
1	180	78.9052108007835	1.39114379882813	1.39068603515625	3.311767578125E-06	4.60562887383276E-06	419922.625	4.71418861707207E-05
1	181	79.0059188005292	1.38107299804688	1.380615234375	3.26568603515625E-06	4.50865582024562E-06	422764.21875	4.74730877613183E-05
1	182	79.106626800275	1.37100219726563	1.37115478515625	3.22479248046875E-06	4.42168948211474E-06	425191.65625	4.77999092254322E-05
1	183	79.2073348000207	1.36093139648438	1.36138916015625	3.18634033203125E-06	4.33784907727386E-06	427257.9375	4.81227361888159E-05
1	184	79.3080427997664	1.35086059570313	1.3507080078125	3.1512451171875E-06	4.25641201218241E-06	428626.78125	4.8441859689774E-05
1	185	79.4087507995122	1.34078979492188	1.34063720703125	3.118896484375E-06	4.18130821344675E-06	429843.46875	4.87575853185263E-05
1	186	79.5094587992579	1.33071899414063	1.33056640625	3.08868408203125E-06	4.10969914810266E-06	430787.46875	4.90701604576316E-05
1	187	79.6101667990037	1.32064819335938	1.32080078125	3.05938720703125E-06	4.04084084948408E-06	431720.71875	4.93797415401787E-05
1	188	79.7108747987494	1.31057739257813	1.31072998046875	3.0328369140625E-06	3.97522990169819E-06	432179.53125	4.96865104651079E-05
1	189	79.8115827984951	1.30050659179688	1.300048828125	3.00689697265625E-06	3.90911282011075E-06	432355.65625	4.99906345794443E-05
1	190	79.9122907982409	1.29043579101563	1.290283203125	2.982177734375E-06	3.84785380447283E-06	432664.78125	5.0292208470637E-05
1	191	80.0129987979866	1.28036499023438	1.280517578125	2.95806884765625E-06	3.78785898647038E-06	432889.71875	5.05913230881561E-05
1	192	80.1137067977323	1.27029418945313	1.27044677734375	2.93548583984375E-06	3.72937847714638E-06	432789.28125	5.08880875713658E-05
1	193	80.2144147974781	1.26022338867188	1.26007080078125	2.91351318359375E-06	3.67123266187264E-06	432491.90625	5.11826074216515E-05
1	194	80.3151227972238	1.25015258789063	1.25	2.89276123046875E-06	3.61595130016212E-06	432113.09375	5.14749772264622E-05
1	195	80.4158307969695	1.24008178710938	1.2396240234375	2.87261962890625E-06	3.56096802534012E-06	431530.875	5.17652879352681E-05
1	196	80.5165387967153	1.23001098632813	1.23016357421875	2.8533935546875E-06	3.51014068655786E-06	431123	5.20536159456242E-05
1	197	80.617246796461	1.21994018554688	1.2200927734375	2.83447265625E-06	3.45831949744024E-06	430447.90625	5.23400231031701E-05
1	198	80.7179547962068	1.20986938476563	1.2091064453125	2.81707763671875E-06	3.40614656124671E-06	429205.9375	5.2624600357376E-05
1	199	80.8186627959525	1.19979858398438	1.19964599609375	2.79998779296875E-06	3.35899403580697E-06	428446.875	5.2907442295691E-05
1	200	80.9193707956982	1.18972778320313	1.1895751953125	2.78228759765625E-06	3.30974035023246E-06	427552.9375	5.31885307282209E-05
1	201	81.020078795444	1.17965698242188	1.1798095703125	2.76580810546875E-06	3.26312670040352E-06	426569.59375	5.34679020347539E-05
1	202	81.1207867951897	1.16958618164063	1.16973876953125	2.7490234375E-06	3.21563925353985E-06	425510.65625	5.37455925950781E-05
1	203	81.2214947949354	1.15951538085938	1.15966796875	2.73223876953125E-06	3.16848968395789E-06	424438.75	5.40215987712145E-05
1	204	81.3222027946812	1.14944458007813	1.14959716796875	2.71453857421875E-06	3.12062593366136E-06	423496.34375	5.42958659934811E-05
1	205	81.4229107944269	1.13937377929688	1.1395263671875	2.69561767578125E-06	3.07172740576789E-06	422732.9375	5.45682887604926E-05
1	206	81.5236187941726	1.12930297851563	1.12945556640625	2.67486572265625E-06	3.0211419925763E-06	422247.5625	5.48387142771389E-05
1	207	81.6243267939184	1.11923217773438	1.11907958984375	2.6519775390625E-06	2.96777375297097E-06	421979.3125	5.51069424545858E-05
1	208	81.7250347936641	1.10916137695313	1.10931396484375	2.62420654296875E-06	2.91106880467851E-06	422723.59375	5.53726167709101E-05
1	209	81.8257427934099	1.09909057617188	1.0992431640625	2.59033203125E-06	2.84740463030175E-06	424363.84375	5.56351915292908E-05
1	210	81.9264507931556	1.08901977539063	1.0888671875	2.54791259765625E-06	2.77433832707175E-06	427356.5625	5.58939209440723E-05
1	211	82.0271587929013	1.07894897460938	1.0784912109375	2.49267578125E-06	2.68832900474081E-06	432664.0625	5.61477354494855E-05
1	212	82.1278667926471	1.06887817382813	1.0687255859375	2.42095947265625E-06	2.58734121416637E-06	441447.125	5.63951580261346E-05
1	213	82.2285747923928	1.05880737304688	1.058349609375	2.32818603515625E-06	2.4640346509841E-06	454581.21875	5.663429692504E-05
1	214	82.3292827921385	1.04873657226563	1.0491943359375	2.20977783203125E-06	2.3184861674963E-06	474796.34375	5.68627983739134E-05
1	215	82.4299907918843	1.03866577148438	1.03851318359375	2.06390380859375E-06	2.14339138437936E-06	503179.0625	5.70779957342893E-05
1	216	82.53069879163	1.02859497070313	1.0284423828125	1.89239501953125E-06	1.94621907212422E-06	543460.75	5.72772114537656E-05
1	217	82.6314067913758	1.01852416992188	1.01837158203125	1.7034912109375E-06	1.73478701981367E-06	597814.4375	5.74582809349522E-05
1	218	82.7321147911215	1.00845336914063	1.00860595703125	1.50970458984375E-06	1.52269706177321E-06	668081.6875	5.76200764044188E-05
1	219	82.8328227908672	0.998382568359375	0.99822998046875	1.331787109375E-06	1.32942977870698E-06	749541.75	5.77631581109017E-05
1	220	82.933530790613	0.988311767578125	0.9881591796875	1.18377685546875E-06	1.16975991204527E-06	834751.25	5.7889825257007E-05
1	221	83.0342387903587	0.978240966796875	0.97808837890625	1.077880859375E-06	1.05426272511977E-06	907417.9375	5.80037085455842E-05
1	222	83.1349467901044	0.968170166015625	0.968017578125	1.01531982421875E-06	9.82847382147156E-07	953411.5625	5.81091117055621E-05
1	223	83.2356547898502	0.958099365234375	0.958251953125	9.8846435546875E-07	9.47197861478344E-07	969435.0625	5.8210007409798E-05
1	224	83.3363627895959	0.948028564453125	0.94818115234375	9.8388671875E-07	9.32902821659809E-07	963709.6875	5.83093242312316E-05
1	225	83.4370707893416	0.937957763671875	0.9381103515625	9.83581542968751E-07	9.22708068173961E-07	953769.75	5.84083936701063E-05
1	226	83.5377787890874	0.927886962890625	0.92803955078125	9.7625732421875E-07	9.06005368506158E-07	950609.5625	5.85070811212063E-05
1	227	83.6384867888331	0.917816162109375	0.91766357421875	9.5062255859375E-07	8.72351620273548E-07	965329.125	5.86041060159914E-05
1	228	83.7391947885789	0.907745361328125	0.90789794921875	8.978271484375E-07	8.15135422271851E-07	1011216.875	5.86971837037709E-05
1	229	83.8399027883246	0.897674560546875	0.89752197265625	8.07800292968749E-07	7.25018537650612E-07	1111069.125	5.87830691074487E-05
1	230	83.9406107880703	0.887603759765625	0.8880615234375	6.7474365234375E-07	5.99213876739668E-07	1316146.5	5.88577204325702E-05
1	231	84.0413187878161	0.877532958984375	0.87738037109375	4.913330078125E-07	4.3108590830343E-07	1785714.375	5.89164374105167E-05
1	232	84.1420267875618	0.867462158203125	0.867919921875	2.6214599609375E-07	2.27521724127655E-07	3310826.75	5.89543778914958E-05
1	233	84.2427347873075	0.857391357421875	0.85723876953125	-5.49316406250056E-09	-4.70895322735032E-09	-156055552	5.89672999922186E-05
1	234	84.3434427870533	0.847320556640625	0.84747314453125	-2.9022216796875E-07	-2.45955476430026E-07	-2920084.25	5.89524097449612E-05
1	235	84.444150786799	0.837249755859375	0.83770751953125	-5.6732177734375E-07	-4.75249720466309E-07	-1476600.375	5.89092305744998E-05
1	236	84.5448587865448	0.827178955078125	0.82733154296875	-8.1024169921875E-07	-6.70338465624809E-07	-1021092.3125	5.8839865232585E-05
1	237	84.6455667862905	0.817108154296875	0.8172607421875	-9.98840332031251E-07	-8.16312933693553E-07	-818209.625	5.87487702432554E-05
1	238	84.7462747860362	0.807037353515625	0.8074951171875	-1.12060546875E-06	-9.04883449948102E-07	-720588.25	5.86420464969706E-05
1	239	84.846982785782	0.796966552734375	0.797119140625	-1.17889404296875E-06	-9.39718972858827E-07	-676158.5	5.85262569074985E-05
1	240	84.9476907855277	0.786895751953125	0.787353515625	-1.18377685546875E-06	-9.32050852497923E-07	-665119.875	5.8407287724549E-05
1	241	85.0483987852734	0.776824951171875	0.7763671875	-1.15264892578125E-06	-8.94878780854924E-07	-673550.4375	5.82896391279064E-05
1	242	85.1491067850192	0.766754150390625	0.7666015625	-1.10137939453125E-06	-8.44319117732084E-07	-696037.75	5.81761414650828E-05
1	243	85.2498147847649	0.756683349609375	0.7574462890625	-1.0443115234375E-06	-7.91009881595528E-07	-725306.875	5.80680971324909E-05
1	244	85.3505227845106	0.746612548828125	0.746551513671875	-9.9151611328125E-07	-7.40217842576385E-07	-752939.375	5.79655861656647E-05
1	245	85.4512307842564	0.736541748046875	0.7364501953125	-9.521484375E-07	-7.01209899034438E-07	-773461.5625	5.78677136218175E-05
1	246	85.5519387840021	0.726470947265625	0.726409912109375	-9.307861328125E-07	-6.76132231092197E-07	-780426.25	5.77729006181471E-05
1	247	85.6526467837479	0.716400146484375	0.716278076171875	-9.33227539062501E-07	-6.68450411467347E-07	-767527.8125	5.76790407649241E-05
1	248	85.7533547834936	0.706329345703125	0.70623779296875	-9.5947265625E-07	-6.77615844324464E-07	-736068.6875	5.7583732996136E-05
1	249	85.8540627832393	0.696258544921875	0.69622802734375	-1.00921630859375E-06	-7.02644626926485E-07	-689870	5.74846017116215E-05
1	250	85.9547707829851	0.686187744140625	0.68609619140625	-1.07574462890625E-06	-7.38064329652843E-07	-637787.25	5.73796169192065E-05
1	251	86.0554787827308	0.676116943359375	0.67608642578125	-1.15020751953125E-06	-7.77639684201858E-07	-587795.1875	5.726753079216E-05
1	252	86.1561867824765	0.666046142578125	0.66595458984375	-1.220703125E-06	-8.12932853477832E-07	-545550	5.71481468796264E-05
1	253	86.2568947822223	0.655975341796875	0.65594482421875	-1.27410888671875E-06	-8.35745083804795E-07	-514826.375	5.70225238334388E-05
1	254	86.357602781968	0.645904541015625	0.645904541015625	-1.30218505859375E-06	-8.41087228309334E-07	-496015.9375	5.68927971471567E-05
1	255	86.4583107817137	0.635833740234375	0.63580322265625	-1.3043212890625E-06	-8.29291650461528E-07	-487459.0625	5.67615497857332E-05
1	256	86.5590187814595	0.625762939453125	0.625732421875	-1.2835693359375E-06	-8.0317090578319E-07	-487494.0625	5.66312373848632E-05
1	257	86.6597267812052	0.615692138671875	0.61566162109375	-1.24481201171875E-06	-7.66382981964853E-07	-494582.03125	5.65039226785302E-05
1	258	86.760434780951	0.605621337890625	0.605560302734375	-1.19537353515625E-06	-7.23870755336975E-07	-506586.65625	5.63810499443207E-05
1	259	86.8611427806967	0.595550537109375	0.595489501953125	-1.14105224609375E-06	-6.79484571719513E-07	-521877.53125	5.62634013476782E-05
1	260	86.9618507804424	0.585479736328125	0.58544921875	-1.08551025390625E-06	-6.35511128166399E-07	-539330.9375	5.61512861168012E-05
1	261	87.0625587801882	0.575408935546875	0.575347900390625	-1.03057861328125E-06	-5.92941205468378E-07	-558276.625	5.60447333555203E-05
1	262	87.1632667799339	0.565338134765625	0.56536865234375	-9.7991943359375E-07	-5.5401568488378E-07	-576954.25	5.59434956812765E-05
1	263	87.2639747796796	0.555267333984375	0.555206298828125	-9.32922363281249E-07	-5.1796433808704E-07	-595125.9375	5.584717655438E-05
1	264	87.3646827794254	0.545196533203125	0.545135498046875	-8.892822265625E-07	-4.84779320686357E-07	-613006.1875	5.57554194529075E-05
1	265	87.4653907791711	0.535125732421875	0.53509521484375	-8.49609375E-07	-4.54621897461038E-07	-629813.25	5.56678605789784E-05
1	266	87.5660987789169	0.525054931640625	0.5250244140625	-8.14208984375001E-07	-4.27479591280644E-07	-644827.5625	5.55840815650299E-05
1	267	87.6668067786626	0.514984130859375	0.514984130859375	-7.81860351562499E-07	-4.02645639496768E-07	-658665.125	5.55037113372236E-05
1	268	87.7675147784083	0.504913330078125	0.5048828125	-7.52868652343749E-07	-3.80110435571623E-07	-670612.125	5.54264333914034E-05
1	269	87.8682227781541	0.494842529296875	0.494842529296875	-7.25708007812501E-07	-3.59111169245807E-07	-681875.5625	5.53519785171375E-05
1	270	87.9689307778998	0.484771728515625	0.484771728515625	-7.01293945312501E-07	-3.39967471063574E-07	-691253.3125	5.52801247977186E-05
1	271	88.0696387776455	0.474700927734375	0.474700927734375	-6.7901611328125E-07	-3.22329555046963E-07	-699101.1875	5.52106212126091E-05
1	272	88.1703467773913	0.464630126953125	0.46466064453125	-6.591796875E-07	-3.06294850815902E-07	-704907.4375	5.51432385691442E-05
1	273	88.271054777137	0.454559326171875	0.454559326171875	-6.40869140625E-07	-2.91313028810691E-07	-709285.75	5.50777731405105E-05
1	274	88.3717627768827	0.444488525390625	0.444488525390625	-6.2408447265625E-07	-2.77398385151173E-07	-712224.9375	5.5014079407556E-05
1	275	88.4724707766285	0.434417724609375	0.4344482421875	-6.08215332031251E-07	-2.64238082081647E-07	-714300.0625	5.49520264030434E-05
1	276	88.5731787763742	0.424346923828125	0.424346923828125	-5.938720703125E-07	-2.52007794188103E-07	-714542.625	5.4891497711651E-05
1	277	88.67388677612	0.414276123046875	0.414306640625	-5.80749511718751E-07	-2.40608358126337E-07	-713399.9375	5.48323514522053E-05
1	278	88.7745947758657	0.404205322265625	0.404205322265625	-5.6915283203125E-07	-2.30054595817819E-07	-710187.6875	5.47744493815117E-05
1	279	88.8753027756114	0.394134521484375	0.39410400390625	-5.5877685546875E-07	-2.20216193724809E-07	-705297.6875	5.47176532563753E-05
1	280	88.9760107753572	0.384063720703125	0.38409423828125	-5.4901123046875E-07	-2.10872030947939E-07	-699610.9375	5.46618721273262E-05
1	281	89.0767187751029	0.373992919921875	0.373992919921875	-5.39550781250001E-07	-2.01788154186033E-07	-693156.1875	5.46070587006398E-05
1	282	89.1774267748486	0.363922119140625	0.36395263671875	-5.31005859375E-07	-1.93260987657595E-07	-685402.3125	5.45531511306763E-05
1	283	89.2781347745944	0.353851318359375	0.353851318359375	-5.230712890625E-07	-1.8508946197926E-07	-676487.75	5.45000730198808E-05
1	284	89.3788427743401	0.343780517578125	0.343780517578125	-5.16357421875E-07	-1.77513626908876E-07	-665780.125	5.44477334187832E-05
1	285	89.4795507740859	0.333709716796875	0.333709716796875	-5.096435546875E-07	-1.70073008121108E-07	-654790.4375	5.43960704817437E-05
1	286	89.5802587738316	0.323638916015625	0.323699951171875	-5.035400390625E-07	-1.62995888786099E-07	-642848.5	5.43450551049318E-05
1	287	89.6809667735773	0.313568115234375	0.31353759765625	-4.98352050781251E-07	-1.56252099259291E-07	-629148.8125	5.42946036148351E-05
1	288	89.7816747733231	0.303497314453125	0.303497314453125	-4.931640625E-07	-1.49673965665897E-07	-615408.4375	5.42446796316653E-05
1	289	89.8823827730688	0.293426513671875	0.29339599609375	-4.88891601562499E-07	-1.43438839472765E-07	-600124.875	5.41952285857406E-05
1	290	89.9830907728145	0.283355712890625	0.2833251953125	-4.84313964843749E-07	-1.37218336249134E-07	-585003.1875	5.41462213732302E-05
1	291	90.0837987725603	0.273284912109375	0.27325439453125	-4.8095703125E-07	-1.3142361865448E-07	-568147.25	5.40976179763675E-05
1	292	90.184506772306	0.263214111328125	0.26318359375	-4.78210449218749E-07	-1.25857141597407E-07	-550351	5.40493201697245E-05
1	293	90.2852147720517	0.253143310546875	0.25311279296875	-4.75463867187501E-07	-1.20345987397741E-07	-532349.1875	5.40012988494709E-05
1	294	90.3859227717975	0.243072509765625	0.2430419921875	-4.73632812499999E-07	-1.15112662513184E-07	-513144.34375	5.39535067218821E-05
1	295	90.4866307715432	0.233001708984375	0.233062744140625	-4.72412109375001E-07	-1.10101659345219E-07	-493346.28125	5.39058710273821E-05
1	296	90.587338771289	0.222930908203125	0.222900390625	-4.7119140625E-07	-1.05028746588687E-07	-473057.03125	5.38583553861827E-05
1	297	90.6880467710347	0.212860107421875	0.212860107421875	-4.718017578125E-07	-1.00427769211819E-07	-451164.3125	5.38108724867925E-05
1	298	90.7887547707804	0.202789306640625	0.20281982421875	-4.72412109375001E-07	-9.58145349727602E-08	-429328.1875	5.37633277417626E-05
1	299	90.8894627705262	0.192718505859375	0.1927490234375	-4.74853515625E-07	-9.15275464308252E-08	-405912.625	5.37156302016228E-05
1	300	90.9901707702719	0.182647705078125	0.182708740234375	-4.77294921875E-07	-8.72059544576587E-08	-382800.5	5.36676852789242E-05
1	301	91.0908787700176	0.172576904296875	0.172515869140625	-4.8248291015625E-07	-8.32359603464283E-08	-357558.5	5.3619354730472E-05
1	302	91.1915867697634	0.162506103515625	0.162506103515625	-4.8858642578125E-07	-7.93982763980239E-08	-332604.625	5.35704602953047E-05
1	303	91.2922947695091	0.152435302734375	0.152496337890625	-4.9774169921875E-07	-7.59037845909916E-08	-306376.46875	5.35207946086302E-05
1	304	91.3930027692548	0.142364501953125	0.142425537109375	-5.0994873046875E-07	-7.26297244568741E-08	-279293.84375	5.34700520802289E-05
1	305	91.4937107690006	0.132293701171875	0.1324462890625	-5.2642822265625E-07	-6.97234625590681E-08	-251594.203125	5.34178652742412E-05
1	306	91.5944187687463	0.122222900390625	0.12225341796875	-5.48095703125E-07	-6.70065674057696E-08	-223051.234375	5.33637612534221E-05
1	307	91.6951267684921	0.112152099609375	0.112213134765625	-5.7830810546875E-07	-6.48937685809869E-08	-194036.9375	5.33070415258408E-05
1	308	91.7958347682378	0.102081298828125	0.10211181640625	-6.20422363281251E-07	-6.33524521731488E-08	-164584.375	5.32466801814735E-05
1	309	91.8965427679835	0.092010498046875	0.092071533203125	-6.78100585937499E-07	-6.24337559429478E-08	-135778.578125	5.31812947883736E-05
1	310	91.9972507677293	0.081939697265625	0.08203125	-7.5653076171875E-07	-6.20591649180824E-08	-108430.8203125	5.31090554432012E-05
1	311	92.097958767475	0.071868896484375	0.07196044921875	-8.62731933593749E-07	-6.20825773012257E-08	-83409.9765625	5.30275174241979E-05
1	312	92.1986667672207	0.061798095703125	0.06182861328125	-1.00250244140625E-06	-6.19833357973221E-08	-61674.2734375	5.29335957253352E-05
1	313	92.2993747669665	0.051727294921875	0.051788330078125	-1.180419921875E-06	-6.11319705967617E-08	-43872.8046875	5.28236778336577E-05
1	314	92.4000827667122	0.041656494140625	0.0417449951171875	-1.39739990234375E-06	-5.83344501592364E-08	-29873.3359375	5.26938747498207E-05
1	315	92.500790766458	0.031585693359375	0.03165283203125	-1.64520263671875E-06	-5.20753182797762E-08	-19239.47265625	5.25406649103388E-05
1	316	92.6014987662037	0.021514892578125	0.0216094970703125	-1.90673828125E-06	-4.12036520458514E-08	-11333.2265625	5.23618109582458E-05
1	317	92.7022067659494	0.011444091796875	0.011566162109375	-2.15911865234375E-06	-2.49727154510992E-08	-5356.890625	5.21570800628979E-05
1	318	92.8029147656952	0.001373291015625	0.00145874023437501	-2.37701416015625E-06	-3.46744610801863E-09	-613.685974121094	5.19286659255158E-05
1	319	92.9036227654409	-0.008697509765625	-0.00859375	-2.53936767578125E-06	2.18226912096497E-08	3384.20874023438	5.16811087436508E-05
1	320	93.0043307651866	-0.018768310546875	-0.0186248779296875	-2.63580322265625E-06	4.9091511300503E-08	7066.11083984375	5.14205166837201E-05
1	321	93.1050387649324	-0.028839111328125	-0.0287200927734375	-2.67120361328125E-06	7.67172068094624E-08	10751.7421875	5.11532889504451E-05
1	322	93.2057467646781	-0.038909912109375	-0.03873291015625	-2.65625E-06	1.02884285979599E-07	14581.80078125	5.08850316691678E-05
1	323	93.3064547644238	-0.048980712890625	-0.048846435546875	-2.607421875E-06	1.27363250612689E-07	18733.615234375	5.06199830851983E-05
1	324	93.4071627641696	-0.059051513671875	-0.058990478515625	-2.53936767578125E-06	1.49798509596621E-07	23230.380859375	5.03608207509387E-05
1	325	93.5078707639153	-0.069122314453125	-0.069091796875	-2.46337890625E-06	1.70199271565252E-07	28047.572265625	5.01089125464205E-05
1	326	93.6085787636611	-0.079193115234375	-0.0791015625	-2.38739013671875E-06	1.88846286164335E-07	33133.0703125	4.98646586493123E-05
1	327	93.7092867634068	-0.089263916015625	-0.08917236328125	-2.31414794921875E-06	2.06358038212784E-07	38533.5625	4.96279171784408E-05
1	328	93.8099947631525	-0.099334716796875	-0.09930419921875	-2.24761962890625E-06	2.231980573697E-07	44181.9453125	4.93982115585823E-05
1	329	93.9107027628983	-0.109405517578125	-0.1092529296875	-2.18719482421875E-06	2.38957426290654E-07	49951.16796875	4.91749015054666E-05
1	330	94.011410762644	-0.119476318359375	-0.119354248046875	-2.13409423828125E-06	2.54713199865364E-07	55927.359375	4.89573067170568E-05
1	331	94.1121187623897	-0.129547119140625	-0.1295166015625	-2.08740234375E-06	2.70353240239274E-07	62046.7890625	4.87447396153584E-05
1	332	94.2128267621355	-0.139617919921875	-0.13946533203125	-2.04803466796875E-06	2.85629823792988E-07	68097.15625	4.85365017084405E-05
1	333	94.3135347618812	-0.149688720703125	-0.149566650390625	-2.0135498046875E-06	3.01159872151402E-07	74280.09375	4.83319854538422E-05
1	334	94.414242761627	-0.159759521484375	-0.15966796875	-1.98516845703125E-06	3.16967799562917E-07	80430.4375	4.81306342408061E-05
1	335	94.5149507613727	-0.169830322265625	-0.169708251953125	-1.96258544921875E-06	3.33066935809256E-07	86471.78125	4.79318514408078E-05
1	336	94.6156587611184	-0.179901123046875	-0.17974853515625	-1.9451904296875E-06	3.49645119968045E-07	92406.6484375	4.7735076805111E-05
1	337	94.7163667608642	-0.189971923828125	-0.1898193359375	-1.9329833984375E-06	3.66917618066509E-07	98200.1875	4.7539797378704E-05
1	338	94.8170747606099	-0.200042724609375	-0.19989013671875	-1.92535400390625E-06	3.84859248470093E-07	103819.9453125	4.734551475849E-05
1	339	94.9177827603556	-0.189971923828125	-0.189788818359375	-1.71630859375E-06	3.25736181139291E-07	110579.65625	4.71621424367186E-05
2	340	95.0184907601014	-0.179901123046875	-0.1798095703125	-1.5655517578125E-06	2.81501201015999E-07	114853.796875	4.69968872494064E-05
2	341	95.1191987598471	-0.169830322265625	-0.169708251953125	-1.44287109375E-06	2.44867123910808E-07	117618.4453125	4.68454018118791E-05
2	342	95.2199067595928	-0.159759521484375	-0.15966796875	-1.3385009765625E-06	2.13715736663289E-07	119288.6484375	4.67053469037637E-05
2	343	95.3206147593386	-0.149688720703125	-0.149566650390625	-1.2469482421875E-06	1.86501864618549E-07	119946.1640625	4.65751581941731E-05
2	344	95.4213227590843	-0.139617919921875	-0.1395263671875	-1.16546630859375E-06	1.62613275733747E-07	119717.203125	4.64536860818043E-05
2	345	95.5220307588301	-0.129547119140625	-0.129486083984375	-1.0906982421875E-06	1.41230245276347E-07	118718.5234375	4.63400792796165E-05
2	346	95.6227387585758	-0.119476318359375	-0.119384765625	-1.02081298828125E-06	1.21869518920903E-07	116950.671875	4.62337557110004E-05
2	347	95.7234467583215	-0.109405517578125	-0.109344482421875	-9.5489501953125E-07	1.04412499979389E-07	114509.4375	4.61342679045629E-05
2	348	95.8241547580673	-0.099334716796875	-0.099273681640625	-8.892822265625E-07	8.82823201209249E-08	111633.5	4.60414084955119E-05
2	349	95.924862757813	-0.089263916015625	-0.089141845703125	-8.209228515625E-07	7.31785760876846E-08	108587.3671875	4.59552938991692E-05
2	350	96.0255707575587	-0.079193115234375	-0.07916259765625	-7.48596191406251E-07	5.926081669827E-08	105748.0703125	4.58762624475639E-05
2	351	96.1262787573045	-0.069122314453125	-0.069000244140625	-6.6650390625E-07	4.59889299975202E-08	103525.6484375	4.58050053566694E-05
2	352	96.2269867570502	-0.059051513671875	-0.05902099609375	-5.694580078125E-07	3.36099788000865E-08	103644.1640625	4.57427704532165E-05
2	353	96.3276947567959	-0.048980712890625	-0.0488433837890625	-4.5166015625E-07	2.20606111156485E-08	108141.890625	4.56913512607571E-05
2	354	96.4284027565417	-0.038909912109375	-0.0387451171875	-3.05786132812499E-07	1.18477192501132E-08	126706.5859375	4.56532106909435E-05
2	355	96.5291107562874	-0.028839111328125	-0.0287139892578125	-1.2542724609375E-07	3.60151686251697E-09	228929.4375	4.56314992334228E-05
2	356	96.6298187560332	-0.018768310546875	-0.01865234375	9.24682617187506E-08	-1.72474989845739E-09	-201716.171875	4.5629836677108E-05
2	357	96.7305267557789	-0.008697509765625	-0.00856933593750001	3.448486328125E-07	-2.95512347925353E-09	-24849.55859375	4.56518573628273E-05
2	358	96.8312347555246	0.001373291015625	0.0014617919921875	6.2255859375E-07	9.1005114555287E-10	2348.03930664063	4.57005735370331E-05
2	359	96.9319427552704	0.011444091796875	0.011553955078125	9.0606689453125E-07	1.04686561641643E-08	12751.7685546875	4.57775458926335E-05
2	360	97.0326507550161	0.021514892578125	0.0216094970703125	1.1700439453125E-06	2.52840592906978E-08	18468.962890625	4.58820832136553E-05
2	361	97.1333587547618	0.031585693359375	0.03167724609375	1.3885498046875E-06	4.39854339617796E-08	22813.1875	4.60109185951296E-05
2	362	97.2340667545076	0.041656494140625	0.0417449951171875	1.54693603515625E-06	6.45768380991285E-08	26985.599609375	4.61587333120406E-05
2	363	97.3347747542533	0.051727294921875	0.0517578125	1.63665771484375E-06	8.47098178269334E-08	31624.091796875	4.63190408481751E-05
2	364	97.4354827539991	0.061798095703125	0.061798095703125	1.6668701171875E-06	1.03009391239084E-07	37074.33203125	4.64853874291293E-05
2	365	97.5361907537448	0.071868896484375	0.07196044921875	1.6510009765625E-06	1.18806767090973E-07	43585.953125	4.66524543298874E-05
2	366	97.6368987534905	0.081939697265625	0.082000732421875	1.6064453125E-06	1.31729692043336E-07	51044.8359375	4.68164798803627E-05
2	367	97.7376067532363	0.092010498046875	0.092071533203125	1.5460205078125E-06	1.42344475762002E-07	59553.890625	4.69752194476314E-05
2	368	97.838314752982	0.102081298828125	0.102142333984375	1.4788818359375E-06	1.51056440245156E-07	69067.2734375	4.71275343443267E-05
2	369	97.9390227527277	0.112152099609375	0.112213134765625	1.41265869140625E-06	1.58518858484058E-07	79434.0078125	4.72731371701229E-05
2	370	98.0397307524735	0.122222900390625	0.122314453125	1.35009765625E-06	1.65136441410141E-07	90596.75	4.74122498417273E-05
2	371	98.1404387522192	0.132293701171875	0.13238525390625	1.29364013671875E-06	1.71258875525382E-07	102335.453125	4.75453744002152E-05
2	372	98.2411467519649	0.142364501953125	0.14239501953125	1.2432861328125E-06	1.77037748017028E-07	114531.1796875	4.76731183880474E-05
2	373	98.3418547517107	0.152435302734375	0.152496337890625	1.1993408203125E-06	1.82895078637557E-07	127150.1328125	4.77961148135364E-05
2	374	98.4425627514564	0.162506103515625	0.162506103515625	1.15966796875E-06	1.88453114446929E-07	140131.578125	4.79148984595668E-05
2	375	98.5432707512022	0.172576904296875	0.172607421875	1.12548828125E-06	1.94267613551347E-07	153362.265625	4.80299677292351E-05
2	376	98.6439787509479	0.182647705078125	0.18267822265625	1.09649658203125E-06	2.00306047304366E-07	166601.71875	4.81418537674472E-05
2	377	98.7446867506936	0.192718505859375	0.1927490234375	1.07025146484375E-06	2.06289911375279E-07	180096.953125	4.82509567518719E-05
2	378	98.8453947504394	0.202789306640625	0.20281982421875	1.04736328125E-06	2.12426044754466E-07	193648.015625	4.83575859107077E-05
2	379	98.9461027501851	0.212860107421875	0.212890625	1.02752685546875E-06	2.18750841440851E-07	207187.40625	4.84620650240686E-05
2	380	99.0468107499308	0.222930908203125	0.222900390625	1.0101318359375E-06	2.25158771627321E-07	220664.671875	4.85646705783438E-05
2	381	99.1475187496766	0.233001708984375	0.233001708984375	9.94873046875E-07	2.31807121053862E-07	234202.453125	4.86656317661982E-05
2	382	99.2482267494223	0.243072509765625	0.243133544921875	9.81750488281249E-07	2.38696458154664E-07	247653.109375	4.87651632283814E-05
2	383	99.3489347491681	0.253143310546875	0.253143310546875	9.69848632812501E-07	2.4551070509915E-07	261013.203125	4.88634323119186E-05
2	384	99.4496427489138	0.263214111328125	0.26318359375	9.58862304687499E-07	2.52356812779908E-07	274474.84375	4.89605517941527E-05
2	385	99.5503507486595	0.273284912109375	0.27325439453125	9.4970703125E-07	2.5951160864679E-07	287724.9375	4.90566562802996E-05
2	386	99.6510587484053	0.283355712890625	0.28338623046875	9.417724609375E-07	2.66885336941414E-07	300907.34375	4.91518985654693E-05
2	387	99.751766748151	0.293426513671875	0.29345703125	9.34753417968751E-07	2.74309968517628E-07	313940.59375	4.92463877890259E-05
2	388	99.8524747478967	0.303497314453125	0.303436279296875	9.2803955078125E-07	2.81600847529262E-07	326964.8125	4.9340189434588E-05
2	389	99.9531827476425	0.313568115234375	0.313568115234375	9.22546386718751E-07	2.89281132381802E-07	339894.15625	4.94333726237528E-05
2	390	100.053890747388	0.323638916015625	0.323638916015625	9.1827392578125E-07	2.97189160392008E-07	352442.6875	4.95260646857787E-05
2	391	100.154598747134	0.333709716796875	0.333709716796875	9.14611816406249E-07	3.05214854279257E-07	364864.875	4.96183565701358E-05
2	392	100.25530674688	0.343780517578125	0.343780517578125	9.1094970703125E-07	3.13166736987114E-07	377386.9375	4.97102810186334E-05
2	393	100.356014746625	0.353851318359375	0.35394287109375	9.0789794921875E-07	3.21344003850754E-07	389848.75	4.98018671351019E-05
2	394	100.456722746371	0.363922119140625	0.363922119140625	9.0606689453125E-07	3.29737787296835E-07	401650.40625	4.98932095069904E-05
2	395	100.557430746117	0.373992919921875	0.373992919921875	9.04235839843751E-07	3.3817781286416E-07	413601.09375	4.99843663419597E-05
2	396	100.658138745863	0.384063720703125	0.384063720703125	9.0301513671875E-07	3.46815340890316E-07	425312.625	5.00753667438403E-05
2	397	100.758846745608	0.394134521484375	0.3941650390625	9.02099609375E-07	3.55576133870272E-07	436941.8125	5.01662616443355E-05
2	398	100.859554745354	0.404205322265625	0.404205322265625	9.0179443359375E-07	3.64510100325788E-07	448223.375	5.02570946991909E-05
2	399	100.9602627451	0.414276123046875	0.41424560546875	9.014892578125E-07	3.73437956113776E-07	459512.53125	5.03478986502159E-05
2	400	101.060970744846	0.424346923828125	0.42431640625	9.02404785156249E-07	3.82905142259915E-07	470206.3125	5.04387317050714E-05
2	401	101.161678744591	0.434417724609375	0.43438720703125	9.02404785156249E-07	3.91993069115415E-07	481366.28125	5.05296120536514E-05
2	402	101.262386744337	0.444488525390625	0.444488525390625	9.03930664062499E-07	4.017867922812E-07	491728.5625	5.06205651618075E-05
2	403	101.363094744083	0.454559326171875	0.454559326171875	9.051513671875E-07	4.11445000736421E-07	502191.5	5.0711660151137E-05
2	404	101.463802743829	0.464630126953125	0.464630126953125	9.06982421874999E-07	4.21411357365287E-07	512281.3125	5.08029079355765E-05
2	405	101.564510743574	0.474700927734375	0.474639892578125	9.09423828125E-07	4.31648828680409E-07	521912.75	5.08943739987444E-05
2	406	101.66521874332	0.484771728515625	0.4847412109375	9.11865234375001E-07	4.42018631474639E-07	531593.0625	5.09860838064924E-05
2	407	101.765926743066	0.494842529296875	0.49481201171875	9.1522216796875E-07	4.528629062861E-07	540646.875	5.10780846525449E-05
2	408	101.866634742811	0.504913330078125	0.504913330078125	9.19494628906251E-07	4.64265070831971E-07	549120.5	5.11704674863722E-05
2	409	101.967342742557	0.514984130859375	0.514984130859375	9.2376708984375E-07	4.75725386195336E-07	557482.6875	5.12632832396775E-05
2	410	102.068050742303	0.525054931640625	0.5250244140625	9.2926025390625E-07	4.8788433559821E-07	564991.8125	5.13565901201218E-05
2	411	102.168758742049	0.535125732421875	0.535125732421875	9.3536376953125E-07	5.00537225889275E-07	572104.4375	5.14504827151541E-05
2	412	102.269466741794	0.545196533203125	0.545166015625	9.43603515624999E-07	5.14420548825001E-07	577749.0625	5.15450956299901E-05
2	413	102.37017474154	0.555267333984375	0.55523681640625	9.539794921875E-07	5.29684541561437E-07	582021.75	5.16406471433584E-05
2	414	102.470882741286	0.565338134765625	0.565338134765625	9.66796875000001E-07	5.46567150649935E-07	584753.8125	5.17373664479237E-05
2	415	102.571590741032	0.575408935546875	0.575347900390625	9.82666015625E-07	5.65374762118154E-07	585496.9375	5.18355300300755E-05
2	416	102.672298740777	0.585479736328125	0.585418701171875	1.0052490234375E-06	5.88491559483373E-07	582361.875	5.19356290169526E-05
2	417	102.773006740523	0.595550537109375	0.595550537109375	1.0357666015625E-06	6.16851309587219E-07	574985.3125	5.20384019182529E-05
2	418	102.873714740269	0.605621337890625	0.605560302734375	1.0760498046875E-06	6.51613049740263E-07	562762.375	5.21447400387842E-05
2	419	102.974422740015	0.615692138671875	0.61566162109375	1.1309814453125E-06	6.9630186771974E-07	544360.5	5.22558730153833E-05
2	420	103.07513073976	0.625762939453125	0.625732421875	1.20513916015625E-06	7.54094628518942E-07	519220.0625	5.23735070601106E-05
2	421	103.175838739506	0.635833740234375	0.63580322265625	1.30126953125E-06	8.27351357202133E-07	488602.25	5.24997121829074E-05
2	422	103.276546739252	0.645904541015625	0.645904541015625	1.41815185546875E-06	9.15990653993504E-07	455455.15625	5.26366493431851E-05
2	423	103.377254738998	0.655975341796875	0.6558837890625	1.5521240234375E-06	1.01801299479121E-06	422571.78125	5.27862139279023E-05
2	424	103.477962738743	0.666046142578125	0.666015625	1.69403076171875E-06	1.12825091491686E-06	393154.40625	5.29496683157049E-05
2	425	103.578670738489	0.676116943359375	0.67608642578125	1.83135986328125E-06	1.23815743791056E-06	369171.8125	5.31271871295758E-05
2	426	103.679378738235	0.686187744140625	0.68609619140625	1.95159912109375E-06	1.33898458898329E-06	351555.9375	5.33176753378939E-05
2	427	103.78008673798	0.696258544921875	0.696197509765625	2.04559326171875E-06	1.42413693993149E-06	340340.15625	5.3518950153375E-05
2	428	103.880794737726	0.706329345703125	0.706298828125	2.1099853515625E-06	1.49028005580476E-06	334741.125	5.37281994184013E-05
2	429	103.981502737472	0.716400146484375	0.71630859375	2.14813232421875E-06	1.53872565533675E-06	333456.4375	5.39426109753549E-05
2	430	104.082210737218	0.726470947265625	0.726348876953125	2.16796875E-06	1.57470162776008E-06	335036.625	5.41599438292906E-05
2	431	104.182918736963	0.736541748046875	0.736419677734375	2.18048095703125E-06	1.60574893470766E-06	337732.71875	5.43789064977318E-05
2	432	104.283626736709	0.746612548828125	0.746551513671875	2.19635009765625E-06	1.63968854849372E-06	339905.5	5.45992988918442E-05
2	433	104.384334736455	0.756683349609375	0.7568359375	2.2259521484375E-06	1.6846805692694E-06	340005.5	5.48219795746263E-05
2	434	104.485042736201	0.766754150390625	0.76690673828125	2.2784423828125E-06	1.7473527123002E-06	336592.5625	5.50487930013333E-05
2	435	104.585750735946	0.776824951171875	0.7769775390625	2.36419677734375E-06	1.83692770860944E-06	328643.34375	5.5282569519477E-05
2	436	104.686458735692	0.786895751953125	0.78704833984375	2.49420166015625E-06	1.96305722965917E-06	315551.1875	5.55272090423387E-05
2	437	104.787166735438	0.796966552734375	0.79742431640625	2.674560546875E-06	2.13275939131563E-06	298151.53125	5.57874773221556E-05
2	438	104.887874735184	0.807037353515625	0.8074951171875	2.90802001953125E-06	2.34821186495537E-06	277678.65625	5.60685803066008E-05
2	439	104.988582734929	0.817108154296875	0.81695556640625	3.18817138671875E-06	2.604594328659E-06	256245.8125	5.63755493203644E-05
2	440	105.089290734675	0.827178955078125	0.82763671875	3.50189208984375E-06	2.89829449684476E-06	236339.875	5.67124188819434E-05
2	441	105.189998734421	0.837249755859375	0.83709716796875	3.82293701171875E-06	3.20016965815739E-06	218967.046875	5.70812553633004E-05
2	442	105.290706734167	0.847320556640625	0.84716796875	4.1241455078125E-06	3.49384390574414E-06	205416.609375	5.74814221181441E-05
2	443	105.391414733912	0.857391357421875	0.85723876953125	4.373779296875E-06	3.74937303604383E-06	195994.984375	5.79093284613919E-05
2	444	105.492122733658	0.867462158203125	0.86700439453125	4.55291748046875E-06	3.94739936382393E-06	190428.328125	5.83588225708809E-05
2	445	105.592830733404	0.877532958984375	0.87799072265625	4.6484375E-06	4.08128471462987E-06	188878.671875	5.88221482757945E-05
2	446	105.693538733149	0.887603759765625	0.887451171875	4.66888427734375E-06	4.14340684073977E-06	190077.78125	5.92913092987146E-05
2	447	105.794246732895	0.897674560546875	0.89813232421875	4.632568359375E-06	4.1606590457377E-06	193873.53125	5.97596772422548E-05
2	448	105.894954732641	0.907745361328125	0.90789794921875	4.5599365234375E-06	4.1399566725886E-06	199103.203125	6.02225554757752E-05
2	449	105.995662732387	0.917816162109375	0.91766357421875	4.4732666015625E-06	4.10495385949616E-06	205143.953125	6.06774119660258E-05
2	450	106.096370732132	0.927886962890625	0.927734375	4.38934326171875E-06	4.07214474762441E-06	211360.625	6.11236828262918E-05
2	451	106.197078731878	0.937957763671875	0.9381103515625	4.3206787109375E-06	4.05327364205732E-06	217121.0625	6.15622629993595E-05
2	452	106.297786731624	0.948028564453125	0.948486328125	4.276123046875E-06	4.05584432883188E-06	221809.875	6.19951460976154E-05
2	453	106.39849473137	0.958099365234375	0.95794677734375	4.26483154296875E-06	4.0854815779312E-06	224615.375	6.24252206762321E-05
2	454	106.499202731115	0.968170166015625	0.968017578125	4.28955078125E-06	4.15236081607873E-06	225668.75	6.28559646429494E-05
2	455	106.599910730861	0.978240966796875	0.9783935546875	4.351806640625E-06	4.25777943746652E-06	224824.6875	6.3291096012108E-05
2	456	106.700618730607	0.988311767578125	0.98846435546875	4.4439697265625E-06	4.39270570495864E-06	222428.234375	6.37339981039986E-05
2	457	106.801326730353	0.998382568359375	0.99822998046875	4.55352783203125E-06	4.54546761829988E-06	219221.25	6.41870574327186E-05
2	458	106.902034730098	1.00845336914063	1.00860595703125	4.6630859375E-06	4.70321583634359E-06	216295.828125	6.46511471131817E-05
2	459	107.002742729844	1.01852416992188	1.01898193359375	4.7540283203125E-06	4.8442689148942E-06	214340.734375	6.51253430987708E-05
2	460	107.10345072959	1.02859497070313	1.0284423828125	4.8089599609375E-06	4.9457385102869E-06	213859.625	6.56068732496351E-05
2	461	107.204158729336	1.03866577148438	1.038818359375	4.82330322265625E-06	5.01053591506206E-06	215374.875	6.60918958601542E-05
2	462	107.304866729081	1.04873657226563	1.048583984375	4.79827880859375E-06	5.03139790453133E-06	218533.375	6.65763800498098E-05
2	463	107.405574728827	1.05880737304688	1.0589599609375	4.74365234375E-06	5.02333796248422E-06	223237.265625	6.705685518682E-05
2	464	107.506282728573	1.06887817382813	1.06903076171875	4.6685791015625E-06	4.9908544497157E-06	228984.1875	6.75308037898503E-05
2	465	107.606990728318	1.07894897460938	1.0791015625	4.58343505859375E-06	4.94599180456134E-06	235435.125	6.79966760799289E-05
2	466	107.707698728064	1.08901977539063	1.08917236328125	4.495849609375E-06	4.89675539938617E-06	242261.734375	6.84538536006585E-05
2	467	107.80840672781	1.09909057617188	1.0992431640625	4.4110107421875E-06	4.84877318740473E-06	249204.375	6.89023509039544E-05
2	468	107.909114727556	1.10916137695313	1.10931396484375	4.32952880859375E-06	4.80280641568243E-06	256220.5	6.93424735800363E-05
2	469	108.009822727301	1.11923217773438	1.119384765625	4.256591796875E-06	4.76476361654932E-06	262976.78125	6.97748182574287E-05
2	470	108.110530727047	1.12930297851563	1.129150390625	4.18914794921875E-06	4.730178261525E-06	269541.78125	7.02000907040201E-05
2	471	108.211238726793	1.13937377929688	1.13922119140625	4.12841796875E-06	4.70318127554492E-06	275946.1875	7.06189166521654E-05
2	472	108.311946726539	1.14944458007813	1.14990234375	4.07440185546875E-06	4.6851641855028E-06	282226.0625	7.10319582140073E-05
2	473	108.412654726284	1.15951538085938	1.15966796875	4.02679443359375E-06	4.66974415758159E-06	287987.90625	7.14398920536041E-05
2	474	108.51336272603	1.16958618164063	1.16973876953125	3.9849853515625E-06	4.66139181298786E-06	293536.53125	7.18433147994801E-05
2	475	108.614070725776	1.17965698242188	1.1798095703125	3.94866943359375E-06	4.65867788079777E-06	298786.625	7.22428085282445E-05
2	476	108.714778725522	1.18972778320313	1.1895751953125	3.917236328125E-06	4.65984749098425E-06	303677.15625	7.26388825569302E-05
2	477	108.815486725267	1.19979858398438	1.19964599609375	3.89129638671875E-06	4.66817800770514E-06	308289.5625	7.30320753064007E-05
2	478	108.916194725013	1.20986938476563	1.209716796875	3.86932373046875E-06	4.68078587800846E-06	312642.9375	7.34228524379432E-05
2	479	109.016902724759	1.21994018554688	1.21978759765625	3.85162353515625E-06	4.69816268378054E-06	316694.375	7.38116359570995E-05
2	480	109.117610724505	1.23001098632813	1.2298583984375	3.83758544921875E-06	4.71968633064535E-06	320477.15625	7.41988187655807E-05
2	481	109.21831872425	1.24008178710938	1.240234375	3.82598876953125E-06	4.74512262371718E-06	324160.5	7.45847064536065E-05
2	482	109.319026723996	1.25015258789063	1.2506103515625	3.81744384765625E-06	4.77413504995639E-06	327604.125	7.49695900594816E-05
2	483	109.419734723742	1.26022338867188	1.26007080078125	3.81134033203125E-06	4.80255857837619E-06	330610.9375	7.53537242417224E-05
2	484	109.520442723487	1.27029418945313	1.27105712890625	3.80584716796875E-06	4.83744906887296E-06	333974.84375	7.57372836233117E-05
2	485	109.621150723233	1.28036499023438	1.2799072265625	3.80218505859375E-06	4.86644375996548E-06	336624.15625	7.61203773436137E-05
2	486	109.721858722979	1.29043579101563	1.29058837890625	3.798828125E-06	4.90272304887185E-06	339733.3125	7.65031218179502E-05
2	487	109.822566722725	1.30050659179688	1.30035400390625	3.79669189453125E-06	4.9370432861906E-06	342496.59375	7.68855825299397E-05
2	488	109.92327472247	1.31057739257813	1.31072998046875	3.795166015625E-06	4.97443761560135E-06	345368.3125	7.72678613429889E-05
2	489	110.023982722216	1.32064819335938	1.3214111328125	3.7945556640625E-06	5.01416798215359E-06	348238.71875	7.76500382926315E-05
2	490	110.124690721962	1.33071899414063	1.33087158203125	3.79486083984375E-06	5.05047228216426E-06	350703.65625	7.80321934144013E-05
2	491	110.225398721708	1.34078979492188	1.34063720703125	3.79638671875E-06	5.08957737110904E-06	353135.0625	7.841444312362E-05
2	492	110.326106721453	1.35086059570313	1.3507080078125	3.79974365234375E-06	5.13234408572316E-06	355473.46875	7.87969402153976E-05
2	493	110.426814721199	1.36093139648438	1.36077880859375	3.8037109375E-06	5.17600892635528E-06	357750.34375	7.9179801105056E-05
2	494	110.527522720945	1.37100219726563	1.3714599609375	3.81134033203125E-06	5.22710070072208E-06	359836.65625	7.9563251347281E-05
2	495	110.628230720691	1.38107299804688	1.380615234375	3.81988525390625E-06	5.27379143022699E-06	361428.46875	7.99475164967589E-05
2	496	110.728938720436	1.39114379882813	1.39129638671875	3.831787109375E-06	5.33115144207841E-06	363093.34375	8.03328075562604E-05
2	497	110.829646720182	1.40121459960938	1.40106201171875	3.84613037109375E-06	5.38866697752383E-06	364278.34375	8.07194228400476E-05
2	498	110.930354719928	1.41128540039063	1.41082763671875	3.863525390625E-06	5.45076818525558E-06	365165.875	8.11076315585524E-05
2	499	111.031062719674	1.42135620117188	1.42120361328125	3.88458251953125E-06	5.52078245164012E-06	365857.5	8.14977829577401E-05
2	500	111.131770719419	1.43142700195313	1.4312744140625	3.9111328125E-06	5.597904419119E-06	365948.8125	8.18903281469829E-05
2	501	111.232478719165	1.44149780273438	1.4410400390625	3.941650390625E-06	5.68007590118214E-06	365593.0625	8.22857473394834E-05
2	502	111.333186718911	1.45156860351563	1.4520263671875	3.97796630859375E-06	5.77611172047909E-06	365017.28125	8.26845280244015E-05
2	503	111.433894718656	1.46163940429688	1.46148681640625	4.02099609375E-06	5.87663271289784E-06	363463.875	8.30873104860075E-05
2	504	111.534602718402	1.47171020507813	1.47125244140625	4.07257080078125E-06	5.99177974436316E-06	361258.90625	8.34948514238931E-05
2	505	111.635310718148	1.48178100585938	1.48193359375	4.1326904296875E-06	6.12437270319788E-06	358588.125	8.39080239529721E-05
2	506	111.736018717894	1.49185180664063	1.49200439453125	4.2041015625E-06	6.27253803031635E-06	354892.5625	8.43278103275225E-05
2	507	111.836726717639	1.50192260742188	1.50146484375	4.28619384765625E-06	6.43556950308266E-06	350302.59375	8.47553310450166E-05
2	508	111.937434717385	1.49185180664063	1.4923095703125	4.053955078125E-06	6.04975548412767E-06	368112.03125	8.51752920425497E-05
2	509	112.038142717131	1.48178100585938	1.48223876953125	3.8836669921875E-06	5.75652165935026E-06	381659.59375	8.55749822221696E-05
2	510	112.138850716877	1.47171020507813	1.47186279296875	3.74847412109375E-06	5.51723951502936E-06	392656.53125	8.59592910273932E-05
2	511	112.239558716622	1.46163940429688	1.46209716796875	3.63861083984375E-06	5.32000240127672E-06	401828.40625	8.63312598085031E-05
2	512	112.340266716368	1.45156860351563	1.451416015625	3.54583740234375E-06	5.14648490934633E-06	409329.5625	8.66930276970379E-05
2	513	112.440974716114	1.44149780273438	1.44195556640625	3.46771240234375E-06	5.00028727401514E-06	415823.3125	8.70461881277151E-05
2	514	112.54168271586	1.43142700195313	1.43157958984375	3.39996337890625E-06	4.86731823912123E-06	421057.34375	8.73919998412021E-05
2	515	112.642390715605	1.42135620117188	1.4215087890625	3.341064453125E-06	4.74935222882777E-06	425465.875	8.77314378158189E-05
2	516	112.743098715351	1.41128540039063	1.4111328125	3.2904052734375E-06	4.64319873572094E-06	428862.9375	8.80653606145643E-05
2	517	112.843806715097	1.40121459960938	1.4013671875	3.24462890625E-06	4.54691644335981E-06	431903.71875	8.83944230736233E-05
2	518	112.944514714843	1.39114379882813	1.3909912109375	3.204345703125E-06	4.45721661890275E-06	434095.25	8.87191563379019E-05
2	519	113.045222714588	1.38107299804688	1.380615234375	3.167724609375E-06	4.37340895587113E-06	435838.15625	8.90400187927298E-05
2	520	113.145930714334	1.37100219726563	1.37115478515625	3.134765625E-06	4.29824876846396E-06	437402.65625	8.93573742359877E-05
2	521	113.24663871408	1.36093139648438	1.36138916015625	3.104248046875E-06	4.2260894588253E-06	438556.84375	8.96715282578953E-05
2	522	113.347346713825	1.35086059570313	1.3507080078125	3.0767822265625E-06	4.1558341763448E-06	439000.21875	8.99827718967572E-05
2	523	113.448054713571	1.34078979492188	1.34063720703125	3.0511474609375E-06	4.0904815250542E-06	439387.90625	9.02913379832171E-05
2	524	113.548762713317	1.33071899414063	1.33026123046875	3.02642822265625E-06	4.02594014303759E-06	439548.25	9.05973647604696E-05
2	525	113.649470713063	1.32064819335938	1.32080078125	3.0035400390625E-06	3.96707764593884E-06	439748.03125	9.09009977476671E-05
2	526	113.750178712808	1.31057739257813	1.3104248046875	2.982177734375E-06	3.90791956306202E-06	439418.75	9.12024042918347E-05
2	527	113.850886712554	1.30050659179688	1.3006591796875	2.96173095703125E-06	3.85220255338936E-06	439155.09375	9.15017008082941E-05
2	528	113.9515947123	1.29043579101563	1.29058837890625	2.9425048828125E-06	3.79756261281727E-06	438601.96875	9.17990037123673E-05
2	529	114.052302712046	1.28036499023438	1.2799072265625	2.92327880859375E-06	3.74152568838326E-06	437832.75	9.2094371211715E-05
2	530	114.153010711791	1.27029418945313	1.2701416015625	2.90557861328125E-06	3.69049621440354E-06	437138.9375	9.23878760659136E-05
2	531	114.253718711537	1.26022338867188	1.26007080078125	2.88909912109375E-06	3.64046945833252E-06	436146.625	9.26796637941152E-05
2	532	114.354426711283	1.25015258789063	1.25	2.87353515625E-06	3.59191881216248E-06	435004.25	9.29698362597264E-05
2	533	114.455134711029	1.24008178710938	1.240234375	2.85858154296875E-06	3.54531084667542E-06	433863.59375	9.32584734982811E-05
2	534	114.555842710774	1.23001098632813	1.23016357421875	2.84423828125E-06	3.49887818629213E-06	432510.75	9.35456264414825E-05
2	535	114.65655071052	1.21994018554688	1.21978759765625	2.83050537109375E-06	3.4526153740444E-06	430943.40625	9.38313751248643E-05
2	536	114.757258710266	1.20986938476563	1.21002197265625	2.8167724609375E-06	3.40835640599835E-06	429577.46875	9.41157413762994E-05
2	537	114.857966710012	1.19979858398438	1.19964599609375	2.80426025390625E-06	3.36411949319881E-06	427794.09375	9.43987834034488E-05
2	538	114.958674709757	1.18972778320313	1.1895751953125	2.79205322265625E-06	3.32135732605821E-06	426057.5	9.46805739658885E-05
2	539	115.059382709503	1.17965698242188	1.1798095703125	2.7801513671875E-06	3.28004921357206E-06	424368.8125	9.49611567193642E-05
2	540	115.160090709249	1.16958618164063	1.17034912109375	2.7685546875E-06	3.2401753742306E-06	422729.28125	9.52405607677065E-05
2	541	115.260798708994	1.15951538085938	1.1590576171875	2.75634765625E-06	3.19476566801313E-06	420504.875	9.55187570070848E-05
2	542	115.36150670874	1.14944458007813	1.14959716796875	2.7435302734375E-06	3.15395436700783E-06	419021.15625	9.57957017817535E-05
2	543	115.462214708486	1.13937377929688	1.13983154296875	2.72979736328125E-06	3.11150893139711E-06	417551.71875	9.60713077802211E-05
2	544	115.562922708232	1.12930297851563	1.129150390625	2.713623046875E-06	3.06408833239402E-06	416104.375	9.6345400379505E-05
2	545	115.663630707977	1.11923217773438	1.119384765625	2.69439697265625E-06	3.01606678476674E-06	415449.09375	9.66177176451311E-05
2	546	115.764338707723	1.10916137695313	1.10931396484375	2.6715087890625E-06	2.9635421014973E-06	415238.75	9.68879103311338E-05
2	547	115.865046707469	1.09909057617188	1.09893798828125	2.64129638671875E-06	2.90262073576741E-06	416060.09375	9.7155432740692E-05
2	548	115.965754707215	1.08901977539063	1.0888671875	2.60345458984375E-06	2.83481608676084E-06	418239.375	9.74195281742141E-05
2	549	116.06646270696	1.07894897460938	1.0784912109375	2.55279541015625E-06	2.75316733677755E-06	422474.59375	9.76791634457186E-05
2	550	116.167170706706	1.06887817382813	1.06903076171875	2.4853515625E-06	2.65691710410465E-06	430132.65625	9.79328542598523E-05
2	551	116.267878706452	1.05880737304688	1.05865478515625	2.39654541015625E-06	2.53711414188729E-06	441742.03125	9.81786797638051E-05
2	552	116.368586706198	1.04873657226563	1.048583984375	2.28179931640625E-06	2.39265818890999E-06	459542.625	9.84142534434795E-05
2	553	116.469294705943	1.03866577148438	1.0382080078125	2.1392822265625E-06	2.22101971303346E-06	485306.75	9.86368759186007E-05
2	554	116.570002705689	1.02859497070313	1.02874755859375	1.971435546875E-06	2.02810952032451E-06	521826.625	9.8843862360809E-05
2	555	116.670710705435	1.01852416992188	1.01806640625	1.78466796875E-06	1.81691041234444E-06	570451.4375	9.90330008789897E-05
2	556	116.771418705181	1.00845336914063	1.00860595703125	1.59393310546875E-06	1.60765046075539E-06	632778.0625	9.92031273199245E-05
2	557	116.872126704926	0.998382568359375	0.99822998046875	1.41845703125E-06	1.41594637170783E-06	703743.5625	9.93548092083074E-05
2	558	116.972834704672	0.988311767578125	0.9881591796875	1.27349853515625E-06	1.25841916087666E-06	775940.625	9.94903602986597E-05
2	559	117.073542704418	0.978240966796875	0.9783935546875	1.1712646484375E-06	1.14595775357884E-06	835330.875	9.9613462225534E-05
2	560	117.174250704163	0.968170166015625	0.968017578125	1.11297607421875E-06	1.07738037513627E-06	869756	9.97284878394566E-05
2	561	117.274958703909	0.958099365234375	0.95794677734375	1.09161376953125E-06	1.04570790426806E-06	877551.0625	9.98394971247762E-05
2	562	117.375666703655	0.948028564453125	0.947265625	1.09100341796875E-06	1.03346997093468E-06	868251.8125	9.99494004645385E-05
2	563	117.476374703401	0.937957763671875	0.9381103515625	1.0955810546875E-06	1.02777596566739E-06	856267.375	0.000100059500255156
2	564	117.577082703146	0.927886962890625	0.92803955078125	1.0919189453125E-06	1.01334387636598E-06	849916.1875	0.000100169650977477
2	565	117.677790702892	0.917816162109375	0.91766357421875	1.0693359375E-06	9.81290554591396E-07	858162.125	0.000100278477475513
2	566	117.778498702638	0.907745361328125	0.908203125	1.0198974609375E-06	9.26274083212775E-07	890484.75	0.000100383680546656
2	567	117.879206702384	0.897674560546875	0.8978271484375	9.30175781250001E-07	8.35137029753241E-07	965223.125	0.000100481876870617
2	568	117.979914702129	0.887603759765625	0.887451171875	7.965087890625E-07	7.06862635979633E-07	1114176.25	0.000100568817288149
2	569	118.080622701875	0.877532958984375	0.87799072265625	6.1187744140625E-07	5.37222717866825E-07	1434912.75	0.000100639736047015
2	570	118.181330701621	0.867462158203125	0.86761474609375	3.77502441406249E-07	3.27526663568278E-07	2298302.5	0.000100689554528799
2	571	118.282038701367	0.857391357421875	0.85784912109375	1.0345458984375E-07	8.87484290501561E-08	8292035.5	0.000100713776191697
2	572	118.382746701112	0.847320556640625	0.84747314453125	-1.8890380859375E-07	-1.60090891654363E-07	-4486268.5	0.000100709476100747
2	573	118.483454700858	0.837249755859375	0.83770751953125	-4.75158691406249E-07	-3.98043994209729E-07	-1763005.75	0.000100676035799552
2	574	118.584162700604	0.827178955078125	0.8270263671875	-7.2601318359375E-07	-6.00432031205855E-07	-1139134.125	0.000100615550763905
2	575	118.68487070035	0.817108154296875	0.8172607421875	-9.21630859375E-07	-7.53212702875317E-07	-886755	0.000100532583019231
2	576	118.785578700095	0.807037353515625	0.80718994140625	-1.04766845703125E-06	-8.45667443627462E-07	-770463.1875	0.000100433426268864
2	577	118.886286699841	0.796966552734375	0.79681396484375	-1.10748291015625E-06	-8.82457811712811E-07	-719482	0.000100324905361049
2	578	118.986994699587	0.786895751953125	0.78704833984375	-1.11297607421875E-06	-8.75965952218394E-07	-707156.5625	0.000100213095720392
2	579	119.087702699332	0.776824951171875	0.77667236328125	-1.08001708984375E-06	-8.38819460113882E-07	-719129.6875	0.000100102668511681
2	580	119.188410699078	0.766754150390625	0.7672119140625	-1.025390625E-06	-7.86691884968604E-07	-748214.3125	9.9996650533285E-05
2	581	119.289118698824	0.756683349609375	0.7568359375	-9.6435546875E-07	-7.29858811610029E-07	-784810.1875	9.98964605969377E-05
2	582	119.38982669857	0.746612548828125	0.74652099609375	-9.08203125E-07	-6.77992659348092E-07	-821975.8125	9.98021714622155E-05
2	583	119.490534698315	0.736541748046875	0.736480712890625	-8.64562988281251E-07	-6.36733943792933E-07	-851853.125	9.97129027382471E-05
2	584	119.591242698061	0.726470947265625	0.72637939453125	-8.4075927734375E-07	-6.10710173987172E-07	-863956.5	9.96270318864845E-05
2	585	119.691950697807	0.716400146484375	0.716339111328125	-8.40148925781251E-07	-6.01831516178208E-07	-852633.5	9.95423906715587E-05
2	586	119.792658697553	0.706329345703125	0.70623779296875	-8.6517333984375E-07	-6.11018094787141E-07	-816296.3125	9.94565270957537E-05
2	587	119.893366697298	0.696258544921875	0.6961669921875	-9.14611816406249E-07	-6.36722575109161E-07	-761161.1875	9.93669018498622E-05
2	588	119.994074697044	0.686187744140625	0.68609619140625	-9.81750488281249E-07	-6.73575243581581E-07	-698849.9375	9.92714121821336E-05
2	589	120.09478269679	0.676116943359375	0.676025390625	-1.0577392578125E-06	-7.15058604328078E-07	-639122.875	9.91687193163671E-05
2	590	120.195490696536	0.666046142578125	0.666015625	-1.12884521484375E-06	-7.51828508782637E-07	-589997.3125	9.90586122497916E-05
2	591	120.296198696281	0.655975341796875	0.655975341796875	-1.18255615234375E-06	-7.75727698965056E-07	-554709.6875	9.89422260317951E-05
2	592	120.396906696027	0.645904541015625	0.64581298828125	-1.21185302734375E-06	-7.82630422691E-07	-532913.625	9.88216561381705E-05
2	593	120.497614695773	0.635833740234375	0.635772705078125	-1.21368408203125E-06	-7.71627185258694E-07	-523837.0625	9.86995219136588E-05
2	594	120.598322695519	0.625762939453125	0.625701904296875	-1.19140625E-06	-7.45465172258264E-07	-525179.3125	9.85784208751284E-05
2	595	120.699030695264	0.615692138671875	0.615631103515625	-1.151123046875E-06	-7.08667130311369E-07	-534809.125	9.84604630502872E-05
2	596	120.79973869501	0.605621337890625	0.605560302734375	-1.099853515625E-06	-6.66027631268662E-07	-550582.6875	9.83471181825735E-05
2	597	120.900446694756	0.595550537109375	0.59552001953125	-1.04248046875E-06	-6.20817957042163E-07	-571252.9375	9.8239237559028E-05
2	598	121.001154694501	0.585479736328125	0.58544921875	-9.85107421875001E-07	-5.76730315060558E-07	-594299.9375	9.81371413217857E-05
2	599	121.101862694247	0.575408935546875	0.57537841796875	-9.2926025390625E-07	-5.34676303232118E-07	-619179	9.8040749435313E-05
2	600	121.202570693993	0.565338134765625	0.565277099609375	-8.76770019531251E-07	-4.95617996421061E-07	-644726.75	9.79498072410934E-05
2	601	121.303278693739	0.555267333984375	0.55523681640625	-8.28857421875E-07	-4.60212163488904E-07	-669882.1875	9.78639218374155E-05
2	602	121.403986693484	0.545196533203125	0.545196533203125	-7.84912109374999E-07	-4.2793135435204E-07	-694595.625	9.77826639427803E-05
2	603	121.50469469323	0.535125732421875	0.53509521484375	-7.4432373046875E-07	-3.98284043967578E-07	-718901.25	9.77056552073918E-05
2	604	121.605402692976	0.525054931640625	0.5250244140625	-7.08923339843751E-07	-3.72202066500904E-07	-740594.0625	9.7632480901666E-05
2	605	121.706110692722	0.514984130859375	0.5150146484375	-6.7626953125E-07	-3.48288693885479E-07	-761552.375	9.75627335719764E-05
2	606	121.806818692467	0.504913330078125	0.504913330078125	-6.4697265625E-07	-3.26665116290314E-07	-780424.5625	9.74961003521457E-05
2	607	121.907526692213	0.494842529296875	0.49481201171875	-6.201171875E-07	-3.06841428709959E-07	-797933.0625	9.7432297479827E-05
2	608	122.008234691959	0.484771728515625	0.484771728515625	-5.963134765625E-07	-2.89075899218005E-07	-812947.875	9.73710484686308E-05
2	609	122.108942691705	0.474700927734375	0.4747314453125	-5.74951171875E-07	-2.72947403345825E-07	-825690	9.73120695562102E-05
2	610	122.20965069145	0.464630126953125	0.46466064453125	-5.5511474609375E-07	-2.57939973380417E-07	-837053.3125	9.72551642917097E-05
2	611	122.310358691196	0.454559326171875	0.45458984375	-5.37109375E-07	-2.4416445398856E-07	-846363.625	9.7200165328104E-05
2	612	122.411066690942	0.444488525390625	0.444488525390625	-5.20935058593749E-07	-2.31549648788132E-07	-853251.375	9.7146890766453E-05
2	613	122.511774690688	0.434417724609375	0.434417724609375	-5.05981445312501E-07	-2.19807290591234E-07	-858564.625	9.7095180535689E-05
2	614	122.612482690433	0.424346923828125	0.424346923828125	-4.925537109375E-07	-2.09013634844268E-07	-861524.1875	9.7044903668575E-05
2	615	122.713190690179	0.414276123046875	0.414276123046875	-4.80041503906251E-07	-1.98869727796591E-07	-863000.6875	9.69959291978739E-05
2	616	122.813898689925	0.404205322265625	0.40423583984375	-4.69055175781249E-07	-1.89608897471771E-07	-861808.75	9.69481334323063E-05
2	617	122.91460668967	0.394134521484375	0.3941650390625	-4.58679199218751E-07	-1.80795296955694E-07	-859348	9.69014217844233E-05
2	618	123.015314689416	0.384063720703125	0.384063720703125	-4.498291015625E-07	-1.72763037653567E-07	-853799.1875	9.68556705629453E-05
2	619	123.116022689162	0.373992919921875	0.3740234375	-4.41589355468749E-07	-1.65164763643588E-07	-846993.8125	9.68107851804234E-05
2	620	123.216730688908	0.363922119140625	0.363922119140625	-4.33349609375E-07	-1.57705514425288E-07	-839788.75	9.67667292570695E-05
2	621	123.317438688653	0.353851318359375	0.353851318359375	-4.26025390625E-07	-1.5074964210271E-07	-830587.4375	9.6723459137138E-05
2	622	123.418146688399	0.343780517578125	0.343780517578125	-4.193115234375E-07	-1.44151130143655E-07	-819869.0625	9.6680894785095E-05
2	623	123.518854688145	0.333709716796875	0.333740234375	-4.1229248046875E-07	-1.37598590299604E-07	-809474.4375	9.66390143730678E-05
2	624	123.619562687891	0.323638916015625	0.323638916015625	-4.06494140624999E-07	-1.31557328586496E-07	-796171.1875	9.65977887972258E-05
2	625	123.720270687636	0.313568115234375	0.3135986328125	-4.00695800781251E-07	-1.25657649618915E-07	-782635.1875	9.6557145297993E-05
2	626	123.820978687382	0.303497314453125	0.303497314453125	-3.9642333984375E-07	-1.20313416118734E-07	-765588.9375	9.65170038398355E-05
2	627	123.921686687128	0.293426513671875	0.29339599609375	-3.91845703125E-07	-1.14965956754531E-07	-748753.875	9.64773134910502E-05
2	628	124.022394686874	0.283355712890625	0.28338623046875	-3.875732421875E-07	-1.09832917871699E-07	-731181.125	9.64380669756792E-05
2	629	124.123102686619	0.273284912109375	0.2733154296875	-3.8421630859375E-07	-1.05012240680935E-07	-711358.25	9.63991988101043E-05
2	630	124.223810686365	0.263214111328125	0.263214111328125	-3.8116455078125E-07	-1.00327888219454E-07	-690552.4375	9.63606653385796E-05
2	631	124.324518686111	0.253143310546875	0.253143310546875	-3.7811279296875E-07	-9.57167216597554E-08	-669491.5625	9.6322430181317E-05
2	632	124.425226685857	0.243072509765625	0.243072509765625	-3.75976562499999E-07	-9.13895661369679E-08	-646509.75	9.62844569585286E-05
2	633	124.525934685602	0.233001708984375	0.232940673828125	-3.74755859375001E-07	-8.72958807462965E-08	-621579.8125	9.62466583587229E-05
2	634	124.626642685348	0.222930908203125	0.22296142578125	-3.741455078125E-07	-8.34200122312723E-08	-595921.75	9.62089470704086E-05
2	635	124.727350685094	0.212860107421875	0.212860107421875	-3.74450683593749E-07	-7.97056145529496E-08	-568459.6875	9.61712503340095E-05
2	636	124.828058684839	0.202789306640625	0.2027587890625	-3.74755859375001E-07	-7.59850422582531E-08	-541042.375	9.613352449378E-05
2	637	124.928766684585	0.192718505859375	0.192718505859375	-3.77197265625E-07	-7.26928917060832E-08	-510922.3125	9.60956604103558E-05
2	638	125.029474684331	0.182647705078125	0.182708740234375	-3.7994384765625E-07	-6.94190589456412E-08	-480883.5625	9.60575343924575E-05
2	639	125.130182684077	0.172576904296875	0.17266845703125	-3.85131835937499E-07	-6.65001138600019E-08	-448336	9.6019015472848E-05
2	640	125.230890683822	0.162506103515625	0.16253662109375	-3.91235351562499E-07	-6.35900718748417E-08	-415444.625	9.5979921752587E-05
2	641	125.331598683568	0.152435302734375	0.152496337890625	-3.9947509765625E-07	-6.09184880318026E-08	-381741.8125	9.59401004365645E-05
2	642	125.432306683314	0.142364501953125	0.142364501953125	-4.11376953125001E-07	-5.85654724716278E-08	-346068.28125	9.58992750383914E-05
2	643	125.53301468306	0.132293701171875	0.13232421875	-4.2755126953125E-07	-5.65753879300246E-08	-309493.21875	9.58570308284834E-05
2	644	125.633722682805	0.122222900390625	0.122314453125	-4.4891357421875E-07	-5.49086180967606E-08	-272467.71875	9.58128948695958E-05
2	645	125.734430682551	0.112152099609375	0.112213134765625	-4.7882080078125E-07	-5.37299804648228E-08	-234353.109375	9.57661832217127E-05
2	646	125.835138682297	0.102081298828125	0.10205078125	-5.2001953125E-07	-5.30683976762703E-08	-196244.140625	9.57158845267259E-05
2	647	125.935846682043	0.092010498046875	0.092010498046875	-5.780029296875E-07	-5.31823367566631E-08	-159186.90625	9.56605945248157E-05
2	648	126.036554681788	0.081939697265625	0.081939697265625	-6.5765380859375E-07	-5.38879518785507E-08	-124593.96875	9.55983778112568E-05
2	649	126.137262681534	0.071868896484375	0.0718994140625	-7.6629638671875E-07	-5.50962582224201E-08	-93827.1640625	9.5526673248969E-05
2	650	126.23797068128	0.061798095703125	0.061859130859375	-9.08203125E-07	-5.61806530186004E-08	-68111.5625	9.54423594521359E-05
2	651	126.338678681025	0.051727294921875	0.05181884765625	-1.09039306640625E-06	-5.65029125709771E-08	-47523.08984375	9.53417184064165E-05
2	652	126.439386680771	0.041656494140625	0.0417449951171875	-1.31134033203125E-06	-5.47418927965282E-08	-31833.83984375	9.52207847149111E-05
2	653	126.540094680517	0.031585693359375	0.031683349609375	-1.56463623046875E-06	-4.95729111094079E-08	-20249.658203125	9.50759640545584E-05
2	654	126.640802680263	0.021514892578125	0.021624755859375	-1.83074951171875E-06	-3.95895085603115E-08	-11811.9677734375	9.49049936025403E-05
2	655	126.741510680008	0.011444091796875	0.0115325927734375	-2.0880126953125E-06	-2.40801991679973E-08	-5523.23876953125	9.47076696320437E-05
2	656	126.842218679754	0.001373291015625	0.0014923095703125	-2.30926513671875E-06	-3.44613848568542E-09	-646.227111816406	9.44862476899289E-05
2	657	126.9429266795	-0.008697509765625	-0.00856933593750001	-2.47283935546875E-06	2.11905888392039E-08	3465.38330078125	9.42454498726875E-05
2	658	127.043634679246	-0.018768310546875	-0.0186431884765625	-2.57049560546875E-06	4.79222350691089E-08	7252.7607421875	9.39914971240796E-05
2	659	127.144342678991	-0.028839111328125	-0.028704833984375	-2.60528564453125E-06	7.47842889836647E-08	11017.921875	9.37308795982972E-05
2	660	127.245050678737	-0.038909912109375	-0.038739013671875	-2.59002685546875E-06	1.00335086017367E-07	14956.994140625	9.34692725422792E-05
2	661	127.345758678483	-0.048980712890625	-0.048822021484375	-2.540283203125E-06	1.2402175286752E-07	19219.126953125	9.32109396671876E-05
2	662	127.446466678229	-0.059051513671875	-0.05902099609375	-2.47222900390625E-06	1.45913418236887E-07	23873.595703125	9.29585439735092E-05
2	663	127.547174677974	-0.069122314453125	-0.069061279296875	-2.39501953125E-06	1.65403108098872E-07	28835.373046875	9.27134533412755E-05
2	664	127.64788267772	-0.079193115234375	-0.0791015625	-2.3187255859375E-06	1.83414812227056E-07	34114.2421875	9.24760970519856E-05
2	665	127.748590677466	-0.089263916015625	-0.089202880859375	-2.2467041015625E-06	2.00412472395328E-07	39703.88671875	9.22462131711654E-05
2	666	127.849298677212	-0.099334716796875	-0.099273681640625	-2.18048095703125E-06	2.16464357549739E-07	45528.34375	9.20232851058245E-05
2	667	127.950006676957	-0.109405517578125	-0.109283447265625	-2.12066650390625E-06	2.31753745083552E-07	51532.59375	9.18067016755231E-05
2	668	128.050714676703	-0.119476318359375	-0.119384765625	-2.06878662109375E-06	2.46981613827302E-07	57707.625	9.15957498364151E-05
2	669	128.151422676449	-0.129547119140625	-0.12945556640625	-2.02362060546875E-06	2.61968949644142E-07	63972.25390625	9.13896801648661E-05
2	670	128.252130676194	-0.139617919921875	-0.139495849609375	-1.98516845703125E-06	2.76922747843855E-07	70269.0234375	9.11878232727759E-05
2	671	128.35283867594	-0.149688720703125	-0.149566650390625	-1.95281982421875E-06	2.92076691721377E-07	76590.09375	9.09895315999165E-05
2	672	128.453546675686	-0.159759521484375	-0.15960693359375	-1.9268798828125E-06	3.07543388089471E-07	82831.8046875	9.07941721379757E-05
2	673	128.554254675432	-0.169830322265625	-0.169677734375	-1.90643310546875E-06	3.23479241615132E-07	89002.71875	9.0601148258429E-05
2	674	128.654962675177	-0.179901123046875	-0.179718017578125	-1.8914794921875E-06	3.39932938686616E-07	95014.5234375	9.04099069884978E-05
2	675	128.755670674923	-0.189971923828125	-0.189788818359375	-1.88232421875E-06	3.57244090309905E-07	100826.8515625	9.02198808034882E-05
2	676	128.856378674669	-0.200042724609375	-0.199920654296875	-1.87774658203125E-06	3.75400304619689E-07	106468.390625	9.00305458344519E-05
2	677	128.957086674415	-0.189971923828125	-0.189849853515625	-1.65863037109375E-06	3.14890741037743E-07	114461.8203125	8.98524740478024E-05
