Potential - OCP -0.03431770474303 V
Time (s)	WE(1).Potential (V)
6.89731198258596	-0.0344573974609375
6.99731198233349	-0.034454345703125
7.09731198208101	-0.0344512939453125
7.19731198182853	-0.0344482421875
7.29731198157606	-0.0344451904296875
7.39731198132358	-0.034442138671875
7.49731198107111	-0.0344329833984375
7.59731198081863	-0.034429931640625
7.69731198056616	-0.0344268798828125
7.79731198031368	-0.034423828125
7.8973119800612	-0.034417724609375
7.99731197980873	-0.0344146728515625
8.09731197955625	-0.0344085693359375
8.19731197930378	-0.0344024658203125
8.2973119790513	-0.0343963623046875
8.39731197879883	-0.0343902587890625
8.49731197854635	-0.0343841552734375
8.59731197829387	-0.0343780517578125
8.6973119780414	-0.0343719482421875
8.79731197778892	-0.034368896484375
8.89731197753645	-0.03436279296875
8.99731197728397	-0.034356689453125
9.0973119770315	-0.0343505859375
9.19731197677902	-0.034344482421875
9.29731197652654	-0.034332275390625
9.39731197627407	-0.0343292236328125
9.49731197602159	-0.034320068359375
9.59731197576912	-0.0343109130859375
9.69731197551664	-0.0343048095703125
9.79731197526417	-0.0342987060546875
9.89731197501169	-0.034295654296875
9.99731197475921	-0.0342926025390625
10.0973119745067	-0.03428955078125
10.1973119742543	-0.0342864990234375
10.2973119740018	-0.03427734375
10.3973119737493	-0.0342742919921875
10.4973119734968	-0.034271240234375
10.5973119732444	-0.034271240234375
10.6973119729919	-0.034271240234375
10.7973119727394	-0.0342742919921875
10.8973119724869	-0.034271240234375
10.9973119722345	-0.034271240234375
11.097311971982	-0.034271240234375
11.1973119717295	-0.034271240234375
11.297311971477	-0.0342742919921875
11.3973119712246	-0.03427734375
11.4973119709721	-0.03427734375
11.5973119707196	-0.0342803955078125
11.6973119704671	-0.0342864990234375
11.7973119702147	-0.0342926025390625
11.8973119699622	-0.034295654296875
11.9973119697097	-0.0342987060546875
12.0973119694572	-0.0343048095703125
12.1973119692047	-0.034307861328125
12.2973119689523	-0.03431396484375
12.3973119686998	-0.034320068359375
12.4973119684473	-0.034326171875
12.5973119681948	-0.034332275390625
12.6973119679424	-0.03433837890625
12.7973119676899	-0.034344482421875
12.8973119674374	-0.0343505859375
12.9973119671849	-0.034356689453125
13.0973119669325	-0.03436279296875
13.19731196668	-0.0343658447265625
13.2973119664275	-0.034368896484375
13.397311966175	-0.0343719482421875
13.4973119659226	-0.034375
13.5973119656701	-0.034375
13.6973119654176	-0.034375
13.7973119651651	-0.034375
13.8973119649127	-0.034375
13.9973119646602	-0.0343719482421875
14.0973119644077	-0.0343719482421875
14.1973119641552	-0.034368896484375
14.2973119639028	-0.03436279296875
14.3973119636503	-0.034356689453125
14.4973119633978	-0.0343536376953125
14.5973119631453	-0.0343475341796875
14.6973119628929	-0.034344482421875
14.7973119626404	-0.03433837890625
14.8973119623879	-0.034332275390625
14.9973119621354	-0.034326171875
15.097311961883	-0.034320068359375
15.1973119616305	-0.0343170166015625
15.297311961378	-0.0343109130859375
15.3973119611255	-0.0343048095703125
15.497311960873	-0.0342987060546875
15.5973119606206	-0.0342926025390625
15.6973119603681	-0.03428955078125
15.7973119601156	-0.034283447265625
15.8973119598631	-0.03427734375
15.9973119596107	-0.034271240234375
16.0973119593582	-0.03426513671875
16.1973119591057	-0.034259033203125
16.2973119588532	-0.0342559814453125
16.3973119586008	-0.0342498779296875
16.4973119583483	-0.0342437744140625
16.5973119580958	-0.03424072265625
16.6973119578433	-0.0342376708984375
16.7973119575909	-0.0342315673828125
16.8973119573384	-0.034228515625
16.9973119570859	-0.0342254638671875
17.0973119568334	-0.0342193603515625
17.197311956581	-0.03421630859375
17.2973119563285	-0.034210205078125
17.397311956076	-0.0342041015625
17.4973119558235	-0.034197998046875
17.5973119555711	-0.0341949462890625
17.6973119553186	-0.0341888427734375
17.7973119550661	-0.034185791015625
17.8973119548136	-0.0341827392578125
17.9973119545612	-0.0341796875
18.0973119543087	-0.0341796875
18.1973119540562	-0.0341796875
18.2973119538037	-0.0341796875
18.3973119535513	-0.0341796875
18.4973119532988	-0.0341796875
18.5973119530463	-0.0341827392578125
18.6973119527938	-0.034185791015625
18.7973119525413	-0.0341888427734375
18.8973119522889	-0.03419189453125
18.9973119520364	-0.0341949462890625
19.0973119517839	-0.0342010498046875
19.1973119515314	-0.0342071533203125
19.297311951279	-0.034210205078125
19.3973119510265	-0.03421630859375
19.497311950774	-0.034222412109375
19.5973119505215	-0.0342315673828125
19.6973119502691	-0.0342376708984375
19.7973119500166	-0.0342437744140625
19.8973119497641	-0.0342498779296875
19.9973119495116	-0.034259033203125
20.0973119492592	-0.0342681884765625
20.1973119490067	-0.0342742919921875
20.2973119487542	-0.0342803955078125
20.3973119485017	-0.03428955078125
20.4973119482493	-0.034295654296875
20.5973119479968	-0.0343017578125
20.6973119477443	-0.0343048095703125
20.7973119474918	-0.0343109130859375
20.8973119472394	-0.034320068359375
20.9973119469869	-0.0343353271484375
21.0973119467344	-0.0343475341796875
21.1973119464819	-0.034344482421875
21.2973119462295	-0.034344482421875
21.397311945977	-0.034344482421875
21.4973119457245	-0.0343475341796875
21.597311945472	-0.0343475341796875
21.6973119452196	-0.0343475341796875
21.7973119449671	-0.0343475341796875
21.8973119447146	-0.0343475341796875
21.9973119444621	-0.0343475341796875
22.0973119442097	-0.0343475341796875
22.1973119439572	-0.0343475341796875
22.2973119437047	-0.034344482421875
22.3973119434522	-0.034344482421875
22.4973119431997	-0.034344482421875
22.5973119429473	-0.0343414306640625
22.6973119426948	-0.03433837890625
22.7973119424423	-0.0343353271484375
22.8973119421898	-0.034332275390625
22.9973119419374	-0.034332275390625
23.0973119416849	-0.0343292236328125
23.1973119414324	-0.034326171875
23.2973119411799	-0.0343231201171875
23.3973119409275	-0.0343170166015625
23.497311940675	-0.03431396484375
23.5973119404225	-0.0343109130859375
23.69731194017	-0.034307861328125
23.7973119399176	-0.0343048095703125
23.8973119396651	-0.0343017578125
23.9973119394126	-0.0342987060546875
24.0973119391601	-0.034295654296875
24.1973119389077	-0.0342926025390625
24.2973119386552	-0.03428955078125
24.3973119384027	-0.0342864990234375
24.4973119381502	-0.034283447265625
24.5973119378978	-0.0342803955078125
24.6973119376453	-0.0342681884765625
24.7973119373928	-0.034271240234375
24.8973119371403	-0.034271240234375
24.9973119368879	-0.0342681884765625
25.0973119366354	-0.03426513671875
25.1973119363829	-0.03426513671875
25.2973119361304	-0.03426513671875
25.397311935878	-0.0342620849609375
25.4973119356255	-0.034259033203125
25.597311935373	-0.034259033203125
25.6973119351205	-0.0342559814453125
25.797311934868	-0.0342559814453125
25.8973119346156	-0.0342559814453125
25.9973119343631	-0.0342529296875
26.0973119341106	-0.0342529296875
26.1973119338581	-0.0342529296875
26.2973119336057	-0.0342529296875
26.3973119333532	-0.0342529296875
26.4973119331007	-0.0342529296875
26.5973119328482	-0.0342559814453125
26.6973119325958	-0.0342559814453125
26.7973119323433	-0.034259033203125
26.8973119320908	-0.034259033203125
26.9973119318383	-0.0342620849609375
27.0973119315859	-0.0342620849609375
27.1973119313334	-0.03426513671875
27.2973119310809	-0.0342681884765625
27.3973119308284	-0.034271240234375
27.497311930576	-0.0342742919921875
27.5973119303235	-0.03427734375
27.697311930071	-0.0342803955078125
27.7973119298185	-0.034283447265625
27.8973119295661	-0.0342864990234375
27.9973119293136	-0.03428955078125
28.0973119290611	-0.0342926025390625
28.1973119288086	-0.034295654296875
28.2973119285562	-0.0343017578125
28.3973119283037	-0.0343048095703125
28.4973119280512	-0.034307861328125
28.5973119277987	-0.0343109130859375
28.6973119275463	-0.03431396484375
28.7973119272938	-0.0343170166015625
28.8973119270413	-0.034320068359375
28.9973119267888	-0.0343231201171875
29.0973119265363	-0.034326171875
29.1973119262839	-0.0343292236328125
29.2973119260314	-0.034332275390625
29.3973119257789	-0.0343353271484375
29.4973119255264	-0.03433837890625
29.597311925274	-0.0343414306640625
29.6973119250215	-0.034344482421875
29.797311924769	-0.034344482421875
29.8973119245165	-0.0343475341796875
29.9973119242641	-0.0343505859375
30.0973119240116	-0.0343505859375
30.1973119237591	-0.0343536376953125
30.2973119235066	-0.0343536376953125
30.3973119232542	-0.034356689453125
30.4973119230017	-0.034356689453125
30.5973119227492	-0.0343597412109375
30.6973119224967	-0.0343597412109375
30.7973119222443	-0.0343597412109375
30.8973119219918	-0.0343597412109375
30.9973119217393	-0.0343597412109375
31.0973119214868	-0.0343597412109375
31.1973119212344	-0.0343597412109375
31.2973119209819	-0.0343597412109375
31.3973119207294	-0.0343597412109375
31.4973119204769	-0.0343597412109375
31.5973119202245	-0.0343597412109375
