Potential - Start -0.2 V, Upper Vertex 1.5 V, Lower Vertex -0.2 V, Stop -0.19 V; Scan - # end cross 5, Rate 0.1 Vps, Step 0.01 V 
Scan	Index	Time (s)	Potential applied (V)	WE(1).Potential (V)	WE(1).Current (A)	WE(1).Power (W)	WE(1).Resistance (Ω)	WE(1).Charge (C)
1	1	66.0795688331651	-0.189971923828125	-0.1898193359375	-2.46276855468749E-07	4.67481058308294E-08	770755.9375	0
1	2	66.1802768329109	-0.179901123046875	-0.179718017578125	-2.1087646484375E-07	3.78982996096511E-08	852243.125	-2.3019497419341E-08
1	3	66.2809848326566	-0.169830322265625	-0.169677734375	-1.8310546875E-07	3.10689216576066E-08	926666.6875	-4.28580655409405E-08
1	4	66.3816928324023	-0.159759521484375	-0.159698486328125	-1.59301757812499E-07	2.54402490185157E-08	1002490.5	-6.00996372668305E-08
1	5	66.4824008321481	-0.149688720703125	-0.14959716796875	-1.3763427734375E-07	2.05896970584263E-08	1086918	-7.50515525282935E-08
1	6	66.5831088318938	-0.139617919921875	-0.139495849609375	-1.18103027343749E-07	1.64748819031502E-08	1181137	-8.79289459021493E-08
1	7	66.6838168316395	-0.129547119140625	-0.129425048828125	-9.918212890625E-08	1.28366508533873E-08	1304923.125	-9.88701245319135E-08
1	8	66.7845248313853	-0.119476318359375	-0.119354248046875	-8.02612304687506E-08	9.57951851177086E-09	1487072.25	-1.07905819390908E-07
1	9	66.885232831131	-0.109405517578125	-0.1092529296875	-6.07299804687503E-08	6.63492816244116E-09	1798995	-1.15005285294956E-07
1	10	66.9859408308768	-0.099334716796875	-0.099212646484375	-3.96728515625E-08	3.93604882020782E-09	2500769.25	-1.20060974495573E-07
1	11	67.0866488306225	-0.089263916015625	-0.089202880859375	-1.52587890625E-08	1.36112787707532E-09	5846000.5	-1.22827003679049E-07
1	12	67.1873568303682	-0.079193115234375	-0.079071044921875	1.373291015625E-08	-1.08587550062822E-09	-5757778	-1.22903827559639E-07
1	13	67.288064830114	-0.069122314453125	-0.069061279296875	5.035400390625E-08	-3.4775118340491E-09	-1371515.125	-1.19676798249202E-07
1	14	67.3887728298597	-0.059051513671875	-0.059051513671875	9.73510742187503E-08	-5.74872816017091E-09	-606583.125	-1.12239263216907E-07
1	15	67.4894808296054	-0.048980712890625	-0.04881591796875	1.605224609375E-07	-7.8360509192521E-09	-304106.46875	-9.92542936728569E-08
1	16	67.5901888293512	-0.038909912109375	-0.0387420654296875	2.4444580078125E-07	-9.47033562681554E-09	-158489.390625	-7.88625271752608E-08
1	17	67.6908968290969	-0.028839111328125	-0.0286773681640625	3.5675048828125E-07	-1.02306652038919E-08	-80384.9453125	-4.85898858926248E-08
1	18	67.7916048288427	-0.018768310546875	-0.0186126708984375	5.02624511718749E-07	-9.35518507105826E-09	-37030.96484375	-5.31691757288399E-09
1	19	67.8923128285884	-0.008697509765625	-0.0085906982421875	6.88781738281249E-07	-5.91711568631581E-09	-12472.30859375	5.46751515173582E-08
1	20	67.9930208283341	0.001373291015625	0.00147094726562499	9.1217041015625E-07	1.34175459631791E-09	1612.57958984375	1.3528949693864E-07
1	21	68.0937288280799	0.011444091796875	0.0115264892578125	1.1651611328125E-06	1.34302169385592E-08	9892.615234375	2.39891448927665E-07
1	22	68.1944368278256	0.021514892578125	0.0215911865234375	1.42974853515625E-06	3.086996613888E-08	15101.3876953125	3.70555511608472E-07
1	23	68.2951448275713	0.031585693359375	0.031695556640625	1.67999267578125E-06	5.32482999915374E-08	18866.486328125	5.27143413364684E-07
1	24	68.3958528273171	0.041656494140625	0.0417694091796875	1.89208984375E-06	7.90314729215424E-08	22075.806640625	7.07012077327818E-07
1	25	68.4965608270628	0.051727294921875	0.0517578125	2.044677734375E-06	1.05828050322998E-07	25313.431640625	9.05244064597355E-07
1	26	68.5972688268085	0.061798095703125	0.06182861328125	2.13165283203125E-06	1.31797136759815E-07	29005.01171875	1.11553902115702E-06
1	27	68.6979768265543	0.071868896484375	0.071929931640625	2.1575927734375E-06	1.55195493789506E-07	33338.05078125	1.33151968384482E-06
1	28	68.7986848263	0.081939697265625	0.08197021484375	2.1356201171875E-06	1.75057223827935E-07	38382.3984375	1.54770009430649E-06
1	29	68.8993928260458	0.092010498046875	0.092071533203125	2.0819091796875E-06	1.91684563333183E-07	44224.5703125	1.7600696082809E-06
1	30	69.0001008257915	0.102081298828125	0.10205078125	2.01019287109375E-06	2.05141759579419E-07	50766.66015625	1.96612336367252E-06
1	31	69.1008088255372	0.112152099609375	0.1121826171875	1.93206787109375E-06	2.16744425074467E-07	58063.5	2.16463195101824E-06
1	32	69.201516825283	0.122222900390625	0.122222900390625	1.8536376953125E-06	2.26556963411895E-07	65936.78125	2.35525726566266E-06
1	33	69.3022248250287	0.132293701171875	0.13232421875	1.77947998046875E-06	2.35468291975849E-07	74361.171875	2.5381991690665E-06
1	34	69.4029328247744	0.142364501953125	0.142425537109375	1.710205078125E-06	2.43576863567796E-07	83279.796875	2.71391877504357E-06
1	35	69.5036408245202	0.152435302734375	0.1524658203125	1.64764404296875E-06	2.51209399948493E-07	92535.65625	2.88299997919239E-06
1	36	69.6043488242659	0.162506103515625	0.162506103515625	1.591796875E-06	2.58676692510562E-07	102089.7265625	3.04611876345007E-06
1	37	69.7050568240116	0.172576904296875	0.17266845703125	1.5411376953125E-06	2.66105871560285E-07	112039.609375	3.20387448482506E-06
1	38	69.8057648237574	0.182647705078125	0.182708740234375	1.49658203125E-06	2.7343861574991E-07	122084.0234375	3.35683603225334E-06
1	39	69.9064728235031	0.192718505859375	0.192779541015625	1.4569091796875E-06	2.80862280988003E-07	132320.90625	3.50555592376622E-06
1	40	70.0071808232489	0.202789306640625	0.202850341796875	1.42120361328125E-06	2.88291630567983E-07	142731.375	3.65048049388861E-06
1	41	70.1078888229946	0.212860107421875	0.21295166015625	1.38946533203125E-06	2.95888952450696E-07	153261.59375	3.79200901079457E-06
1	42	70.2085968227403	0.222930908203125	0.22296142578125	1.361083984375E-06	3.03469221307751E-07	163811.65625	3.93051004721201E-06
1	43	70.3093048224861	0.233001708984375	0.2330322265625	1.3348388671875E-06	3.11060489366355E-07	174577.046875	4.06626077165129E-06
1	44	70.4100128222318	0.243072509765625	0.2430419921875	1.3116455078125E-06	3.1878494155535E-07	185295.484375	4.19952175434446E-06
1	45	70.5107208219775	0.253143310546875	0.253173828125	1.290283203125E-06	3.26665940519888E-07	196215.703125	4.33053901360836E-06
1	46	70.6114288217233	0.263214111328125	0.26312255859375	1.2713623046875E-06	3.34524088430044E-07	206961.109375	4.4595280996873E-06
1	47	70.712136821469	0.273284912109375	0.273284912109375	1.25396728515625E-06	3.42690356092135E-07	217936.234375	4.58668864666834E-06
1	48	70.8128448212148	0.283355712890625	0.283355712890625	1.23748779296875E-06	3.50649202118802E-07	228976.59375	4.71214343633619E-06
1	49	70.9135528209605	0.293426513671875	0.293426513671875	1.22314453125E-06	3.58903037067648E-07	239895.21875	4.83604617329547E-06
1	50	71.0142608207062	0.303497314453125	0.303436279296875	1.209716796875E-06	3.67071947948716E-07	250832.5	4.95855056215078E-06
1	51	71.114968820452	0.313568115234375	0.313568115234375	1.197509765625E-06	3.75500860627653E-07	261850.15625	5.07976392327691E-06
1	52	71.2156768201977	0.323638916015625	0.32366943359375	1.1865234375E-06	3.84041356937814E-07	272788.09375	5.19980949320598E-06
1	53	71.3163848199434	0.333709716796875	0.333770751953125	1.1767578125E-06	3.92767333323718E-07	283635.90625	5.3188100537227E-06
1	54	71.4170928196892	0.343780517578125	0.34368896484375	1.16790771484375E-06	4.01396988536362E-07	294277.5	5.43687337994925E-06
1	55	71.5178008194349	0.353851318359375	0.3538818359375	1.15966796875E-06	4.10385410987146E-07	305157.90625	5.55407632418792E-06
1	56	71.6185088191806	0.363922119140625	0.36395263671875	1.15234375E-06	4.19398560325135E-07	315836.84375	5.67049528399366E-06
1	57	71.7192168189264	0.373992919921875	0.3740234375	1.14501953125E-06	4.28264115726051E-07	326652.46875	5.78617664359626E-06
1	58	71.8199248186721	0.384063720703125	0.38409423828125	1.14013671875E-06	4.37919908335971E-07	336884.375	5.90124318478047E-06
1	59	71.9206328184179	0.394134521484375	0.394195556640625	1.1346435546875E-06	4.47271446546438E-07	347417.96875	6.01578767600586E-06
1	60	72.0213408181636	0.404205322265625	0.404205322265625	1.13067626953125E-06	4.57025322475602E-07	357489.90625	6.12985559200752E-06
1	61	72.1220488179093	0.414276123046875	0.414276123046875	1.1273193359375E-06	4.67021436634241E-07	367487.84375	6.24355470790761E-06
1	62	72.2227568176551	0.424346923828125	0.424346923828125	1.124267578125E-06	4.77079481697729E-07	377443	6.35693095318857E-06
1	63	72.3234648174008	0.434417724609375	0.43438720703125	1.121826171875E-06	4.87306920149422E-07	387214.375	6.47003071208019E-06
1	64	72.4241728171465	0.444488525390625	0.444488525390625	1.12030029296875E-06	4.97960570555733E-07	396758.40625	6.58293083688477E-06
1	65	72.5248808168923	0.454559326171875	0.45458984375	1.11907958984375E-06	5.0872222345788E-07	406217.625	6.69569271849468E-06
1	66	72.625588816638	0.464630126953125	0.46466064453125	1.11846923828125E-06	5.19708635238203E-07	415443.40625	6.80836228639237E-06
1	67	72.7262968163838	0.474700927734375	0.47467041015625	1.1181640625E-06	5.30759393768676E-07	424508.75	6.92098547006026E-06
1	68	72.8270048161295	0.484771728515625	0.48480224609375	1.11907958984375E-06	5.42532291092357E-07	433215.15625	7.03363957654801E-06
1	69	72.9277128158752	0.494842529296875	0.494842529296875	1.12091064453125E-06	5.54674215891282E-07	441464.75	7.14643238097779E-06
1	70	73.028420815621	0.504913330078125	0.504913330078125	1.123046875E-06	5.67041354315734E-07	449592.375	7.25942436474725E-06
1	71	73.1291288153667	0.514984130859375	0.514984130859375	1.12640380859375E-06	5.80080040890607E-07	457193.21875	7.3726932896534E-06
1	72	73.2298368151124	0.525054931640625	0.524993896484375	1.13006591796875E-06	5.93277718508034E-07	464569.25	7.48631555325119E-06
1	73	73.3305448148582	0.535125732421875	0.535125732421875	1.1358642578125E-06	6.07830145327171E-07	471117.71875	7.60041439207271E-06
1	74	73.4312528146039	0.545196533203125	0.545166015625	1.14288330078125E-06	6.23061168880668E-07	477009.34375	7.71515806263778E-06
1	75	73.5319608143496	0.555267333984375	0.555206298828125	1.15234375E-06	6.39788538592256E-07	481806.125	7.83073210186558E-06
1	76	73.6326688140954	0.565338134765625	0.5653076171875	1.1639404296875E-06	6.57984344343276E-07	485684.34375	7.94736661191564E-06
1	77	73.7333768138411	0.575408935546875	0.57537841796875	1.17950439453125E-06	6.78661365327571E-07	487813.71875	8.06536809250247E-06
1	78	73.8340848135869	0.585479736328125	0.58544921875	1.201171875E-06	7.03225111919892E-07	487398.40625	8.18524495116435E-06
1	79	73.9347928133326	0.595550537109375	0.59552001953125	1.23046875E-06	7.32768739908352E-07	483978.1875	8.30768749437993E-06
1	80	74.0355008130783	0.605621337890625	0.605621337890625	1.27166748046875E-06	7.701489153078E-07	476241.90625	8.43367979541654E-06
1	81	74.1362088128241	0.615692138671875	0.615692138671875	1.32965087890625E-06	8.18655621515063E-07	463047.96875	8.56466704135528E-06
1	82	74.2369168125698	0.625762939453125	0.625762939453125	1.409912109375E-06	8.8227074002134E-07	443831.15625	8.70261465024669E-06
1	83	74.3376248123155	0.635833740234375	0.635711669921875	1.5191650390625E-06	9.65750928116904E-07	418461.21875	8.8501055870438E-06
1	84	74.4383328120613	0.645904541015625	0.6458740234375	1.66351318359375E-06	1.07441985619516E-06	388259.0625	9.0103658294538E-06
1	85	74.539040811807	0.655975341796875	0.655975341796875	1.8408203125E-06	1.20753270493879E-06	356349.5	9.18682326300768E-06
1	86	74.6397488115527	0.666046142578125	0.66595458984375	2.04742431640625E-06	1.36349160584359E-06	325264.59375	9.38261200644774E-06
1	87	74.7404568112985	0.676116943359375	0.67608642578125	2.26898193359375E-06	1.53402788782842E-06	297969.0625	9.59996032179333E-06
1	88	74.8411648110442	0.686187744140625	0.686126708984375	2.48809814453125E-06	1.70715054537141E-06	275763.53125	9.83949848887278E-06
1	89	74.94187281079	0.696258544921875	0.696197509765625	2.68310546875E-06	1.86797126389138E-06	259474.53125	1.00998895504745E-05
1	90	75.0425808105357	0.706329345703125	0.70623779296875	2.83782958984375E-06	2.00418253371026E-06	248865.484375	1.03778902484919E-05
1	91	75.1432888102814	0.716400146484375	0.716339111328125	2.94158935546875E-06	2.10717530535476E-06	243521.125	1.06689067251864E-05
1	92	75.2439968100272	0.726470947265625	0.72637939453125	2.99835205078125E-06	2.17794104173663E-06	242259.5625	1.09680067907902E-05
1	93	75.3447048097729	0.736541748046875	0.736419677734375	3.01788330078125E-06	2.2224285203265E-06	244018.609375	1.12709485620144E-05
1	94	75.4454128095186	0.746612548828125	0.74652099609375	3.0181884765625E-06	2.253141019537E-06	247340.75	1.15748889584211E-05
1	95	75.5461208092644	0.756683349609375	0.75714111328125	3.0145263671875E-06	2.28242174671323E-06	251164.203125	1.18786601888132E-05
1	96	75.6468288090101	0.766754150390625	0.76690673828125	3.02490234375E-06	2.31981789511337E-06	253531.078125	1.21827697512344E-05
1	97	75.7475368087559	0.776824951171875	0.77728271484375	3.06396484375E-06	2.38156690102187E-06	253685.25	1.24893686006544E-05
1	98	75.8482448085016	0.786895751953125	0.78704833984375	3.14849853515625E-06	2.47802063313429E-06	249975.765625	1.28021911223186E-05
1	99	75.9489528082473	0.796966552734375	0.79681396484375	3.2904052734375E-06	2.62184084931505E-06	242162.875	1.31264150695642E-05
1	100	76.0496608079931	0.807037353515625	0.8074951171875	3.5015869140625E-06	2.82751420854765E-06	230608.328125	1.34684196382295E-05
1	101	76.1503688077388	0.817108154296875	0.8172607421875	3.78509521484375E-06	3.09340953208448E-06	215915.515625	1.38353325382923E-05
1	102	76.2510768074845	0.827178955078125	0.82794189453125	4.13848876953125E-06	3.42642829309625E-06	200059	1.42343169500236E-05
1	103	76.3517848072303	0.837249755859375	0.83740234375	4.54010009765625E-06	3.80189021598198E-06	184445.796875	1.46713182402891E-05
1	104	76.452492806976	0.847320556640625	0.84686279296875	4.9652099609375E-06	4.20485139329685E-06	170559.3125	1.51499489220441E-05
1	105	76.5532008067217	0.857391357421875	0.8575439453125	5.3741455078125E-06	4.60856608697213E-06	159568.421875	1.56705773406429E-05
1	106	76.6539088064675	0.867462158203125	0.86761474609375	5.731201171875E-06	4.97247447128757E-06	151384.453125	1.62297747010598E-05
1	107	76.7546168062132	0.877532958984375	0.87738037109375	5.9967041015625E-06	5.26139001522097E-06	146310.4375	1.68203223438468E-05
1	108	76.855324805959	0.887603759765625	0.88775634765625	6.1553955078125E-06	5.46449155081064E-06	144224.09375	1.74322285602102E-05
1	109	76.9560328057047	0.897674560546875	0.8978271484375	6.207275390625E-06	5.57306020709802E-06	144641.09375	1.80547394847963E-05
1	110	77.0567408054504	0.907745361328125	0.9075927734375	6.170654296875E-06	5.60044099984225E-06	147082.09375	1.86780180229107E-05
1	111	77.1574488051962	0.917816162109375	0.91766357421875	6.0760498046875E-06	5.57576913706725E-06	151029.640625	1.9294688172522E-05
1	112	77.2581568049419	0.927886962890625	0.92803955078125	5.950927734375E-06	5.52269602849265E-06	155948.71875	1.99002934095915E-05
1	113	77.3588648046876	0.937957763671875	0.93780517578125	5.82275390625E-06	5.46060846318142E-06	161058.703125	2.04931457119528E-05
1	114	77.4595728044334	0.948028564453125	0.94818115234375	5.7098388671875E-06	5.41396138942218E-06	166060.9375	2.10738580790348E-05
1	115	77.5602808041791	0.958099365234375	0.958251953125	5.6243896484375E-06	5.38958192919381E-06	170374.390625	2.1644582375302E-05
1	116	77.6609888039249	0.968170166015625	0.96771240234375	5.5816650390625E-06	5.40144628757844E-06	173373.4375	2.22088510781759E-05
1	117	77.7616968036706	0.978240966796875	0.977783203125	5.584716796875E-06	5.46064211448538E-06	175081.96875	2.27711243496742E-05
1	118	77.8624048034163	0.988311767578125	0.9881591796875	5.6396484375E-06	5.57287012270535E-06	175216.453125	2.33363152801758E-05
1	119	77.9631128031621	0.998382568359375	0.99853515625	5.7342529296875E-06	5.72585304325912E-06	174135.1875	2.3909036826808E-05
1	120	78.0638208029078	1.00845336914063	1.0089111328125	5.8624267578125E-06	5.91466732657864E-06	172097.875	2.44929760810919E-05
1	121	78.1645288026535	1.01852416992188	1.0186767578125	5.99365234375E-06	6.10559436609037E-06	169959.265625	2.50899774982827E-05
1	122	78.2652368023993	1.02859497070313	1.02874755859375	6.109619140625E-06	6.28525549473125E-06	168381.625	2.56994244409725E-05
1	123	78.365944802145	1.03866577148438	1.03851318359375	6.18896484375E-06	6.42732129563228E-06	167800.796875	2.63187084783567E-05
1	124	78.4666528018907	1.04873657226563	1.04888916015625	6.2164306640625E-06	6.52034623271902E-06	168728.53125	2.69433694484178E-05
1	125	78.5673608016365	1.05880737304688	1.05926513671875	6.1920166015625E-06	6.55898702461855E-06	171069.5	2.75681850325782E-05
1	126	78.6680688013822	1.06887817382813	1.06903076171875	6.1248779296875E-06	6.54768291497021E-06	174539.109375	2.81883894786006E-05
1	127	78.768776801128	1.07894897460938	1.0791015625	6.0302734375E-06	6.50727724860189E-06	178947.375	2.88004503090633E-05
1	128	78.8694848008737	1.08901977539063	1.08917236328125	5.92041015625E-06	6.44834699414787E-06	183969.078125	2.94022138405126E-05
1	129	78.9701928006194	1.09909057617188	1.09893798828125	5.804443359375E-06	6.37872335573775E-06	189327.015625	2.99926068692002E-05
1	130	79.0709008003652	1.10916137695313	1.1090087890625	5.6884765625E-06	6.30857039141119E-06	194957.078125	3.05713219859172E-05
1	131	79.1716088001109	1.11923217773438	1.11907958984375	5.5816650390625E-06	6.24632730250596E-06	200492.078125	3.1138817575993E-05
1	132	79.2723167998566	1.12930297851563	1.12945556640625	5.48095703125E-06	6.19049751549028E-06	206069.046875	3.16958648909349E-05
1	133	79.3730247996024	1.13937377929688	1.13922119140625	5.389404296875E-06	6.13972360952175E-06	211381.65625	3.22432315442711E-05
1	134	79.4737327993481	1.14944458007813	1.14990234375	5.3070068359375E-06	6.10253937338712E-06	216676.265625	3.27818379446398E-05
1	135	79.5744407990938	1.15951538085938	1.15936279296875	5.230712890625E-06	6.06429375693551E-06	221645.28125	3.33124553435482E-05
1	136	79.6751487988396	1.16958618164063	1.16973876953125	5.1605224609375E-06	6.03646321906126E-06	226670.609375	3.38356949214358E-05
1	137	79.7758567985853	1.17965698242188	1.17919921875	5.1025390625E-06	6.01690999246784E-06	231100.484375	3.43524807249196E-05
1	138	79.8765647983311	1.18972778320313	1.1895751953125	5.0445556640625E-06	6.00087832935969E-06	235813.671875	3.4863427572418E-05
1	139	79.9772727980768	1.19979858398438	1.199951171875	4.9957275390625E-06	5.99462919126381E-06	240195.484375	3.53689974872395E-05
1	140	80.0779807978225	1.20986938476563	1.2103271484375	4.94903564453125E-06	5.98995211475994E-06	244558.1875	3.58697543560993E-05
1	141	80.1786887975683	1.21994018554688	1.2200927734375	4.90875244140625E-06	5.98913356952835E-06	248554.546875	3.63661347364541E-05
1	142	80.279396797314	1.23001098632813	1.22955322265625	4.87213134765625E-06	5.99054465055815E-06	252364.546875	3.68586406693794E-05
1	143	80.3801047970597	1.24008178710938	1.23992919921875	4.8388671875E-06	5.99985241933609E-06	256243.703125	3.73476286767982E-05
1	144	80.4808127968055	1.25015258789063	1.24969482421875	4.8095703125E-06	6.01049532633624E-06	259835.03125	3.78334661945701E-05
1	145	80.5815207965512	1.26022338867188	1.26007080078125	4.7821044921875E-06	6.02579029873596E-06	263497.125	3.83164442609996E-05
1	146	80.682228796297	1.27029418945313	1.2701416015625	4.75860595703125E-06	6.0441034293035E-06	266914.65625	3.87968575523701E-05
1	147	80.7829367960427	1.28036499023438	1.280517578125	4.73724365234375E-06	6.06612366027548E-06	270308.5625	3.92750116589013E-05
1	148	80.8836447957884	1.29043579101563	1.29058837890625	4.718017578125E-06	6.08901837040321E-06	273544.65625	3.97511212213431E-05
1	149	80.9843527955342	1.30050659179688	1.300048828125	4.70184326171875E-06	6.11262521488243E-06	276497.71875	4.02254518121481E-05
1	150	81.0850607952799	1.31057739257813	1.31103515625	4.68780517578125E-06	6.14587725067395E-06	279669.3125	4.0698258089833E-05
1	151	81.1857687950256	1.32064819335938	1.32110595703125	4.67681884765625E-06	6.17857313045533E-06	282479.625	4.11698019888718E-05
1	152	81.2864767947714	1.33071899414063	1.33026123046875	4.66766357421875E-06	6.20921127847396E-06	284995.125	4.16403345298022E-05
1	153	81.3871847945171	1.34078979492188	1.34063720703125	4.66156005859375E-06	6.24946096650092E-06	287594.09375	4.21100994572043E-05
1	154	81.4878927942628	1.35086059570313	1.3507080078125	4.6575927734375E-06	6.29104806648684E-06	290001.3125	4.25793550675735E-05
1	155	81.5886007940086	1.36093139648438	1.361083984375	4.6551513671875E-06	6.33605168331997E-06	292382.34375	4.30482905358076E-05
1	156	81.6893087937543	1.37100219726563	1.3714599609375	4.6551513671875E-06	6.38435358268907E-06	294611.25	4.35170986747835E-05
1	157	81.7900167935001	1.38107299804688	1.38092041015625	4.65667724609375E-06	6.43050043436233E-06	296546.3125	4.39859868492931E-05
1	158	81.8907247932458	1.39114379882813	1.3909912109375	4.66033935546875E-06	6.48249078949448E-06	298474.25	4.44551369582769E-05
1	159	81.9914327929915	1.40121459960938	1.40106201171875	4.66583251953125E-06	6.53712049825117E-06	300281.25	4.49247454525903E-05
1	160	82.0921407927373	1.41128540039063	1.4111328125	4.67498779296875E-06	6.59702891425695E-06	301847.375	4.53950960945804E-05
1	161	82.192848792483	1.42135620117188	1.42120361328125	4.6893310546875E-06	6.66449432173977E-06	303071.71875	4.58666254417039E-05
1	162	82.2935567922287	1.43142700195313	1.4312744140625	4.71038818359375E-06	6.74185776006198E-06	303854.875	4.63399410364218E-05
1	163	82.3942647919745	1.44149780273438	1.441650390625	4.74029541015625E-06	6.83384905642015E-06	304126.6875	4.68158177682199E-05
1	164	82.4949727917202	1.45156860351563	1.45172119140625	4.7802734375E-06	6.93962374498369E-06	303690	4.72952160635032E-05
1	165	82.595680791466	1.46163940429688	1.46209716796875	4.8333740234375E-06	7.06686250850908E-06	302500.3125	4.77793037134688E-05
1	166	82.6963887912117	1.47171020507813	1.47186279296875	4.89990234375E-06	7.21198375686072E-06	300386.15625	4.82694122183602E-05
1	167	82.7970967909574	1.48178100585938	1.48162841796875	4.98046875E-06	7.37920345272869E-06	297487.75	4.87669276481029E-05
1	168	82.8978047907032	1.49185180664063	1.49169921875	5.0750732421875E-06	7.57048292143736E-06	293926.65625	4.92732651764527E-05
1	169	82.9985127904489	1.50192260742188	1.5020751953125	5.1788330078125E-06	7.77899640524993E-06	290041.25	4.97895925946068E-05
1	170	83.0992207901946	1.49185180664063	1.49139404296875	4.90936279296875E-06	7.32179432816338E-06	303785.65625	5.02975708513986E-05
1	171	83.1999287899404	1.48178100585938	1.48193359375	4.71832275390625E-06	6.99224074196536E-06	314080.59375	5.07823642692529E-05
1	172	83.3006367896861	1.47171020507813	1.47186279296875	4.57061767578125E-06	6.72732176099089E-06	322027.125	5.12500992044806E-05
1	173	83.4013447894318	1.46163940429688	1.4617919921875	4.45068359375E-06	6.50597303319955E-06	328442.15625	5.1704359066207E-05
1	174	83.5020527891776	1.45156860351563	1.45172119140625	4.3524169921875E-06	6.31849570709164E-06	333543.6875	5.21476285939571E-05
1	175	83.6027607889233	1.44149780273438	1.44134521484375	4.268798828125E-06	6.15281305726967E-06	337646.5625	5.25817413290497E-05
1	176	83.7034687886691	1.43142700195313	1.4306640625	4.19769287109375E-06	6.00548810325563E-06	340821.53125	5.30080651515163E-05
1	177	83.8041767884148	1.42135620117188	1.42120361328125	4.1357421875E-06	5.87773138249759E-06	343639.3125	5.34276841790415E-05
1	178	83.9048847881605	1.41128540039063	1.41143798828125	4.08172607421875E-06	5.76110278416309E-06	345794.40625	5.38414678885601E-05
1	179	84.0055927879063	1.40121459960938	1.4013671875	4.03228759765625E-06	5.6507155932195E-06	347536.53125	5.4250042012427E-05
1	180	84.106300787652	1.39114379882813	1.3909912109375	3.988037109375E-06	5.54732423552196E-06	348790.96875	5.46538976777811E-05
1	181	84.2070087873977	1.38107299804688	1.3812255859375	3.94775390625E-06	5.45273815077962E-06	349876.34375	5.50534969079308E-05
1	182	84.3077167871435	1.37100219726563	1.370849609375	3.9105224609375E-06	5.36073821422178E-06	350554.0625	5.54491925868206E-05
1	183	84.4084247868892	1.36093139648438	1.361083984375	3.87664794921875E-06	5.27644351677736E-06	351098.15625	5.58413048565853E-05
1	184	84.509132786635	1.35086059570313	1.35040283203125	3.843994140625E-06	5.19094010087429E-06	351302.03125	5.62300701858476E-05
1	185	84.6098407863807	1.34078979492188	1.34033203125	3.81378173828125E-06	5.11173357153893E-06	351444.34375	5.66156704735477E-05
1	186	84.7105487861264	1.33071899414063	1.33087158203125	3.7847900390625E-06	5.03706951349159E-06	351636.84375	5.69982876186259E-05
1	187	84.8112567858722	1.32064819335938	1.32080078125	3.75640869140625E-06	4.96146731165936E-06	351612.65625	5.73780198465101E-05
1	188	84.9119647856179	1.31057739257813	1.31103515625	3.72894287109375E-06	4.88877503812546E-06	351583.59375	5.77549362787977E-05
1	189	85.0126727853636	1.30050659179688	1.3006591796875	3.70330810546875E-06	4.81674169350299E-06	351215.5	5.8129178796662E-05
1	190	85.1133807851094	1.29043579101563	1.290283203125	3.67767333984375E-06	4.74523994853371E-06	350842.25	5.85008419875521E-05
1	191	85.2140887848551	1.28036499023438	1.28082275390625	3.65325927734375E-06	4.67917743662838E-06	350597.28125	5.88699840591289E-05
1	192	85.3147967846008	1.27029418945313	1.2701416015625	3.6297607421875E-06	4.61031004306278E-06	349924.34375	5.92367141507566E-05
1	193	85.4155047843466	1.26022338867188	1.2603759765625	3.60687255859375E-06	4.5460155888577E-06	349437.34375	5.96011050220113E-05
1	194	85.5162127840923	1.25015258789063	1.25	3.5845947265625E-06	4.48074342784821E-06	348714.46875	5.99632257944904E-05
1	195	85.6169207838381	1.24008178710938	1.2396240234375	3.563232421875E-06	4.41706833953504E-06	347893.125	6.03231455897912E-05
1	196	85.7176287835838	1.23001098632813	1.22955322265625	3.5430908203125E-06	4.35641868534731E-06	347028.4375	6.06809771852568E-05
1	197	85.8183367833295	1.21994018554688	1.2200927734375	3.5223388671875E-06	4.29758028985816E-06	346387.125	6.10367496847175E-05
1	198	85.9190447830753	1.20986938476563	1.2091064453125	3.502197265625E-06	4.2345291149104E-06	345242.25	6.13904630881734E-05
1	199	86.019752782821	1.19979858398438	1.19964599609375	3.4832763671875E-06	4.17869841840002E-06	344401.625	6.17422119830735E-05
1	200	86.1204607825667	1.18972778320313	1.1895751953125	3.4637451171875E-06	4.12038525610114E-06	343436.125	6.20920181972906E-05
1	201	86.2211687823125	1.17965698242188	1.18011474609375	3.443603515625E-06	4.06384697271278E-06	342697.625	6.24398307991214E-05
1	202	86.3218767820582	1.16958618164063	1.16943359375	3.4234619140625E-06	4.00351109419717E-06	341593.875	6.27856206847355E-05
1	203	86.4225847818039	1.15951538085938	1.15936279296875	3.4027099609375E-06	3.94497510569636E-06	340717.5	6.31293441983871E-05
1	204	86.5232927815497	1.14944458007813	1.14959716796875	3.3795166015625E-06	3.88508260584786E-06	340166.15625	6.3470855820924E-05
1	205	86.6240007812954	1.13937377929688	1.13983154296875	3.35357666015625E-06	3.82251255359733E-06	339885.34375	6.38098936178721E-05
1	206	86.7247087810412	1.12930297851563	1.12945556640625	3.323974609375E-06	3.7542815789493E-06	339790.65625	6.41461374470964E-05
1	207	86.8254167807869	1.11923217773438	1.1199951171875	3.28765869140625E-06	3.68216137758282E-06	340666.5	6.4479056163691E-05
1	208	86.9261247805326	1.10916137695313	1.1090087890625	3.24310302734375E-06	3.59662976734398E-06	341959.15625	6.48079076199792E-05
1	209	87.0268327802784	1.09909057617188	1.09893798828125	3.18634033203125E-06	3.50159052686649E-06	344890.34375	6.51316586299799E-05
1	210	87.1275407800241	1.08901977539063	1.0888671875	3.11187744140625E-06	3.38842096425651E-06	349906.84375	6.54487957945094E-05
1	211	87.2282487797698	1.07894897460938	1.0791015625	3.01483154296875E-06	3.25330938721891E-06	357930.96875	6.57573036733083E-05
1	212	87.3289567795156	1.06887817382813	1.06903076171875	2.88970947265625E-06	3.0891881124262E-06	369944.0625	6.60546211292967E-05
1	213	87.4296647792613	1.05880737304688	1.05865478515625	2.72979736328125E-06	2.88991282104689E-06	387814.4375	6.63375831209123E-05
1	214	87.5303727790071	1.04873657226563	1.04888916015625	2.53509521484375E-06	2.65903372564935E-06	413747.46875	6.66026899125427E-05
1	215	87.6310807787528	1.03866577148438	1.03912353515625	2.3095703125E-06	2.39992868955596E-06	449920.75	6.6846638219431E-05
1	216	87.7317887784985	1.02859497070313	1.02813720703125	2.0648193359375E-06	2.12291752177407E-06	497930.84375	6.70669105602428E-05
1	217	87.8324967782443	1.01852416992188	1.0186767578125	1.81854248046875E-06	1.85250689810346E-06	560161.125	6.7262451921124E-05
1	218	87.93320477799	1.00845336914063	1.00860595703125	1.59515380859375E-06	1.60888157552108E-06	632293.875	6.74343464197591E-05
1	219	88.0339127777357	0.998382568359375	0.99853515625	1.41571044921875E-06	1.41363659622584E-06	705324.5	6.75859555485658E-05
1	220	88.1346207774815	0.988311767578125	0.9881591796875	1.2908935546875E-06	1.27560838336649E-06	765484.625	6.77222415106371E-05
1	221	88.2353287772272	0.978240966796875	0.977783203125	1.220703125E-06	1.19358298888983E-06	801000	6.78487122058868E-05
1	222	88.3360367769729	0.968170166015625	0.9686279296875	1.19659423828125E-06	1.15905459097121E-06	809487.375	6.79704317008145E-05
1	223	88.4367447767187	0.958099365234375	0.95855712890625	1.19537353515625E-06	1.14583383492572E-06	801889.1875	6.80908779031597E-05
1	224	88.5374527764644	0.948028564453125	0.9478759765625	1.19781494140625E-06	1.13537998913671E-06	791337.625	6.82113823131658E-05
1	225	88.6381607762102	0.937957763671875	0.93841552734375	1.1859130859375E-06	1.11287931758852E-06	791302.125	6.8331413785927E-05
1	226	88.7388687759559	0.927886962890625	0.927734375	1.14501953125E-06	1.0622738955135E-06	810234.5625	6.84487822582014E-05
1	227	88.8395767757016	0.917816162109375	0.91766357421875	1.06475830078125E-06	9.7708993962442E-07	861851.5625	6.85600534779951E-05
1	228	88.9402847754474	0.907745361328125	0.908203125	9.307861328125E-07	8.45342810862348E-07	975737.75	6.86605417286046E-05
1	229	89.0409927751931	0.897674560546875	0.89752197265625	7.33032226562499E-07	6.57912494261836E-07	1224396.375	6.87443171045743E-05
1	230	89.1417007749388	0.887603759765625	0.8880615234375	4.69360351562501E-07	4.16820853388344E-07	1892067.625	6.88048603478819E-05
1	231	89.2424087746846	0.877532958984375	0.87799072265625	1.416015625E-07	1.24324856187741E-07	6200431	6.88356303726323E-05
1	232	89.3431167744303	0.867462158203125	0.86761474609375	-2.3345947265625E-07	-2.02552868699968E-07	-3716340	6.88310028635897E-05
1	233	89.4438247741761	0.857391357421875	0.85784912109375	-6.28051757812501E-07	-5.38773633707024E-07	-1365889.25	6.87876236042939E-05
1	234	89.5445327739218	0.847320556640625	0.84808349609375	-1.0052490234375E-06	-8.52535094963969E-07	-843655.125	6.87053761794232E-05
1	235	89.6452407736675	0.837249755859375	0.83709716796875	-1.331787109375E-06	-1.11483518594468E-06	-628551.8125	6.8587702116929E-05
1	236	89.7459487734133	0.827178955078125	0.82763671875	-1.57684326171875E-06	-1.30505338802323E-06	-524869.375	6.84412370901555E-05
1	237	89.846656773159	0.817108154296875	0.81756591796875	-1.729736328125E-06	-1.41417342547356E-06	-472653.5	6.82747413520701E-05
1	238	89.9473647729047	0.807037353515625	0.806884765625	-1.78955078125E-06	-1.44396119594603E-06	-450886.78125	6.80975281284191E-05
1	239	90.0480727726505	0.796966552734375	0.79742431640625	-1.77642822265625E-06	-1.41656698815495E-06	-448891.96875	6.79179647704586E-05
1	240	90.1487807723962	0.786895751953125	0.78704833984375	-1.712646484375E-06	-1.34793549477763E-06	-459551	6.77422794979066E-05
1	241	90.2494887721419	0.776824951171875	0.77728271484375	-1.62445068359375E-06	-1.26265740618692E-06	-478489.59375	6.7574241256807E-05
1	242	90.3501967718877	0.766754150390625	0.7666015625	-1.5313720703125E-06	-1.17395222787309E-06	-500597.84375	6.74153343425132E-05
1	243	90.4509047716334	0.756683349609375	0.75714111328125	-1.45111083984375E-06	-1.09869563402754E-06	-521766.5625	6.72651513013989E-05
1	244	90.5516127713792	0.746612548828125	0.746490478515625	-1.39373779296875E-06	-1.04041191661963E-06	-535603.25	6.71219022478908E-05
1	245	90.6523207711249	0.736541748046875	0.7364501953125	-1.36810302734375E-06	-1.00753970855294E-06	-538300.25	6.69828368700109E-05
1	246	90.7530287708706	0.726470947265625	0.72637939453125	-1.380615234375E-06	-1.00285046755744E-06	-526127.3125	6.68444263283163E-05
1	247	90.8537367706164	0.716400146484375	0.716400146484375	-1.4312744140625E-06	-1.0253652362735E-06	-500533.03125	6.67028361931443E-05
1	248	90.9544447703621	0.706329345703125	0.706268310546875	-1.5179443359375E-06	-1.07207597466186E-06	-465279.46875	6.65543338982388E-05
1	249	91.0551527701078	0.696258544921875	0.6961669921875	-1.630859375E-06	-1.1353504305589E-06	-426871.28125	6.63957762299106E-05
1	250	91.1558607698536	0.686187744140625	0.6861572265625	-1.75262451171875E-06	-1.20257595881412E-06	-391502.71875	6.62254024064168E-05
1	251	91.2565687695993	0.676116943359375	0.67608642578125	-1.865234375E-06	-1.26105965136958E-06	-362467.28125	6.60432342556305E-05
1	252	91.357276769345	0.666046142578125	0.665985107421875	-1.94793701171875E-06	-1.29729698983283E-06	-341892.5625	6.58512217341922E-05
1	253	91.4579847690908	0.655975341796875	0.6558837890625	-1.99005126953125E-06	-1.30524233554752E-06	-329581.34375	6.56529300613329E-05
1	254	91.5586927688365	0.645904541015625	0.6458740234375	-1.98883056640625E-06	-1.28453393699601E-06	-324750.65625	6.54525792924687E-05
1	255	91.6594007685823	0.635833740234375	0.63580322265625	-1.949462890625E-06	-1.23947472729924E-06	-326142.78125	6.52542657917365E-05
1	256	91.760108768328	0.625762939453125	0.625762939453125	-1.88201904296875E-06	-1.17769775442866E-06	-332495.5625	6.50613364996389E-05
1	257	91.8608167680737	0.615692138671875	0.6156005859375	-1.79779052734375E-06	-1.10672090158914E-06	-342420.65625	6.48760469630361E-05
1	258	91.9615247678195	0.605621337890625	0.605621337890625	-1.70654296875E-06	-1.03351874258806E-06	-354882	6.46995904389769E-05
1	259	92.0622327675652	0.595550537109375	0.59552001953125	-1.61407470703125E-06	-9.61213800110272E-07	-368954.4375	6.45323816570453E-05
1	260	92.1629407673109	0.585479736328125	0.58544921875	-1.52435302734375E-06	-8.92431273769034E-07	-384064.0625	6.43743478576653E-05
1	261	92.2636487670567	0.575408935546875	0.575347900390625	-1.44012451171875E-06	-8.28572581212939E-07	-399512.625	6.42250743112527E-05
1	262	92.3643567668024	0.565338134765625	0.565338134765625	-1.3616943359375E-06	-7.69817745549517E-07	-415172.5625	6.40839934931137E-05
1	263	92.4650647665482	0.555267333984375	0.55523681640625	-1.290283203125E-06	-7.1641272825218E-07	-430321.65625	6.39504578430206E-05
1	264	92.5657727662939	0.545196533203125	0.545166015625	-1.224365234375E-06	-6.67482311200729E-07	-445264.21875	6.38238343526609E-05
1	265	92.6664807660396	0.535125732421875	0.535125732421875	-1.1651611328125E-06	-6.23507673935819E-07	-459271.90625	6.37035118415952E-05
1	266	92.7671887657854	0.525054931640625	0.525054931640625	-1.11053466796875E-06	-5.83091662065272E-07	-472794.75	6.35889155091718E-05
1	267	92.8678967655311	0.514984130859375	0.515045166015625	-1.06170654296875E-06	-5.46826811387291E-07	-485110.6875	6.34795360383578E-05
1	268	92.9686047652768	0.504913330078125	0.50494384765625	-1.01654052734375E-06	-5.1329590178284E-07	-496727.71875	6.33748932159506E-05
1	269	93.0693127650226	0.494842529296875	0.494842529296875	-9.75341796875E-07	-4.82640587051719E-07	-507352.9375	6.32745941402391E-05
1	270	93.1700207647683	0.484771728515625	0.484771728515625	-9.3719482421875E-07	-4.54325544296807E-07	-517258.25	6.31782895652577E-05
1	271	93.270728764514	0.474700927734375	0.474639892578125	-9.033203125E-07	-4.28751860681587E-07	-525439.1875	6.30856084171683E-05
1	272	93.3714367642598	0.464630126953125	0.464599609375	-8.70361328124999E-07	-4.0436952986056E-07	-533800.875	6.29962960374542E-05
1	273	93.4721447640055	0.454559326171875	0.454559326171875	-8.4075927734375E-07	-3.82174960122939E-07	-540653.375	6.2910134147387E-05
1	274	93.5728527637513	0.444488525390625	0.4444580078125	-8.12683105468751E-07	-3.61203490228945E-07	-546902	6.28268753644079E-05
1	275	93.673560763497	0.434417724609375	0.434417724609375	-7.87353515625E-07	-3.42040323175752E-07	-551744.1875	6.2746308685746E-05
1	276	93.7742687632427	0.424346923828125	0.424346923828125	-7.6263427734375E-07	-3.23621520692541E-07	-556422.5625	6.26682594884187E-05
1	277	93.8749767629885	0.414276123046875	0.414306640625	-7.40661621093749E-07	-3.06861039689466E-07	-559373.6875	6.25925677013583E-05
1	278	93.9756847627342	0.404205322265625	0.404266357421875	-7.19604492187501E-07	-2.90911884803791E-07	-561789.6875	6.25190368737094E-05
1	279	94.0763927624799	0.394134521484375	0.394195556640625	-7.000732421875E-07	-2.75965732043915E-07	-563077.625	6.24475505901501E-05
1	280	94.1771007622257	0.384063720703125	0.38409423828125	-6.817626953125E-07	-2.61861117678563E-07	-563384.0625	6.23779706074856E-05
1	281	94.2778087619714	0.373992919921875	0.374053955078125	-6.6436767578125E-07	-2.48509337552605E-07	-563022.5625	6.23101877863519E-05
1	282	94.3785167617172	0.363922119140625	0.363983154296875	-6.48193359375E-07	-2.35931466363581E-07	-561534.875	6.22440929873846E-05
1	283	94.4792247614629	0.353851318359375	0.3538818359375	-6.32629394531251E-07	-2.23876057248162E-07	-559382.5625	6.21795988990925E-05
1	284	94.5799327612086	0.343780517578125	0.34381103515625	-6.18591308593749E-07	-2.12678514799336E-07	-555796.75	6.21165963821113E-05
1	285	94.6806407609544	0.333709716796875	0.333709716796875	-6.0455322265625E-07	-2.01745265826503E-07	-551994	6.20550054009072E-05
1	286	94.7813487607001	0.323638916015625	0.323699951171875	-5.9173583984375E-07	-1.91544856420478E-07	-547034.5625	6.19947677478194E-05
1	287	94.8820567604458	0.313568115234375	0.313629150390625	-5.80749511718751E-07	-1.8213997066141E-07	-540042.0625	6.19357233517803E-05
1	288	94.9827647601916	0.303497314453125	0.303497314453125	-5.69763183593749E-07	-1.72921602370479E-07	-532672.75	6.18777921772562E-05
1	289	95.0834727599373	0.293426513671875	0.293426513671875	-5.60302734375E-07	-1.64407680358636E-07	-523692.8125	6.18208869127557E-05
1	290	95.184180759683	0.283355712890625	0.28338623046875	-5.51452636718749E-07	-1.56274083451535E-07	-513890.4375	6.17649056948721E-05
1	291	95.2848887594288	0.273284912109375	0.273284912109375	-5.43212890625E-07	-1.48451889003809E-07	-503089.90625	6.17097903159447E-05
1	292	95.3855967591745	0.263214111328125	0.263275146484375	-5.35888671875E-07	-1.4108616142039E-07	-491287.03125	6.1655453464482E-05
1	293	95.4863047589203	0.253143310546875	0.25311279296875	-5.291748046875E-07	-1.33940901037022E-07	-478316.0625	6.16018223809078E-05
1	294	95.587012758666	0.243072509765625	0.243072509765625	-5.23681640625E-07	-1.27292608453899E-07	-464160.84375	6.15488024777733E-05
1	295	95.6877207584117	0.233001708984375	0.23309326171875	-5.18188476562501E-07	-1.20786239676818E-07	-449823.3125	6.1496342823375E-05
1	296	95.7884287581575	0.222930908203125	0.222991943359375	-5.13610839843751E-07	-1.14531076178537E-07	-434165.1875	6.14443852100521E-05
1	297	95.8891367579032	0.212860107421875	0.212860107421875	-5.096435546875E-07	-1.08482780092345E-07	-417664.6875	6.13928641541861E-05
1	298	95.9898447576489	0.202789306640625	0.202850341796875	-5.0628662109375E-07	-1.02700411730439E-07	-400663.0625	6.13417068962008E-05
1	299	96.0905527573947	0.192718505859375	0.1927490234375	-5.047607421875E-07	-9.72921441189101E-08	-381862.15625	6.12907970207743E-05
1	300	96.1912607571404	0.182647705078125	0.1827392578125	-5.0384521484375E-07	-9.20723053354777E-08	-362689.28125	6.12400108366273E-05
1	301	96.2919687568861	0.172576904296875	0.172576904296875	-5.04455566406251E-07	-8.70573799716112E-08	-342105.28125	6.11892392043956E-05
1	302	96.3926767566319	0.162506103515625	0.162567138671875	-5.07202148437499E-07	-8.2454398864229E-08	-320517.46875	6.11382929491811E-05
1	303	96.4933847563776	0.152435302734375	0.152557373046875	-5.1239013671875E-07	-7.81688882511844E-08	-297736.78125	6.10869537922554E-05
1	304	96.5940927561234	0.142364501953125	0.142364501953125	-5.218505859375E-07	-7.42929913144508E-08	-272807.03125	6.10348761256319E-05
1	305	96.6948007558691	0.132293701171875	0.132354736328125	-5.37109375E-07	-7.10889693777972E-08	-246420.453125	6.09815542702563E-05
1	306	96.7955087556148	0.122222900390625	0.122283935546875	-5.60607910156249E-07	-6.8553333676391E-08	-218127.390625	6.09262788202614E-05
1	307	96.8962167553606	0.112152099609375	0.112152099609375	-5.9661865234375E-07	-6.69120296947767E-08	-187979.546875	6.08680093137082E-05
1	308	96.9969247551063	0.102081298828125	0.1021728515625	-6.488037109375E-07	-6.62901200598753E-08	-157478.84375	6.08052978350315E-05
1	309	97.097632754852	0.092010498046875	0.09210205078125	-7.23876953125E-07	-6.66705517460287E-08	-127234.3984375	6.07361762376968E-05
1	310	97.1983407545978	0.081939697265625	0.082000732421875	-8.2763671875E-07	-6.7866814390527E-08	-99078.171875	6.06580506428145E-05
1	311	97.2990487543435	0.071868896484375	0.071990966796875	-9.6710205078125E-07	-6.96226081231544E-08	-74439.890625	6.05676796112675E-05
1	312	97.3997567540893	0.061798095703125	0.06182861328125	-1.14501953125E-06	-7.07949681100217E-08	-53997.87109375	6.0461326938821E-05
1	313	97.500464753835	0.051727294921875	0.051788330078125	-1.3616943359375E-06	-7.05198743844448E-08	-38032.2734375	6.03351036261301E-05
1	314	97.6011727535807	0.041656494140625	0.041790771484375	-1.6070556640625E-06	-6.71600943746853E-08	-26004.55859375	6.01856154389679E-05
1	315	97.7018807533265	0.031585693359375	0.0316741943359375	-1.864013671875E-06	-5.90411310952277E-08	-16992.470703125	6.001083238516E-05
1	316	97.8025887530722	0.021514892578125	0.0216278076171875	-2.1063232421875E-06	-4.55551507627661E-08	-10268.0390625	5.98109108977951E-05
1	317	97.9032967528179	0.011444091796875	0.0115142822265625	-2.30865478515625E-06	-2.65825015333121E-08	-4987.44189453125	5.95885976508725E-05
1	318	98.0040047525637	0.001373291015625	0.00144348144531251	-2.4542236328125E-06	-3.54262597035415E-09	-588.162170410156	5.93487675359938E-05
1	319	98.1047127523094	-0.008697509765625	-0.008587646484375	-2.53387451171875E-06	2.1760017787642E-08	3389.13647460938	5.90975978411734E-05
1	320	98.2054207520551	-0.018768310546875	-0.01866455078125	-2.55401611328125E-06	4.76695589668452E-08	7307.92236328125	5.88414004596416E-05
1	321	98.3061287518009	-0.028839111328125	-0.0286651611328125	-2.52960205078125E-06	7.25114475130795E-08	11331.8857421875	5.85854213568382E-05
1	322	98.4068367515466	-0.038909912109375	-0.0387298583984375	-2.47406005859375E-06	9.58199919409708E-08	15654.373046875	5.83334658585954E-05
1	323	98.5075447512924	-0.048980712890625	-0.0488250732421875	-2.40386962890625E-06	1.17369104657428E-07	20311.033203125	5.80878440814558E-05
1	324	98.6082527510381	-0.059051513671875	-0.0589599609375	-2.32757568359375E-06	1.37233769237355E-07	25331.060546875	5.78495964873582E-05
1	325	98.7089607507838	-0.069122314453125	-0.069061279296875	-2.2528076171875E-06	1.5558175903152E-07	30655.650390625	5.76189559069462E-05
1	326	98.8096687505296	-0.079193115234375	-0.079193115234375	-2.1820068359375E-06	1.72799914821553E-07	36293.70703125	5.73956458538305E-05
1	327	98.9103767502753	-0.089263916015625	-0.089202880859375	-2.11761474609375E-06	1.88897331554472E-07	42124.2265625	5.71791424590629E-05
1	328	99.011084750021	-0.099334716796875	-0.099273681640625	-2.06024169921875E-06	2.04527779601449E-07	48185.453125	5.69687690585852E-05
1	329	99.1117927497668	-0.109405517578125	-0.1092529296875	-2.00927734375E-06	2.19519435518123E-07	54374.2421875	5.67638526263181E-05
1	330	99.2125007495125	-0.119476318359375	-0.119354248046875	-1.96563720703125E-06	2.34607156812672E-07	60720.3828125	5.65637019462883E-05
1	331	99.3132087492583	-0.129547119140625	-0.12945556640625	-1.927490234375E-06	2.49524305218074E-07	67162.765625	5.63676658202894E-05
1	332	99.413916749004	-0.139617919921875	-0.139495849609375	-1.89544677734375E-06	2.64406963879082E-07	73595.234375	5.6175165809691E-05
1	333	99.5146247487497	-0.149688720703125	-0.1495361328125	-1.86798095703125E-06	2.79330635066799E-07	80052.28125	5.59856634936295E-05
1	334	99.6153327484955	-0.159759521484375	-0.15960693359375	-1.8463134765625E-06	2.94684440405035E-07	86446.28125	5.57986313651782E-05
1	335	99.7160407482412	-0.169830322265625	-0.169708251953125	-1.82952880859375E-06	3.10486115040476E-07	92760.640625	5.56135382794309E-05
1	336	99.8167487479869	-0.179901123046875	-0.179718017578125	-1.817626953125E-06	3.26660284599711E-07	98875.0859375	5.54298894712701E-05
1	337	99.9174567477327	-0.189971923828125	-0.1898193359375	-1.81060791015625E-06	3.43688384418783E-07	104837.3515625	5.52471938135568E-05
1	338	100.018164747478	-0.200042724609375	-0.199920654296875	-1.80877685546875E-06	3.61611853350041E-07	110528.09375	5.50649419892579E-05
1	339	100.118872747224	-0.189971923828125	-0.1898193359375	-1.602783203125E-06	3.04239250681348E-07	118431.078125	5.48931566299871E-05
2	340	100.21958074697	-0.179901123046875	-0.17974853515625	-1.45477294921875E-06	2.61493312336825E-07	123557.796875	5.47391973668709E-05
2	341	100.320288746716	-0.169830322265625	-0.169708251953125	-1.33514404296875E-06	2.26584958795684E-07	127108.5703125	5.45987131772563E-05
2	342	100.420996746461	-0.159759521484375	-0.159576416015625	-1.2335205078125E-06	1.96840773014628E-07	129366.6484375	5.44693721167278E-05
2	343	100.521704746207	-0.149688720703125	-0.1495361328125	-1.14471435546875E-06	1.71176154140085E-07	130631.828125	5.43496171303559E-05
2	344	100.622412745953	-0.139617919921875	-0.139495849609375	-1.06597900390625E-06	1.48699641044914E-07	130861.7265625	5.42383022548165E-05
2	345	100.723120745699	-0.129547119140625	-0.129425048828125	-9.95483398437499E-07	1.28840483171189E-07	130012.2734375	5.4134496167535E-05
2	346	100.823828745444	-0.119476318359375	-0.119384765625	-9.29870605468749E-07	1.11012376180497E-07	128388.5859375	5.40375476703048E-05
2	347	100.92453674519	-0.109405517578125	-0.109283447265625	-8.685302734375E-07	9.49159826291179E-08	125825.71875	5.39469911018386E-05
2	348	101.025244744936	-0.099334716796875	-0.0992431640625	-8.09326171875E-07	8.03200848054075E-08	122624.4375	5.38625063200016E-05
2	349	101.125952744682	-0.089263916015625	-0.0892333984375	-7.4951171875E-07	6.6881476357139E-08	119055.3828125	5.37840132892597E-05
2	350	101.226660744427	-0.079193115234375	-0.07916259765625	-6.878662109375E-07	5.44532738899761E-08	115084.296875	5.37116320629138E-05
2	351	101.327368744173	-0.069122314453125	-0.069061279296875	-6.21337890625E-07	4.29103863552882E-08	111149.3203125	5.36457118869293E-05
2	352	101.428076743919	-0.059051513671875	-0.0589599609375	-5.450439453125E-07	3.21357696009272E-08	108174.6953125	5.35869767190889E-05
2	353	101.528784743664	-0.048980712890625	-0.0488250732421875	-4.55322265624999E-07	2.22311431485878E-08	107231.90625	5.35366052645259E-05
2	354	101.62949274341	-0.038909912109375	-0.0387451171875	-3.448486328125E-07	1.3361200146278E-08	112353.984375	5.34963146492373E-05
2	355	101.730200743156	-0.028839111328125	-0.028680419921875	-2.0751953125E-07	5.95174709516755E-09	138205.890625	5.34684986632783E-05
2	356	101.830908742902	-0.018768310546875	-0.0186676025390625	-3.63159179687503E-08	6.77931100145912E-10	514033.625	5.34562204848044E-05
2	357	101.931616742647	-0.008697509765625	-0.00856628417968749	1.73339843750001E-07	-1.48487844242595E-09	-49419.015625	5.34631217306014E-05
2	358	102.032324742393	0.001373291015625	0.0015106201171875	4.1961669921875E-07	6.33881447331675E-10	3600	5.34929786226712E-05
2	359	102.133032742139	0.011444091796875	0.0115478515625	6.9305419921875E-07	8.00328692207586E-09	16662.263671875	5.35490071342792E-05
2	360	102.233740741885	0.021514892578125	0.0216156005859375	9.75341796875E-07	2.10825987778662E-08	22162.078125	5.36330153408926E-05
2	361	102.33444874163	0.031585693359375	0.0316497802734375	1.2408447265625E-06	3.92724608389017E-08	25506.640625	5.37446103408001E-05
2	362	102.435156741376	0.041656494140625	0.0417724609375	1.466064453125E-06	6.12411241718291E-08	28492.923828125	5.38809144927654E-05
2	363	102.535864741122	0.051727294921875	0.0517578125	1.629638671875E-06	8.4346531536994E-08	31760.30078125	5.40367946086917E-05
2	364	102.636572740868	0.061798095703125	0.06195068359375	1.72576904296875E-06	1.06912573016871E-07	35897.4375	5.42057532584295E-05
2	365	102.737280740613	0.071868896484375	0.071929931640625	1.76025390625E-06	1.26614935425096E-07	40863.3828125	5.43812893738504E-05
2	366	102.837988740359	0.081939697265625	0.082000732421875	1.7486572265625E-06	1.43391162055195E-07	46893.54296875	5.45579750905745E-05
2	367	102.938696740105	0.092010498046875	0.092071533203125	1.7041015625E-06	1.56899233161312E-07	54029.37109375	5.47318377357442E-05
2	368	103.039404739851	0.102081298828125	0.10211181640625	1.64154052734375E-06	1.67620683555469E-07	62204.87109375	5.4900305258343E-05
2	369	103.140112739596	0.112152099609375	0.112152099609375	1.573486328125E-06	1.7646979699748E-07	71276.1875	5.50621916772798E-05
2	370	103.240820739342	0.122222900390625	0.122344970703125	1.50543212890625E-06	1.84182042062275E-07	81269.0078125	5.52172277821228E-05
2	371	103.341528739088	0.132293701171875	0.13238525390625	1.4404296875E-06	1.90691636703377E-07	91906.78125	5.5365566367982E-05
2	372	103.442236738833	0.142364501953125	0.142425537109375	1.380615234375E-06	1.9663487194066E-07	103160.921875	5.55076148884837E-05
2	373	103.542944738579	0.152435302734375	0.152435302734375	1.32720947265625E-06	2.02313572117419E-07	114853.9921875	5.56439663341735E-05
2	374	103.643652738325	0.162506103515625	0.16253662109375	1.28021240234375E-06	2.08081388564096E-07	126960.671875	5.57752609893214E-05
2	375	103.744360738071	0.172576904296875	0.17254638671875	1.2384033203125E-06	2.13682028515905E-07	139329.71875	5.59020809305366E-05
2	376	103.845068737816	0.182647705078125	0.182769775390625	1.20208740234375E-06	2.19705228232669E-07	152043.671875	5.60249718546402E-05
2	377	103.945776737562	0.192718505859375	0.192779541015625	1.17034912109375E-06	2.2561934542864E-07	164719.703125	5.61444321647286E-05
2	378	104.046484737308	0.202789306640625	0.20281982421875	1.14288330078125E-06	2.31799390348897E-07	177463.28125	5.62609129701741E-05
2	379	104.147192737054	0.212860107421875	0.21295166015625	1.11846923828125E-06	2.38179865164057E-07	190395.640625	5.63747817068361E-05
2	380	104.247900736799	0.222930908203125	0.222930908203125	1.09710693359375E-06	2.44579041464021E-07	203198.90625	5.64863439649343E-05
2	381	104.348608736545	0.233001708984375	0.2330322265625	1.07818603515625E-06	2.51252060934348E-07	216133.609375	5.65958798688371E-05
2	382	104.449316736291	0.243072509765625	0.24310302734375	1.06170654296875E-06	2.58104051908958E-07	228973.859375	5.67036295251455E-05
2	383	104.550024736037	0.253143310546875	0.253143310546875	1.04736328125E-06	2.65133024868192E-07	241695.796875	5.68098294024821E-05
2	384	104.650732735782	0.263214111328125	0.263214111328125	1.033935546875E-06	2.72146422730657E-07	254574.984375	5.69146322959568E-05
2	385	104.751440735528	0.273284912109375	0.273284912109375	1.021728515625E-06	2.79222973631477E-07	267473.125	5.7018143706955E-05
2	386	104.852148735274	0.283355712890625	0.283294677734375	1.01165771484375E-06	2.8659724193858E-07	280030.1875	5.71205309825018E-05
2	387	104.95285673502	0.293426513671875	0.293426513671875	1.0028076171875E-06	2.94250327215195E-07	292605	5.72219687455799E-05
2	388	105.053564734765	0.303497314453125	0.303558349609375	9.9456787109375E-07	3.01909352629082E-07	305216.34375	5.73225443076808E-05
2	389	105.154272734511	0.313568115234375	0.3135986328125	9.869384765625E-07	3.09502524942218E-07	317748.9375	5.74223231524229E-05
2	390	105.254980734257	0.323638916015625	0.323577880859375	9.8114013671875E-07	3.17475240763088E-07	329797.8125	5.75214216951281E-05
2	391	105.355688734002	0.333709716796875	0.333740234375	9.7564697265625E-07	3.25612631968397E-07	342070.71875	5.76199527131394E-05
2	392	105.456396733748	0.343780517578125	0.34381103515625	9.71069335937499E-07	3.33864335289036E-07	354054.0625	5.77179780520964E-05
2	393	105.557104733494	0.353851318359375	0.353912353515625	9.66796875000001E-07	3.42161342814506E-07	366066.9375	5.78155595576391E-05
2	394	105.65781273324	0.363922119140625	0.363983154296875	9.63745117187501E-07	3.50786962144412E-07	377675.78125	5.79127699893434E-05
2	395	105.758520732985	0.373992919921875	0.373992919921875	9.6099853515625E-07	3.59406612915336E-07	389171.1875	5.80096857447643E-05
2	396	105.859228732731	0.384063720703125	0.384063720703125	9.58862304687499E-07	3.68264210237612E-07	400541.0625	5.81063613935839E-05
2	397	105.959936732477	0.394134521484375	0.394195556640625	9.5703125E-07	3.77257464378999E-07	411894.125	5.82028333155904E-05
2	398	106.060644732223	0.404205322265625	0.40423583984375	9.55810546875E-07	3.86372846605809E-07	422924.6875	5.8299152442487E-05
2	399	106.161352731968	0.414276123046875	0.41424560546875	9.5489501953125E-07	3.9556104525218E-07	433812.75	5.83953624300193E-05
2	400	106.262060731714	0.424346923828125	0.424346923828125	9.54589843750001E-07	4.05077258847086E-07	444533.25	5.84915142098907E-05
2	401	106.36276873146	0.434417724609375	0.434417724609375	9.54589843750001E-07	4.14690731531664E-07	455083.125	5.85876477998681E-05
2	402	106.463476731206	0.444488525390625	0.44451904296875	9.5428466796875E-07	4.24197679649296E-07	465813.90625	5.86837668379303E-05
2	403	106.564184730951	0.454559326171875	0.45458984375	9.5550537109375E-07	4.34363016665884E-07	475758.5625	5.8779933169717E-05
2	404	106.664892730697	0.464630126953125	0.464630126953125	9.56115722656251E-07	4.44240185970557E-07	485955.9375	5.88761904509738E-05
2	405	106.765600730443	0.474700927734375	0.474700927734375	9.57336425781249E-07	4.54448468190094E-07	495855.9375	5.89725423196796E-05
2	406	106.866308730189	0.484771728515625	0.48480224609375	9.58862304687499E-07	4.64858601390006E-07	505601.53125	5.90690287936013E-05
2	407	106.967016729934	0.494842529296875	0.494842529296875	9.619140625E-07	4.75995960869113E-07	514435.3125	5.91657480981667E-05
2	408	107.06772472968	0.504913330078125	0.504974365234375	9.6405029296875E-07	4.86820681544486E-07	523805	5.92627293372061E-05
2	409	107.168432729426	0.514984130859375	0.51495361328125	9.6771240234375E-07	4.9832698323371E-07	532135	5.93600016145501E-05
2	410	107.269140729171	0.525054931640625	0.52496337890625	9.7198486328125E-07	5.10256427332934E-07	540094.1875	5.94576740695629E-05
2	411	107.369848728917	0.535125732421875	0.53509521484375	9.771728515625E-07	5.22880498010636E-07	547595.25	5.95558194618206E-05
2	412	107.470556728663	0.545196533203125	0.545166015625	9.8480224609375E-07	5.3688069101554E-07	553579.1875	5.9654612414306E-05
2	413	107.571264728409	0.555267333984375	0.55523681640625	9.9334716796875E-07	5.51542939319916E-07	558955.4375	5.97542202740442E-05
2	414	107.671972728154	0.565338134765625	0.565277099609375	1.004638671875E-06	5.67899235193181E-07	562667.0625	5.98548285779543E-05
2	415	107.7726807279	0.575408935546875	0.57537841796875	1.0211181640625E-06	5.87529314088897E-07	563478.8125	5.99568338657264E-05
2	416	107.873388727646	0.585479736328125	0.58544921875	1.04248046875E-06	6.10319375482504E-07	561592.5	6.00607418164145E-05
2	417	107.974096727392	0.595550537109375	0.595458984375	1.0723876953125E-06	6.3856288079478E-07	555264.625	6.01672363700345E-05
2	418	108.074804727137	0.605621337890625	0.6055908203125	1.114501953125E-06	6.74932152833208E-07	543373.5	6.02773543505464E-05
2	419	108.175512726883	0.615692138671875	0.615692138671875	1.17340087890625E-06	7.22453648904775E-07	524707.4375	6.03925582254305E-05
2	420	108.276220726629	0.625762939453125	0.625701904296875	1.256103515625E-06	7.85946326686826E-07	498129.28125	6.05148925387766E-05
2	421	108.376928726375	0.635833740234375	0.635772705078125	1.3677978515625E-06	8.69608527409582E-07	464814.8125	6.06470166530926E-05
2	422	108.47763672612	0.645904541015625	0.645904541015625	1.513671875E-06	9.77687477643485E-07	426713.71875	6.07921101618558E-05
2	423	108.578344725866	0.655975341796875	0.655914306640625	1.6937255859375E-06	1.11093879695545E-06	387261.28125	6.09536182309967E-05
2	424	108.679052725612	0.666046142578125	0.665924072265625	1.90185546875E-06	1.2664912674154E-06	350144.4375	6.11346695222892E-05
2	425	108.779760725358	0.676116943359375	0.676025390625	2.12432861328125E-06	1.43610009217809E-06	318230.15625	6.13374068052508E-05
2	426	108.880468725103	0.686187744140625	0.686126708984375	2.34283447265625E-06	1.60748129474086E-06	292861.78125	6.15623430348933E-05
2	427	108.981176724849	0.696258544921875	0.69622802734375	2.5360107421875E-06	1.76564174125815E-06	274536.71875	6.18080157437362E-05
2	428	109.081884724595	0.706329345703125	0.706298828125	2.6885986328125E-06	1.89895411040197E-06	262701.46875	6.20710925431922E-05
2	429	109.18259272434	0.716400146484375	0.71630859375	2.7899169921875E-06	1.99844134840532E-06	256749.078125	6.2346960476134E-05
2	430	109.283300724086	0.726470947265625	0.726409912109375	2.84576416015625E-06	2.06719118978071E-06	255260.0625	6.26307373750024E-05
2	431	109.384008723832	0.736541748046875	0.736480712890625	2.8668212890625E-06	2.11135852623556E-06	256898.03125	6.29183850833215E-05
2	432	109.484716723578	0.746612548828125	0.746490478515625	2.8692626953125E-06	2.1418770757009E-06	260168.0625	6.32072260486893E-05
2	433	109.585424723323	0.756683349609375	0.7568359375	2.87078857421875E-06	2.17271576730127E-06	263633.46875	6.34962561889552E-05
2	434	109.686132723069	0.766754150390625	0.7666015625	2.886962890625E-06	2.21315031012637E-06	265539.125	6.37861812720075E-05
2	435	109.786840722815	0.776824951171875	0.77728271484375	2.9327392578125E-06	2.27956752496539E-06	265036.4375	6.40792277408764E-05
2	436	109.887548722561	0.786895751953125	0.78704833984375	3.02337646484375E-06	2.37954327531043E-06	260320.984375	6.4379142713733E-05
2	437	109.988256722306	0.796966552734375	0.79681396484375	3.17108154296875E-06	2.52676204581803E-06	251275.140625	6.46910557406954E-05
2	438	110.088964722052	0.807037353515625	0.806884765625	3.38653564453125E-06	2.73254386229382E-06	238262.59375	6.50212605250999E-05
2	439	110.189672721798	0.817108154296875	0.8172607421875	3.67279052734375E-06	3.00162741950771E-06	222517.671875	6.53767274343409E-05
2	440	110.290380721544	0.827178955078125	0.8270263671875	4.02587890625E-06	3.32950799020182E-06	205427.546875	6.57643831800669E-05
2	441	110.391088721289	0.837249755859375	0.8380126953125	4.42230224609375E-06	3.7059453461552E-06	189496.9375	6.61897865938954E-05
2	442	110.491796721035	0.847320556640625	0.84747314453125	4.8382568359375E-06	4.10029269914958E-06	175160.84375	6.66560881654732E-05
2	443	110.592504720781	0.857391357421875	0.85784912109375	5.23681640625E-06	4.49239814770408E-06	163811.1875	6.71634115860797E-05
2	444	110.693212720527	0.867462158203125	0.86761474609375	5.5755615234375E-06	4.83743906443124E-06	155610.296875	6.77078569424339E-05
2	445	110.793920720272	0.877532958984375	0.877685546875	5.828857421875E-06	5.11590405949391E-06	150575.921875	6.82821118971333E-05
2	446	110.894628720018	0.887603759765625	0.8880615234375	5.9722900390625E-06	5.30376064489246E-06	148697	6.88763466314413E-05
2	447	110.995336719764	0.897674560546875	0.8984375	6.0150146484375E-06	5.40411474503344E-06	149365.8125	6.94799600751139E-05
2	448	111.096044719509	0.907745361328125	0.90789794921875	5.9722900390625E-06	5.422229605756E-06	152018.40625	7.0083566242829E-05
2	449	111.196752719255	0.917816162109375	0.91827392578125	5.8746337890625E-06	5.39452275916119E-06	156311.6875	7.06801074557006E-05
2	450	111.297460719001	0.927886962890625	0.92742919921875	5.7525634765625E-06	5.33509546585265E-06	161220.15625	7.12655819370411E-05
2	451	111.398168718747	0.937957763671875	0.9375	5.6304931640625E-06	5.27858719578944E-06	166504.078125	7.18387673259713E-05
2	452	111.498876718492	0.948028564453125	0.9478759765625	5.523681640625E-06	5.23576500199852E-06	171602.21875	7.24004203220829E-05
2	453	111.599584718238	0.958099365234375	0.958251953125	5.450439453125E-06	5.22289428772638E-06	175811.875	7.29530147509649E-05
2	454	111.700292717984	0.968170166015625	0.96832275390625	5.4168701171875E-06	5.24527831657906E-06	178760.5625	7.35002249712124E-05
2	455	111.80100071773	0.978240966796875	0.977783203125	5.43212890625E-06	5.31144405613304E-06	180000.015625	7.40465184208006E-05
2	456	111.901708717475	0.988311767578125	0.98846435546875	5.4931640625E-06	5.42979660167475E-06	179944.453125	7.45966463000514E-05
2	457	112.002416717221	0.998382568359375	0.99853515625	5.596923828125E-06	5.58872488909401E-06	178407.859375	7.51550760469399E-05
2	458	112.103124716967	1.00845336914063	1.00860595703125	5.731201171875E-06	5.78052322453004E-06	175985.09375	7.57254965719767E-05
2	459	112.203832716713	1.01852416992188	1.01898193359375	5.8685302734375E-06	5.9799258451676E-06	173634.953125	7.63095886213705E-05
2	460	112.304540716458	1.02859497070313	1.02874755859375	5.987548828125E-06	6.15967610428925E-06	171814.46875	7.69065882195719E-05
2	461	112.405248716204	1.03866577148438	1.038818359375	6.0638427734375E-06	6.29923124506604E-06	171313.546875	7.75134249124676E-05
2	462	112.50595671595	1.04873657226563	1.048583984375	6.0882568359375E-06	6.38404844721663E-06	172230.578125	7.81253329478204E-05
2	463	112.606664715696	1.05880737304688	1.0589599609375	6.0638427734375E-06	6.42136637907242E-06	174635.125	7.87372409831733E-05
2	464	112.707372715441	1.06887817382813	1.0693359375	5.9967041015625E-06	6.41249062027782E-06	178320.625	7.93445360613987E-05
2	465	112.808080715187	1.07894897460938	1.0791015625	5.8990478515625E-06	6.36567165201996E-06	182928.09375	7.99435365479439E-05
2	466	112.908788714933	1.08901977539063	1.08917236328125	5.7891845703125E-06	6.3054194470169E-06	188139.171875	8.05320814833976E-05
2	467	113.009496714678	1.09909057617188	1.0992431640625	5.6732177734375E-06	6.23624600848416E-06	193760.078125	8.1109261373058E-05
2	468	113.110204714424	1.10916137695313	1.10931396484375	5.560302734375E-06	6.16812167208991E-06	199506.03125	8.16749161458574E-05
2	469	113.21091271417	1.11923217773438	1.11907958984375	5.4534912109375E-06	6.10289089308935E-06	205204.25	8.22295041871257E-05
2	470	113.311620713916	1.12930297851563	1.129150390625	5.352783203125E-06	6.04409706284059E-06	210946.421875	8.277364395326E-05
2	471	113.412328713661	1.13937377929688	1.1395263671875	5.26123046875E-06	5.99531085754279E-06	216589.328125	8.33080994198099E-05
2	472	113.513036713407	1.14944458007813	1.1492919921875	5.181884765625E-06	5.95549863646738E-06	221790.34375	8.38339547044598E-05
2	473	113.613744713153	1.15951538085938	1.15936279296875	5.1055908203125E-06	5.91923208048684E-06	227077.109375	8.43519665068015E-05
2	474	113.714452712899	1.16958618164063	1.16943359375	5.04150390625E-06	5.89570390729932E-06	231961.265625	8.48629133543E-05
2	475	113.815160712644	1.17965698242188	1.17950439453125	4.98046875E-06	5.87448448641226E-06	236826	8.53675592225045E-05
2	476	113.91586871239	1.18972778320313	1.18988037109375	4.92584228515625E-06	5.86116266276804E-06	241558.78125	8.58663843246177E-05
2	477	114.016576712136	1.19979858398438	1.1993408203125	4.879150390625E-06	5.85176394451992E-06	245809.359375	8.63601017044857E-05
2	478	114.117284711882	1.20986938476563	1.21002197265625	4.837646484375E-06	5.85365842198371E-06	250126.171875	8.68493807502091E-05
2	479	114.217992711627	1.21994018554688	1.2200927734375	4.80194091796875E-06	5.85881298320601E-06	254083.265625	8.73347744345665E-05
2	480	114.318700711373	1.23001098632813	1.23016357421875	4.77081298828125E-06	5.86888018005993E-06	257852	8.78167993505485E-05
2	481	114.419408711119	1.24008178710938	1.23992919921875	4.744873046875E-06	5.88330658501945E-06	261319.78125	8.82959575392306E-05
2	482	114.520116710864	1.25015258789063	1.25030517578125	4.72259521484375E-06	5.90468471273198E-06	264749.625	8.87726782821119E-05
2	483	114.62082471061	1.26022338867188	1.26007080078125	4.70458984375E-06	5.92811602473375E-06	267838.625	8.92473763087764E-05
2	484	114.721532710356	1.27029418945313	1.27044677734375	4.68963623046875E-06	5.95793335378403E-06	270905.1875	8.9720415417105E-05
2	485	114.822240710102	1.28036499023438	1.280517578125	4.6783447265625E-06	5.99070290263626E-06	273711.6875	9.01921303011477E-05
2	486	114.922948709847	1.29043579101563	1.29058837890625	4.669189453125E-06	6.02600175625412E-06	276405.21875	9.06628119992092E-05
2	487	115.023656709593	1.30050659179688	1.3006591796875	4.66156005859375E-06	6.06310095463414E-06	279018	9.11326569621451E-05
2	488	115.124364709339	1.31057739257813	1.31072998046875	4.65576171875E-06	6.10244615018019E-06	281528.59375	9.16018179850653E-05
2	489	115.225072709085	1.32064819335938	1.32080078125	4.6514892578125E-06	6.14369082541089E-06	283952.25	9.20704769669101E-05
2	490	115.32578070883	1.33071899414063	1.33087158203125	4.64813232421875E-06	6.18606736679794E-06	286323.9375	9.25387503230013E-05
2	491	115.426488708576	1.34078979492188	1.34063720703125	4.64630126953125E-06	6.22900415692129E-06	288538.59375	9.30067617446184E-05
2	492	115.527196708322	1.35086059570313	1.3507080078125	4.6453857421875E-06	6.27455938229105E-06	290763.375	9.34746349230409E-05
2	493	115.627904708068	1.36093139648438	1.36077880859375	4.64691162109375E-06	6.32341834716499E-06	292835.125	9.39425372052938E-05
2	494	115.728612707813	1.37100219726563	1.37115478515625	4.6502685546875E-06	6.3762377067178E-06	294855	9.44106868701056E-05
2	495	115.829320707559	1.38107299804688	1.3812255859375	4.6563720703125E-06	6.43149996903958E-06	296631.28125	9.48793167481199E-05
2	496	115.930028707305	1.39114379882813	1.39129638671875	4.66552734375E-06	6.49113144390867E-06	298207.75	9.53487106016837E-05
2	497	116.030736707051	1.40121459960938	1.40045166015625	4.6783447265625E-06	6.55179565001163E-06	299347.6875	9.58192104008049E-05
2	498	116.131444706796	1.41128540039063	1.41143798828125	4.693603515625E-06	6.62473030388355E-06	300715.21875	9.62911290116608E-05
2	499	116.232152706542	1.42135620117188	1.4215087890625	4.71221923828125E-06	6.69846076561953E-06	301664.40625	9.67647501965985E-05
2	500	116.332860706288	1.43142700195313	1.43157958984375	4.73480224609375E-06	6.77824618833256E-06	302352.5625	9.72404450294562E-05
2	501	116.433568706033	1.44149780273438	1.44134521484375	4.76165771484375E-06	6.8631925387308E-06	302698.1875	9.77186282398179E-05
2	502	116.534276705779	1.45156860351563	1.451416015625	4.79339599609375E-06	6.95721155352658E-06	302794.9375	9.8199765488971E-05
2	503	116.634984705525	1.46163940429688	1.4617919921875	4.83154296875E-06	7.06271066519548E-06	302551.8125	9.86844170256518E-05
2	504	116.735692705271	1.47171020507813	1.47186279296875	4.87548828125E-06	7.17604962119367E-06	301890.34375	9.9173208582215E-05
2	505	116.836400705016	1.48178100585938	1.48162841796875	4.927978515625E-06	7.30143256078009E-06	300656.4375	9.96668459265493E-05
2	506	116.937108704762	1.49185180664063	1.49169921875	4.99267578125E-06	7.44757062420831E-06	298777.5	0.000100166391348466
2	507	117.037816704508	1.50192260742188	1.5020751953125	5.0628662109375E-06	7.60480543249287E-06	296684.75	0.000100672732514795
2	508	117.138524704254	1.49185180664063	1.49200439453125	4.8291015625E-06	7.20504021956003E-06	308961.09375	0.000101170830021147
2	509	117.239232703999	1.48178100585938	1.48162841796875	4.6575927734375E-06	6.90082197252195E-06	318110.34375	0.000101648525742348
2	510	117.339940703745	1.47171020507813	1.47216796875	4.52117919921875E-06	6.65593506710138E-06	325615.9375	0.000102110709121916
2	511	117.440648703491	1.46163940429688	1.46148681640625	4.40826416015625E-06	6.4426199060108E-06	331533.40625	0.0001025603414746
2	512	117.541356703237	1.45156860351563	1.451416015625	4.312744140625E-06	6.25958546152106E-06	336541.21875	0.000102999481896404
2	513	117.642064702982	1.44149780273438	1.441650390625	4.23095703125E-06	6.09956077823881E-06	340738.59375	0.000103429694718216
2	514	117.742772702728	1.43142700195313	1.4312744140625	4.16046142578125E-06	5.9547614910116E-06	344018.21875	0.000103852231404744
2	515	117.843480702474	1.42135620117188	1.42120361328125	4.097900390625E-06	5.823950687045E-06	346812.625	0.000104268074210268
2	516	117.94418870222	1.41128540039063	1.4111328125	4.04266357421875E-06	5.7047350310313E-06	349060.1875	0.000104677987110335
2	517	118.044896701965	1.40121459960938	1.40106201171875	3.99322509765625E-06	5.59475620320882E-06	350859.75	0.000105082624941133
2	518	118.145604701711	1.39114379882813	1.3909912109375	3.94866943359375E-06	5.49256446902291E-06	352268.34375	0.000105482533399481
2	519	118.246312701457	1.38107299804688	1.38092041015625	3.9080810546875E-06	5.39674874744378E-06	353350	0.000105878149042837
2	520	118.347020701202	1.37100219726563	1.37115478515625	3.8714599609375E-06	5.3083704187884E-06	354169.96875	0.000106269879324827
2	521	118.447728700948	1.36093139648438	1.36077880859375	3.83758544921875E-06	5.22210439157789E-06	354592.46875	0.000106658058939502
2	522	118.548436700694	1.35086059570313	1.3507080078125	3.8055419921875E-06	5.14017574460013E-06	354931.84375	0.000107042920717504
2	523	118.64914470044	1.34078979492188	1.3409423828125	3.7750244140625E-06	5.06209016748471E-06	355214.21875	0.000107424632005859
2	524	118.749852700185	1.33071899414063	1.33056640625	3.7469482421875E-06	4.98556346428813E-06	355106.71875	0.000107803396531381
2	525	118.850560699931	1.32064819335938	1.3201904296875	3.7200927734375E-06	4.91123091705958E-06	354881.0625	0.000108179388917051
2	526	118.951268699677	1.31057739257813	1.31103515625	3.69415283203125E-06	4.8431643335789E-06	354894.65625	0.000108552725578193
2	527	119.051976699423	1.30050659179688	1.3006591796875	3.66912841796875E-06	4.77228559248033E-06	354487.25	0.000108923501102254
2	528	119.152684699168	1.29043579101563	1.290283203125	3.64501953125E-06	4.70310715172673E-06	353985.28125	0.000109291795524769
2	529	119.253392698914	1.28036499023438	1.28082275390625	3.62274169921875E-06	4.64009008283028E-06	353550.6875	0.000109657754364889
2	530	119.35410069866	1.27029418945313	1.27044677734375	3.60076904296875E-06	4.57458509117714E-06	352826.53125	0.00011002148676198
2	531	119.454808698406	1.26022338867188	1.259765625	3.57940673828125E-06	4.50921334049781E-06	351948.15625	0.000110383036371786
2	532	119.555516698151	1.25015258789063	1.25030517578125	3.558349609375E-06	4.44902298113448E-06	351372.21875	0.000110742454126012
2	533	119.656224697897	1.24008178710938	1.24053955078125	3.538818359375E-06	4.39004406871391E-06	350551.9375	0.000111099827336147
2	534	119.756932697643	1.23001098632813	1.2298583984375	3.5198974609375E-06	4.32897513746866E-06	349401.78125	0.0001114552578656
2	535	119.857640697389	1.21994018554688	1.2200927734375	3.50067138671875E-06	4.27114355261438E-06	348531.09375	0.000111808774818201
2	536	119.958348697134	1.20986938476563	1.209716796875	3.482666015625E-06	4.21303957409691E-06	347353.65625	0.000112160414573736
2	537	120.05905669688	1.19979858398438	1.19964599609375	3.46435546875E-06	4.15600015912787E-06	346282.59375	0.000112510220787954
2	538	120.159764696626	1.18972778320313	1.18927001953125	3.4466552734375E-06	4.09900394515716E-06	345050.46875	0.000112858222564682
2	539	120.260472696371	1.17965698242188	1.17950439453125	3.42803955078125E-06	4.04338743464905E-06	344075.5	0.000113204390800092
2	540	120.361180696117	1.16958618164063	1.1700439453125	3.40972900390625E-06	3.98953261537827E-06	343148.6875	0.000113548696390353
2	541	120.461888695863	1.15951538085938	1.15966796875	3.3892822265625E-06	3.93044183510938E-06	342157.40625	0.000113891052023973
2	542	120.562596695609	1.14944458007813	1.14959716796875	3.36700439453125E-06	3.87069894713932E-06	341430.25	0.000114231261250097
2	543	120.663304695354	1.13937377929688	1.1395263671875	3.34320068359375E-06	3.80966525881377E-06	340848.9375	0.000114569149445742
2	544	120.7640126951	1.12930297851563	1.129150390625	3.314208984375E-06	3.74224032384518E-06	340699.8125	0.000114904374640901
2	545	120.864720694846	1.11923217773438	1.11907958984375	3.27972412109375E-06	3.67027223546756E-06	341211.5	0.000115236405690666
2	546	120.965428694592	1.10916137695313	1.1090087890625	3.2366943359375E-06	3.58952252099698E-06	342636.25	0.000115564529551193
2	547	121.066136694337	1.09909057617188	1.0992431640625	3.1817626953125E-06	3.49753076989145E-06	345482.46875	0.000115887727588415
2	548	121.166844694083	1.08901977539063	1.0888671875	3.11004638671875E-06	3.38642735187022E-06	350112.875	0.00011620454461081
2	549	121.267552693829	1.07894897460938	1.07879638671875	3.01666259765625E-06	3.25436462844664E-06	357612.5625	0.000116513052489609
2	550	121.368260693575	1.06887817382813	1.06903076171875	2.8948974609375E-06	3.09473421111761E-06	369281.0625	0.000116810719191562
2	551	121.46896869332	1.05880737304688	1.0589599609375	2.740478515625E-06	2.90205707642599E-06	386414.25	0.000117094481538516
2	552	121.569676693066	1.04873657226563	1.048583984375	2.5506591796875E-06	2.67458017333411E-06	411103.15625	0.000117360912554432
2	553	121.670384692812	1.03866577148438	1.038818359375	2.32818603515625E-06	2.41856218963221E-06	446192.1875	0.000117606585263275
2	554	121.771092692558	1.02859497070313	1.0284423828125	2.08343505859375E-06	2.14269289244839E-06	493628.25	0.000117828727525193
2	555	121.871800692303	1.01852416992188	1.01806640625	1.83502197265625E-06	1.86817419489671E-06	554797.9375	0.000118026036943775
2	556	121.972508692049	1.00845336914063	1.00860595703125	1.60552978515625E-06	1.61934690368071E-06	628207.5625	0.000118199284770526
2	557	122.073216691795	0.998382568359375	0.99853515625	1.41754150390625E-06	1.41546502163692E-06	704413.375	0.000118351505079772
2	558	122.17392469154	0.988311767578125	0.98846435546875	1.28387451171875E-06	1.26906411423988E-06	769907.3125	0.000118487529107369
2	559	122.274632691286	0.978240966796875	0.9783935546875	1.20819091796875E-06	1.18208618005156E-06	809800.5	0.000118613017548341
2	560	122.375340691032	0.968170166015625	0.968017578125	1.17950439453125E-06	1.14178089916095E-06	820698.625	0.000118733245471958
2	561	122.476048690778	0.958099365234375	0.958251953125	1.1785888671875E-06	1.12938505480997E-06	813050.25	0.000118851989100222
2	562	122.576756690523	0.948028564453125	0.94818115234375	1.1846923828125E-06	1.1233029226787E-06	800360.6875	0.000118970987387002
2	563	122.677464690269	0.937957763671875	0.9381103515625	1.177978515625E-06	1.10507380668423E-06	796373.125	0.000119089956569951
2	564	122.778172690015	0.927886962890625	0.92803955078125	1.14471435546875E-06	1.06234017493989E-06	810717.125	0.000119206917588599
2	565	122.878880689761	0.917816162109375	0.91766357421875	1.0748291015625E-06	9.86331542662811E-07	853776.25	0.000119318676297553
2	566	122.979588689506	0.907745361328125	0.90789794921875	9.521484375E-07	8.64453568283352E-07	953525.6875	0.000119420743430965
2	567	123.080296689252	0.897674560546875	0.897216796875	7.6751708984375E-07	6.88629199885327E-07	1168986.125	0.000119507334602531
2	568	123.181004688998	0.887603759765625	0.887451171875	5.1727294921875E-07	4.59054490420385E-07	1715634.25	0.000119572032417636
2	569	123.281712688744	0.877532958984375	0.877685546875	2.0263671875E-07	1.77851319449474E-07	4331325.5	0.00011960828123847
2	570	123.382420688489	0.867462158203125	0.8673095703125	-1.62658691406251E-07	-1.41075446435934E-07	-5332082.5	0.000119610296678729
2	571	123.483128688235	0.857391357421875	0.858154296875	-5.535888671875E-07	-4.75064638294498E-07	-1550165.375	0.000119574229756836
2	572	123.583836687981	0.847320556640625	0.84747314453125	-9.33227539062501E-07	-7.90885280821385E-07	-908109.875	0.000119499360152986
2	573	123.684544687727	0.837249755859375	0.83740234375	-1.2689208984375E-06	-1.06259733456682E-06	-659932.6875	0.000119388474558946
2	574	123.785252687472	0.827178955078125	0.8270263671875	-1.527099609375E-06	-1.26295162772294E-06	-541566.75	0.000119247684779111
2	575	123.885960687218	0.817108154296875	0.81695556640625	-1.69525146484375E-06	-1.38494510792952E-06	-481908.21875	0.000119085423648357
2	576	123.986668686964	0.807037353515625	0.8074951171875	-1.7694091796875E-06	-1.42878923270473E-06	-456364.28125	0.000118910968012642
2	577	124.087376686709	0.796966552734375	0.797119140625	-1.76788330078125E-06	-1.40921360980428E-06	-450889	0.000118732845294289
2	578	124.188084686455	0.786895751953125	0.78704833984375	-1.71234130859375E-06	-1.34769538817636E-06	-459632.875	0.000118557603855152
2	579	124.288792686201	0.776824951171875	0.7769775390625	-1.62841796875E-06	-1.26524423649244E-06	-477136.4375	0.000118389383715112
2	580	124.389500685947	0.766754150390625	0.7672119140625	-1.536865234375E-06	-1.17910121844034E-06	-499205.75	0.000118229996587615
2	581	124.490208685692	0.756683349609375	0.75653076171875	-1.4544677734375E-06	-1.10034966382955E-06	-520142.65625	0.000118079376989044
2	582	124.590916685438	0.746612548828125	0.74658203125	-1.39434814453125E-06	-1.04099524378398E-06	-535434.4375	0.000117935924208723
2	583	124.691624685184	0.736541748046875	0.736480712890625	-1.3641357421875E-06	-1.00465967989294E-06	-539888.125	0.000117797026177868
2	584	124.79233268493	0.726470947265625	0.72650146484375	-1.37054443359375E-06	-9.95702521322528E-07	-530082.375	0.000117659321404062
2	585	124.893040684675	0.716400146484375	0.716339111328125	-1.416015625E-06	-1.01434739008255E-06	-505883.625	0.000117519004561473
2	586	124.993748684421	0.706329345703125	0.706329345703125	-1.49810791015625E-06	-1.05815752249327E-06	-471480.96875	0.000117372270324267
2	587	125.094456684167	0.696258544921875	0.69622802734375	-1.607666015625E-06	-1.1193020554856E-06	-433067.59375	0.000117215880891308
2	588	125.195164683913	0.686187744140625	0.686126708984375	-1.73004150390625E-06	-1.18702769213996E-06	-396595.53125	0.000117047813546378
2	589	125.295872683658	0.676116943359375	0.67608642578125	-1.84478759765625E-06	-1.24723578664998E-06	-366484.71875	0.000116867806355003
2	590	125.396580683404	0.666046142578125	0.66607666015625	-1.9342041015625E-06	-1.28832812151813E-06	-344367.34375	0.00011667751823552
2	591	125.49728868315	0.655975341796875	0.655914306640625	-1.983642578125E-06	-1.30109947349411E-06	-330661.5625	0.000116480237920769
2	592	125.597996682896	0.645904541015625	0.64581298828125	-1.98883056640625E-06	-1.28441251945333E-06	-324719.96875	0.000116280214569997
2	593	125.698704682641	0.635833740234375	0.635772705078125	-1.95465087890625E-06	-1.24271355161909E-06	-325261.53125	0.000116081639134791
2	594	125.799412682387	0.625762939453125	0.625732421875	-1.89117431640625E-06	-1.18336902232841E-06	-330869.78125	0.000115887989522889
2	595	125.900120682133	0.615692138671875	0.61572265625	-1.80877685546875E-06	-1.11370491140406E-06	-340408.3125	0.00011570168135222
2	596	126.000828681878	0.605621337890625	0.6055908203125	-1.71722412109375E-06	-1.03993511402223E-06	-352656.84375	0.000115524133434519
2	597	126.101536681624	0.595550537109375	0.59552001953125	-1.6241455078125E-06	-9.67211121860601E-07	-366666.65625	0.000115355884190649
2	598	126.20224468137	0.585479736328125	0.585479736328125	-1.5338134765625E-06	-8.98016708106297E-07	-381715.09375	0.000115196868136991
2	599	126.302952681116	0.575408935546875	0.575408935546875	-1.4483642578125E-06	-8.33401713862258E-07	-397281.9375	0.000115046699647792
2	600	126.403660680861	0.565338134765625	0.56536865234375	-1.36810302734375E-06	-7.73482554450311E-07	-413250.0625	0.000114904883957934
2	601	126.504368680607	0.555267333984375	0.55523681640625	-1.29486083984375E-06	-7.18954368039704E-07	-428800.40625	0.000114770788059104
2	602	126.605076680353	0.545196533203125	0.545166015625	-1.22833251953125E-06	-6.69645146444964E-07	-443826.09375	0.000114643735287245
2	603	126.705784680099	0.535125732421875	0.53515625	-1.1669921875E-06	-6.24523181613768E-07	-458577.40625	0.000114523121737875
2	604	126.806492679844	0.525054931640625	0.5250244140625	-1.112060546875E-06	-5.83858934533055E-07	-472118.5625	0.000114408365334384
2	605	126.90720067959	0.514984130859375	0.5150146484375	-1.06109619140625E-06	-5.4648006653224E-07	-485360.9375	0.000114298934931867
2	606	127.007908679336	0.504913330078125	0.5048828125	-1.015625E-06	-5.12771634930687E-07	-497115.375	0.000114194364869036
2	607	127.108616679082	0.494842529296875	0.49481201171875	-9.7320556640625E-07	-4.81553740883101E-07	-508435.28125	0.000114094218588434
2	608	127.209324678827	0.484771728515625	0.48480224609375	-9.3505859375E-07	-4.5331847786656E-07	-518472.59375	0.000113998132292181
2	609	127.310032678573	0.474700927734375	0.474700927734375	-8.99658203125001E-07	-4.27068556518861E-07	-527645.875	0.000113905742182396
2	610	127.410740678319	0.464630126953125	0.46466064453125	-8.67309570312499E-07	-4.03004605686874E-07	-535749.5	0.00011381677177269
2	611	127.511448678065	0.454559326171875	0.454559326171875	-8.37097167968751E-07	-3.80510329023309E-07	-543018.625	0.000113730944576673
2	612	127.61215667781	0.444488525390625	0.444549560546875	-8.099365234375E-07	-3.60056930048813E-07	-548869.625	0.000113648013211787
2	613	127.712864677556	0.434417724609375	0.4344482421875	-7.843017578125E-07	-3.40738495197002E-07	-553930	0.000113567737571429
2	614	127.813572677302	0.424346923828125	0.42437744140625	-7.60498046875E-07	-3.22738202385153E-07	-558025.6875	0.000113489950308576
2	615	127.914280677047	0.414276123046875	0.414276123046875	-7.38525390625E-07	-3.05953420820515E-07	-560950.4375	0.000113414469524287
2	616	128.014988676793	0.404205322265625	0.40423583984375	-7.1868896484375E-07	-2.90519835743908E-07	-562462.875	0.000113341091491748
2	617	128.115696676539	0.394134521484375	0.394134521484375	-6.99462890624999E-07	-2.75682452866022E-07	-563481.6875	0.000113269685243722
2	618	128.216404676285	0.384063720703125	0.384063720703125	-6.817626953125E-07	-2.6184031298726E-07	-563339.3125	0.000113200134364888
2	619	128.31711267603	0.373992919921875	0.374053955078125	-6.6558837890625E-07	-2.48965960736314E-07	-561989.9375	0.000113132286060136
2	620	128.417820675776	0.363922119140625	0.3638916015625	-6.4971923828125E-07	-2.36427354138868E-07	-560075.1875	0.000113066053017974
2	621	128.518528675522	0.353851318359375	0.3538818359375	-6.3629150390625E-07	-2.25172001933061E-07	-556163.125	0.000113001296995208
2	622	128.619236675268	0.343780517578125	0.34381103515625	-6.2255859375E-07	-2.1404250105661E-07	-552254.9375	0.000112937908852473
2	623	128.719944675013	0.333709716796875	0.333770751953125	-6.103515625E-07	-2.03717490876443E-07	-546850	0.000112875830382109
2	624	128.820652674759	0.323638916015625	0.32366943359375	-5.99365234375E-07	-1.93996186226286E-07	-540020.375	0.000112814916064963
2	625	128.921360674505	0.313568115234375	0.3135986328125	-5.8929443359375E-07	-1.84801919544952E-07	-532159.5	0.000112755064037628
2	626	129.022068674251	0.303497314453125	0.303558349609375	-5.8013916015625E-07	-1.761060843819E-07	-523250.9375	0.000112696179712657
2	627	129.122776673996	0.293426513671875	0.29345703125	-5.72509765625E-07	-1.68007005640902E-07	-512579.96875	0.000112638139398769
2	628	129.223484673742	0.283355712890625	0.283416748046875	-5.6488037109375E-07	-1.6009654757454E-07	-501728.8125	0.00011258086306043
2	629	129.324192673488	0.273284912109375	0.273345947265625	-5.584716796875E-07	-1.52655957208481E-07	-489453.59375	0.000112524299765937
2	630	129.424900673234	0.263214111328125	0.26318359375	-5.5267333984375E-07	-1.45454549738133E-07	-476201	0.000112468347651884
2	631	129.525608672979	0.253143310546875	0.253173828125	-5.474853515625E-07	-1.38608953648145E-07	-462430.34375	0.00011241294851061
2	632	129.626316672725	0.243072509765625	0.24310302734375	-5.43212890625E-07	-1.32056698021188E-07	-447528.09375	0.000112358029582538
2	633	129.727024672471	0.233001708984375	0.233001708984375	-5.3985595703125E-07	-1.25787352089901E-07	-431599.78125	0.000112303496280219
2	634	129.827732672216	0.222930908203125	0.222991943359375	-5.37109375E-07	-1.19771058848528E-07	-415170.46875	0.000112249261292163
2	635	129.928440671962	0.212860107421875	0.21295166015625	-5.3558349609375E-07	-1.14053385402713E-07	-397606.84375	0.000112195251858793
2	636	130.029148671708	0.202789306640625	0.202850341796875	-5.34667968749999E-07	-1.08457577141507E-07	-379395	0.000112141358840745
2	637	130.129856671454	0.192718505859375	0.192718505859375	-5.3436279296875E-07	-1.02981594807261E-07	-360651.09375	0.000112087531306315
2	638	130.230564671199	0.182647705078125	0.182708740234375	-5.34973144531251E-07	-9.77442695671016E-08	-341528.8125	0.000112033681944013
2	639	130.331272670945	0.172576904296875	0.172576904296875	-5.37719726562499E-07	-9.27980039477916E-08	-320942.125	0.000111979665234685
2	640	130.431980670691	0.162506103515625	0.162567138671875	-5.419921875E-07	-8.8110112983486E-08	-299943.71875	0.000111925299279392
2	641	130.532688670437	0.152435302734375	0.1524658203125	-5.4901123046875E-07	-8.37054443536545E-08	-277709.84375	0.000111870365799405
2	642	130.633396670182	0.142364501953125	0.14239501953125	-5.59387207031251E-07	-7.96539509906324E-08	-254555.375	0.000111814551928546
2	643	130.734104669928	0.132293701171875	0.132354736328125	-5.74951171875E-07	-7.60975140678966E-08	-230201.703125	0.000111757435661275
2	644	130.834812669674	0.122222900390625	0.122222900390625	-5.9844970703125E-07	-7.31442568735474E-08	-204232.546875	0.00011169834760949
2	645	130.93552066942	0.112152099609375	0.1121826171875	-6.3323974609375E-07	-7.10384924218488E-08	-177156.640625	0.000111636327346787
2	646	131.036228669165	0.102081298828125	0.10211181640625	-6.8328857421875E-07	-6.97718363085187E-08	-149441.71875	0.000111570036096964
2	647	131.136936668911	0.092010498046875	0.092071533203125	-7.54699707031251E-07	-6.9486354448145E-08	-121997.578125	0.000111497625766788
2	648	131.237644668657	0.081939697265625	0.08197021484375	-8.53881835937501E-07	-6.99928790481863E-08	-95997.140625	0.000111416629806627
2	649	131.338352668403	0.071868896484375	0.071868896484375	-9.88159179687501E-07	-7.10179079987938E-08	-72730.078125	0.000111323875898961
2	650	131.439060668148	0.061798095703125	0.06182861328125	-1.1614990234375E-06	-7.1813872182247E-08	-53231.7421875	0.000111215631477535
2	651	131.539768667894	0.051727294921875	0.0517578125	-1.37420654296875E-06	-7.11259247054841E-08	-37663.78125	0.000111087945697363
2	652	131.64047666764	0.041656494140625	0.0417572021484375	-1.61773681640625E-06	-6.75521647508504E-08	-25812.11328125	0.000110937289719004
2	653	131.741184667385	0.031585693359375	0.0316986083984375	-1.87713623046875E-06	-5.95026001803944E-08	-16886.685546875	0.00011076130613219
2	654	131.841892667131	0.021514892578125	0.02159423828125	-2.12677001953125E-06	-4.59259759111319E-08	-10153.537109375	0.000110559696622659
2	655	131.942600666877	0.011444091796875	0.01156005859375	-2.34100341796875E-06	-2.70621356435186E-08	-4938.078125	0.000110334724013228
2	656	132.043308666623	0.001373291015625	0.00148925781250001	-2.49969482421875E-06	-3.72268993409364E-09	-595.775817871094	0.000110090979433153
2	657	132.144016666368	-0.008697509765625	-0.00859375	-2.59307861328125E-06	2.22842686525837E-08	3314.11108398438	0.000109834538307041
2	658	132.244724666114	-0.018768310546875	-0.018670654296875	-2.62420654296875E-06	4.89956519800216E-08	7114.78076171875	0.000109571825305466
2	659	132.34543266586	-0.028839111328125	-0.0286834716796875	-2.60650634765625E-06	7.47636548226183E-08	11004.56640625	0.000109308435639832
2	660	132.446140665606	-0.038909912109375	-0.038775634765625	-2.55645751953125E-06	9.91282576023877E-08	15167.720703125	0.000109048465674277
2	661	132.546848665351	-0.048980712890625	-0.0488494873046875	-2.48687744140625E-06	1.21482671033846E-07	19642.90234375	0.00010879451292567
2	662	132.647556665097	-0.059051513671875	-0.058990478515625	-2.4114990234375E-06	1.42255487389775E-07	24462.162109375	0.000108547857962549
2	663	132.748264664843	-0.069122314453125	-0.06903076171875	-2.335205078125E-06	1.61200972570441E-07	29560.900390625	0.000108308842754923
2	664	132.848972664589	-0.079193115234375	-0.07916259765625	-2.26287841796875E-06	1.79135327016411E-07	34983.14453125	0.000108077307231724
2	665	132.949680664334	-0.089263916015625	-0.08917236328125	-2.19757080078125E-06	1.95962570614938E-07	40577.69921875	0.000107852705696132
2	666	133.05038866408	-0.099334716796875	-0.099212646484375	-2.13897705078125E-06	2.12213564054764E-07	46383.22265625	0.000107634346932173
2	667	133.151096663826	-0.109405517578125	-0.1092529296875	-2.08770751953125E-06	2.28088168796603E-07	52331.52734375	0.000107421517896
2	668	133.251804663572	-0.119476318359375	-0.119354248046875	-2.04254150390625E-06	2.43785990505785E-07	58434.1875	0.000107213541923556
2	669	133.352512663317	-0.129547119140625	-0.129425048828125	-2.003173828125E-06	2.59260843904485E-07	64610	0.000107009822386317
2	670	133.453220663063	-0.139617919921875	-0.139495849609375	-1.96990966796875E-06	2.74794217602903E-07	70813.328125	0.000106809762655757
2	671	133.553928662809	-0.149688720703125	-0.149566650390625	-1.94183349609375E-06	2.90433519012367E-07	77023.4140625	0.000106612787931226
2	672	133.654636662554	-0.159759521484375	-0.15966796875	-1.9189453125E-06	3.06394099425233E-07	83206.1015625	0.000106418381619733
2	673	133.7553446623	-0.169830322265625	-0.169708251953125	-1.9012451171875E-06	3.22656973139601E-07	89261.640625	0.000106226019852329
2	674	133.856052662046	-0.179901123046875	-0.17974853515625	-1.88873291015625E-06	3.39496978085663E-07	95168.8515625	0.000106035186036024
2	675	133.956760661792	-0.189971923828125	-0.1898193359375	-1.881103515625E-06	3.57069808387678E-07	100908.5078125	0.00010584535630187
2	676	134.057468661537	-0.200042724609375	-0.19989013671875	-1.87896728515625E-06	3.75587035250646E-07	106382.9765625	0.000105656021332834
2	677	134.158176661283	-0.189971923828125	-0.18988037109375	-1.66290283203125E-06	3.15752600954511E-07	114186.0859375	0.000105477673059795
