Potential - Start -0.2 V, Upper Vertex 1.5 V, Lower Vertex -0.2 V, Stop -0.19 V; Scan - # end cross 5, Rate 0.1 Vps, Step 0.01 V 
Scan	Index	Time (s)	Potential applied (V)	WE(1).Potential (V)	WE(1).Current (A)	WE(1).Power (W)	WE(1).Resistance (Ω)	WE(1).Charge (C)
1	1	65.2525608352531	-0.189971923828125	-0.189849853515625	-2.38037109375E-07	4.51913102494927E-08	797564.125	0
1	2	65.3532688349989	-0.179901123046875	-0.179779052734375	-2.056884765625E-07	3.69784771692139E-08	874035.625	-2.23433573864895E-08
1	3	65.4539768347446	-0.169830322265625	-0.169708251953125	-1.80664062499999E-07	3.06601819488606E-08	939358.125	-4.17977510380751E-08
1	4	65.5546848344903	-0.159759521484375	-0.159637451171875	-1.59301757812499E-07	2.54305252411768E-08	1002107.3125	-5.89163917652513E-08
1	5	65.6553928342361	-0.149688720703125	-0.149566650390625	-1.40380859375E-07	2.09962962571808E-08	1065434.75	-7.40066070648027E-08
1	6	65.7561008339818	-0.139617919921875	-0.1395263671875	-1.22985839843751E-07	1.7159766940722E-08	1134491.375	-8.72681766850292E-08
1	7	65.8568088337275	-0.129547119140625	-0.12945556640625	-1.0711669921875E-07	1.38668525551111E-08	1208547	-9.8854755492539E-08
1	8	65.9575168334733	-0.119476318359375	-0.11932373046875	-9.1552734375E-08	1.09244142620923E-08	1303333.375	-1.08858557723579E-07
1	9	66.058224833219	-0.109405517578125	-0.1092529296875	-7.59887695312503E-08	8.30199553547573E-09	1437751.125	-1.17294945312096E-07
1	10	66.1589328329648	-0.099334716796875	-0.09930419921875	-6.04248046875006E-08	6.0004365920463E-09	1643434.375	-1.24163918258091E-07
1	11	66.2596408327105	-0.089263916015625	-0.0892333984375	-4.33349609374994E-08	3.86692589060544E-09	2059155	-1.29388638470118E-07
1	12	66.3603488324562	-0.079193115234375	-0.079132080078125	-2.47192382812497E-08	1.95608462760788E-09	3201234.5	-1.32815429765287E-07
1	13	66.461056832202	-0.069122314453125	-0.069061279296875	-3.0517578125E-09	2.10758299701297E-10	22630000	-1.34213820501827E-07
1	14	66.5617648319477	-0.059051513671875	-0.059051513671875	2.41088867187503E-08	-1.42366618494094E-09	-2449367.25	-1.33153505998962E-07
1	15	66.6624728316934	-0.048980712890625	-0.0488555908203125	5.88989257812506E-08	-2.87754176042654E-09	-829481.9375	-1.28973724144998E-07
1	16	66.7631808314392	-0.038909912109375	-0.038751220703125	1.03149414062501E-07	-3.99716570953501E-09	-375680.5	-1.20813950843512E-07
1	17	66.8638888311849	-0.028839111328125	-0.02872314453125	1.6326904296875E-07	-4.68960026367427E-09	-175925.25	-1.07398712145823E-07
1	18	66.9645968309306	-0.018768310546875	-0.01861572265625	2.43225097656249E-07	-4.52781057092011E-09	-76537.015625	-8.69301075567819E-08
1	19	67.0653048306764	-0.008697509765625	-0.00858154296874999	3.497314453125E-07	-3.00123548235831E-09	-24537.5234375	-5.70723734938383E-08
1	20	67.1660128304221	0.001373291015625	0.00147399902343751	4.90417480468749E-07	7.2287481556188E-10	3005.6005859375	-1.47675169870354E-08
1	21	67.2667208301679	0.011444091796875	0.0115478515625	6.671142578125E-07	7.70373631553412E-09	17310.15625	4.35188347580606E-08
1	22	67.3674288299136	0.021514892578125	0.021612548828125	8.7890625E-07	1.89954043605667E-08	24590.279296875	1.21367150995866E-07
1	23	67.4681368296593	0.031585693359375	0.0316650390625	1.11572265625E-06	3.53293998500703E-08	28380.744140625	2.21804697275729E-07
1	24	67.5688448294051	0.041656494140625	0.041717529296875	1.36016845703125E-06	5.67428664055569E-08	30670.85546875	3.46475701462623E-07
1	25	67.6695528291508	0.051727294921875	0.0517578125	1.58782958984375E-06	8.2182580740664E-08	32596.580078125	4.94919220273005E-07
1	26	67.7702608288965	0.061798095703125	0.06182861328125	1.776123046875E-06	1.09815218252152E-07	34810.99609375	6.64307663100772E-07
1	27	67.8709688286423	0.071868896484375	0.071868896484375	1.9085693359375E-06	1.37166765057373E-07	37655.90234375	8.49846628625528E-07
1	28	67.971676828388	0.081939697265625	0.081939697265625	1.9805908203125E-06	1.62288998240001E-07	41371.34375	1.04568141523487E-06
1	29	68.0723848281337	0.092010498046875	0.092041015625	1.9970703125E-06	1.83812375098569E-07	46088.01953125	1.24597249850922E-06
1	30	68.1730928278795	0.102081298828125	0.102081298828125	1.97265625E-06	2.01371307184672E-07	51748.14453125	1.44586419992265E-06
1	31	68.2738008276252	0.112152099609375	0.1121826171875	1.920166015625E-06	2.154092442197E-07	58423.3984375	1.64188327289594E-06
1	32	68.374508827371	0.122222900390625	0.1221923828125	1.85455322265625E-06	2.26612272058446E-07	65887.7734375	1.83195550107484E-06
1	33	68.4752168271167	0.132293701171875	0.13238525390625	1.783447265625E-06	2.36102124517856E-07	74229.9765625	2.01514330910868E-06
1	34	68.5759248268624	0.142364501953125	0.142425537109375	1.7132568359375E-06	2.44011516770115E-07	83131.4609375	2.19121648115106E-06
1	35	68.6766328266082	0.152435302734375	0.15252685546875	1.64642333984375E-06	2.51123765337979E-07	92641.34375	2.36038977163844E-06
1	36	68.7773408263539	0.162506103515625	0.1624755859375	1.585693359375E-06	2.57636457945409E-07	102463.4375	2.52313975579455E-06
1	37	68.8780488260996	0.172576904296875	0.172576904296875	1.53076171875E-06	2.64174104813719E-07	112739.2421875	2.68006579062785E-06
1	38	68.9787568258454	0.182647705078125	0.18267822265625	1.48101806640625E-06	2.70549747938276E-07	123346.390625	2.83172084891703E-06
1	39	69.0794648255911	0.192718505859375	0.192657470703125	1.43646240234375E-06	2.76745225846753E-07	134119.390625	2.97862766274193E-06
1	40	69.1801728253369	0.202789306640625	0.202850341796875	1.39678955078125E-06	2.83339232964863E-07	145226.125	3.12129327539878E-06
1	41	69.2808808250826	0.212860107421875	0.212982177734375	1.361083984375E-06	2.89886628479508E-07	156479.828125	3.26016333929147E-06
1	42	69.3815888248283	0.222930908203125	0.222900390625	1.32965087890625E-06	2.96379710107431E-07	167638.28125	3.39565258400398E-06
1	43	69.4822968245741	0.233001708984375	0.23297119140625	1.30096435546875E-06	3.03087205111296E-07	179075.78125	3.52811457560165E-06
1	44	69.5830048243198	0.243072509765625	0.24310302734375	1.27532958984375E-06	3.10036455175577E-07	190619.78125	3.65784126188373E-06
1	45	69.6837128240655	0.253143310546875	0.25311279296875	1.2518310546875E-06	3.16854453785709E-07	202194.0625	3.78509389520332E-06
1	46	69.7844208238113	0.263214111328125	0.263214111328125	1.2310791015625E-06	3.24037387144926E-07	213807.640625	3.91011826650356E-06
1	47	69.885128823557	0.273284912109375	0.273223876953125	1.212158203125E-06	3.31190562974371E-07	225402.828125	4.03314516006503E-06
1	48	69.9858368233027	0.283355712890625	0.283355712890625	1.195068359375E-06	3.38629433827009E-07	237104.203125	4.15435852119117E-06
1	49	70.0865448230485	0.293426513671875	0.293365478515625	1.17950439453125E-06	3.46025871067468E-07	248719.28125	4.27392797064385E-06
1	50	70.1872528227942	0.303497314453125	0.30340576171875	1.165771484375E-06	3.53701778976756E-07	260261.796875	4.39202176494291E-06
1	51	70.28796082254	0.313568115234375	0.313629150390625	1.1529541015625E-06	3.61600001497209E-07	272022.25	4.50877905677771E-06
1	52	70.3886688222857	0.323638916015625	0.323638916015625	1.14105224609375E-06	3.69288898127706E-07	283632	4.62429125036579E-06
1	53	70.4893768220314	0.333709716796875	0.333770751953125	1.1309814453125E-06	3.77488532876669E-07	295116.03125	4.73869704364915E-06
1	54	70.5900848217772	0.343780517578125	0.34381103515625	1.12213134765625E-06	3.85801115498907E-07	306391.09375	4.85215059597977E-06
1	55	70.6907928215229	0.353851318359375	0.35382080078125	1.11328125E-06	3.93902041651017E-07	317818	4.96471238875529E-06
1	56	70.7915008212686	0.363922119140625	0.3638916015625	1.10595703125E-06	4.02448478098449E-07	329028.6875	5.07646018377272E-06
1	57	70.8922088210144	0.373992919921875	0.373931884765625	1.1004638671875E-06	4.11498518815279E-07	339794.8125	5.1875622375519E-06
1	58	70.9929168207601	0.384063720703125	0.384033203125	1.0955810546875E-06	4.20739496576061E-07	350529.25	5.29814178662491E-06
1	59	71.0936248205059	0.394134521484375	0.394134521484375	1.09130859375E-06	4.3012238393203E-07	361157.71875	5.40826022188412E-06
1	60	71.1943328202516	0.404205322265625	0.404205322265625	1.0882568359375E-06	4.39879187297265E-07	371424.59375	5.51801031178911E-06
1	61	71.2950408199973	0.414276123046875	0.414276123046875	1.08612060546875E-06	4.4995383063906E-07	381427.375	5.62749892196734E-06
1	62	71.3957488197431	0.424346923828125	0.42437744140625	1.08489990234375E-06	4.60407022728759E-07	391167.375	5.73681836613105E-06
1	63	71.4964568194888	0.434417724609375	0.43438720703125	1.083984375E-06	4.70868911861544E-07	400732	5.84603048991994E-06
1	64	71.5971648192345	0.444488525390625	0.44451904296875	1.083984375E-06	4.8185165724135E-07	410078.84375	5.95519622947904E-06
1	65	71.6978728189803	0.454559326171875	0.454620361328125	1.08489990234375E-06	4.93217555685987E-07	419043.625	6.06440835326794E-06
1	66	71.798580818726	0.464630126953125	0.464599609375	1.0858154296875E-06	5.04469369388971E-07	427880.84375	6.17371233602171E-06
1	67	71.8992888184717	0.474700927734375	0.47467041015625	1.08795166015625E-06	5.16418481311121E-07	436297.34375	6.28317047812743E-06
1	68	71.9999968182175	0.484771728515625	0.4847412109375	1.0906982421875E-06	5.2870638000968E-07	444432.03125	6.39287418380263E-06
1	69	72.1007048179632	0.494842529296875	0.494781494140625	1.0931396484375E-06	5.40865244147426E-07	452624.21875	6.50283891445724E-06
1	70	72.201412817709	0.504913330078125	0.5048828125	1.097412109375E-06	5.54064513380581E-07	460066.75	6.61314197714091E-06
1	71	72.3021208174547	0.514984130859375	0.51495361328125	1.10260009765625E-06	5.67787878935633E-07	467035.71875	6.72392161504831E-06
1	72	72.4028288172004	0.525054931640625	0.5250244140625	1.1083984375E-06	5.81936262733507E-07	473678.40625	6.83525422573439E-06
1	73	72.5035368169462	0.535125732421875	0.5350341796875	1.11663818359375E-06	5.97439566263347E-07	479147.3125	6.94729351380374E-06
1	74	72.6042448166919	0.545196533203125	0.545166015625	1.1260986328125E-06	6.13910685842711E-07	484119.25	7.06022456142819E-06
1	75	72.7049528164376	0.555267333984375	0.555206298828125	1.138916015625E-06	6.32333353678405E-07	487486.625	7.17427701601991E-06
1	76	72.8056608161834	0.565338134765625	0.565277099609375	1.1541748046875E-06	6.52428582270659E-07	489767.3125	7.28974328012555E-06
1	77	72.9063688159291	0.575408935546875	0.575408935546875	1.17462158203125E-06	6.75887690704258E-07	489867.53125	7.40700761525659E-06
1	78	73.0070768156748	0.585479736328125	0.585418701171875	1.201171875E-06	7.03188447914727E-07	487373	7.52663800085429E-06
1	79	73.1077848154206	0.595550537109375	0.595489501953125	1.23870849609375E-06	7.3763789032455E-07	480734.1875	7.64949618314859E-06
1	80	73.2084928151663	0.605621337890625	0.60552978515625	1.2908935546875E-06	7.81674486916017E-07	469078	7.77687182562659E-06
1	81	73.3092008149121	0.615692138671875	0.615631103515625	1.365966796875E-06	8.40931647871912E-07	450692.59375	7.91065485827858E-06
1	82	73.4099088146578	0.625762939453125	0.62579345703125	1.47247314453125E-06	9.21463993108773E-07	424994.84375	8.05358195066219E-06
1	83	73.5106168144035	0.635833740234375	0.6357421875	1.6229248046875E-06	1.03176171251107E-06	391726.21875	8.20944751467323E-06
1	84	73.6113248141493	0.645904541015625	0.645843505859375	1.8292236328125E-06	1.1813922355941E-06	353069.75	8.38327650853898E-06
1	85	73.712032813895	0.655975341796875	0.6558837890625	2.10296630859375E-06	1.37930146593135E-06	311885.09375	8.58127805258846E-06
1	86	73.8127408136407	0.666046142578125	0.666015625	2.4530029296875E-06	1.63373829309421E-06	271510.3125	8.81068990565836E-06
1	87	73.9134488133865	0.676116943359375	0.675994873046875	2.879638671875E-06	1.94662084140873E-06	234749.90625	9.0792091214098E-06
1	88	74.0141568131322	0.686187744140625	0.68609619140625	3.3697509765625E-06	2.31197327593691E-06	203604.421875	9.39389155973913E-06
1	89	74.114864812878	0.696258544921875	0.696136474609375	3.89678955078125E-06	2.71269732365909E-06	178643.59375	9.7597903732094E-06
1	90	74.2155728126237	0.706329345703125	0.706268310546875	4.4268798828125E-06	3.12656493406394E-06	159540.875	1.01789210020797E-05
1	91	74.3162808123694	0.716400146484375	0.71630859375	4.913330078125E-06	3.5194605061406E-06	145788.828125	1.06492379927658E-05
1	92	74.4169888121152	0.726470947265625	0.72637939453125	5.31005859375E-06	3.85711700801039E-06	136793.109375	1.11640265458846E-05
1	93	74.5176968118609	0.736541748046875	0.736358642578125	5.5816650390625E-06	4.11010705647641E-06	131924.546875	1.17124682219583E-05
1	94	74.6184048116066	0.746612548828125	0.746368408203125	5.7220458984375E-06	4.27075428888202E-06	130437.3359375	1.22816545626847E-05
1	95	74.7191128113524	0.756683349609375	0.7568359375	5.7342529296875E-06	4.33988861914258E-06	131985.109375	1.28585252241464E-05
1	96	74.8198208110981	0.766754150390625	0.7666015625	5.6488037109375E-06	4.33038167102495E-06	135710.4375	1.34317078845925E-05
1	97	74.9205288108438	0.776824951171875	0.7769775390625	5.499267578125E-06	4.27280747317127E-06	141287.46875	1.39930580189684E-05
1	98	75.0212368105896	0.786895751953125	0.787353515625	5.3192138671875E-06	4.18810168412165E-06	148020.65625	1.45378116940265E-05
1	99	75.1219448103353	0.796966552734375	0.79681396484375	5.133056640625E-06	4.09009135182714E-06	155231.859375	1.5064125364006E-05
1	100	75.2226528100811	0.807037353515625	0.80718994140625	4.949951171875E-06	3.9955507418199E-06	163070.296875	1.55718444148079E-05
1	101	75.3233608098268	0.817108154296875	0.81756591796875	4.77935791015625E-06	3.90744025935419E-06	171061.875	1.60617546498543E-05
1	102	75.4240688095725	0.827178955078125	0.8270263671875	4.627685546875E-06	3.82721782443696E-06	178712.75	1.65354376804316E-05
1	103	75.5247768093183	0.837249755859375	0.83709716796875	4.493408203125E-06	3.76141929336882E-06	186294.484375	1.69947197719011E-05
1	104	75.625484809064	0.847320556640625	0.8477783203125	4.376220703125E-06	3.71006490240688E-06	193723.84375	1.7441341697122E-05
1	105	75.7261928088097	0.857391357421875	0.85662841796875	4.273681640625E-06	3.66095696335833E-06	200442.734375	1.7876898709801E-05
1	106	75.8269008085555	0.867462158203125	0.8673095703125	4.18609619140625E-06	3.63064123121148E-06	207188.15625	1.83028823812492E-05
1	107	75.9276088083012	0.877532958984375	0.87738037109375	4.10980224609375E-06	3.60585954695125E-06	213484.828125	1.87206151167629E-05
1	108	76.028316808047	0.887603759765625	0.88714599609375	4.0447998046875E-06	3.58832812707988E-06	219330.015625	1.91312301467406E-05
1	109	76.1290248077927	0.897674560546875	0.8978271484375	3.98956298828125E-06	3.58193801730522E-06	225043.984375	1.95357933989726E-05
1	110	76.2297328075384	0.907745361328125	0.9075927734375	3.9447021484375E-06	3.58018337465182E-06	230078.90625	1.99353162315674E-05
1	111	76.3304408072842	0.917816162109375	0.91796875	3.91143798828125E-06	3.59057776222471E-06	234688.3125	2.0330902771093E-05
1	112	76.4311488070299	0.927886962890625	0.92803955078125	3.8922119140625E-06	3.61212642019382E-06	238435.015625	2.07238481380045E-05
1	113	76.5318568067756	0.937957763671875	0.93780517578125	3.89312744140625E-06	3.65099526788981E-06	240887.34375	2.11158712772885E-05
1	114	76.6325648065214	0.948028564453125	0.94757080078125	3.91937255859375E-06	3.71388273379125E-06	241765.953125	2.1509262296604E-05
1	115	76.7332728062671	0.958099365234375	0.95794677734375	3.97918701171875E-06	3.81184941034007E-06	240739.3125	2.19069861486787E-05
1	116	76.8339808060128	0.968170166015625	0.968017578125	4.0838623046875E-06	3.95325059798779E-06	237034.828125	2.23129936784972E-05
1	117	76.9346888057586	0.978240966796875	0.9783935546875	4.2449951171875E-06	4.15327576774871E-06	230481.671875	2.27323835133575E-05
1	118	77.0353968055043	0.988311767578125	0.9881591796875	4.47296142578125E-06	4.41999782196945E-06	220918.34375	2.31713675020728E-05
1	119	77.1361048052501	0.998382568359375	0.99822998046875	4.7735595703125E-06	4.76511013403069E-06	209116.484375	2.36369669437408E-05
1	120	77.2368128049958	1.00845336914063	1.00830078125	5.145263671875E-06	5.1879733291571E-06	195966.796875	2.41364195971983E-05
1	121	77.3375208047415	1.01852416992188	1.01837158203125	5.572509765625E-06	5.67488541491912E-06	182749.1875	2.46761028392939E-05
1	122	77.4382288044873	1.02859497070313	1.02813720703125	6.024169921875E-06	6.19367301624152E-06	170668.703125	2.52600420935778E-05
1	123	77.538936804233	1.03866577148438	1.03851318359375	6.4697265625E-06	6.71889620207367E-06	160518.875	2.58891595876776E-05
1	124	77.6396448039787	1.04873657226563	1.04888916015625	6.8634033203125E-06	7.19894887879491E-06	152823.484375	2.65605358436005E-05
1	125	77.7403528037245	1.05880737304688	1.05865478515625	7.171630859375E-06	7.5922812357021E-06	147617.015625	2.72672550636344E-05
1	126	77.8410608034702	1.06887817382813	1.06842041015625	7.36083984375E-06	7.86447162681725E-06	145149.25	2.79990235867444E-05
1	127	77.941768803216	1.07894897460938	1.0791015625	7.43408203125E-06	8.02212980488548E-06	145156	2.87440070678713E-05
1	128	78.0424768029617	1.08901977539063	1.090087890625	7.3974609375E-06	8.06388197815977E-06	147359.734375	2.94908350042533E-05
1	129	78.1431848027074	1.09909057617188	1.09954833984375	7.281494140625E-06	8.00635461928323E-06	151005.859375	3.02299795293948E-05
1	130	78.2438928024532	1.10916137695313	1.1090087890625	7.122802734375E-06	7.89925070421305E-06	155698.375	3.09552924591117E-05
1	131	78.3446008021989	1.11923217773438	1.119384765625	6.9427490234375E-06	7.77160676079802E-06	161230.78125	3.16635487251915E-05
1	132	78.4453088019446	1.12930297851563	1.129150390625	6.756591796875E-06	7.62920808483614E-06	167118.34375	3.2353367714677E-05
1	133	78.5460168016904	1.13937377929688	1.13922119140625	6.57958984375E-06	7.49560831536655E-06	173144.71875	3.30248949467205E-05
1	134	78.6467248014361	1.14944458007813	1.1492919921875	6.414794921875E-06	7.37247228244087E-06	179162.703125	3.36792145390064E-05
1	135	78.7474328011818	1.15951538085938	1.1590576171875	6.2652587890625E-06	7.26179541743477E-06	184997.578125	3.43177052855026E-05
1	136	78.8481408009276	1.16958618164063	1.1700439453125	6.1309814453125E-06	7.17351713319658E-06	190841.21875	3.49419060512446E-05
1	137	78.9488488006733	1.17965698242188	1.18011474609375	6.0089111328125E-06	7.09120467945468E-06	196394.109375	3.5553199268179E-05
1	138	79.0495568004191	1.18972778320313	1.18988037109375	5.902099609375E-06	7.02279248798732E-06	201602.90625	3.61529673682526E-05
1	139	79.1502648001648	1.19979858398438	1.19964599609375	5.804443359375E-06	6.96327742844005E-06	206677.1875	3.67424363503233E-05
1	140	79.2509727999105	1.20986938476563	1.209716796875	5.7159423828125E-06	6.9146713030932E-06	211639.078125	3.73225338989869E-05
1	141	79.3516807996563	1.21994018554688	1.21978759765625	5.6365966796875E-06	6.8754507083213E-06	216404.984375	3.78941804228816E-05
1	142	79.452388799402	1.23001098632813	1.2298583984375	5.56640625E-06	6.84589122101897E-06	220943	3.84582963306457E-05
1	143	79.5530967991477	1.24008178710938	1.23992919921875	5.5023193359375E-06	6.82248628436355E-06	225346.640625	3.90156528737862E-05
1	144	79.6538047988935	1.25015258789063	1.24969482421875	5.4443359375E-06	6.80375842421199E-06	229540.359375	3.95668575947639E-05
1	145	79.7545127986392	1.26022338867188	1.2603759765625	5.3924560546875E-06	6.79652202961734E-06	233729.484375	4.01125362259336E-05
1	146	79.8552207983849	1.27029418945313	1.27044677734375	5.3466796875E-06	6.79267213854473E-06	237614.15625	4.06532926717773E-05
1	147	79.9559287981307	1.28036499023438	1.280517578125	5.3009033203125E-06	6.78789956509718E-06	241565.9375	4.11894434364513E-05
1	148	80.0566367978764	1.29043579101563	1.290283203125	5.26123046875E-06	6.7884770942328E-06	245243.625	4.17212868342176E-05
1	149	80.1573447976222	1.30050659179688	1.30035400390625	5.224609375E-06	6.79384129398386E-06	248890.203125	4.22492921643425E-05
1	150	80.2580527973679	1.31057739257813	1.31072998046875	5.1910400390625E-06	6.80405128150596E-06	252498.546875	4.27737613790669E-05
1	151	80.3587607971136	1.32064819335938	1.32049560546875	5.1605224609375E-06	6.81444726069458E-06	255884.09375	4.32950037065893E-05
1	152	80.4594687968594	1.33071899414063	1.33056640625	5.1361083984375E-06	6.83393318468006E-06	259061.203125	4.38134811702184E-05
1	153	80.5601767966051	1.34078979492188	1.3409423828125	5.1116943359375E-06	6.85448731019278E-06	262328.375	4.43294993601739E-05
1	154	80.6608847963508	1.35086059570313	1.3507080078125	5.09033203125E-06	6.87555211698054E-06	265347.71875	4.48432110715657E-05
1	155	80.7615927960966	1.36093139648438	1.36077880859375	5.072021484375E-06	6.9018992689962E-06	268291.21875	4.53549255325925E-05
1	156	80.8623007958423	1.37100219726563	1.370849609375	5.0567626953125E-06	6.9320608417911E-06	271092.34375	4.58649519714527E-05
1	157	80.9630087955881	1.38107299804688	1.38092041015625	5.04150390625E-06	6.96191546012415E-06	273910.40625	4.63734395452775E-05
1	158	81.0637167953338	1.39114379882813	1.39129638671875	5.0323486328125E-06	7.00148802934564E-06	276470.59375	4.68806974822655E-05
1	159	81.1644247950795	1.40121459960938	1.40106201171875	5.023193359375E-06	7.03780551702948E-06	278918.59375	4.73870350106154E-05
1	160	81.2651327948253	1.41128540039063	1.4111328125	5.01708984375E-06	7.07978006175836E-06	281265.21875	4.78926012874581E-05
1	161	81.365840794571	1.42135620117188	1.42120361328125	5.0140380859375E-06	7.12596875018789E-06	283444.9375	4.83977091789711E-05
1	162	81.4665487943167	1.43142700195313	1.4312744140625	5.010986328125E-06	7.17209604772506E-06	285627.28125	4.89025114802644E-05
1	163	81.5672567940625	1.44149780273438	1.44134521484375	5.0140380859375E-06	7.22695949662011E-06	287461.96875	4.94073101435788E-05
1	164	81.6679647938082	1.45156860351563	1.45172119140625	5.01708984375E-06	7.28341547073796E-06	289355.25	4.99124180350918E-05
1	165	81.7686727935539	1.46163940429688	1.46209716796875	5.0262451171875E-06	7.34885861675139E-06	290892.53125	5.04181407450233E-05
1	166	81.8693807932997	1.47171020507813	1.47186279296875	5.04150390625E-06	7.4204017437296E-06	291949.15625	5.09250930917915E-05
1	167	81.9700887930454	1.48178100585938	1.48223876953125	5.0628662109375E-06	7.504376299039E-06	292766.75	5.14338862558361E-05
1	168	82.0707967927912	1.49185180664063	1.49139404296875	5.096435546875E-06	7.600793196616E-06	292634.75	5.19454479217529E-05
1	169	82.1715047925369	1.50192260742188	1.50115966796875	5.1422119140625E-06	7.71928080212092E-06	291928.8125	5.24610040883999E-05
1	170	82.2722127922826	1.49185180664063	1.49169921875	4.908447265625E-06	7.32192665964249E-06	303904.53125	5.29670942341909E-05
1	171	82.3729207920284	1.48178100585938	1.48101806640625	4.7393798828125E-06	7.01910676070838E-06	312491.96875	5.34529026481323E-05
1	172	82.4736287917741	1.47171020507813	1.47216796875	4.60662841796875E-06	6.7817309172824E-06	319576.03125	5.39235115866177E-05
1	173	82.5743367915198	1.46163940429688	1.4617919921875	4.4970703125E-06	6.57378132018493E-06	325054.28125	5.43819187441841E-05
1	174	82.6750447912656	1.45156860351563	1.4520263671875	4.405517578125E-06	6.39692734694108E-06	329592.71875	5.48302014067303E-05
1	175	82.7757527910113	1.44149780273438	1.44134521484375	4.32647705078125E-06	6.23594678472728E-06	333145.25	5.52698911633343E-05
1	176	82.8764607907571	1.43142700195313	1.4312744140625	4.25811767578125E-06	6.09453491051681E-06	336128.4375	5.57021594431717E-05
1	177	82.9771687905028	1.42135620117188	1.42181396484375	4.197998046875E-06	5.96877225689241E-06	338688.59375	5.61279593966901E-05
1	178	83.0778767902485	1.41128540039063	1.41082763671875	4.14398193359375E-06	5.8464438552619E-06	340452.1875	5.65480113436934E-05
1	179	83.1785847899943	1.40121459960938	1.40106201171875	4.09454345703125E-06	5.73670922676683E-06	342177.84375	5.69628537050448E-05
1	180	83.27929278974	1.39114379882813	1.3909912109375	4.04998779296875E-06	5.63349703952554E-06	343455.65625	5.73729630559683E-05
1	181	83.3800007894857	1.38107299804688	1.38153076171875	4.00848388671875E-06	5.53784366275067E-06	344651.71875	5.77787395741325E-05
1	182	83.4807087892315	1.37100219726563	1.37115478515625	3.96942138671875E-06	5.44269096280914E-06	345429.375	5.81804597459268E-05
1	183	83.5814167889772	1.36093139648438	1.36077880859375	3.9324951171875E-06	5.3512558224611E-06	346034.46875	5.8578352764016E-05
1	184	83.6821247887229	1.35086059570313	1.35101318359375	3.89801025390625E-06	5.26626308783307E-06	346590.46875	5.8972647821065E-05
1	185	83.7828327884687	1.34078979492188	1.3409423828125	3.86474609375E-06	5.18240130986669E-06	346967.8125	5.93635340919718E-05
1	186	83.8835407882144	1.33071899414063	1.33026123046875	3.83331298828125E-06	5.09930760017596E-06	347026.53125	5.97511643718462E-05
1	187	83.9842487879602	1.32064819335938	1.32080078125	3.80279541015625E-06	5.02273496749694E-06	347323.65625	6.01356732659042E-05
1	188	84.0849567877059	1.31057739257813	1.31072998046875	3.77410888671875E-06	4.94683763463399E-06	347295.21875	6.05171990173403E-05
1	189	84.1856647874516	1.30050659179688	1.3006591796875	3.7469482421875E-06	4.87350234834594E-06	347124.9375	6.08959126111586E-05
1	190	84.2863727871974	1.29043579101563	1.2908935546875	3.72039794921875E-06	4.80263770441525E-06	346977.28125	6.12719231867231E-05
1	191	84.3870807869431	1.28036499023438	1.2799072265625	3.69476318359375E-06	4.72895408165641E-06	346411.1875	6.16453107795678E-05
1	192	84.4877887866888	1.27029418945313	1.26983642578125	3.67095947265625E-06	4.66151777800405E-06	345914.0625	6.20162027189508E-05
1	193	84.5884967864346	1.26022338867188	1.25946044921875	3.6480712890625E-06	4.59460125057376E-06	345240.09375	6.23847445240244E-05
1	194	84.6892047861803	1.25015258789063	1.25	3.62518310546875E-06	4.53147913503926E-06	344810.15625	6.27509798505343E-05
1	195	84.789912785926	1.24008178710938	1.23992919921875	3.6029052734375E-06	4.4673474803858E-06	344147.03125	6.31149450782686E-05
1	196	84.8906207856718	1.23001098632813	1.2298583984375	3.5809326171875E-06	4.40403982793214E-06	343446.40625	6.34766765870154E-05
1	197	84.9913287854175	1.21994018554688	1.219482421875	3.55926513671875E-06	4.34046114605735E-06	342621.96875	6.38362180325203E-05
1	198	85.0920367851633	1.20986938476563	1.21002197265625	3.536376953125E-06	4.27909390054992E-06	342164.3125	6.41935112071224E-05
1	199	85.192744784909	1.19979858398438	1.1993408203125	3.511962890625E-06	4.21204049416701E-06	341501.5625	6.45484251435846E-05
1	200	85.2934527846547	1.18972778320313	1.1895751953125	3.4857177734375E-06	4.1465232243354E-06	341271.21875	6.49007852189243E-05
1	201	85.3941607844005	1.17965698242188	1.17950439453125	3.4564208984375E-06	4.0768632061372E-06	341250.25	6.52503513265401E-05
1	202	85.4948687841462	1.16958618164063	1.1688232421875	3.42254638671875E-06	4.00035150960321E-06	341506.90625	6.55967305647209E-05
1	203	85.5955767838919	1.15951538085938	1.15966796875	3.38165283203125E-06	3.92159427065053E-06	342929.34375	6.59393481328152E-05
1	204	85.6962847836377	1.14944458007813	1.1492919921875	3.3319091796875E-06	3.82933649234474E-06	344934.96875	6.62774036754854E-05
1	205	85.7969927833834	1.13937377929688	1.13922119140625	3.2684326171875E-06	3.72346744370589E-06	348552.78125	6.66097621433437E-05
1	206	85.8977007831292	1.12930297851563	1.12945556640625	3.18695068359375E-06	3.59951900463784E-06	354400.09375	6.69348155497573E-05
1	207	85.9984087828749	1.11923217773438	1.11907958984375	3.0792236328125E-06	3.4458960271877E-06	363429.15625	6.72503374516964E-05
1	208	86.0991167826206	1.10916137695313	1.10931396484375	2.9364013671875E-06	3.25739074469311E-06	377780.125	6.75532501190901E-05
1	209	86.1998247823664	1.09909057617188	1.09893798828125	2.74810791015625E-06	3.02000012197823E-06	399888.96875	6.78394862916321E-05
1	210	86.3005327821121	1.08901977539063	1.0888671875	2.5006103515625E-06	2.72283250524197E-06	435440.59375	6.81037854519673E-05
1	211	86.4012407818578	1.07894897460938	1.07879638671875	2.186279296875E-06	2.35855009123043E-06	493439.40625	6.83397884131409E-05
1	212	86.5019487816036	1.06887817382813	1.0687255859375	1.80023193359375E-06	1.92395395970379E-06	593659.9375	6.85405248077586E-05
1	213	86.6026567813493	1.05880737304688	1.0589599609375	1.34796142578125E-06	1.42743715514371E-06	785601.0625	6.86990460962988E-05
1	214	86.703364781095	1.04873657226563	1.04827880859375	8.4716796875E-07	8.88068200310954E-07	1237392	6.88095824443735E-05
1	215	86.8040727808408	1.03866577148438	1.038818359375	3.31726074218749E-07	3.44603108715091E-07	3131555	6.886893970659E-05
1	216	86.9047807805865	1.02859497070313	1.02874755859375	-1.6448974609375E-07	-1.69218424161954E-07	-6254174.5	6.88773652655073E-05
1	217	87.0054887803323	1.01852416992188	1.0186767578125	-5.963134765625E-07	-6.07450658662856E-07	-1708290.75	6.88390573486686E-05
1	218	87.106196780078	1.00845336914063	1.00860595703125	-9.3231201171875E-07	-9.40335439736373E-07	-1081833.125	6.87620849930681E-05
1	219	87.2069047798237	0.998382568359375	0.9979248046875	-1.14654541015625E-06	-1.14416604901635E-06	-870375.3125	6.86574057908729E-05
1	220	87.3076127795695	0.988311767578125	0.98846435546875	-1.2408447265625E-06	-1.22653068501677E-06	-796606.0625	6.85371924191713E-05
1	221	87.4083207793152	0.978240966796875	0.9783935546875	-1.22955322265625E-06	-1.20298693673249E-06	-795731	6.84127953718416E-05
1	222	87.5090287790609	0.968170166015625	0.9686279296875	-1.14288330078125E-06	-1.10702865185885E-06	-847530	6.82933314237744E-05
1	223	87.6097367788067	0.958099365234375	0.95855712890625	-1.00799560546875E-06	-9.66221364251396E-07	-950953.6875	6.81850287946872E-05
1	224	87.7104447785524	0.948028564453125	0.9478759765625	-8.50830078125001E-07	-8.06481409654225E-07	-1114060.25	6.80914308759384E-05
1	225	87.8111527782982	0.937957763671875	0.93780517578125	-6.88781738281249E-07	-6.45943032395735E-07	-1361541.875	6.80139055475593E-05
1	226	87.9118607780439	0.927886962890625	0.92803955078125	-5.316162109375E-07	-4.93360857944936E-07	-1745694.625	6.79524528095499E-05
1	227	88.0125687777896	0.917816162109375	0.91796875	-3.8330078125E-07	-3.51858119529425E-07	-2394904.5	6.79063814459369E-05
1	228	88.1132767775354	0.907745361328125	0.908203125	-2.46582031250001E-07	-2.23946571509259E-07	-3683168.25	6.78746655466966E-05
1	229	88.2139847772811	0.897674560546875	0.89752197265625	-1.24511718750001E-07	-1.11752001430432E-07	-7208333.5	6.78559808875434E-05
1	230	88.3146927770268	0.887603759765625	0.8880615234375	-1.86157226562497E-08	-1.65319065104086E-08	-47704920	6.78487704135478E-05
1	231	88.4154007767726	0.877532958984375	0.877685546875	7.20214843749997E-08	6.32122194588192E-08	12186440	6.7851462517865E-05
1	232	88.5161087765183	0.867462158203125	0.8673095703125	1.4923095703125E-07	1.29429437834006E-07	5811861	6.78626020089723E-05
1	233	88.616816776264	0.857391357421875	0.85784912109375	2.14538574218751E-07	1.84041724082817E-07	3998577.5	6.78809155942872E-05
1	234	88.7175247760098	0.847320556640625	0.84716796875	2.69775390625E-07	2.28545047775697E-07	3140271.75	6.790530460421E-05
1	235	88.8182327757555	0.837249755859375	0.83770751953125	3.1463623046875E-07	2.63573127767813E-07	2662463.75	6.79347358527593E-05
1	236	88.9189407755013	0.827178955078125	0.82763671875	3.4820556640625E-07	2.88187720798305E-07	2376862.5	6.79681106703356E-05
1	237	89.019648775247	0.817108154296875	0.8172607421875	3.662109375E-07	2.99289837357719E-07	2231666.75	6.80040830047801E-05
1	238	89.1203567749927	0.807037353515625	0.80780029296875	3.662109375E-07	2.95825316243281E-07	2205833.25	6.80409648339264E-05
1	239	89.2210647747385	0.796966552734375	0.797119140625	3.40576171875E-07	2.71479763114257E-07	2340502	6.80765515426174E-05
1	240	89.3217727744842	0.786895751953125	0.78704833984375	2.8228759765625E-07	2.22173994757213E-07	2788108	6.81079181958921E-05
1	241	89.4224807742299	0.776824951171875	0.7769775390625	1.80664062499999E-07	1.40371909651549E-07	4300675.5	6.8131230364088E-05
1	242	89.5231887739757	0.766754150390625	0.76690673828125	2.25830078125003E-08	1.73190599639383E-08	33959460	6.81414603604935E-05
1	243	89.6238967737214	0.756683349609375	0.7568359375	-2.05078124999999E-07	-1.55210500452085E-07	-3690476.25	6.81322708260268E-05
1	244	89.7246047734671	0.746612548828125	0.74652099609375	-5.1239013671875E-07	-3.82509966811995E-07	-1456938.75	6.80961456964724E-05
1	245	89.8253127732129	0.736541748046875	0.7364501953125	-9.02099609375E-07	-6.64351432533294E-07	-816373.5	6.80249213473871E-05
1	246	89.9260207729586	0.726470947265625	0.72637939453125	-1.3653564453125E-06	-9.91766796687443E-07	-532007.1875	6.79107470205054E-05
1	247	90.0267287727044	0.716400146484375	0.716278076171875	-1.88262939453125E-06	-1.34848619381955E-06	-380466.84375	6.77471980452538E-05
1	248	90.1274367724501	0.706329345703125	0.706298828125	-2.41790771484375E-06	-1.70776525010297E-06	-292111.59375	6.75306437187828E-05
1	249	90.2281447721958	0.696258544921875	0.6961669921875	-2.92816162109375E-06	-2.03848935598216E-06	-237748.828125	6.72614478389733E-05
1	250	90.3288527719416	0.686187744140625	0.68609619140625	-3.36151123046875E-06	-2.30631985687069E-06	-204103.5	6.69447399559431E-05
1	251	90.4295607716873	0.676116943359375	0.67608642578125	-3.68011474609375E-06	-2.48807555180974E-06	-183713.421875	6.65901679894887E-05
1	252	90.530268771433	0.666046142578125	0.666015625	-3.86199951171875E-06	-2.57215219789941E-06	-172453.578125	6.62103921058588E-05
1	253	90.6309767711788	0.655975341796875	0.65594482421875	-3.9056396484375E-06	-2.5618840027164E-06	-167948.125	6.58192584523931E-05
1	254	90.7316847709245	0.645904541015625	0.645843505859375	-3.83453369140625E-06	-2.47650882556627E-06	-168428.171875	6.54295072308742E-05
1	255	90.8323927706703	0.635833740234375	0.63580322265625	-3.6834716796875E-06	-2.34196295423317E-06	-172609.78125	6.50509464321658E-05
1	256	90.933100770416	0.625762939453125	0.625701904296875	-3.48968505859375E-06	-2.18350260183797E-06	-179300.390625	6.46897533442825E-05
1	257	91.0338087701617	0.615692138671875	0.61566162109375	-3.27972412109375E-06	-2.01920033759961E-06	-187717.5	6.43488820060156E-05
1	258	91.1345167699075	0.605621337890625	0.605621337890625	-3.07098388671875E-06	-1.85985334155703E-06	-197207.59375	6.40291036688723E-05
1	259	91.2352247696532	0.595550537109375	0.5955810546875	-2.87353515625E-06	-1.71142301041982E-06	-207264.234375	6.37297707726248E-05
1	260	91.3359327693989	0.585479736328125	0.58538818359375	-2.6922607421875E-06	-1.57601766659354E-06	-217433.6875	6.3449508161284E-05
1	261	91.4366407691447	0.575408935546875	0.57537841796875	-2.52716064453125E-06	-1.45407364016137E-06	-227677.8125	6.31866932963021E-05
1	262	91.5373487688904	0.565338134765625	0.565338134765625	-2.3785400390625E-06	-1.34467927637161E-06	-237682.84375	6.2939667259343E-05
1	263	91.6380567686361	0.555267333984375	0.55517578125	-2.244873046875E-06	-1.24629912079399E-06	-247308.328125	6.27068657195196E-05
1	264	91.7387647683819	0.545196533203125	0.545166015625	-2.12493896484375E-06	-1.15844443371316E-06	-256556.09375	6.24868262093514E-05
1	265	91.8394727681276	0.535125732421875	0.53509521484375	-2.01629638671875E-06	-1.07891048628517E-06	-265385.21875	6.22782972641289E-05
1	266	91.9401807678734	0.525054931640625	0.525054931640625	-1.9189453125E-06	-1.00755175935774E-06	-273616.40625	6.20801438344643E-05
1	267	92.0408887676191	0.514984130859375	0.514984130859375	-1.83013916015625E-06	-9.42492590638722E-07	-281390.6875	6.18913618382066E-05
1	268	92.1415967673648	0.504913330078125	0.50482177734375	-1.749267578125E-06	-8.83068366874795E-07	-288590.375	6.17111218161881E-05
1	269	92.2423047671106	0.494842529296875	0.494842529296875	-1.67510986328125E-06	-8.28915574402345E-07	-295409	6.15386961726472E-05
1	270	92.3430127668563	0.484771728515625	0.484771728515625	-1.6064453125E-06	-7.78759272179741E-07	-301766.71875	6.13734518992715E-05
1	271	92.443720766602	0.474700927734375	0.474639892578125	-1.544189453125E-06	-7.32933926883561E-07	-307371.53125	6.12148069194518E-05
1	272	92.5444287663478	0.464630126953125	0.464630126953125	-1.4862060546875E-06	-6.90536069214431E-07	-312628.34375	6.10622155363671E-05
1	273	92.6451367660935	0.454559326171875	0.454559326171875	-1.43218994140625E-06	-6.51015284347523E-07	-317387.59375	6.09152593824547E-05
1	274	92.7458447658393	0.444488525390625	0.444427490234375	-1.38214111328125E-06	-6.14261466580501E-07	-321550.03125	6.0773549193982E-05
1	275	92.846552765585	0.434417724609375	0.4344482421875	-1.336669921875E-06	-5.80713901854324E-07	-325022.84375	6.06366447755136E-05
1	276	92.9472607653307	0.424346923828125	0.424407958984375	-1.29241943359375E-06	-5.48513071407797E-07	-328382.53125	6.05042587267235E-05
1	277	93.0479687650765	0.414276123046875	0.414276123046875	-1.251220703125E-06	-5.18350816491875E-07	-331097.59375	6.03761764068622E-05
1	278	93.1486767648222	0.404205322265625	0.404266357421875	-1.2127685546875E-06	-4.90281536258408E-07	-333341.71875	6.02521067776252E-05
1	279	93.2493847645679	0.394134521484375	0.3941650390625	-1.175537109375E-06	-4.63355632973617E-07	-335306.3125	6.01318461121991E-05
1	280	93.3500927643137	0.384063720703125	0.384033203125	-1.14105224609375E-06	-4.38201908536939E-07	-336560.59375	6.00151943217497E-05
1	281	93.4508007640594	0.373992919921875	0.373992919921875	-1.1077880859375E-06	-4.14304906826146E-07	-337603.3125	5.99019585934002E-05
1	282	93.5515087638051	0.363922119140625	0.3638916015625	-1.0760498046875E-06	-3.91565492918744E-07	-338173.5625	5.97919934079982E-05
1	283	93.6522167635509	0.353851318359375	0.3538818359375	-1.04583740234375E-06	-3.70102867464084E-07	-338371.75	5.9685145970434E-05
1	284	93.7529247632966	0.343780517578125	0.343780517578125	-1.0174560546875E-06	-3.4978157259502E-07	-337882.4375	5.9581252571661E-05
1	285	93.8536327630424	0.333709716796875	0.333709716796875	-9.9029541015625E-07	-3.30471181086978E-07	-336980	5.94801531406119E-05
1	286	93.9543407627881	0.323638916015625	0.32354736328125	-9.6405029296875E-07	-3.11915925976791E-07	-335612.53125	5.93817458138801E-05
1	287	94.0550487625338	0.313568115234375	0.313568115234375	-9.3963623046875E-07	-2.94639960429777E-07	-333712.25	5.92858850723132E-05
1	288	94.1557567622796	0.303497314453125	0.303466796875	-9.16748046875E-07	-2.78202577419506E-07	-331025.3125	5.91924108448438E-05
1	289	94.2564647620253	0.293426513671875	0.29339599609375	-8.941650390625E-07	-2.62344428847427E-07	-328122.875	5.91012249060441E-05
1	290	94.357172761771	0.283355712890625	0.28326416015625	-8.73413085937499E-07	-2.47406603648415E-07	-324318.65625	5.90122181165498E-05
1	291	94.4578807615168	0.273284912109375	0.2733154296875	-8.53271484375E-07	-2.33212247735537E-07	-320314.75	5.89252740610391E-05
1	292	94.5585887612625	0.263214111328125	0.26318359375	-8.343505859375E-07	-2.19587377614516E-07	-315435.28125	5.88402945140842E-05
1	293	94.6592967610082	0.253143310546875	0.25311279296875	-8.17260742187501E-07	-2.06859155582606E-07	-309708.75	5.87571303185541E-05
1	294	94.760004760754	0.243072509765625	0.243072509765625	-8.0078125E-07	-1.94647896023525E-07	-303544.21875	5.86756541451905E-05
1	295	94.8607127604997	0.233001708984375	0.233001708984375	-7.855224609375E-07	-1.83028078026837E-07	-296620.0625	5.8595778682502E-05
1	296	94.9614207602455	0.222930908203125	0.222900390625	-7.71179199218749E-07	-1.7189614709423E-07	-289038.375	5.85173911531456E-05
1	297	95.0621287599912	0.212860107421875	0.212921142578125	-7.586669921875E-07	-1.61536249265737E-07	-280651.65625	5.84403569519054E-05
1	298	95.1628367597369	0.202789306640625	0.202789306640625	-7.476806640625E-07	-1.51621634358889E-07	-271224.5	5.83645087317564E-05
1	299	95.2635447594827	0.192718505859375	0.19281005859375	-7.3883056640625E-07	-1.42453956186728E-07	-260966.5625	5.82896536798216E-05
1	300	95.3642527592284	0.182647705078125	0.182647705078125	-7.3272705078125E-07	-1.33830909021526E-07	-249271.15625	5.82155553274788E-05
1	301	95.4649607589741	0.172576904296875	0.172576904296875	-7.29980468749999E-07	-1.2597776333223E-07	-236413.046875	5.81419044465292E-05
1	302	95.5656687587199	0.162506103515625	0.162506103515625	-7.31811523437501E-07	-1.18923836112117E-07	-222060.0625	5.80682972213253E-05
1	303	95.6663767584656	0.152435302734375	0.1524658203125	-7.3883056640625E-07	-1.12646404204497E-07	-206361.015625	5.79942425247282E-05
1	304	95.7670847582114	0.142364501953125	0.14239501953125	-7.54699707031251E-07	-1.07465474741275E-07	-188677.734375	5.7919038226828E-05
1	305	95.8677927579571	0.132293701171875	0.13232421875	-7.80334472656249E-07	-1.03257150385616E-07	-169573.71875	5.78417420911137E-05
1	306	95.9685007577028	0.122222900390625	0.122283935546875	-8.197021484375E-07	-1.00236398736797E-07	-149180.953125	5.77611754124518E-05
1	307	96.0692087574486	0.112152099609375	0.1121826171875	-8.7860107421875E-07	-9.85637669259631E-08	-127683.2265625	5.76756574446335E-05
1	308	96.1699167571943	0.102081298828125	0.10211181640625	-9.6099853515625E-07	-9.81292984647553E-08	-106255.9609375	5.75830272282474E-05
1	309	96.27062475694	0.092010498046875	0.092071533203125	-1.072998046875E-06	-9.87925687923052E-08	-85807.7421875	5.74806072108913E-05
1	310	96.3713327566858	0.081939697265625	0.08197021484375	-1.21978759765625E-06	-9.99862521666728E-08	-67200.3984375	5.73651559534483E-05
1	311	96.4720407564315	0.071868896484375	0.071929931640625	-1.4013671875E-06	-1.00800242819332E-07	-51328.3984375	5.7233170082327E-05
1	312	96.5727487561772	0.061798095703125	0.0618896484375	-1.60980224609375E-06	-9.9630092620373E-08	-38445.5	5.7081546401605E-05
1	313	96.673456755923	0.051727294921875	0.05181884765625	-1.832275390625E-06	-9.49463938582085E-08	-28281.146484375	5.69082258152775E-05
1	314	96.7741647556687	0.041656494140625	0.0417236328125	-2.04498291015625E-06	-8.53241104437075E-08	-20402.923828125	5.67129900446162E-05
1	315	96.8748727554145	0.031585693359375	0.031671142578125	-2.22503662109375E-06	-7.04694542719153E-08	-14233.98828125	5.64979745831806E-05
1	316	96.9755807551602	0.021514892578125	0.0216339111328125	-2.35382080078125E-06	-5.09223490041677E-08	-9190.9765625	5.62674140383024E-05
1	317	97.0762887549059	0.011444091796875	0.011578369140625	-2.423095703125E-06	-2.80554939280364E-08	-4778.337890625	5.60268745175563E-05
1	318	97.1769967546517	0.001373291015625	0.0014923095703125	-2.4371337890625E-06	-3.63695784599827E-09	-612.321655273438	5.57821440452244E-05
1	319	97.2777047543974	-0.008697509765625	-0.0085906982421875	-2.40692138671875E-06	2.06771346711321E-08	3569.16455078125	5.55382248421665E-05
1	320	97.3784127541431	-0.018768310546875	-0.0186187744140625	-2.347412109375E-06	4.37059313185273E-08	7931.61767578125	5.52988276467659E-05
1	321	97.4791207538889	-0.028839111328125	-0.0287261962890625	-2.27294921875E-06	6.52931788636124E-08	12638.2919921875	5.50661716260947E-05
1	322	97.5798287536346	-0.038909912109375	-0.0387451171875	-2.1929931640625E-06	8.49677732617238E-08	17667.6875	5.48412936041132E-05
1	323	97.6805367533804	-0.048980712890625	-0.04884033203125	-2.11395263671875E-06	1.03246151184067E-07	23103.796875	5.4624422773486E-05
1	324	97.7812447531261	-0.059051513671875	-0.05902099609375	-2.04010009765625E-06	1.20408742532163E-07	28930.44140625	5.44152499060147E-05
1	325	97.8819527528718	-0.069122314453125	-0.069061279296875	-1.971435546875E-06	1.36149850504808E-07	35030.9609375	5.42132511327509E-05
1	326	97.9826607526176	-0.079193115234375	-0.079132080078125	-1.91009521484375E-06	1.51149791349781E-07	41428.34765625	5.40178007213399E-05
1	327	98.0833687523633	-0.089263916015625	-0.08917236328125	-1.85577392578125E-06	1.65483740488526E-07	48051.30859375	5.3828174713999E-05
1	328	98.184076752109	-0.099334716796875	-0.099273681640625	-1.8072509765625E-06	1.79412452894212E-07	54930.76953125	5.36437291884795E-05
1	329	98.2847847518548	-0.109405517578125	-0.10931396484375	-1.7645263671875E-06	1.92887370076278E-07	61950.8828125	5.34638747922145E-05
1	330	98.3854927516005	-0.119476318359375	-0.119415283203125	-1.72760009765625E-06	2.0630184849324E-07	69122.0625	5.32880330865737E-05
1	331	98.4862007513462	-0.129547119140625	-0.12945556640625	-1.695556640625E-06	2.19499241893573E-07	76349.890625	5.31156620127149E-05
1	332	98.586908751092	-0.139617919921875	-0.139495849609375	-1.66656494140625E-06	2.32478882367104E-07	83702.6171875	5.29463650309481E-05
1	333	98.6876167508377	-0.149688720703125	-0.1495361328125	-1.6424560546875E-06	2.4560651468164E-07	91044.2265625	5.27797419636045E-05
1	334	98.7883247505835	-0.159759521484375	-0.159637451171875	-1.6204833984375E-06	2.58689823340319E-07	98512.2421875	5.26154399267398E-05
1	335	98.8890327503292	-0.169830322265625	-0.169677734375	-1.6015625E-06	2.71749485136752E-07	105945.125	5.24531969858799E-05
1	336	98.9897407500749	-0.179901123046875	-0.17974853515625	-1.5863037109375E-06	2.85135769217959E-07	113312.8125	5.22926784469746E-05
1	337	99.0904487498207	-0.189971923828125	-0.1898193359375	-1.5728759765625E-06	2.9856227001801E-07	120682.96875	5.21336005476769E-05
1	338	99.1911567495664	-0.200042724609375	-0.199859619140625	-1.56158447265625E-06	3.12097682808599E-07	127985.1484375	5.19757668371312E-05
1	339	99.2918647493121	-0.189971923828125	-0.189849853515625	-1.40869140625E-06	2.67439844492401E-07	134770.375	5.18262022524141E-05
2	340	99.3925727490579	-0.179901123046875	-0.17974853515625	-1.30096435546875E-06	2.33846421338058E-07	138165.609375	5.16897598572541E-05
2	341	99.4932807488036	-0.169830322265625	-0.169677734375	-1.21368408203125E-06	2.05935165809024E-07	139803.875	5.15631363668945E-05
2	342	99.5939887485494	-0.159759521484375	-0.159637451171875	-1.13922119140625E-06	1.81862361614549E-07	140128.59375	5.14446583110839E-05
2	343	99.6946967482951	-0.149688720703125	-0.149566650390625	-1.07421875E-06	1.60667298132466E-07	139232.953125	5.1333201554371E-05
2	344	99.7954047480408	-0.139617919921875	-0.139495849609375	-1.01531982421875E-06	1.41632895633848E-07	137391.046875	5.12279875692911E-05
2	345	99.8961127477866	-0.129547119140625	-0.1295166015625	-9.6221923828125E-07	1.24623369401888E-07	134601.96875	5.11284088133834E-05
2	346	99.9968207475323	-0.119476318359375	-0.119354248046875	-9.124755859375E-07	1.08907833862304E-07	130802.6796875	5.1034010539297E-05
2	347	100.097528747278	-0.109405517578125	-0.109283447265625	-8.66088867187501E-07	9.464917383184E-08	126180.4140625	5.09444544150028E-05
2	348	100.198236747024	-0.099334716796875	-0.099212646484375	-8.21533203124999E-07	8.15064851167335E-08	120765.2265625	5.0859474868048E-05
2	349	100.29894474677	-0.089263916015625	-0.08917236328125	-7.781982421875E-07	6.93937778351028E-08	114588.234375	5.07789227413014E-05
2	350	100.399652746515	-0.079193115234375	-0.0791015625	-7.34863281250001E-07	5.81288297496485E-08	107641.203125	5.07027325511444E-05
2	351	100.500360746261	-0.069122314453125	-0.06903076171875	-6.88781738281249E-07	4.75471253480464E-08	100221.5390625	5.06310461787507E-05
2	352	100.601068746007	-0.059051513671875	-0.058990478515625	-6.40258789062501E-07	3.77691691255677E-08	92135.375	5.05641255585942E-05
2	353	100.701776745752	-0.048980712890625	-0.0488494873046875	-5.8441162109375E-07	2.85482073536514E-08	83587.4609375	5.05024581798352E-05
2	354	100.802484745498	-0.038909912109375	-0.0387908935546875	-5.1910400390625E-07	2.0136507572488E-08	74726.6328125	5.04468916915357E-05
2	355	100.903192745244	-0.028839111328125	-0.028741455078125	-4.3914794921875E-07	1.26217498674919E-08	65448.23046875	5.03986375406384E-05
2	356	101.00390074499	-0.018768310546875	-0.0186370849609375	-3.387451171875E-07	6.31322150113078E-09	55018.01953125	5.03594674228225E-05
2	357	101.104608744735	-0.008697509765625	-0.00858154296874999	-2.11181640624999E-07	1.81226433859649E-09	40635.84375	5.03317787661217E-05
2	358	101.205316744481	0.001373291015625	0.00145874023437501	-5.09643554687494E-08	-7.43437533756719E-11	-28622.755859375	5.03185765410308E-05
2	359	101.306024744227	0.011444091796875	0.011529541015625	1.45874023437501E-07	1.68186053972619E-09	79037.65625	5.03233568451833E-05
2	360	101.406732743973	0.021514892578125	0.0215850830078125	3.76281738281251E-07	8.12207190392655E-09	57364.15625	5.03496485180221E-05
2	361	101.507440743718	0.031585693359375	0.031707763671875	6.3018798828125E-07	1.99818508406224E-08	50314.7734375	5.04003292007837E-05
2	362	101.608148743464	0.041656494140625	0.041741943359375	8.9019775390625E-07	3.71585855418743E-08	46890.64453125	5.04768868268002E-05
2	363	101.70885674321	0.051727294921875	0.0517578125	1.13128662109375E-06	5.85529171814869E-08	45751.28125	5.05786774738226E-05
2	364	101.809564742956	0.061798095703125	0.061859130859375	1.33087158203125E-06	8.2326558015211E-08	46480.16796875	5.07026561535895E-05
2	365	101.910272742701	0.071868896484375	0.071868896484375	1.47125244140625E-06	1.05737285593932E-07	48848.7890625	5.08437551616225E-05
2	366	102.010980742447	0.081939697265625	0.082000732421875	1.55029296875E-06	1.2712516195279E-07	52893.703125	5.09959027112927E-05
2	367	102.111688742193	0.092010498046875	0.092010498046875	1.57379150390625E-06	1.44805341051324E-07	58464.2265625	5.11532125528902E-05
2	368	102.212396741939	0.102081298828125	0.10211181640625	1.55609130859375E-06	1.58895318236318E-07	65620.7109375	5.13108134327922E-05
2	369	102.313104741684	0.112152099609375	0.112152099609375	1.51214599609375E-06	1.69590350651561E-07	74167.5078125	5.14653111167718E-05
2	370	102.41381274143	0.122222900390625	0.122314453125	1.455078125E-06	1.77977071302848E-07	84060.40625	5.1614722906379E-05
2	371	102.514520741176	0.132293701171875	0.132293701171875	1.39190673828125E-06	1.84140489523088E-07	95044.9453125	5.17580810992513E-05
2	372	102.615228740921	0.142364501953125	0.1424560546875	1.33026123046875E-06	1.89503751357734E-07	107088.7890625	5.18951528647449E-05
2	373	102.715936740667	0.152435302734375	0.1524658203125	1.27197265625E-06	1.93932351066906E-07	119865.640625	5.20261855854187E-05
2	374	102.816644740413	0.162506103515625	0.162567138671875	1.21917724609375E-06	1.9819815122446E-07	133341.6875	5.21516230946872E-05
2	375	102.917352740159	0.172576904296875	0.172698974609375	1.17218017578125E-06	2.02434321749934E-07	147331.421875	5.2272040193202E-05
2	376	103.018060739904	0.182647705078125	0.1827392578125	1.13006591796875E-06	2.06507408506695E-07	161706.71875	5.23879680258688E-05
2	377	103.11876873965	0.192718505859375	0.192718505859375	1.09375E-06	2.10785870535801E-07	176199.765625	5.2499945013551E-05
2	378	103.219476739396	0.202789306640625	0.2027587890625	1.06170654296875E-06	2.15270318904004E-07	190974.421875	5.26084804732818E-05
2	379	103.320184739142	0.212860107421875	0.212890625	1.0333251953125E-06	2.19985238913978E-07	206024.8125	5.27139745827299E-05
2	380	103.420892738887	0.222930908203125	0.222930908203125	1.00830078125E-06	2.24781402380358E-07	221095.65625	5.28167765878607E-05
2	381	103.521600738633	0.233001708984375	0.2330322265625	9.86633300781251E-07	2.2991734738298E-07	236189.3125	5.29172320966609E-05
2	382	103.622308738379	0.243072509765625	0.2430419921875	9.68322753906251E-07	2.35343094345808E-07	250992.75	5.3015672165202E-05
2	383	103.723016738125	0.253143310546875	0.253204345703125	9.51232910156249E-07	2.40856309119408E-07	266185.4375	5.31123259861488E-05
2	384	103.82372473787	0.263214111328125	0.26318359375	9.3658447265625E-07	2.46493669919801E-07	281003.59375	5.32073863723781E-05
2	385	103.924432737616	0.273284912109375	0.273284912109375	9.2315673828125E-07	2.52284820589921E-07	296033.0625	5.33010315848514E-05
2	386	104.025140737362	0.283355712890625	0.283355712890625	9.1217041015625E-07	2.58468674019241E-07	310639.03125	5.3393447160488E-05
2	387	104.125848737108	0.293426513671875	0.293365478515625	9.0179443359375E-07	2.64555353624019E-07	325313.03125	5.34847895323765E-05
2	388	104.226556736853	0.303497314453125	0.303466796875	8.9263916015625E-07	2.7088634624306E-07	339965.8125	5.35751460120082E-05
2	389	104.327264736599	0.313568115234375	0.31353759765625	8.85009765625E-07	2.77483820809721E-07	354275.875	5.36646584805567E-05
2	390	104.427972736345	0.323638916015625	0.323638916015625	8.78295898437501E-07	2.84250717186296E-07	368485.09375	5.37534469913226E-05
2	391	104.52868073609	0.333709716796875	0.333740234375	8.72192382812501E-07	2.91085683556958E-07	382645.21875	5.38415915798396E-05
2	392	104.629388735836	0.343780517578125	0.34375	8.6700439453125E-07	2.98032745149612E-07	396480.125	5.39291650056839E-05
2	393	104.730096735582	0.353851318359375	0.35382080078125	8.6334228515625E-07	3.05468461192504E-07	409826.78125	5.40162945981137E-05
2	394	104.830804735328	0.363922119140625	0.3638916015625	8.59680175781249E-07	3.12830394477714E-07	423287.1875	5.41030567546841E-05
2	395	104.931512735073	0.373992919921875	0.3740234375	8.5723876953125E-07	3.20627407290885E-07	436311.84375	5.41895096830558E-05
2	396	105.032220734819	0.384063720703125	0.384002685546875	8.55407714843751E-07	3.28478847677616E-07	448911.90625	5.42757479706779E-05
2	397	105.132928734565	0.394134521484375	0.3941650390625	8.5479736328125E-07	3.36931236688542E-07	461121.03125	5.43618662049994E-05
2	398	105.233636734311	0.404205322265625	0.4041748046875	8.5479736328125E-07	3.45487563890856E-07	472831.125	5.44479516975116E-05
2	399	105.334344734056	0.414276123046875	0.414276123046875	8.55712890625E-07	3.5450142377158E-07	484129.8125	5.45340808457695E-05
2	400	105.435052733802	0.424346923828125	0.424285888671875	8.56933593750001E-07	3.63584831575281E-07	495121.09375	5.46203191333916E-05
2	401	105.535760733548	0.434417724609375	0.4344482421875	8.587646484375E-07	3.73088766991714E-07	505899.09375	5.47067138541024E-05
2	402	105.636468733294	0.444488525390625	0.44451904296875	8.6090087890625E-07	3.8268683510978E-07	516341.75	5.47933050256688E-05
2	403	105.737176733039	0.454559326171875	0.45452880859375	8.6334228515625E-07	3.9241393778866E-07	526475.8125	5.48801253899001E-05
2	404	105.837884732785	0.464630126953125	0.464630126953125	8.66088867187501E-07	4.02410961442001E-07	536469.375	5.49672113265842E-05
2	405	105.938592732531	0.474700927734375	0.474639892578125	8.6822509765625E-07	4.12094266266649E-07	546678.375	5.50545410078485E-05
2	406	106.039300732277	0.484771728515625	0.484710693359375	8.7188720703125E-07	4.22613055661714E-07	555932.8125	5.51421617274173E-05
2	407	106.140008732022	0.494842529296875	0.49481201171875	8.7615966796875E-07	4.33534296462312E-07	564751	5.52301826246548E-05
2	408	106.240716731768	0.504913330078125	0.5048828125	8.81042480468749E-07	4.44823200496103E-07	573051.625	5.53186655452009E-05
2	409	106.341424731514	0.514984130859375	0.51495361328125	8.868408203125E-07	4.56681874538845E-07	580660.75	5.54076832486317E-05
2	410	106.442132731259	0.525054931640625	0.524993896484375	8.9385986328125E-07	4.69270958092238E-07	587333.5625	5.54973521502689E-05
2	411	106.542840731005	0.535125732421875	0.53515625	9.02404785156249E-07	4.82927532630129E-07	593033.5	5.55877995793708E-05
2	412	106.643548730751	0.545196533203125	0.545135498046875	9.130859375E-07	4.97755536343902E-07	597025.4375	5.56792183488142E-05
2	413	106.744256730497	0.555267333984375	0.555206298828125	9.259033203125E-07	5.140673238202E-07	599637.4375	5.57718158233911E-05
2	414	106.844964730242	0.565338134765625	0.565277099609375	9.42382812500001E-07	5.32707417733036E-07	599838.125	5.58658939553425E-05
2	415	106.945672729988	0.575408935546875	0.575408935546875	9.6405029296875E-07	5.54723158074921E-07	596866.125	5.59618893021252E-05
2	416	107.046380729734	0.585479736328125	0.58544921875	9.9365234375E-07	5.81732933824242E-07	589189.25	5.6060467613861E-05
2	417	107.14708872948	0.595550537109375	0.595550537109375	1.03485107421875E-06	6.16306067513506E-07	575494	5.61626111448277E-05
2	418	107.247796729225	0.605621337890625	0.605560302734375	1.09283447265625E-06	6.61777107779926E-07	554119	5.62697496206965E-05
2	419	107.348504728971	0.615692138671875	0.615631103515625	1.175537109375E-06	7.23697212379193E-07	523701.96875	5.63839712413028E-05
2	420	107.449212728717	0.625762939453125	0.625701904296875	1.2921142578125E-06	8.08478318958805E-07	484246.59375	5.6508226407459E-05
2	421	107.549920728463	0.635833740234375	0.6358642578125	1.45538330078125E-06	9.25426206777047E-07	436905	5.66465751035139E-05
2	422	107.650628728208	0.645904541015625	0.645843505859375	1.6766357421875E-06	1.08284427824401E-06	385202.03125	5.68042814848013E-05
2	423	107.751336727954	0.655975341796875	0.655914306640625	1.96807861328125E-06	1.29089085021405E-06	333276.5	5.69878102396615E-05
2	424	107.8520447277	0.666046142578125	0.665924072265625	2.33917236328125E-06	1.55771124354942E-06	284683.625	5.72046956222039E-05
2	425	107.952752727445	0.676116943359375	0.676055908203125	2.78594970703125E-06	1.88345768492582E-06	242666.234375	5.74627665628213E-05
2	426	108.053460727191	0.686187744140625	0.686004638671875	3.29742431640625E-06	2.26204838327249E-06	208042.578125	5.77690880163573E-05
2	427	108.154168726937	0.696258544921875	0.6961669921875	3.84368896484375E-06	2.67584914581676E-06	181119.5	5.81286731176078E-05
2	428	108.254876726683	0.706329345703125	0.70623779296875	4.38812255859375E-06	3.09905772155616E-06	160943.046875	5.85431771469302E-05
2	429	108.355584726428	0.716400146484375	0.71630859375	4.8828125E-06	3.49760057360982E-06	146700	5.90100062254351E-05
2	430	108.456292726174	0.726470947265625	0.72625732421875	5.2825927734375E-06	3.83652150048874E-06	137481.234375	5.95218734815717E-05
2	431	108.55700072592	0.736541748046875	0.73638916015625	5.55419921875E-06	4.09005178880761E-06	132582.421875	6.00675521127414E-05
2	432	108.657708725666	0.746612548828125	0.7464599609375	5.6884765625E-06	4.24621975980699E-06	131223.171875	6.06336652708706E-05
2	433	108.758416725411	0.756683349609375	0.75653076171875	5.6884765625E-06	4.30350746682961E-06	132993.5625	6.12065414316021E-05
2	434	108.859124725157	0.766754150390625	0.76751708984375	5.5938720703125E-06	4.2933920667565E-06	137206.78125	6.17746482021175E-05
2	435	108.959832724903	0.776824951171875	0.77667236328125	5.438232421875E-06	4.22372477260069E-06	142817.0625	6.23301602900028E-05
2	436	109.060540724649	0.786895751953125	0.7867431640625	5.2490234375E-06	4.12963299822877E-06	149883.734375	6.28683046670631E-05
2	437	109.161248724394	0.796966552734375	0.79742431640625	5.0567626953125E-06	4.0323852772417E-06	157694.640625	6.33872477919795E-05
2	438	109.26195672414	0.807037353515625	0.80718994140625	4.8663330078125E-06	3.92805486626457E-06	165872.328125	6.38869096292183E-05
2	439	109.362664723886	0.817108154296875	0.81695556640625	4.6942138671875E-06	3.83496399081196E-06	174034.59375	6.43683233647607E-05
2	440	109.463372723632	0.827178955078125	0.8270263671875	4.53948974609375E-06	3.75427748622315E-06	182184.890625	6.48332788841799E-05
2	441	109.564080723377	0.837249755859375	0.83770751953125	4.4024658203125E-06	3.68797850569536E-06	190281.453125	6.5283544245176E-05
2	442	109.664788723123	0.847320556640625	0.84716796875	4.28314208984375E-06	3.62854075319774E-06	197791.234375	6.5720894781407E-05
2	443	109.765496722869	0.857391357421875	0.85784912109375	4.1790771484375E-06	3.5850177937391E-06	205272.375	6.6147003963124E-05
2	444	109.866204722614	0.867462158203125	0.867919921875	4.090576171875E-06	3.55029260390438E-06	212175.46875	6.65634142933413E-05
2	445	109.96691272236	0.877532958984375	0.8770751953125	4.0130615234375E-06	3.51975654666603E-06	218555.140625	6.697146454826E-05
2	446	110.067620722106	0.887603759765625	0.887451171875	3.94775390625E-06	3.5034386201005E-06	224799.03125	6.73723188810982E-05
2	447	110.168328721852	0.897674560546875	0.8978271484375	3.89251708984375E-06	3.494807288007E-06	230654.65625	6.77671123412438E-05
2	448	110.269036721597	0.907745361328125	0.90789794921875	3.8482666015625E-06	3.49383344655507E-06	235923.859375	6.81568926665932E-05
2	449	110.369744721343	0.917816162109375	0.91796875	3.8165283203125E-06	3.5034533993894E-06	240524.5625	6.85428458382376E-05
2	450	110.470452721089	0.927886962890625	0.92803955078125	3.80096435546875E-06	3.52744518750114E-06	244158.96875	6.89264124957845E-05
2	451	110.571160720835	0.937957763671875	0.93841552734375	3.80584716796875E-06	3.57146586793533E-06	246572.0625	6.93094480084255E-05
2	452	110.67186872058	0.948028564453125	0.94818115234375	3.8385009765625E-06	3.63959429705574E-06	247018.59375	6.96943752700463E-05
2	453	110.772576720326	0.958099365234375	0.958251953125	3.9068603515625E-06	3.74375667888671E-06	245274.171875	7.00843811500818E-05
2	454	110.873284720072	0.968170166015625	0.96832275390625	4.022216796875E-06	3.89480373996776E-06	240743.5625	7.04836420482025E-05
2	455	110.973992719818	0.978240966796875	0.97808837890625	4.19769287109375E-06	4.1057146518142E-06	233006.1875	7.08975494490005E-05
2	456	111.074700719563	0.988311767578125	0.98846435546875	4.4415283203125E-06	4.39029236076749E-06	222550.5	7.13325644028373E-05
2	457	111.175408719309	0.998382568359375	0.99853515625	4.76043701171875E-06	4.75346359962714E-06	209757.046875	7.1795926487539E-05
2	458	111.276116719055	1.00845336914063	1.00860595703125	5.1483154296875E-06	5.19262130183051E-06	195909.90625	7.2294868004974E-05
2	459	111.376824718801	1.01852416992188	1.01837158203125	5.5877685546875E-06	5.69042458664626E-06	182250.140625	7.28354716557078E-05
2	460	111.477532718546	1.02859497070313	1.02874755859375	6.048583984375E-06	6.2224662542576E-06	170080.71875	7.34214117983356E-05
2	461	111.578240718292	1.03866577148438	1.03851318359375	6.4971923828125E-06	6.74741977491067E-06	159840.296875	7.40531395422295E-05
2	462	111.678948718038	1.04873657226563	1.04827880859375	6.884765625E-06	7.21715377949295E-06	152260.640625	7.47269732528366E-05
2	463	111.779656717783	1.05880737304688	1.05865478515625	7.177734375E-06	7.5987422860635E-06	147491.5	7.54350767238066E-05
2	464	111.880364717529	1.06887817382813	1.06903076171875	7.3516845703125E-06	7.85917654866353E-06	145413.03125	7.61666960897855E-05
2	465	111.981072717275	1.07894897460938	1.07879638671875	7.403564453125E-06	7.98693872638978E-06	145713.109375	7.69096805015579E-05
2	466	112.081780717021	1.08901977539063	1.08917236328125	7.3516845703125E-06	8.00725138105918E-06	148152.765625	7.76526649133302E-05
2	467	112.182488716766	1.09909057617188	1.0992431640625	7.2235107421875E-06	7.94039442553185E-06	152175.75	7.83865834819153E-05
2	468	112.283196716512	1.10916137695313	1.1090087890625	7.0526123046875E-06	7.8214088716777E-06	157247.953125	7.9105440818239E-05
2	469	112.383904716258	1.11923217773438	1.11907958984375	6.866455078125E-06	7.68410973250866E-06	162977.78125	7.98063265392557E-05
2	470	112.484612716004	1.12930297851563	1.12884521484375	6.67724609375E-06	7.53757694837986E-06	169058.5	8.04883020464331E-05
2	471	112.585320715749	1.13937377929688	1.13983154296875	6.4971923828125E-06	7.4057047640963E-06	175434.484375	8.11516874819063E-05
2	472	112.686028715495	1.14944458007813	1.14959716796875	6.329345703125E-06	7.27619772078469E-06	181629.703125	8.17975596874021E-05
2	473	112.786736715241	1.15951538085938	1.15936279296875	6.1767578125E-06	7.16110298526473E-06	187697.625	8.24272865429521E-05
2	474	112.887444714987	1.16958618164063	1.16912841796875	6.036376953125E-06	7.05729962646728E-06	193680.484375	8.30422723083757E-05
2	475	112.988152714732	1.17965698242188	1.17950439453125	5.914306640625E-06	6.97595078236191E-06	199432.40625	8.36440303828567E-05
2	476	113.088860714478	1.18972778320313	1.1895751953125	5.804443359375E-06	6.90482193022035E-06	204942.171875	8.42341178213246E-05
2	477	113.189568714224	1.19979858398438	1.1993408203125	5.7037353515625E-06	6.84072210788145E-06	210272.890625	8.48136041895486E-05
2	478	113.29027671397	1.20986938476563	1.21002197265625	5.615234375E-06	6.79455706631416E-06	215489.125	8.53835590532981E-05
2	479	113.390984713715	1.21994018554688	1.219482421875	5.5328369140625E-06	6.74719740345608E-06	220408.15625	8.594490645919E-05
2	480	113.491692713461	1.23001098632813	1.23016357421875	5.4595947265625E-06	6.7161940933147E-06	225321.421875	8.64984176587313E-05
2	481	113.592400713207	1.24008178710938	1.23931884765625	5.3955078125E-06	6.68675465931301E-06	229694.578125	8.70450166985393E-05
2	482	113.693108712952	1.25015258789063	1.25030517578125	5.33447265625E-06	6.66971845930675E-06	234382.15625	8.75853147590533E-05
2	483	113.793816712698	1.26022338867188	1.26068115234375	5.279541015625E-06	6.65581774228485E-06	238786.140625	8.81197775015607E-05
2	484	113.894524712444	1.27029418945313	1.2701416015625	5.2276611328125E-06	6.63986975268926E-06	242965.5625	8.86488560354337E-05
2	485	113.99523271219	1.28036499023438	1.280517578125	5.181884765625E-06	6.63549462842639E-06	247114.25	8.91730160219595E-05
2	486	114.095940711935	1.29043579101563	1.29058837890625	5.1422119140625E-06	6.6364787016937E-06	250979.234375	8.96928759175353E-05
2	487	114.196648711681	1.30050659179688	1.30035400390625	5.1025390625E-06	6.63510718368343E-06	254844.5	9.02087413123809E-05
2	488	114.297356711427	1.31057739257813	1.3104248046875	5.06591796875E-06	6.63850414639455E-06	258674.703125	9.07207650016062E-05
2	489	114.398064711173	1.32064819335938	1.32080078125	5.035400390625E-06	6.65076049699564E-06	262303.03125	9.12294053705409E-05
2	490	114.498772710918	1.33071899414063	1.33056640625	5.0048828125E-06	6.6593283918337E-06	265853.6875	9.17349752853625E-05
2	491	114.599480710664	1.34078979492188	1.34124755859375	4.9774169921875E-06	6.67594804326654E-06	269466.59375	9.22376202652231E-05
2	492	114.70018871041	1.35086059570313	1.35101318359375	4.95330810546875E-06	6.6919842538482E-06	272749.6875	9.27376750041731E-05
2	493	114.800896710156	1.36093139648438	1.36077880859375	4.93377685546875E-06	6.71377893013414E-06	275808.75	9.3235525127966E-05
2	494	114.901604709901	1.37100219726563	1.370849609375	4.91668701171875E-06	6.74003831591108E-06	278815.71875	9.37315344344825E-05
2	495	115.002312709647	1.38107299804688	1.38092041015625	4.90203857421875E-06	6.76932540955022E-06	281703.28125	9.42259503062814E-05
2	496	115.103020709393	1.39114379882813	1.3909912109375	4.8907470703125E-06	6.80298580846284E-06	284412.84375	9.47190565057099E-05
2	497	115.203728709139	1.40121459960938	1.40106201171875	4.881591796875E-06	6.83941289025825E-06	287009.25	9.52111295191571E-05
2	498	115.304436708884	1.41128540039063	1.41143798828125	4.87548828125E-06	6.88144928062684E-06	289496.75	9.57024385570548E-05
2	499	115.40514470863	1.42135620117188	1.42181396484375	4.87152099609375E-06	6.92639650878846E-06	291862.4375	9.61932382779196E-05
2	500	115.505852708376	1.43142700195313	1.43096923828125	4.87030029296875E-06	6.96924962539924E-06	293815.40625	9.66837833402678E-05
2	501	115.606560708121	1.44149780273438	1.441650390625	4.87152099609375E-06	7.02303032085183E-06	295934.34375	9.71743211266585E-05
2	502	115.707268707867	1.45156860351563	1.4520263671875	4.87579345703125E-06	7.07978051650571E-06	297803.09375	9.76651353994384E-05
2	503	115.807976707613	1.46163940429688	1.46148681640625	4.884033203125E-06	7.13794952389435E-06	299237.71875	9.81565826805308E-05
2	504	115.908684707359	1.47171020507813	1.4715576171875	4.8974609375E-06	7.20689558875165E-06	300473.59375	9.86491213552654E-05
2	505	116.009392707104	1.48178100585938	1.48162841796875	4.9188232421875E-06	7.28786790205049E-06	301216.0625	9.91434062598273E-05
2	506	116.11010070685	1.49185180664063	1.49169921875	4.9505615234375E-06	7.3847486419254E-06	301319.1875	9.96403687167913E-05
2	507	116.210808706596	1.50192260742188	1.50177001953125	4.9957275390625E-06	7.50243361835601E-06	300610.875	0.000100141209259164
2	508	116.311516706342	1.49185180664063	1.49169921875	4.7686767578125E-06	7.11343136572395E-06	312811.96875	0.000100632882094942
2	509	116.412224706087	1.48178100585938	1.48162841796875	4.605712890625E-06	6.82395466355956E-06	321693.625	0.000101104924397077
2	510	116.512932705833	1.47171020507813	1.47216796875	4.4775390625E-06	6.59168927086284E-06	328789.5625	0.000101562298368663
2	511	116.613640705579	1.46163940429688	1.4617919921875	4.3719482421875E-06	6.39087920717429E-06	334357.09375	0.000102007907116786
2	512	116.714348705325	1.45156860351563	1.451416015625	4.2822265625E-06	6.21529216005001E-06	338939.5625	0.000102443678770214
2	513	116.81505670507	1.44149780273438	1.44134521484375	4.20623779296875E-06	6.06264029556769E-06	342668.53125	0.00010287110490026
2	514	116.915764704816	1.43142700195313	1.43157958984375	4.139404296875E-06	5.92588639847236E-06	345841.9375	0.000103291342384182
2	515	117.016472704562	1.42135620117188	1.4215087890625	4.080810546875E-06	5.80090772928088E-06	348339.8125	0.000103705264336895
2	516	117.117180704308	1.41128540039063	1.4111328125	4.0283203125E-06	5.68449513593805E-06	350303.03125	0.000104113591078203
2	517	117.217888704053	1.40121459960938	1.40106201171875	3.98040771484375E-06	5.57679777557496E-06	351989.59375	0.000104516861028969
2	518	117.318596703799	1.39114379882813	1.3909912109375	3.93707275390625E-06	5.47643321624491E-06	353305.96875	0.000104915539850481
2	519	117.419304703545	1.38107299804688	1.3812255859375	3.89678955078125E-06	5.38234553459915E-06	354452.1875	0.000105310005892534
2	520	117.52001270329	1.37100219726563	1.37115478515625	3.85955810546875E-06	5.29205135535449E-06	355262.125	0.000105700572021306
2	521	117.620720703036	1.36093139648438	1.361083984375	3.824462890625E-06	5.20541516380035E-06	355888.90625	0.000106087492895313
2	522	117.721428702782	1.35086059570313	1.35101318359375	3.79150390625E-06	5.12237147631822E-06	356326.46875	0.000106470986793283
2	523	117.822136702528	1.34078979492188	1.34063720703125	3.7603759765625E-06	5.04130002809688E-06	356516.8125	0.000106851250166073
2	524	117.922844702273	1.33071899414063	1.33026123046875	3.7310791015625E-06	4.96330994792515E-06	356535.25	0.000107228479464538
2	525	118.023552702019	1.32064819335938	1.32049560546875	3.70269775390625E-06	4.88939622300677E-06	356630.6875	0.000107602798379958
2	526	118.124260701765	1.31057739257813	1.3104248046875	3.67584228515625E-06	4.81691495224368E-06	356496.46875	0.000107974337879568
2	527	118.224968701511	1.30050659179688	1.3006591796875	3.64990234375E-06	4.74727903565508E-06	356354.53125	0.000108343214378692
2	528	118.325676701256	1.29043579101563	1.29058837890625	3.6248779296875E-06	4.67822519567562E-06	356036.375	0.000108709529740736
2	529	118.426384701002	1.28036499023438	1.280517578125	3.60107421875E-06	4.61123909190064E-06	355593.21875	0.000109073385829106
2	530	118.527092700748	1.27029418945313	1.26983642578125	3.5772705078125E-06	4.54254859505454E-06	354973.5625	0.000109434848127421
2	531	118.627800700494	1.26022338867188	1.26068115234375	3.5552978515625E-06	4.48209675596445E-06	354592.28125	0.000109793996671215
2	532	118.728508700239	1.25015258789063	1.25	3.5333251953125E-06	4.41665633843513E-06	353774.40625	0.000110150940599851
2	533	118.829216699985	1.24008178710938	1.2396240234375	3.51226806640625E-06	4.35389165431843E-06	352941.1875	0.000110505716293119
2	534	118.929924699731	1.23001098632813	1.2298583984375	3.4912109375E-06	4.29369492849219E-06	352272.71875	0.000110858367406763
2	535	119.030632699477	1.21994018554688	1.21978759765625	3.47015380859375E-06	4.23285018769093E-06	351508.25	0.000111208901216742
2	536	119.131340699222	1.20986938476563	1.2103271484375	3.44879150390625E-06	4.17416595155373E-06	350942.40625	0.000111557295895182
2	537	119.232048698968	1.19979858398438	1.1993408203125	3.42620849609375E-06	4.10919165005907E-06	350049	0.000111903478682507
2	538	119.332756698714	1.18972778320313	1.18927001953125	3.40240478515625E-06	4.04637785322848E-06	349538.09375	0.000112247325887438
2	539	119.433464698459	1.17965698242188	1.17950439453125	3.3758544921875E-06	3.98183510696981E-06	349394.3125	0.000112588641059119
2	540	119.534172698205	1.16958618164063	1.16943359375	3.34503173828125E-06	3.91179264624952E-06	349603.15625	0.00011292706039967
2	541	119.634880697951	1.15951538085938	1.15936279296875	3.3087158203125E-06	3.83600217901403E-06	350396.59375	0.000113262103695888
2	542	119.735588697697	1.14944458007813	1.14959716796875	3.2647705078125E-06	3.75317085854476E-06	352121.90625	0.00011359310883563
2	543	119.836296697442	1.13937377929688	1.138916015625	3.20831298828125E-06	3.65399887414242E-06	354989.09375	0.000113919049908873
2	544	119.937004697188	1.12930297851563	1.129150390625	3.1341552734375E-06	3.53893256033189E-06	360272.65625	0.00011423842079239
2	545	120.037712696934	1.11923217773438	1.1187744140625	3.035888671875E-06	3.39647431246703E-06	368516.3125	0.000114549111458473
2	546	120.13842069668	1.10916137695313	1.1090087890625	2.904052734375E-06	3.22062010127411E-06	381883.15625	0.000114848204248119
2	547	120.239128696425	1.09909057617188	1.0992431640625	2.72705078125E-06	2.99769180855947E-06	403088.625	0.000115131755592301
2	548	120.339836696171	1.08901977539063	1.08795166015625	2.49359130859375E-06	2.71290673481417E-06	436299.125	0.000115394635940902
2	549	120.440544695917	1.07894897460938	1.07879638671875	2.19390869140625E-06	2.36678056353412E-06	491723.5	0.000115630668005906
2	550	120.541252695663	1.06887817382813	1.0687255859375	1.82159423828125E-06	1.94678432308137E-06	586697.9375	0.000115832866868004
2	551	120.641960695408	1.05880737304688	1.0589599609375	1.38153076171875E-06	1.46298577874404E-06	766512.0625	0.000115994160296395
2	552	120.742668695154	1.04873657226563	1.048583984375	8.892822265625E-07	9.32487068894261E-07	1179135.25	0.000116108501970302
2	553	120.8433766949	1.03866577148438	1.03851318359375	3.75976562499999E-07	3.90456619925317E-07	2762175.5	0.000116172210255172
2	554	120.944084694646	1.02859497070313	1.029052734375	-1.2237548828125E-07	-1.25930824879106E-07	-8408978	0.000116184979560785
2	555	121.044792694391	1.01852416992188	1.01898193359375	-5.62133789062499E-07	-5.72804140119842E-07	-1812703.625	0.000116150513349567
2	556	121.145500694137	1.00845336914063	1.0089111328125	-9.08813476562501E-07	-9.169119721264E-07	-1110141.125	0.000116076444101054
2	557	121.246208693883	0.998382568359375	0.99822998046875	-1.13616943359375E-06	-1.13415842406539E-06	-878592.5625	0.000115973474748898
2	558	121.346916693628	0.988311767578125	0.98846435546875	-1.24176025390625E-06	-1.22743563224503E-06	-796018.75	0.000115853734314442
2	559	121.447624693374	0.978240966796875	0.97808837890625	-1.23931884765625E-06	-1.21216339721286E-06	-789214.5	0.000115728806122206
2	560	121.54833269312	0.968170166015625	0.968017578125	-1.1566162109375E-06	-1.1196248124179E-06	-836939.3125	0.000115608156193048
2	561	121.649040692866	0.958099365234375	0.9576416015625	-1.02203369140625E-06	-9.78741923063353E-07	-936996.1875	0.000115498456580099
2	562	121.749748692611	0.948028564453125	0.94818115234375	-8.6334228515625E-07	-8.1860486034202E-07	-1098268	0.000115403519885149
2	563	121.850456692357	0.937957763671875	0.93780517578125	-6.98242187500001E-07	-6.54815096368111E-07	-1343094.5	0.000115324888611212
2	564	121.951164692103	0.927886962890625	0.927734375	-5.38330078125E-07	-4.99427301292599E-07	-1723356	0.00011526262096595
2	565	122.051872691849	0.917816162109375	0.91796875	-3.89404296875E-07	-3.57460947952859E-07	-2357367	0.00011521590204211
2	566	122.152580691594	0.907745361328125	0.90789794921875	-2.532958984375E-07	-2.29966829579098E-07	-3584337.5	0.000115183545858599
2	567	122.25328869134	0.897674560546875	0.8978271484375	-1.30310058593749E-07	-1.16995906296324E-07	-6889930	0.000115164228191134
2	568	122.353996691086	0.887603759765625	0.8880615234375	-1.92260742187506E-08	-1.7073935154599E-08	-46190480	0.000115156697575003
2	569	122.454704690832	0.877532958984375	0.87738037109375	7.87353515625006E-08	6.90808477088467E-08	11143411	0.00011515969526954
2	570	122.555412690577	0.867462158203125	0.86761474609375	1.62658691406251E-07	1.41125084951454E-07	5333958.5	0.000115171846118756
2	571	122.656120690323	0.857391357421875	0.85784912109375	2.3345947265625E-07	2.00272992856299E-07	3674510	0.000115191796794534
2	572	122.756828690069	0.847320556640625	0.848388671875	2.9296875E-07	2.48551344839143E-07	2895833.5	0.000115218303108122
2	573	122.857536689815	0.837249755859375	0.8380126953125	3.40881347656249E-07	2.85662906662765E-07	2458370.75	0.000115250222734176
2	574	122.95824468956	0.827178955078125	0.8270263671875	3.76281738281251E-07	3.11194895630251E-07	2197891.5	0.000115286333311815
2	575	123.058952689306	0.817108154296875	0.8172607421875	3.9703369140625E-07	3.24480055269305E-07	2058416.625	0.000115325274236966
2	576	123.159660689052	0.807037353515625	0.8074951171875	4.0008544921875E-07	3.23067041563263E-07	2018306.625	0.000115365408419166
2	577	123.260368688797	0.796966552734375	0.79681396484375	3.7872314453125E-07	3.01771876820567E-07	2103948.5	0.000115404625830706
2	578	123.361076688543	0.786895751953125	0.78704833984375	3.2501220703125E-07	2.55800301829368E-07	2421596.25	0.000115440059744287
2	579	123.461784688289	0.776824951171875	0.77728271484375	2.2857666015625E-07	1.77668681544674E-07	3400534.25	0.000115467933937907
2	580	123.562492688035	0.766754150390625	0.76690673828125	7.81249999999997E-08	5.99145906221565E-08	9816406	0.000115483380795922
2	581	123.66320068778	0.756683349609375	0.7568359375	-1.4312744140625E-07	-1.08323988001757E-07	-5287846.5	0.000115480106614996
2	582	123.763908687526	0.746612548828125	0.746490478515625	-4.41589355468749E-07	-3.2964223350973E-07	-1690463	0.000115450660814531
2	583	123.864616687272	0.736541748046875	0.7364501953125	-8.251953125E-07	-6.07715207934234E-07	-892455.625	0.000115386879770085
2	584	123.965324687018	0.726470947265625	0.7264404296875	-1.28570556640625E-06	-9.33988417273213E-07	-565013.0625	0.0001152805853053
2	585	124.066032686763	0.716400146484375	0.716278076171875	-1.8023681640625E-06	-1.29099680634681E-06	-397409.40625	0.000115125090815127
2	586	124.166740686509	0.706329345703125	0.706268310546875	-2.34130859375E-06	-1.65359199399973E-06	-301655.375	0.000114916438178625
2	587	124.267448686255	0.696258544921875	0.6961669921875	-2.860107421875E-06	-1.99111241272476E-06	-243405.90625	0.000114654525532387
2	588	124.368156686001	0.686187744140625	0.686126708984375	-3.3074951171875E-06	-2.26936072067474E-06	-207446.03125	0.000114343958557583
2	589	124.468864685746	0.676116943359375	0.675994873046875	-3.6419677734375E-06	-2.46195145336969E-06	-185612.546875	0.000113994028652087
2	590	124.569572685492	0.666046142578125	0.66595458984375	-3.8385009765625E-06	-2.5562674181856E-06	-173493.40625	0.000113617359602358
2	591	124.670280685238	0.655975341796875	0.655975341796875	-3.897705078125E-06	-2.55679833571776E-06	-168297.84375	0.000113227804831695
2	592	124.770988684984	0.645904541015625	0.645843505859375	-3.83697509765625E-06	-2.47808520725812E-06	-168321.015625	0.000112838337372523
2	593	124.871696684729	0.635833740234375	0.635772705078125	-3.69384765625E-06	-2.34844742408313E-06	-172116.671875	0.000112459129013587
2	594	124.972404684475	0.625762939453125	0.625701904296875	-3.5028076171875E-06	-2.1917132926319E-06	-178628.6875	0.000112096749944612
2	595	125.073112684221	0.615692138671875	0.61566162109375	-3.29315185546875E-06	-2.02746718969138E-06	-186952.09375	0.000111754547106102
2	596	125.173820683966	0.605621337890625	0.605621337890625	-3.08349609375E-06	-1.86743102403852E-06	-196407.359375	0.000111433451820631
2	597	125.274528683712	0.595550537109375	0.595489501953125	-2.8839111328125E-06	-1.7173388187075E-06	-206486.78125	0.00011113296932308
2	598	125.375236683458	0.585479736328125	0.585418701171875	-2.70050048828125E-06	-1.58092336732807E-06	-216781.578125	0.000110851775389165
2	599	125.475944683204	0.575408935546875	0.57537841796875	-2.53326416015625E-06	-1.45758542657859E-06	-227129.28125	0.000110588232928421
2	600	125.576652682949	0.565338134765625	0.565277099609375	-2.3828125E-06	-1.3469492614604E-06	-237231.046875	0.000110340690298472
2	601	125.677360682695	0.555267333984375	0.555206298828125	-2.24761962890625E-06	-1.24789244182466E-06	-247019.703125	0.000110107524960767
2	602	125.778068682441	0.545196533203125	0.545166015625	-2.12615966796875E-06	-1.15910995646118E-06	-256408.78125	0.000109887288999744
2	603	125.878776682187	0.535125732421875	0.53509521484375	-2.01690673828125E-06	-1.07923710856994E-06	-265304.90625	0.00010967867274303
2	604	125.979484681932	0.525054931640625	0.52508544921875	-1.9183349609375E-06	-1.00728971119679E-06	-273719.375	0.000109480519313365
2	605	126.080192681678	0.514984130859375	0.514984130859375	-1.82830810546875E-06	-9.41549672006659E-07	-281672.5	0.000109291861008387
2	606	126.180900681424	0.504913330078125	0.504852294921875	-1.74713134765625E-06	-8.82043195815641E-07	-288960.71875	0.000109111817437224
2	607	126.28160868117	0.494842529296875	0.4947509765625	-1.67266845703125E-06	-8.27554345050885E-07	-295785.4375	0.000108939617348369
2	608	126.382316680915	0.484771728515625	0.4847412109375	-1.6046142578125E-06	-7.77822663167171E-07	-302092.0625	0.000108774591353722
2	609	126.483024680661	0.474700927734375	0.47467041015625	-1.541748046875E-06	-7.31822183297481E-07	-307878.0625	0.000108616164652631
2	610	126.583732680407	0.464630126953125	0.46466064453125	-1.4837646484375E-06	-6.89447062995896E-07	-313163.3125	0.000108463813376147
2	611	126.684440680153	0.454559326171875	0.454559326171875	-1.4300537109375E-06	-6.50044228223123E-07	-317861.71875	0.000108317093690857
2	612	126.785148679898	0.444488525390625	0.4444580078125	-1.3800048828125E-06	-6.13354188772064E-07	-322069.875	0.000108175598143134
2	613	126.885856679644	0.434417724609375	0.43438720703125	-1.33392333984375E-06	-5.7943918818637E-07	-325646.3125	0.000108038941107225
2	614	126.98656467939	0.424346923828125	0.42431640625	-1.2908935546875E-06	-5.47747333712323E-07	-328699.75	0.000107906766061205
2	615	127.087272679135	0.414276123046875	0.414276123046875	-1.25030517578125E-06	-5.17971557201236E-07	-331340.03125	0.000107778811070602
2	616	127.187980678881	0.404205322265625	0.4041748046875	-1.2115478515625E-06	-4.89677063342242E-07	-333602.03125	0.000107654843304772
2	617	127.288688678627	0.394134521484375	0.394195556640625	-1.17523193359375E-06	-4.63271192074899E-07	-335419.375	0.000107534659036901
2	618	127.389396678373	0.384063720703125	0.38409423828125	-1.14044189453125E-06	-4.38037147887371E-07	-336794.21875	0.000107418054540176
2	619	127.490104678118	0.373992919921875	0.373931884765625	-1.1077880859375E-06	-4.14237291579411E-07	-337548.21875	0.000107304847915657
2	620	127.590812677864	0.363922119140625	0.3638916015625	-1.07635498046875E-06	-3.91676508115779E-07	-338077.71875	0.000107194871816318
2	621	127.69152067761	0.353851318359375	0.35382080078125	-1.04644775390625E-06	-3.70254980452955E-07	-338116.0625	0.000107087980723009
2	622	127.792228677356	0.343780517578125	0.34375	-1.01806640625E-06	-3.49960345147338E-07	-337649.875	0.000106984021840617
2	623	127.892936677101	0.333709716796875	0.333740234375	-9.91210937500001E-07	-3.30806955162188E-07	-336699.53125	0.000106882849649992
2	624	127.993644676847	0.323638916015625	0.3236083984375	-9.64965820312499E-07	-3.12271026814415E-07	-335357.375	0.000106784347735811
2	625	128.094352676593	0.313568115234375	0.31353759765625	-9.4146728515625E-07	-2.95185373033746E-07	-333030.8125	0.000106688348751049
2	626	128.195060676339	0.303497314453125	0.303497314453125	-9.1827392578125E-07	-2.78693647715045E-07	-330508.5	0.000106594707176555
2	627	128.295768676084	0.293426513671875	0.293365478515625	-8.9599609375E-07	-2.62854314314609E-07	-327418.25	0.000106503350252751
2	628	128.39647667583	0.283355712890625	0.283355712890625	-8.75244140625001E-07	-2.48005420644404E-07	-323744.78125	0.000106414161564317
2	629	128.497184675576	0.273284912109375	0.273284912109375	-8.55712890625E-07	-2.33853413078577E-07	-319365.1875	0.000106326995592099
2	630	128.597892675322	0.263214111328125	0.26324462890625	-8.36791992187499E-07	-2.20280995222311E-07	-314587.90625	0.000106241772300564
2	631	128.698600675067	0.253143310546875	0.253143310546875	-8.2000732421875E-07	-2.07579361699572E-07	-308708.59375	0.00010615834617056
2	632	128.799308674813	0.243072509765625	0.243072509765625	-8.038330078125E-07	-1.95389688428804E-07	-302391.8125	0.000106076578958891
2	633	128.900016674559	0.233001708984375	0.2330322265625	-7.8857421875E-07	-1.83763205541254E-07	-295510.84375	0.000105996397905983
2	634	129.000724674304	0.222930908203125	0.22296142578125	-7.75146484375E-07	-1.72827768096795E-07	-287637.8125	0.000105917657492682
2	635	129.10143267405	0.212860107421875	0.212860107421875	-7.6324462890625E-07	-1.62464331765477E-07	-278888.46875	0.000105840190371964
2	636	129.202140673796	0.202789306640625	0.202789306640625	-7.525634765625E-07	-1.52611818293735E-07	-269464.71875	0.000105763865576591
2	637	129.302848673542	0.192718505859375	0.192779541015625	-7.4462890625E-07	-1.43549215181338E-07	-258893.453125	0.000105688479379751
2	638	129.403556673287	0.182647705078125	0.18267822265625	-7.3883056640625E-07	-1.34968246356948E-07	-247253.21875	0.000105613777122926
2	639	129.504264673033	0.172576904296875	0.172576904296875	-7.36389160156251E-07	-1.27083765733005E-07	-234355.578125	0.000105539496871643
2	640	129.604972672779	0.162506103515625	0.1624755859375	-7.3883056640625E-07	-1.200419177394E-07	-219909.140625	0.000105465209344402
2	641	129.705680672525	0.152435302734375	0.152496337890625	-7.46765136718749E-07	-1.13878947161083E-07	-204209.234375	0.000105390405224171
2	642	129.80638867227	0.142364501953125	0.14239501953125	-7.62329101562501E-07	-1.08551866162543E-07	-186789.4375	0.000105314415122848
2	643	129.907096672016	0.132293701171875	0.132354736328125	-7.88269042968751E-07	-1.04331135730718E-07	-167905.546875	0.00010523633682169
2	644	130.007804671762	0.122222900390625	0.12225341796875	-8.27941894531251E-07	-1.01218724068985E-07	-147659.421875	0.000105154955235776
2	645	130.108512671508	0.112152099609375	0.112152099609375	-8.8653564453125E-07	-9.94268347653815E-08	-126506.0234375	0.000105068625998683
2	646	130.209220671253	0.102081298828125	0.10211181640625	-9.6923828125E-07	-9.89706805398782E-08	-105352.6484375	0.000104975180875044
2	647	130.309928670999	0.092010498046875	0.09210205078125	-1.08123779296875E-06	-9.9584212875925E-08	-85182.0546875	0.000104871927760541
2	648	130.410636670745	0.081939697265625	0.08203125	-1.22833251953125E-06	-1.00761653243353E-07	-66782.609375	0.000104755636129994
2	649	130.511344670491	0.071868896484375	0.0718994140625	-1.41204833984375E-06	-1.01525444051731E-07	-50918.5234375	0.00010462268255651
2	650	130.612052670236	0.061798095703125	0.061859130859375	-1.62353515625E-06	-1.00430469274215E-07	-38101.50390625	0.000104469829238951
2	651	130.712760669982	0.051727294921875	0.0517578125	-1.851806640625E-06	-9.58454577926204E-08	-27949.90234375	0.000104294827906415
2	652	130.813468669728	0.041656494140625	0.041741943359375	-2.073974609375E-06	-8.65717382225739E-08	-20126.544921875	0.000104097147413995
2	653	130.914176669473	0.031585693359375	0.0316375732421875	-2.265625E-06	-7.16788690624526E-08	-13964.169921875	0.000103878635854926
2	654	131.014884669219	0.021514892578125	0.021612548828125	-2.40753173828125E-06	-5.20328953257376E-08	-8977.0576171875	0.000103643324109726
2	655	131.115592668965	0.011444091796875	0.011578369140625	-2.48992919921875E-06	-2.88293175998433E-08	-4650.07958984375	0.000103396712802351
2	656	131.216300668711	0.001373291015625	0.0015106201171875	-2.51495361328125E-06	-3.79913966952472E-09	-600.6552734375	0.000103144695458468
2	657	131.317008668456	-0.008697509765625	-0.00861511230468751	-2.493896484375E-06	2.14851958446616E-08	3454.47875976563	0.00010289248166373
2	658	131.417716668202	-0.018768310546875	-0.01861572265625	-2.44140625E-06	4.54485409306926E-08	7625	0.000102643971331418
2	659	131.518424667948	-0.028839111328125	-0.0287322998046875	-2.3724365234375E-06	6.816555497835E-08	12110.8828125	0.000102401572803501
2	660	131.619132667694	-0.038909912109375	-0.0388153076171875	-2.296142578125E-06	8.91254856583146E-08	16904.572265625	0.000102166493888944
2	661	131.719840667439	-0.048980712890625	-0.04884033203125	-2.220458984375E-06	1.08447956392865E-07	21995.6015625	0.00010193906200584
2	662	131.820548667185	-0.059051513671875	-0.058990478515625	-2.14996337890625E-06	1.26827373492233E-07	27437.8984375	0.000101718993391842
2	663	131.921256666931	-0.069122314453125	-0.06903076171875	-2.08526611328125E-06	1.43947502806441E-07	33104.0546875	0.00010150573507417
2	664	132.021964666677	-0.079193115234375	-0.07916259765625	-2.027587890625E-06	1.60509131319486E-07	39042.74609375	0.000101298639492597
2	665	132.122672666422	-0.089263916015625	-0.08917236328125	-1.9769287109375E-06	1.76287400677211E-07	45106.515625	0.000101096993603278
2	666	132.223380666168	-0.099334716796875	-0.09930419921875	-1.9329833984375E-06	1.91953375860976E-07	51373.5390625	0.000100900113466196
2	667	132.324088665914	-0.109405517578125	-0.10931396484375	-1.89483642578125E-06	2.07132075047411E-07	57690.44921875	0.000100707366073038
2	668	132.42479666566	-0.119476318359375	-0.119384765625	-1.86187744140625E-06	2.22279794570568E-07	64120.63671875	0.000100518198451027
2	669	132.525504665405	-0.129547119140625	-0.1295166015625	-1.83319091796875E-06	2.37428650962102E-07	70650.9140625	0.000100332137662917
2	670	132.626212665151	-0.139617919921875	-0.1395263671875	-1.80938720703125E-06	2.52457226679326E-07	77112.5	0.000100148725323379
2	671	132.726920664897	-0.149688720703125	-0.149658203125	-1.78955078125E-06	2.67820951194153E-07	83628.921875	9.99675030470826E-05
2	672	132.827628664642	-0.159759521484375	-0.15960693359375	-1.77215576171875E-06	2.82848361621291E-07	90063.71875	9.97881579678506E-05
2	673	132.928336664388	-0.169830322265625	-0.169647216796875	-1.759033203125E-06	2.9841507398487E-07	96443.4453125	9.96103481156752E-05
2	674	133.029044664134	-0.179901123046875	-0.179779052734375	-1.74774169921875E-06	3.14207341034489E-07	102863.6328125	9.94337679003365E-05
2	675	133.12975266388	-0.189971923828125	-0.1898193359375	-1.73858642578125E-06	3.30017314809083E-07	109180.2734375	9.92582135950215E-05
2	676	133.230460663625	-0.200042724609375	-0.199859619140625	-1.73248291015625E-06	3.46253358429749E-07	115360.234375	9.90834305412136E-05
2	677	133.331168663371	-0.189971923828125	-0.1898193359375	-1.5606689453125E-06	2.96245133313278E-07	121626.90625	9.89176114671864E-05
