Potential - Start -0.2 V, Upper Vertex 1.5 V, Lower Vertex -0.2 V, Stop -0.19 V; Scan - # end cross 5, Rate 0.1 Vps, Step 0.01 V 
Scan	Index	Time (s)	Potential applied (V)	WE(1).Potential (V)	WE(1).Current (A)	WE(1).Power (W)	WE(1).Resistance (Ω)	WE(1).Charge (C)
1	1	65.6175678343316	-0.189971923828125	-0.18975830078125	-2.0172119140625E-07	3.82782694430261E-08	940695.9375	0
1	2	65.7182758340773	-0.179901123046875	-0.17974853515625	-1.69982910156249E-07	3.05541796308262E-08	1057450.625	-1.87167881193773E-08
1	3	65.818983833823	-0.169830322265625	-0.169647216796875	-1.44042968749999E-07	2.44364883883463E-08	1177754.25	-3.45292470171898E-08
1	4	65.9196918335688	-0.159759521484375	-0.15960693359375	-1.2237548828125E-07	1.95319760365464E-08	1304239.5	-4.79444821621655E-08
1	5	66.0203998333145	-0.149688720703125	-0.149566650390625	-1.02844238281249E-07	1.53820671755511E-08	1454302.75	-5.92851954195339E-08
1	6	66.1211078330603	-0.139617919921875	-0.139495849609375	-8.544921875E-08	1.19198109160834E-08	1632500	-6.87665249188285E-08
1	7	66.221815832806	-0.129547119140625	-0.12945556640625	-6.80541992187506E-08	8.80999451169373E-09	1902242.125	-7.64960361721023E-08
1	8	66.3225238325517	-0.119476318359375	-0.119415283203125	-5.09643554687494E-08	6.08592243267481E-09	2343114	-8.24890946660162E-08
1	9	66.4232318322975	-0.109405517578125	-0.10931396484375	-3.32641601562503E-08	3.63623686716608E-09	3286238.75	-8.67303384666229E-08
1	10	66.5239398320432	-0.099334716796875	-0.099273681640625	-1.49536132812503E-08	1.48450030046376E-09	6638775.5	-8.9158298521852E-08
1	11	66.6246478317889	-0.089263916015625	-0.08917236328125	6.103515625E-09	-5.44264910917747E-10	-14610000	-8.9603936714866E-08
1	12	66.7253558315347	-0.079193115234375	-0.07916259765625	3.0517578125E-08	-2.41585063065486E-09	-2594000.25	-8.77599148907393E-08
1	13	66.8260638312804	-0.069122314453125	-0.06903076171875	6.01196289062494E-08	-4.15010337206922E-09	-1148223.375	-8.31959710012597E-08
1	14	66.9267718310261	-0.059051513671875	-0.0589599609375	9.73510742187503E-08	-5.73981528972922E-09	-605642.6875	-7.5266690657827E-08
1	15	67.0274798307719	-0.048980712890625	-0.0488433837890625	1.4678955078125E-07	-7.16969816849655E-09	-332744.28125	-6.29732355150736E-08
1	16	67.1281878305176	-0.038909912109375	-0.038751220703125	2.1392822265625E-07	-8.28998025781402E-09	-181141.234375	-4.48096528771202E-08
1	17	67.2288958302634	-0.028839111328125	-0.028753662109375	3.033447265625E-07	-8.72227090553679E-09	-94788.7421875	-1.87628899084302E-08
1	18	67.3296038300091	-0.018768310546875	-0.018646240234375	4.23583984375001E-07	-7.89824827762686E-09	-44020.17578125	1.78408754436532E-08
1	19	67.4303118297548	-0.008697509765625	-0.008575439453125	5.81970214843749E-07	-4.99065011538846E-09	-14735.1865234375	6.847454869785E-08
1	20	67.5310198295006	0.001373291015625	0.00147094726562499	7.82470703125E-07	1.15097309461021E-09	1879.87524414063	1.37179611670035E-07
1	21	67.6317278292463	0.011444091796875	0.0115234375	1.02630615234375E-06	1.18265743864754E-08	11228.0712890625	2.28258755896604E-07
1	22	67.732435828992	0.021514892578125	0.021612548828125	1.30279541015625E-06	2.81567285043138E-08	16589.3671875	3.45538325063899E-07
1	23	67.8331438287378	0.031585693359375	0.031671142578125	1.59332275390625E-06	5.04623542951776E-08	19877.419921875	4.91369462451985E-07
1	24	67.9338518284835	0.041656494140625	0.0417236328125	1.87347412109375E-06	7.81681421813119E-08	22270.728515625	6.65936568111647E-07
1	25	68.0345598282292	0.051727294921875	0.051788330078125	2.1124267578125E-06	1.09399053371817E-07	24516.037109375	8.66642608343682E-07
1	26	68.135267827975	0.061798095703125	0.06182861328125	2.28851318359375E-06	1.41495590355589E-07	27016.9375	1.08824747258041E-06
1	27	68.2359758277207	0.071868896484375	0.0718994140625	2.39105224609375E-06	1.71915260693822E-07	30070.197265625	1.32388231577352E-06
1	28	68.3366838274665	0.081939697265625	0.081939697265625	2.4261474609375E-06	1.98797778239168E-07	33773.5859375	1.56644762228098E-06
1	29	68.4373918272122	0.092010498046875	0.092071533203125	2.40570068359375E-06	2.2149653489123E-07	38272.234375	1.80975052899157E-06
1	30	68.5380998269579	0.102081298828125	0.102081298828125	2.3486328125E-06	2.3975147200872E-07	43464.140625	2.04915022550267E-06
1	31	68.6388078267037	0.112152099609375	0.112213134765625	2.2711181640625E-06	2.54849283010117E-07	49408.76171875	2.28177304961719E-06
1	32	68.7395158264494	0.122222900390625	0.12225341796875	2.1844482421875E-06	2.67056265101928E-07	55965.3515625	2.50612879426626E-06
1	33	68.8402238261951	0.132293701171875	0.13238525390625	2.09716796875E-06	2.77634114809189E-07	63125.73046875	2.72172519544256E-06
1	34	68.9409318259409	0.142364501953125	0.142425537109375	2.01385498046875E-06	2.86824388240348E-07	70722.8359375	2.92873164653429E-06
1	35	69.0416398256866	0.152435302734375	0.152496337890625	1.93695068359375E-06	2.95377873271718E-07	78730.109375	3.12767042487394E-06
1	36	69.1423478254324	0.162506103515625	0.162567138671875	1.86676025390625E-06	3.03473854046388E-07	87085.1796875	3.31920250573603E-06
1	37	69.2430558251781	0.172576904296875	0.172607421875	1.80419921875E-06	3.11418176579537E-07	95669.828125	3.50405002791376E-06
1	38	69.3437638249238	0.182647705078125	0.182586669921875	1.74774169921875E-06	3.19114320745939E-07	104470.0546875	3.68290443475416E-06
1	39	69.4444718246696	0.192718505859375	0.192779541015625	1.69769287109375E-06	3.27280446299483E-07	113553.84375	3.85639577871189E-06
1	40	69.5451798244153	0.202789306640625	0.202850341796875	1.65374755859375E-06	3.35463255396462E-07	122661.0078125	4.02515433961526E-06
1	41	69.645887824161	0.212860107421875	0.21295166015625	1.61346435546875E-06	3.43589903195607E-07	131984.109375	4.18967147197691E-06
1	42	69.7465958239068	0.222930908203125	0.222991943359375	1.5777587890625E-06	3.51827509348368E-07	141334.625	4.3503623601282E-06
1	43	69.8473038236525	0.233001708984375	0.2330322265625	1.5460205078125E-06	3.60272593979971E-07	150730.359375	4.50765719506308E-06
1	44	69.9480118233982	0.243072509765625	0.243133544921875	1.51702880859375E-06	3.68840574083151E-07	160269.5625	4.66189385406324E-06
1	45	70.048719823144	0.253143310546875	0.253143310546875	1.49078369140625E-06	3.77381923044595E-07	169805.53125	4.81334927826538E-06
1	46	70.1494278228897	0.263214111328125	0.263275146484375	1.46728515625E-06	3.86299689125735E-07	179430.125	4.96229995405884E-06
1	47	70.2501358226355	0.273284912109375	0.273284912109375	1.446533203125E-06	3.95315680634667E-07	188924.0625	5.10902236783295E-06
1	48	70.3508438223812	0.283355712890625	0.283294677734375	1.42669677734375E-06	4.04175580115407E-07	198566.859375	5.25370114701218E-06
1	49	70.4515518221269	0.293426513671875	0.29345703125	1.40869140625E-06	4.13390381481804E-07	208318.90625	5.39647408004384E-06
1	50	70.5522598218727	0.303497314453125	0.303466796875	1.39312744140625E-06	4.2276789713469E-07	217831.328125	5.53755671717227E-06
1	51	70.6529678216184	0.313568115234375	0.3135986328125	1.378173828125E-06	4.32193417054805E-07	227546.5	5.67710276300204E-06
1	52	70.7536758213641	0.323638916015625	0.3236083984375	1.3653564453125E-06	4.41840796838733E-07	237013.859375	5.81525046072784E-06
1	53	70.8543838211099	0.333709716796875	0.333709716796875	1.353759765625E-06	4.51762787179177E-07	246505.859375	5.95216897636419E-06
1	54	70.9550918208556	0.343780517578125	0.34381103515625	1.3427734375E-06	4.61660334849512E-07	256045.453125	6.08795016887598E-06
1	55	71.0557998206014	0.353851318359375	0.353912353515625	1.33331298828125E-06	4.71875921448373E-07	265438.3125	6.22270181338536E-06
1	56	71.1565078203471	0.363922119140625	0.363983154296875	1.32415771484375E-06	4.81971085264377E-07	274879	6.35651622360456E-06
1	57	71.2572158200928	0.373992919921875	0.373992919921875	1.317138671875E-06	4.92600520374253E-07	283943.46875	6.48951618131832E-06
1	58	71.3579238198386	0.384063720703125	0.38409423828125	1.31072998046875E-06	5.03443857269303E-07	293038.40625	6.62183992972132E-06
1	59	71.4586318195843	0.394134521484375	0.394134521484375	1.30523681640625E-06	5.14438852405874E-07	301964	6.75356432111585E-06
1	60	71.55933981933	0.404205322265625	0.404205322265625	1.3006591796875E-06	5.25733355516422E-07	310769.59375	6.88478121446678E-06
1	61	71.6600478190758	0.414276123046875	0.414276123046875	1.29638671875E-06	5.37062078365125E-07	319562.15625	7.0155529101612E-06
1	62	71.7607558188215	0.424346923828125	0.424346923828125	1.292724609375E-06	5.48563718894002E-07	328257.78125	7.14592533768155E-06
1	63	71.8614638185672	0.434417724609375	0.4344482421875	1.2908935546875E-06	5.60826435958006E-07	336548.46875	7.2760208240652E-06
1	64	71.962171818313	0.444488525390625	0.44439697265625	1.28936767578125E-06	5.72991098124476E-07	344662.71875	7.40594714443432E-06
1	65	72.0628798180587	0.454559326171875	0.45458984375	1.287841796875E-06	5.85439806854993E-07	352985.78125	7.53571976019884E-06
1	66	72.1635878178045	0.464630126953125	0.464599609375	1.2872314453125E-06	5.98047222410969E-07	360929.375	7.66538505558856E-06
1	67	72.2642958175502	0.474700927734375	0.474639892578125	1.28692626953125E-06	6.1082653246558E-07	368816.6875	7.79500442149583E-06
1	68	72.3650038172959	0.484771728515625	0.484771728515625	1.287841796875E-06	6.24309279828594E-07	376421.8125	7.92465380072827E-06
1	69	72.4657118170417	0.494842529296875	0.49481201171875	1.290283203125E-06	6.3844760234133E-07	383491	8.05447325546993E-06
1	70	72.5664198167874	0.504913330078125	0.50494384765625	1.29302978515625E-06	6.52907431231142E-07	390512.15625	8.1845528256963E-06
1	71	72.6671278165331	0.514984130859375	0.51495361328125	1.297607421875E-06	6.68207576381974E-07	396848.5625	8.31500256026629E-06
1	72	72.7678358162789	0.525054931640625	0.52496337890625	1.30340576171875E-06	6.84240262671665E-07	402762.84375	8.4459734353004E-06
1	73	72.8685438160246	0.535125732421875	0.53521728515625	1.31134033203125E-06	7.0185200229389E-07	408145.25	8.57763643580256E-06
1	74	72.9692518157703	0.545196533203125	0.545166015625	1.32293701171875E-06	7.21220317245752E-07	412087.65625	8.71028260007733E-06
1	75	73.0699598155161	0.555267333984375	0.555267333984375	1.33758544921875E-06	7.42717531920789E-07	415126.625	8.84425116964849E-06
1	76	73.1706678152618	0.565338134765625	0.565277099609375	1.357421875E-06	7.67319477290584E-07	416434.34375	8.97995505511062E-06
1	77	73.2713758150076	0.575408935546875	0.575439453125	1.385498046875E-06	7.97270217844925E-07	415330.40625	9.11807183001656E-06
1	78	73.3720838147533	0.585479736328125	0.58544921875	1.4239501953125E-06	8.33650517506612E-07	411144.46875	9.25953918340383E-06
1	79	73.472791814499	0.595550537109375	0.595489501953125	1.47979736328125E-06	8.81203789049323E-07	402412.875	9.40575409913436E-06
1	80	73.5734998142448	0.605621337890625	0.605560302734375	1.56036376953125E-06	9.44894338772428E-07	388089.1875	9.55883842834737E-06
1	81	73.6742078139905	0.615692138671875	0.61566162109375	1.67633056640625E-06	1.03205229606829E-06	367267.4375	9.72181896941038E-06
1	82	73.7749158137362	0.625762939453125	0.625701904296875	1.84173583984375E-06	1.15237753561814E-06	339734.90625	9.8989676189376E-06
1	83	73.875623813482	0.635833740234375	0.635772705078125	2.07000732421875E-06	1.31605406750168E-06	307135.5	1.00959396149847E-05
1	84	73.9763318132277	0.645904541015625	0.6458740234375	2.3748779296875E-06	1.53387190948706E-06	271960.9375	1.0319757166144E-05
1	85	74.0770398129735	0.655975341796875	0.6558837890625	2.76611328125E-06	1.81424888978654E-06	237113.859375	1.05786266431096E-05
1	86	74.1777478127192	0.666046142578125	0.666015625	3.2470703125E-06	2.16259945773345E-06	205112.78125	1.08814147097291E-05
1	87	74.2784558124649	0.676116943359375	0.676055908203125	3.80462646484375E-06	2.57214014709461E-06	177693.109375	1.12364959932165E-05
1	88	74.3791638122107	0.686187744140625	0.686126708984375	4.41253662109375E-06	3.02755893244466E-06	155494.859375	1.16502633318305E-05
1	89	74.4798718119564	0.696258544921875	0.69622802734375	5.0323486328125E-06	3.50366190104978E-06	138350.53125	1.21258508443134E-05
1	90	74.5805798117021	0.706329345703125	0.7061767578125	5.6121826171875E-06	3.96319273932022E-06	125829.2578125	1.26618451758986E-05
1	91	74.6812878114479	0.716400146484375	0.71624755859375	6.103515625E-06	4.37162771049771E-06	117350.0078125	1.32517780002672E-05
1	92	74.7819958111936	0.726470947265625	0.726318359375	6.4666748046875E-06	4.69686438009376E-06	112317.1328125	1.38847371999873E-05
1	93	74.8827038109393	0.736541748046875	0.7364501953125	6.67724609375E-06	4.91745913677732E-06	110292.5078125	1.45465864989092E-05
1	94	74.9834118106851	0.746612548828125	0.746429443359375	6.7413330078125E-06	5.03192950418452E-06	110724.3125	1.52222655742662E-05
1	95	75.0841198104308	0.756683349609375	0.75714111328125	6.6864013671875E-06	5.06254946230911E-06	113235.96875	1.5898405763437E-05
1	96	75.1848278101766	0.766754150390625	0.76690673828125	6.55517578125E-06	5.02720831718761E-06	116992.5546875	1.6565170881222E-05
1	97	75.2855358099223	0.776824951171875	0.7769775390625	6.390380859375E-06	4.96518214276875E-06	121585.484375	1.72170330188237E-05
1	98	75.386243809668	0.786895751953125	0.787353515625	6.2255859375E-06	4.90173670186778E-06	126470.59375	1.78522968781181E-05
1	99	75.4869518094138	0.796966552734375	0.797119140625	6.0821533203125E-06	4.84820066048997E-06	131058.7109375	1.84720411198214E-05
1	100	75.5876598091595	0.807037353515625	0.80718994140625	5.9783935546875E-06	4.8256988520734E-06	135017.875	1.90793380170362E-05
1	101	75.6883678089052	0.817108154296875	0.81756591796875	5.9295654296875E-06	4.8478104872629E-06	137879.578125	1.96789515030105E-05
1	102	75.789075808651	0.827178955078125	0.82733154296875	5.9356689453125E-06	4.91076616526698E-06	139383.03125	2.02764131245203E-05
1	103	75.8897838083967	0.837249755859375	0.83740234375	6.005859375E-06	5.02932061863248E-06	139430.90625	2.08777164516505E-05
1	104	75.9904918081425	0.847320556640625	0.84747314453125	6.1279296875E-06	5.193255674385E-06	138296.8125	2.14887004403863E-05
1	105	76.0911998078882	0.857391357421875	0.85723876953125	6.28662109375E-06	5.38913536729524E-06	136359.21875	2.21138234337559E-05
1	106	76.1919078076339	0.867462158203125	0.86761474609375	6.4605712890625E-06	5.6052867876133E-06	134293.8125	2.27556956815533E-05
1	107	76.2926158073797	0.877532958984375	0.877685546875	6.6131591796875E-06	5.80427376917214E-06	132718.046875	2.34140097745694E-05
1	108	76.3933238071254	0.887603759765625	0.88775634765625	6.7230224609375E-06	5.96840573052759E-06	132047.21875	2.40855406445917E-05
1	109	76.4940318068711	0.897674560546875	0.89752197265625	6.77490234375E-06	6.08062327955849E-06	132477.484375	2.47652151301736E-05
1	110	76.5947398066169	0.907745361328125	0.9075927734375	6.768798828125E-06	6.1433129303623E-06	134084.765625	2.54471942753298E-05
1	111	76.6954478063626	0.917816162109375	0.91766357421875	6.7169189453125E-06	6.16387205809588E-06	136619.71875	2.61262539424933E-05
1	112	76.7961558061083	0.927886962890625	0.9271240234375	6.6314697265625E-06	6.14819464317407E-06	139806.71875	2.6798399630934E-05
1	113	76.8968638058541	0.937957763671875	0.93841552734375	6.536865234375E-06	6.13429574514157E-06	143557.421875	2.7461477657198E-05
1	114	76.9975718055998	0.948028564453125	0.94818115234375	6.4483642578125E-06	6.11421728535788E-06	147042.125	2.81153352261754E-05
1	115	77.0982798053456	0.958099365234375	0.9576416015625	6.378173828125E-06	6.10800452705007E-06	150143.546875	2.8761201974703E-05
1	116	77.1989878050913	0.968170166015625	0.96832275390625	6.3385009765625E-06	6.13771453572554E-06	152768.421875	2.94015389954438E-05
1	117	77.299695804837	0.978240966796875	0.9783935546875	6.341552734375E-06	6.20453420197009E-06	154282.96875	3.00400297419401E-05
1	118	77.4004038045828	0.988311767578125	0.98876953125	6.3934326171875E-06	6.321631190076E-06	154653.9375	3.06812871713191E-05
1	119	77.5011118043285	0.998382568359375	0.99853515625	6.4971923828125E-06	6.48767490929458E-06	153687.171875	3.1330382626038E-05
1	120	77.6018198040742	1.00845336914063	1.00860595703125	6.646728515625E-06	6.70392955726129E-06	151744.71875	3.19922291964758E-05
1	121	77.70252780382	1.01852416992188	1.0186767578125	6.829833984375E-06	6.95739299771958E-06	149151.03125	3.26708286593203E-05
1	122	77.8032358035657	1.02859497070313	1.0284423828125	7.01904296875E-06	7.21868082109722E-06	146521.75	3.33681746269576E-05
1	123	77.9039438033114	1.03866577148438	1.03851318359375	7.1929931640625E-06	7.47001831769012E-06	144378.453125	3.40838087140583E-05
1	124	78.0046518030572	1.04873657226563	1.04888916015625	7.3211669921875E-06	7.67909205023898E-06	143268.03125	3.48146531905513E-05
1	125	78.1053598028029	1.05880737304688	1.05865478515625	7.391357421875E-06	7.8248958743643E-06	143228.75	3.55554875568487E-05
1	126	78.2060678025487	1.06887817382813	1.0687255859375	7.3974609375E-06	7.90585545473732E-06	144471.953125	3.63001636287663E-05
1	127	78.3067758022944	1.07894897460938	1.07940673828125	7.3455810546875E-06	7.92886930867098E-06	146946.40625	3.70425368600991E-05
1	128	78.4074838020401	1.08901977539063	1.0888671875	7.257080078125E-06	7.901995559223E-06	150042.0625	3.77778378606308E-05
1	129	78.5081918017859	1.09909057617188	1.0992431640625	7.147216796875E-06	7.85652900958667E-06	153800.171875	3.85031526093371E-05
1	130	78.6088998015316	1.10916137695313	1.1090087890625	7.025146484375E-06	7.79094898462063E-06	157862.734375	3.92167894460727E-05
1	131	78.7096078012773	1.11923217773438	1.11907958984375	6.903076171875E-06	7.72509156377055E-06	162113.171875	3.99181299144402E-05
1	132	78.8103158010231	1.12930297851563	1.129150390625	6.787109375E-06	7.66366702009691E-06	166366.90625	4.06074832426384E-05
1	133	78.9110238007688	1.13937377929688	1.13922119140625	6.6741943359375E-06	7.60338343752665E-06	170690.453125	4.12853150919545E-05
1	134	79.0117318005146	1.14944458007813	1.1492919921875	6.573486328125E-06	7.5548550739768E-06	174837.515625	4.19523894379381E-05
1	135	79.1124398002603	1.15951538085938	1.15966796875	6.48193359375E-06	7.51689049138804E-06	178907.734375	4.2609783122316E-05
1	136	79.213147800006	1.16958618164063	1.16943359375	6.396484375E-06	7.48026377550559E-06	182824.421875	4.32582601206377E-05
1	137	79.3138557997518	1.17965698242188	1.18011474609375	6.3232421875E-06	7.46215118851978E-06	186631.28125	4.38987517554779E-05
1	138	79.4145637994975	1.18972778320313	1.18988037109375	6.2530517578125E-06	7.44038334232755E-06	190287.953125	4.45320183644071E-05
1	139	79.5152717992432	1.19979858398438	1.19964599609375	6.1920166015625E-06	7.428227490891E-06	193740.765625	4.51586747658439E-05
1	140	79.615979798989	1.20986938476563	1.21002197265625	6.1370849609375E-06	7.42600741432398E-06	197165.59375	4.57794958492741E-05
1	141	79.7166877987347	1.21994018554688	1.2200927734375	6.09130859375E-06	7.43196142138913E-06	200300.609375	4.63952455902472E-05
1	142	79.8173957984804	1.23001098632813	1.23016357421875	6.048583984375E-06	7.44074759495561E-06	203380.421875	4.70065351692028E-05
1	143	79.9181037982262	1.24008178710938	1.23992919921875	6.0089111328125E-06	7.45062425266951E-06	206348.40625	4.76136810902972E-05
1	144	80.0188117979719	1.25015258789063	1.25030517578125	5.9783935546875E-06	7.47481635698932E-06	209137.328125	4.82172872580122E-05
1	145	80.1195197977177	1.26022338867188	1.2603759765625	5.9478759765625E-06	7.49655964682461E-06	211903.546875	4.88178229716141E-05
1	146	80.2202277974634	1.27029418945313	1.2701416015625	5.9234619140625E-06	7.52363530409639E-06	214425.5625	4.94155938213225E-05
1	147	80.3209357972091	1.28036499023438	1.280517578125	5.9051513671875E-06	7.56164990889374E-06	216847.546875	5.00112109875772E-05
1	148	80.4216437969549	1.29043579101563	1.2908935546875	5.8837890625E-06	7.59534532335238E-06	219398.34375	5.06048309034668E-05
1	149	80.5223517967006	1.30050659179688	1.30035400390625	5.8685302734375E-06	7.63116622692905E-06	221580.875	5.11966063641012E-05
1	150	80.6230597964463	1.31057739257813	1.31072998046875	5.853271484375E-06	7.67205801821547E-06	223931.1875	5.1786846597679E-05
1	151	80.7237677961921	1.32064819335938	1.32049560546875	5.8380126953125E-06	7.70906990510412E-06	226189.25	5.23755516042002E-05
1	152	80.8244757959378	1.33071899414063	1.33087158203125	5.82275390625E-06	7.74933778302511E-06	228563.953125	5.29627177456859E-05
1	153	80.9251837956836	1.34078979492188	1.34033203125	5.810546875E-06	7.7880613389425E-06	230672.28125	5.35484978172462E-05
1	154	81.0258917954293	1.35086059570313	1.35040283203125	5.8013916015625E-06	7.83421546657337E-06	232772.21875	5.41332083230373E-05
1	155	81.126599795175	1.36093139648438	1.36077880859375	5.792236328125E-06	7.88195211498532E-06	234931.515625	5.47169911442325E-05
1	156	81.2273077949208	1.37100219726563	1.3714599609375	5.7861328125E-06	7.93544950283831E-06	237025.328125	5.53000099898782E-05
1	157	81.3280157946665	1.38107299804688	1.380615234375	5.7830810546875E-06	7.98420933278976E-06	238733.515625	5.58825668122154E-05
1	158	81.4287237944122	1.39114379882813	1.39129638671875	5.780029296875E-06	8.0417339631822E-06	240707.5	5.6464814406354E-05
1	159	81.529431794158	1.40121459960938	1.4013671875	5.780029296875E-06	8.09994344308507E-06	242449.84375	5.70469092053827E-05
1	160	81.6301397939037	1.41128540039063	1.41082763671875	5.7861328125E-06	8.16323608887615E-06	243829.125	5.762931323261E-05
1	161	81.7308477936494	1.42135620117188	1.4215087890625	5.7891845703125E-06	8.22937636257848E-06	245545.609375	5.8212175645167E-05
1	162	81.8315557933952	1.43142700195313	1.4312744140625	5.79833984375E-06	8.29901546239853E-06	246842.109375	5.87956528761424E-05
1	163	81.9322637931409	1.44149780273438	1.441650390625	5.8074951171875E-06	8.37237712403294E-06	248239.640625	5.93800541537348E-05
1	164	82.0329717928867	1.45156860351563	1.451416015625	5.82275390625E-06	8.45123850012897E-06	249266.25	5.9965685068164E-05
1	165	82.1336797926324	1.46163940429688	1.46209716796875	5.841064453125E-06	8.54020345286699E-06	250313.484375	6.05530040047597E-05
1	166	82.2343877923781	1.47171020507813	1.47125244140625	5.865478515625E-06	8.62959950609365E-06	250832.484375	6.11424766248092E-05
1	167	82.3350957921239	1.48178100585938	1.48193359375	5.89599609375E-06	8.73747467267094E-06	251345.765625	6.17347104707733E-05
1	168	82.4358037918696	1.49185180664063	1.49139404296875	5.9326171875E-06	8.84787004906684E-06	251388.890625	6.23303276370279E-05
1	169	82.5365117916153	1.50192260742188	1.50238037109375	5.9814453125E-06	8.9864061010303E-06	251173.46875	6.29302521701902E-05
1	170	82.6372197913611	1.49185180664063	1.49169921875	5.7586669921875E-06	8.59019837662345E-06	259035.515625	6.35214091744274E-05
1	171	82.7379277911068	1.48178100585938	1.48193359375	5.596923828125E-06	8.29426880954998E-06	264776.46875	6.40932121314108E-05
1	172	82.8386357908525	1.47171020507813	1.47186279296875	5.46875E-06	8.04924911790295E-06	269140.625	6.46504122414626E-05
1	173	82.9393437905983	1.46163940429688	1.46209716796875	5.3619384765625E-06	7.83967516326811E-06	272680.71875	6.51957816444337E-05
1	174	83.040051790344	1.45156860351563	1.451416015625	5.2734375E-06	7.65395088819787E-06	275231.5	6.57313139527105E-05
1	175	83.1407597900898	1.44149780273438	1.441650390625	5.1971435546875E-06	7.49246373743517E-06	277392.84375	6.62585516693071E-05
1	176	83.2414677898355	1.43142700195313	1.4312744140625	5.1300048828125E-06	7.34244486011448E-06	279000.59375	6.67785643599927E-05
1	177	83.3421757895812	1.42135620117188	1.42181396484375	5.0689697265625E-06	7.20713160262676E-06	280493.6875	6.72921232762747E-05
1	178	83.442883789327	1.41128540039063	1.4111328125	5.01708984375E-06	7.07978006175836E-06	281265.21875	6.77999996696599E-05
1	179	83.5435917890727	1.40121459960938	1.4013671875	4.967041015625E-06	6.96064762450987E-06	282133.21875	6.83027392369695E-05
1	180	83.6442997888184	1.39114379882813	1.39129638671875	4.92431640625E-06	6.85118357068859E-06	282535.9375	6.88008076394908E-05
1	181	83.7450077885642	1.38107299804688	1.380615234375	4.884033203125E-06	6.74297007208224E-06	282679.34375	6.92946996423416E-05
1	182	83.8457157883099	1.37100219726563	1.370849609375	4.84771728515625E-06	6.64549133944092E-06	282782.5	6.97847281116992E-05
1	183	83.9464237880557	1.36093139648438	1.361083984375	4.8138427734375E-06	6.55204439681256E-06	282743.75	7.0271227741614E-05
1	184	84.0471317878014	1.35086059570313	1.35101318359375	4.78179931640625E-06	6.46027410766692E-06	282532.375	7.07544095348567E-05
1	185	84.1478397875471	1.34078979492188	1.3409423828125	4.752197265625E-06	6.37242237644386E-06	282173.125	7.12344844941981E-05
1	186	84.2485477872929	1.33071899414063	1.33087158203125	4.72412109375E-06	6.28719863016158E-06	281718.34375	7.17116490704939E-05
1	187	84.3492557870386	1.32064819335938	1.32080078125	4.696044921875E-06	6.2025396800891E-06	281258.125	7.2185997851193E-05
1	188	84.4499637867843	1.31057739257813	1.3104248046875	4.6710205078125E-06	6.12102076047449E-06	280543.59375	7.26576618035324E-05
1	189	84.5506717865301	1.30050659179688	1.30035400390625	4.64599609375E-06	6.04143951932201E-06	279887.03125	7.31268155504949E-05
1	190	84.6513797862758	1.29043579101563	1.290283203125	4.62188720703125E-06	5.96354311710456E-06	279168.0625	7.3593488195911E-05
1	191	84.7520877860215	1.28036499023438	1.280517578125	4.598388671875E-06	5.88831699133152E-06	278470.9375	7.40577670512721E-05
1	192	84.8527957857673	1.27029418945313	1.2701416015625	4.5758056640625E-06	5.811921255372E-06	277577.6875	7.45197248761542E-05
1	193	84.953503785513	1.26022338867188	1.26068115234375	4.55413818359375E-06	5.74131627217866E-06	276821	7.49794489820488E-05
1	194	85.0542117852588	1.25015258789063	1.25	4.53277587890625E-06	5.66596963835764E-06	275769.21875	7.54370121285319E-05
1	195	85.1549197850045	1.24008178710938	1.240234375	4.51263427734375E-06	5.5967238949961E-06	274836.03125	7.58924870751798E-05
1	196	85.2556277847502	1.23001098632813	1.2298583984375	4.49249267578125E-06	5.52512983631459E-06	273758.5625	7.63459320296533E-05
1	197	85.356335784496	1.21994018554688	1.2200927734375	4.47265625E-06	5.45705552212894E-06	272789.3125	7.67973615438677E-05
1	198	85.4570437842417	1.20986938476563	1.21002197265625	4.453125E-06	5.38837866770336E-06	271724.25	7.72468119976111E-05
1	199	85.5577517839874	1.19979858398438	1.199951171875	4.4329833984375E-06	5.31936348124873E-06	270687.0625	7.76942615630105E-05
1	200	85.6584597837332	1.18972778320313	1.190185546875	4.41253662109375E-06	5.2517370932037E-06	269728.21875	7.81396665843204E-05
1	201	85.7591677834789	1.17965698242188	1.1798095703125	4.39117431640625E-06	5.18074921274092E-06	268677.46875	7.85829688538797E-05
1	202	85.8598757832247	1.16958618164063	1.16973876953125	4.36767578125E-06	5.10903919348493E-06	267817.21875	7.90240155765787E-05
1	203	85.9605837829704	1.15951538085938	1.15997314453125	4.3414306640625E-06	5.03594310430344E-06	267186.84375	7.94625520939007E-05
1	204	86.0612917827161	1.14944458007813	1.14990234375	4.3115234375E-06	4.95783069709432E-06	266704.4375	7.98982655396685E-05
1	205	86.1619997824619	1.13937377929688	1.1395263671875	4.27520751953125E-06	4.8717120080255E-06	266542.9375	8.03306393208914E-05
1	206	86.2627077822076	1.12930297851563	1.1297607421875	4.232177734375E-06	4.78134825243615E-06	266945.5	8.0759018601384E-05
1	207	86.3634157819533	1.11923217773438	1.119384765625	4.17724609375E-06	4.67594554720563E-06	267971.96875	8.11824720585719E-05
1	208	86.4641237816991	1.10916137695313	1.10931396484375	4.10614013671875E-06	4.55499821327976E-06	270159.8125	8.15995736047626E-05
1	209	86.5648317814448	1.09909057617188	1.099853515625	4.01458740234375E-06	4.41545807916555E-06	273964.28125	8.20084824226797E-05
1	210	86.6655397811905	1.08901977539063	1.0888671875	3.89404296875E-06	4.2400956772326E-06	279623.8125	8.24067101348191E-05
1	211	86.7662477809363	1.07894897460938	1.0791015625	3.7384033203125E-06	4.03411650040653E-06	288653.0625	8.27910334919579E-05
1	212	86.866955780682	1.06887817382813	1.06964111328125	3.54278564453125E-06	3.78950926460675E-06	301920.9375	8.31576762720942E-05
1	213	86.9676637804278	1.05880737304688	1.0589599609375	3.30780029296875E-06	3.50282789440826E-06	320140.25	8.35026294225827E-05
1	214	87.0683717801735	1.04873657226563	1.04827880859375	3.038330078125E-06	3.1850170216785E-06	345018.09375	8.382218220504E-05
1	215	87.1690797799192	1.03866577148438	1.03851318359375	2.752685546875E-06	2.8587003271241E-06	377272.71875	8.41137807583436E-05
1	216	87.269787779665	1.02859497070313	1.02874755859375	2.4737548828125E-06	2.54486917583563E-06	415864.78125	8.43769521452487E-05
1	217	87.3704957794107	1.01852416992188	1.01837158203125	2.22808837890625E-06	2.26902170652465E-06	457060.6875	8.46137118060142E-05
1	218	87.4712037791564	1.00845336914063	1.00830078125	2.03704833984375E-06	2.05395735974889E-06	494981.28125	8.4828476246912E-05
1	219	87.5719117789022	0.998382568359375	0.99853515625	1.9146728515625E-06	1.91186813935929E-06	521517.375	8.50274591357447E-05
1	220	87.6726197786479	0.988311767578125	0.98846435546875	1.856689453125E-06	1.83527129138383E-06	532380	8.52173689054325E-05
1	221	87.7733277783937	0.978240966796875	0.9783935546875	1.84814453125E-06	1.80821268713771E-06	529392.375	8.54039171827026E-05
1	222	87.8740357781394	0.968170166015625	0.9686279296875	1.86859130859375E-06	1.8099697172147E-06	518373.34375	8.55910693644546E-05
1	223	87.9747437778851	0.958099365234375	0.95855712890625	1.8963623046875E-06	1.81777159014018E-06	505471.53125	8.57806517160498E-05
1	224	88.0754517776309	0.948028564453125	0.948486328125	1.91680908203125E-06	1.81806706223142E-06	494825.6875	8.59726569615304E-05
1	225	88.1761597773766	0.937957763671875	0.9381103515625	1.91680908203125E-06	1.79817834577989E-06	489412.53125	8.61656953929923E-05
1	226	88.2768677771223	0.927886962890625	0.92803955078125	1.884765625E-06	1.7491369135314E-06	492389.90625	8.63571258378215E-05
1	227	88.3775757768681	0.917816162109375	0.91796875	1.81488037109375E-06	1.66600341344747E-06	505801.25	8.65434121806175E-05
1	228	88.4782837766138	0.907745361328125	0.908203125	1.6986083984375E-06	1.54268138885527E-06	534674.8125	8.67203343659639E-05
1	229	88.5789917763595	0.897674560546875	0.8978271484375	1.53411865234375E-06	1.37737333716359E-06	585239.75	8.68831120897084E-05
1	230	88.6796997761053	0.887603759765625	0.88775634765625	1.32720947265625E-06	1.17823867640254E-06	668889.375	8.70271906023845E-05
1	231	88.780407775851	0.877532958984375	0.87738037109375	1.090087890625E-06	9.56421672526631E-07	804871.25	8.71489173732698E-05
1	232	88.8811157755968	0.867462158203125	0.8673095703125	8.44726562500001E-07	7.32639364287024E-07	1026734.1875	8.72463424457237E-05
1	233	88.9818237753425	0.857391357421875	0.85784912109375	6.14318847656251E-07	5.26992835148121E-07	1396423.25	8.73198077897541E-05
1	234	89.0825317750882	0.847320556640625	0.8477783203125	4.26635742187501E-07	3.61692514161405E-07	1987124.5	8.73722237884067E-05
1	235	89.183239774834	0.837249755859375	0.83770751953125	2.9296875E-07	2.45422114630856E-07	2859375.25	8.74084580573253E-05
1	236	89.2839477745797	0.827178955078125	0.8270263671875	2.1636962890625E-07	1.78943381001773E-07	3822285	8.74341058079153E-05
1	237	89.3846557743254	0.817108154296875	0.81756591796875	1.88293457031249E-07	1.53942309566446E-07	4341977.5	8.74544857651927E-05
1	238	89.4853637740712	0.807037353515625	0.806884765625	1.9195556640625E-07	1.54886024006373E-07	4203497.5	8.74736288096756E-05
1	239	89.5860717738169	0.796966552734375	0.7965087890625	2.05383300781251E-07	1.63589604085246E-07	3878157.5	8.74936376931146E-05
1	240	89.6867797735626	0.786895751953125	0.7867431640625	2.08435058593751E-07	1.6398485058744E-07	3774524.25	8.75144760357216E-05
1	241	89.7874877733084	0.776824951171875	0.777587890625	1.8035888671875E-07	1.4024487882125E-07	4311337	8.75340556376614E-05
1	242	89.8881957730541	0.766754150390625	0.7666015625	1.0498046875E-07	8.04781876695415E-08	7302326	8.75484183779918E-05
1	243	89.9889037727999	0.756683349609375	0.7568359375	-3.60107421875006E-08	-2.72542237667039E-08	-21016948	8.75518962857313E-05
1	244	90.0896117725456	0.746612548828125	0.74658203125	-2.5604248046875E-07	-1.91156715345642E-07	-2915852.25	8.75371842994355E-05
1	245	90.1903197722913	0.736541748046875	0.7364501953125	-5.6427001953125E-07	-4.15556769439718E-07	-1305137.875	8.74958786880597E-05
1	246	90.2910277720371	0.726470947265625	0.72637939453125	-9.6038818359375E-07	-6.9760619680892E-07	-756339.375	8.74191100592725E-05
1	247	90.3917357717828	0.716400146484375	0.716339111328125	-1.43402099609375E-06	-1.0272452755089E-06	-499531.8125	8.72985401656479E-05
1	248	90.4924437715285	0.706329345703125	0.706268310546875	-1.9549560546875E-06	-1.38072346089757E-06	-361270.71875	8.71278898557648E-05
1	249	90.5931517712743	0.696258544921875	0.696258544921875	-2.48321533203125E-06	-1.72895977357257E-06	-280385.90625	8.69044088176452E-05
1	250	90.69385977102	0.686187744140625	0.68609619140625	-2.967529296875E-06	-2.03601052817248E-06	-231201.15625	8.66299451445229E-05
1	251	90.7945677707658	0.676116943359375	0.676055908203125	-3.3612060546875E-06	-2.27236319005897E-06	-201134.921875	8.63112654769793E-05
1	252	90.8952757705115	0.666046142578125	0.666015625	-3.62640380859375E-06	-2.41524139710236E-06	-183657.328125	8.59594147186726E-05
1	253	90.9959837702572	0.655975341796875	0.655975341796875	-3.75030517578125E-06	-2.46010768023552E-06	-174912.53125	8.5587969806511E-05
1	254	91.096691770003	0.645904541015625	0.6458740234375	-3.7396240234375E-06	-2.41532598010963E-06	-172710.953125	8.52108205435798E-05
1	255	91.1973997697487	0.635833740234375	0.635833740234375	-3.62701416015625E-06	-2.30617797569721E-06	-175305	8.48398776724935E-05
1	256	91.2981077694944	0.625762939453125	0.625762939453125	-3.44757080078125E-06	-2.15736190511961E-06	-181508.375	8.4483646787703E-05
1	257	91.3988157692402	0.615692138671875	0.61566162109375	-3.23486328125E-06	-1.99158125724352E-06	-190320.75	8.41471555759199E-05
1	258	91.4995237689859	0.605621337890625	0.6055908203125	-3.011474609375E-06	-1.82372127710551E-06	-201094.453125	8.3832630480174E-05
1	259	91.6002317687316	0.595550537109375	0.59552001953125	-2.79449462890625E-06	-1.66417748914682E-06	-213104.734375	8.35402752272785E-05
1	260	91.7009397684774	0.585479736328125	0.58544921875	-2.59063720703125E-06	-1.51668655234971E-06	-225986.5625	8.32691148389131E-05
1	261	91.8016477682231	0.575408935546875	0.575408935546875	-2.40325927734375E-06	-1.38285690809425E-06	-239428.578125	8.30176504678093E-05
1	262	91.9023557679689	0.565338134765625	0.565338134765625	-2.2332763671875E-06	-1.26255622490135E-06	-253142.9375	8.2784186815843E-05
1	263	92.0030637677146	0.555267333984375	0.555267333984375	-2.080078125E-06	-1.15499938146968E-06	-266945.4375	8.2566992205102E-05
1	264	92.1037717674603	0.545196533203125	0.545196533203125	-1.9427490234375E-06	-1.05917990822491E-06	-280631.5	8.23644222691655E-05
1	265	92.2044797672061	0.535125732421875	0.53521728515625	-1.81854248046875E-06	-9.73315309238387E-07	-294311.15625	8.21750290924683E-05
1	266	92.3051877669518	0.525054931640625	0.5250244140625	-1.70745849609375E-06	-8.96457322596689E-07	-307488.84375	8.1997481174767E-05
1	267	92.4058957666975	0.514984130859375	0.51495361328125	-1.60675048828125E-06	-8.27401947844919E-07	-320493.84375	8.18305925349705E-05
1	268	92.5066037664433	0.504913330078125	0.504913330078125	-1.51580810546875E-06	-7.6535172865988E-07	-333098.4375	8.1673359090928E-05
1	269	92.607311766189	0.494842529296875	0.494842529296875	-1.43310546875E-06	-7.0916155436862E-07	-345293.875	8.15248713479377E-05
1	270	92.7080197659348	0.484771728515625	0.48480224609375	-1.35711669921875E-06	-6.57933185266302E-07	-357229.625	8.13843726064079E-05
1	271	92.8087277656805	0.474700927734375	0.4747314453125	-1.28814697265625E-06	-6.11523830684746E-07	-368538.28125	8.1251171650365E-05
1	272	92.9094357654262	0.464630126953125	0.464630126953125	-1.22344970703125E-06	-5.68451582694252E-07	-379770.53125	8.11247082310729E-05
1	273	93.010143765172	0.454559326171875	0.454559326171875	-1.16424560546875E-06	-5.29218652900454E-07	-390432.53125	8.10044730314985E-05
1	274	93.1108517649177	0.444488525390625	0.44451904296875	-1.10992431640625E-06	-4.93382458444103E-07	-400494.9375	8.08899640105665E-05
1	275	93.2115597646634	0.434417724609375	0.434478759765625	-1.0589599609375E-06	-4.6009560605853E-07	-410288.1875	8.07807518867776E-05
1	276	93.3122677644092	0.424346923828125	0.4244384765625	-1.01226806640625E-06	-4.29645524491207E-07	-419294.53125	8.06764583103359E-05
1	277	93.4129757641549	0.414276123046875	0.414276123046875	-9.686279296875E-07	-4.01279407924449E-07	-427693.78125	8.0576712207403E-05
1	278	93.5136837639006	0.404205322265625	0.4041748046875	-9.27734375E-07	-3.74966845129165E-07	-435657.90625	8.04812225396745E-05
1	279	93.6143917636464	0.394134521484375	0.3941650390625	-8.88977050781251E-07	-3.50403666971033E-07	-443391.71875	8.03897419245914E-05
1	280	93.7150997633921	0.384063720703125	0.38409423828125	-8.53881835937501E-07	-3.27971093838642E-07	-449821.3125	8.03019793238491E-05
1	281	93.8158077631379	0.373992919921875	0.373992919921875	-8.2000732421875E-07	-3.06676923855775E-07	-456084.875	8.02176946308464E-05
1	282	93.9165157628836	0.363922119140625	0.363922119140625	-7.87963867187499E-07	-2.86757483536348E-07	-461851.28125	8.01367277745157E-05
1	283	94.0172237626293	0.353851318359375	0.353851318359375	-7.58056640625E-07	-2.68239318756969E-07	-466787.46875	8.0058875028044E-05
1	284	94.1179317623751	0.343780517578125	0.343780517578125	-7.2967529296875E-07	-2.50848131599923E-07	-471141.8125	7.99839617684484E-05
1	285	94.2186397621208	0.333709716796875	0.333740234375	-7.037353515625E-07	-2.34864799608658E-07	-474241.125	7.99117842689157E-05
1	286	94.3193477618665	0.323638916015625	0.323638916015625	-6.7962646484375E-07	-2.19953562918818E-07	-476201.1875	7.98421315266751E-05
1	287	94.4200557616123	0.313568115234375	0.313629150390625	-6.5643310546875E-07	-2.05876546033323E-07	-477777.78125	7.97748507466167E-05
1	288	94.520763761358	0.303497314453125	0.303466796875	-6.34765625E-07	-1.9263029571448E-07	-478076.90625	7.97098327893764E-05
1	289	94.6214717611037	0.293426513671875	0.293426513671875	-6.14318847656251E-07	-1.80257430315578E-07	-477645.3125	7.96469394117594E-05
1	290	94.7221797608495	0.283355712890625	0.283355712890625	-5.95703124999999E-07	-1.68795878607853E-07	-475666	7.95860105426982E-05
1	291	94.8228877605952	0.273284912109375	0.273284912109375	-5.77392578124999E-07	-1.57792669597256E-07	-473308.6875	7.95269370428286E-05
1	292	94.923595760341	0.263214111328125	0.26324462890625	-5.6121826171875E-07	-1.47737694078387E-07	-469059.28125	7.94696097727865E-05
1	293	95.0243037600867	0.253143310546875	0.253173828125	-5.45654296875001E-07	-1.38145395567335E-07	-463982.09375	7.94138686615042E-05
1	294	95.1250117598324	0.243072509765625	0.24310302734375	-5.316162109375E-07	-1.29237506030222E-07	-457290.5	7.93596263974905E-05
1	295	95.2257197595782	0.233001708984375	0.2330322265625	-5.17883300781249E-07	-1.20683495197227E-07	-449970.5625	7.93067811173387E-05
1	296	95.3264277593239	0.222930908203125	0.222991943359375	-5.05981445312501E-07	-1.12829773968315E-07	-440711.75	7.92552236816846E-05
1	297	95.4271357590696	0.212860107421875	0.212890625	-4.95300292968751E-07	-1.05444790676756E-07	-429821.3125	7.92048085713759E-05
1	298	95.5278437588154	0.202789306640625	0.20281982421875	-4.864501953125E-07	-9.86617365583697E-08	-416938.53125	7.91553684393875E-05
1	299	95.6285517585611	0.192718505859375	0.192779541015625	-4.8065185546875E-07	-9.26598460182504E-08	-401079.34375	7.91066704550758E-05
1	300	95.7292597583069	0.182647705078125	0.1826171875	-4.7637939453125E-07	-8.69950582682577E-08	-383344.03125	7.90584817877971E-05
1	301	95.8299677580526	0.172576904296875	0.172607421875	-4.7576904296875E-07	-8.21212680079952E-08	-362796.65625	7.90105405030772E-05
1	302	95.9306757577983	0.162506103515625	0.162628173828125	-4.7882080078125E-07	-7.78697497594294E-08	-339643.09375	7.89624682511203E-05
1	303	96.0313837575441	0.152435302734375	0.15240478515625	-4.8828125E-07	-7.44163912713702E-08	-312125.03125	7.89137702668086E-05
1	304	96.1320917572898	0.142364501953125	0.142425537109375	-5.05981445312501E-07	-7.20646724516882E-08	-281483.75	7.88637044024654E-05
1	305	96.2327997570355	0.132293701171875	0.132354736328125	-5.340576171875E-07	-7.0685054254227E-08	-247828.578125	7.88113393355161E-05
1	306	96.3335077567813	0.122222900390625	0.122283935546875	-5.7708740234375E-07	-7.0568518140135E-08	-211898.46875	7.8755387221463E-05
1	307	96.434215756527	0.112152099609375	0.112213134765625	-6.40258789062501E-07	-7.18454415959968E-08	-175262.171875	7.86940872785635E-05
1	308	96.5349237562727	0.102081298828125	0.10211181640625	-7.28759765625001E-07	-7.44149843967534E-08	-140117.25	7.86251548561268E-05
1	309	96.6356317560185	0.092010498046875	0.092041015625	-8.4991455078125E-07	-7.82269964361149E-08	-108294.4375	7.85456577432342E-05
1	310	96.7363397557642	0.081939697265625	0.08203125	-1.0101318359375E-06	-8.28623711868204E-08	-81208.4609375	7.84520016168244E-05
1	311	96.83704775551	0.071868896484375	0.071929931640625	-1.2139892578125E-06	-8.73221637220922E-08	-59250.8828125	7.83400100772269E-05
1	312	96.9377557552557	0.061798095703125	0.0618896484375	-1.45751953125E-06	-9.02053685081228E-08	-42462.3125	7.82054848968983E-05
1	313	97.0384637550014	0.051727294921875	0.051727294921875	-1.7315673828125E-06	-8.95692906510703E-08	-29873.107421875	7.80449045123532E-05
1	314	97.1391717547472	0.041656494140625	0.0417724609375	-2.015380859375E-06	-8.41874268076026E-08	-20726.83203125	7.78562316554599E-05
1	315	97.2398797544929	0.031585693359375	0.0316741943359375	-2.28271484375E-06	-7.23031519100914E-08	-13875.6689453125	7.76398010202684E-05
1	316	97.3405877542386	0.021514892578125	0.0215789794921875	-2.50396728515625E-06	-5.40330553633339E-08	-8617.916015625	7.73987703723833E-05
1	317	97.4412957539844	0.011444091796875	0.011578369140625	-2.65960693359375E-06	-3.07939096444443E-08	-4353.41357421875	7.71387640270405E-05
1	318	97.5420037537301	0.001373291015625	0.00146484375	-2.74322509765625E-06	-4.0183958383011E-09	-533.986022949219	7.68667159718461E-05
1	319	97.6427117534759	-0.008697509765625	-0.00861206054687499	-2.7618408203125E-06	2.37851409679024E-08	3118.23217773438	7.65895092627034E-05
1	320	97.7434197532216	-0.018768310546875	-0.0186859130859375	-2.728271484375E-06	5.09802440262774E-08	6848.9931640625	7.63130592531525E-05
1	321	97.8441277529673	-0.028839111328125	-0.0287384033203125	-2.662353515625E-06	7.65117889045541E-08	10794.361328125	7.60416223783977E-05
1	322	97.9448357527131	-0.038909912109375	-0.0387542724609375	-2.5787353515625E-06	9.99370115550846E-08	15028.40234375	7.57777088438161E-05
1	323	98.0455437524588	-0.048980712890625	-0.048846435546875	-2.48992919921875E-06	1.2162415430339E-07	19617.6015625	7.55224828026257E-05
1	324	98.1462517522045	-0.059051513671875	-0.0589599609375	-2.40203857421875E-06	1.41624099114779E-07	24545.802734375	7.52761552575976E-05
1	325	98.2469597519503	-0.069122314453125	-0.06903076171875	-2.31903076171875E-06	1.60084454137177E-07	29767.07421875	7.50384278944694E-05
1	326	98.347667751696	-0.079193115234375	-0.079132080078125	-2.24365234375E-06	1.77544876578395E-07	35269.31640625	7.48086822568439E-05
1	327	98.4483757514417	-0.089263916015625	-0.08917236328125	-2.176513671875E-06	1.94084861959709E-07	40970.27734375	7.4586110713426E-05
1	328	98.5490837511875	-0.099334716796875	-0.099273681640625	-2.11700439453125E-06	2.10162824032523E-07	46893.46875	7.43699129088782E-05
1	329	98.6497917509332	-0.109405517578125	-0.10931396484375	-2.0654296875E-06	2.25780311779999E-07	52925.53125	7.41593103157356E-05
1	330	98.750499750679	-0.119476318359375	-0.119384765625	-2.0208740234375E-06	2.41261574274176E-07	59075.80859375	7.39535462344065E-05
1	331	98.8512077504247	-0.129547119140625	-0.129425048828125	-1.9818115234375E-06	2.56496036854514E-07	65306.4375	7.3751994932536E-05
1	332	98.9519157501704	-0.139617919921875	-0.1395263671875	-1.94915771484375E-06	2.71958896291835E-07	71582.90625	7.35540597815998E-05
1	333	99.0526237499162	-0.149688720703125	-0.14959716796875	-1.9219970703125E-06	2.87525296016611E-07	77834.234375	7.33591296011582E-05
1	334	99.1533317496619	-0.159759521484375	-0.15966796875	-1.89910888671875E-06	3.03226840969728E-07	84075.2109375	7.31667169020511E-05
1	335	99.2540397494076	-0.169830322265625	-0.169677734375	-1.8817138671875E-06	3.1928493626765E-07	90171.9140625	7.2976341471076E-05
1	336	99.3547477491534	-0.179901123046875	-0.1798095703125	-1.8682861328125E-06	3.35935709472324E-07	96243.0625	7.27875158190727E-05
1	337	99.4554557488991	-0.189971923828125	-0.1898193359375	-1.85943603515625E-06	3.52956902816004E-07	102084.359375	7.2599810664542E-05
1	338	99.5561637486448	-0.200042724609375	-0.19989013671875	-1.85546875E-06	3.70889893019921E-07	107730.265625	7.24127457942814E-05
1	339	99.6568717483906	-0.189971923828125	-0.1898193359375	-1.64215087890625E-06	3.11712000211628E-07	115591.8984375	7.22366312402301E-05
2	340	99.7575797481363	-0.179901123046875	-0.1798095703125	-1.48712158203125E-06	2.67398689857146E-07	120911.1484375	7.20790558261797E-05
2	341	99.8582877478821	-0.169830322265625	-0.169647216796875	-1.3616943359375E-06	2.31007646789294E-07	124585.390625	7.19356103218161E-05
2	342	99.9589957476278	-0.159759521484375	-0.159698486328125	-1.25579833984375E-06	2.0054909555256E-07	127168.890625	7.18038063496351E-05
2	343	100.059703747374	-0.149688720703125	-0.14959716796875	-1.16302490234375E-06	1.73985228002493E-07	128627.65625	7.16820068191737E-05
2	344	100.160411747119	-0.139617919921875	-0.13958740234375	-1.0809326171875E-06	1.50884574168231E-07	129136.078125	7.1569018473383E-05
2	345	100.261119746865	-0.129547119140625	-0.129486083984375	-1.00677490234375E-06	1.30363332573324E-07	128614.7421875	7.14638954377733E-05
2	346	100.361827746611	-0.119476318359375	-0.119354248046875	-9.3841552734375E-07	1.12003874619404E-07	127186.9921875	7.13659464963712E-05
2	347	100.462535746356	-0.109405517578125	-0.109344482421875	-8.75244140625001E-07	9.57031147663656E-08	124930.2734375	7.12746186763979E-05
2	348	100.563243746102	-0.099334716796875	-0.099273681640625	-8.1451416015625E-07	8.08598130674909E-08	121880.859375	7.11895336280577E-05
2	349	100.663951745848	-0.089263916015625	-0.08917236328125	-7.54394531249999E-07	6.72711450988572E-08	118203.8828125	7.11105312802829E-05
2	350	100.764659745594	-0.079193115234375	-0.0791015625	-6.95190429687501E-07	5.49906467028904E-08	113784.0234375	7.10375388734974E-05
2	351	100.865367745339	-0.069122314453125	-0.069000244140625	-6.317138671875E-07	4.35884111027462E-08	109227.0546875	7.09707237547264E-05
2	352	100.966075745085	-0.059051513671875	-0.058990478515625	-5.62133789062499E-07	3.31605392034362E-08	104940.28125	7.0910609792918E-05
2	353	101.066783744831	-0.048980712890625	-0.0488433837890625	-4.8248291015625E-07	2.3566098406036E-08	101233.3984375	7.0858011895325E-05
2	354	101.167491744577	-0.038909912109375	-0.038800048828125	-3.863525390625E-07	1.49904977320148E-08	100426.546875	7.08142615621909E-05
2	355	101.268199744322	-0.028839111328125	-0.0287200927734375	-2.67944335937501E-07	7.69538566203209E-09	107186.7890625	7.07813160261139E-05
2	356	101.368907744068	-0.018768310546875	-0.018634033203125	-1.19934082031251E-07	2.23485563388692E-09	155368.953125	7.07617800799198E-05
2	357	101.469615743814	-0.008697509765625	-0.0085906982421875	6.65283203125006E-08	-5.71524660930578E-10	-129128.453125	7.07590952515602E-05
2	358	101.57032374356	0.001373291015625	0.0014617919921875	2.93884277343751E-07	4.29597718509811E-10	4974.03955078125	7.077724148985E-05
2	359	101.671031743305	0.011444091796875	0.01156005859375	5.62438964843751E-07	6.50182707673252E-09	20553.4453125	7.08203588146716E-05
2	360	101.771739743051	0.021514892578125	0.0215911865234375	8.6181640625E-07	1.86076380970235E-08	25053.1171875	7.08920779288746E-05
2	361	101.872447742797	0.031585693359375	0.031707763671875	1.1724853515625E-06	3.71768891227475E-08	27043.20703125	7.09945161361247E-05
2	362	101.973155742543	0.041656494140625	0.041766357421875	1.46759033203125E-06	6.12958999113289E-08	28459.138671875	7.11274478817359E-05
2	363	102.073863742288	0.051727294921875	0.051788330078125	1.7181396484375E-06	8.89795828129536E-08	30142.095703125	7.12878681952134E-05
2	364	102.174571742034	0.061798095703125	0.061859130859375	1.90338134765625E-06	1.17741514316094E-07	32499.599609375	7.14702255208977E-05
2	365	102.27527974178	0.071868896484375	0.07196044921875	2.01385498046875E-06	1.44917905231523E-07	35732.6875	7.16674694558606E-05
2	366	102.375987741525	0.081939697265625	0.08203125	2.05596923828125E-06	1.68653713217282E-07	39899.06640625	7.18724040780216E-05
2	367	102.476695741271	0.092010498046875	0.092071533203125	2.04376220703125E-06	1.88172307957757E-07	45050.0234375	7.20788448234089E-05
2	368	102.577403741017	0.102081298828125	0.102081298828125	1.99615478515625E-06	2.03770056828034E-07	51138.97265625	7.22822660463862E-05
2	369	102.678111740763	0.112152099609375	0.112213134765625	1.927490234375E-06	2.1628970614529E-07	58217.23046875	7.24798373994417E-05
2	370	102.778819740508	0.122222900390625	0.122314453125	1.8511962890625E-06	2.26428056748773E-07	66073.1953125	7.26701109670103E-05
2	371	102.879527740254	0.132293701171875	0.13232421875	1.77337646484375E-06	2.3466064646982E-07	74617.109375	7.28526210878044E-05
2	372	102.98023574	0.142364501953125	0.14239501953125	1.70013427734375E-06	2.42090635538261E-07	83755.1640625	7.30275278328918E-05
2	373	103.080943739746	0.152435302734375	0.15240478515625	1.63238525390625E-06	2.48783322831514E-07	93363.25	7.31953332433477E-05
2	374	103.181651739491	0.162506103515625	0.162567138671875	1.57196044921875E-06	2.55549110761422E-07	103416.8125	7.33566848793998E-05
2	375	103.282359739237	0.172576904296875	0.17254638671875	1.5179443359375E-06	2.61915801047508E-07	113671.09375	7.35122739570215E-05
2	376	103.383067738983	0.182647705078125	0.182647705078125	1.4703369140625E-06	2.68553662863269E-07	124221.671875	7.36627480364405E-05
2	377	103.483775738729	0.192718505859375	0.1927490234375	1.42822265625E-06	2.75288527973316E-07	134957.265625	7.38086964702234E-05
2	378	103.584483738474	0.202789306640625	0.20281982421875	1.39129638671875E-06	2.82182469391046E-07	145777.59375	7.39506722311489E-05
2	379	103.68519173822	0.212860107421875	0.21282958984375	1.35833740234375E-06	2.89094401750845E-07	156683.890625	7.40891264285892E-05
2	380	103.785899737966	0.222930908203125	0.222930908203125	1.329345703125E-06	2.96352226314411E-07	167699.734375	7.42244665161707E-05
2	381	103.886607737712	0.233001708984375	0.233001708984375	1.3043212890625E-06	3.03909075682895E-07	178638.28125	7.43570781196468E-05
2	382	103.987315737457	0.243072509765625	0.24310302734375	1.28204345703125E-06	3.11668628683037E-07	189621.53125	7.44873177609406E-05
2	383	104.088023737203	0.253143310546875	0.253143310546875	1.26220703125E-06	3.19519244840194E-07	200556.09375	7.46154255466536E-05
2	384	104.188731736949	0.263214111328125	0.26318359375	1.2445068359375E-06	3.27533797417345E-07	211476.21875	7.47416488593444E-05
2	385	104.289439736694	0.273284912109375	0.2733154296875	1.22894287109375E-06	3.35889041025439E-07	222398.796875	7.4866198701784E-05
2	386	104.39014773644	0.283355712890625	0.283355712890625	1.21429443359375E-06	3.44077278668919E-07	233350.078125	7.49892278690822E-05
2	387	104.490855736186	0.293426513671875	0.29339599609375	1.2017822265625E-06	3.52598078734445E-07	244134.078125	7.51108818803914E-05
2	388	104.591563735932	0.303497314453125	0.303497314453125	1.19049072265625E-06	3.61310725338626E-07	254934.640625	7.52313426346518E-05
2	389	104.692271735677	0.313568115234375	0.313507080078125	1.180419921875E-06	3.70069983546273E-07	265589.46875	7.53507265471853E-05
2	390	104.792979735423	0.323638916015625	0.323638916015625	1.1712646484375E-06	3.79066818823048E-07	276315.78125	7.54691500333138E-05
2	391	104.893687735169	0.333709716796875	0.333770751953125	1.163330078125E-06	3.88285542385347E-07	286909.78125	7.55867004045285E-05
2	392	104.994395734915	0.343780517578125	0.343780517578125	1.15631103515625E-06	3.97517197825437E-07	297308	7.57035086280666E-05
2	393	105.09510373466	0.353851318359375	0.3538818359375	1.1505126953125E-06	4.07145506642337E-07	307586.21875	7.58196620154195E-05
2	394	105.195811734406	0.363922119140625	0.363983154296875	1.14532470703125E-06	4.16878862097292E-07	317799.125	7.59352697059512E-05
2	395	105.296519734152	0.373992919921875	0.37396240234375	1.14044189453125E-06	4.26482387183569E-07	327910.09375	7.605036807945E-05
2	396	105.397227733898	0.384063720703125	0.384124755859375	1.136474609375E-06	4.36548020843475E-07	337996.78125	7.61650153435767E-05
2	397	105.497935733643	0.394134521484375	0.3941650390625	1.13372802734375E-06	4.46875930038004E-07	347671.59375	7.62793279136531E-05
2	398	105.598643733389	0.404205322265625	0.404266357421875	1.13128662109375E-06	4.57341116089083E-07	357350.96875	7.6393385825213E-05
2	399	105.699351733135	0.414276123046875	0.41424560546875	1.129150390625E-06	4.67745593368818E-07	366864.875	7.65072036301717E-05
2	400	105.800059732881	0.424346923828125	0.424346923828125	1.12762451171875E-06	4.7850397777438E-07	376319.34375	7.66208468121476E-05
2	401	105.900767732626	0.434417724609375	0.4344482421875	1.1273193359375E-06	4.89761873723182E-07	385381.71875	7.6734388130717E-05
2	402	106.001475732372	0.444488525390625	0.4444580078125	1.12701416015625E-06	5.00910459777515E-07	394367.75	7.68479003454559E-05
2	403	106.102183732118	0.454559326171875	0.454620361328125	1.12762451171875E-06	5.12641065597563E-07	403166.4375	7.69614343880676E-05
2	404	106.202891731863	0.464630126953125	0.464691162109375	1.1279296875E-06	5.24138954460796E-07	411985.9375	7.7075012086425E-05
2	405	106.303599731609	0.474700927734375	0.474700927734375	1.129150390625E-06	5.36008769813634E-07	420405.40625	7.71886625443585E-05
2	406	106.404307731355	0.484771728515625	0.48480224609375	1.13067626953125E-06	5.48154332591366E-07	428771.96875	7.73024512454867E-05
2	407	106.505015731101	0.494842529296875	0.494842529296875	1.1334228515625E-06	5.60865828447277E-07	436591.28125	7.74164582253434E-05
2	408	106.605723730846	0.504913330078125	0.504913330078125	1.136474609375E-06	5.738211825701E-07	444280.375	7.75307562435046E-05
2	409	106.706431730592	0.514984130859375	0.5150146484375	1.141357421875E-06	5.87815804919956E-07	451229.9375	7.76454544393346E-05
2	410	106.807139730338	0.525054931640625	0.525054931640625	1.14776611328125E-06	6.02640227498341E-07	457458.15625	7.77607201598585E-05
2	411	106.907847730084	0.535125732421875	0.535064697265625	1.156005859375E-06	6.18537910668238E-07	462856.40625	7.7876728028059E-05
2	412	107.008555729829	0.545196533203125	0.545196533203125	1.16729736328125E-06	6.36406468856876E-07	467058.84375	7.79937181505375E-05
2	413	107.109263729575	0.555267333984375	0.555267333984375	1.18255615234375E-06	6.56634824736102E-07	469548.375	7.81120397732593E-05
2	414	107.209971729321	0.565338134765625	0.565277099609375	1.20269775390625E-06	6.7985746454724E-07	470007.625	7.82321440055966E-05
2	415	107.310679729067	0.575408935546875	0.5753173828125	1.23260498046875E-06	7.09139044374751E-07	466749.1875	7.83547729952261E-05
2	416	107.411387728812	0.585479736328125	0.58544921875	1.2738037109375E-06	7.45747399832908E-07	459607.09375	7.84809817560017E-05
2	417	107.512095728558	0.595550537109375	0.595489501953125	1.33270263671875E-06	7.93610411164991E-07	446828.5	7.8612232755404E-05
2	418	107.612803728304	0.605621337890625	0.6055908203125	1.41754150390625E-06	8.58450107443787E-07	427212.0625	7.87507160566747E-05
2	419	107.71351172805	0.615692138671875	0.61566162109375	1.539306640625E-06	9.47692001318501E-07	399960.375	7.88996039773338E-05
2	420	107.814219727795	0.625762939453125	0.62579345703125	1.71142578125E-06	1.07099901924812E-06	365656.21875	7.906329119578E-05
2	421	107.914927727541	0.635833740234375	0.63580322265625	1.94732666015625E-06	1.23811651064898E-06	326500.5625	7.92475257185288E-05
2	422	108.015635727287	0.645904541015625	0.64581298828125	2.26043701171875E-06	1.45981960031349E-06	285702.71875	7.94594016042538E-05
2	423	108.116343727032	0.655975341796875	0.656005859375	2.659912109375E-06	1.74491788129671E-06	246626.890625	7.9707162512932E-05
2	424	108.217051726778	0.666046142578125	0.666015625	3.148193359375E-06	2.09674590223585E-06	211554.875	7.99996269051917E-05
2	425	108.317759726524	0.676116943359375	0.676055908203125	3.70880126953125E-06	2.50735683948733E-06	182284.21875	8.03449001978152E-05
2	426	108.41846772627	0.686187744140625	0.686065673828125	4.3194580078125E-06	2.96343159789103E-06	158831.4375	8.07491524028592E-05
2	427	108.519175726015	0.696258544921875	0.69610595703125	4.937744140625E-06	3.43719307238644E-06	140976.515625	8.12152939033695E-05
2	428	108.619883725761	0.706329345703125	0.706207275390625	5.517578125E-06	3.89655360777397E-06	127992.265625	8.17417603684589E-05
2	429	108.720591725507	0.716400146484375	0.71624755859375	6.005859375E-06	4.30168211096316E-06	119258.1328125	8.23220107122324E-05
2	430	108.821299725253	0.726470947265625	0.726348876953125	6.3629150390625E-06	4.62169600723428E-06	114153.4765625	8.29448254080489E-05
2	431	108.922007724998	0.736541748046875	0.73638916015625	6.5673828125E-06	4.83614940094412E-06	112128.2578125	8.35959217511117E-05
2	432	109.022715724744	0.746612548828125	0.7464599609375	6.62841796875E-06	4.94784853799501E-06	112615.1015625	8.42603840283118E-05
2	433	109.12342372449	0.756683349609375	0.75653076171875	6.573486328125E-06	4.97304472446558E-06	115088.2109375	8.49251518957317E-05
2	434	109.224131724236	0.766754150390625	0.7666015625	6.4422607421875E-06	4.93864718009718E-06	118995.734375	8.55805483297445E-05
2	435	109.324839723981	0.776824951171875	0.7769775390625	6.280517578125E-06	4.8798210627865E-06	123712.34375	8.62211891217157E-05
2	436	109.425547723727	0.786895751953125	0.787353515625	6.11572265625E-06	4.81523557027685E-06	128742.515625	8.68453862494789E-05
2	437	109.526255723473	0.796966552734375	0.79681396484375	5.9783935546875E-06	4.76366722068633E-06	133282.296875	8.74543766258284E-05
2	438	109.626963723219	0.807037353515625	0.80718994140625	5.877685546875E-06	4.74440867037629E-06	137331.265625	8.80513762240298E-05
2	439	109.727671722964	0.817108154296875	0.81695556640625	5.828857421875E-06	4.76191735288012E-06	140157.0625	8.86408452061005E-05
2	440	109.82837972271	0.827178955078125	0.82733154296875	5.8380126953125E-06	4.82997165818233E-06	141714.59375	8.92283205757849E-05
2	441	109.929087722456	0.837249755859375	0.8380126953125	5.9051513671875E-06	4.94859159516636E-06	141912.140625	8.98196376510896E-05
2	442	110.029795722201	0.847320556640625	0.84747314453125	6.024169921875E-06	5.10532208863879E-06	140678.828125	9.04203261598013E-05
2	443	110.130503721947	0.857391357421875	0.8575439453125	6.1737060546875E-06	5.29422413819702E-06	138902.625	9.10345406737179E-05
2	444	110.231211721693	0.867462158203125	0.86700439453125	6.33544921875E-06	5.49286232853774E-06	136849.71875	9.16644203243777E-05
2	445	110.331919721439	0.877532958984375	0.87738037109375	6.4788818359375E-06	5.68444329474005E-06	135421.578125	9.23096740734763E-05
2	446	110.432627721184	0.887603759765625	0.88775634765625	6.5765380859375E-06	5.83836344958399E-06	134988.40625	9.2967071395833E-05
2	447	110.53333572093	0.897674560546875	0.89752197265625	6.6192626953125E-06	5.94093353356584E-06	135592.4375	9.36315336730331E-05
2	448	110.634043720676	0.907745361328125	0.90728759765625	6.6070556640625E-06	5.99449958826881E-06	137321.015625	9.42975311772898E-05
2	449	110.734751720422	0.917816162109375	0.91796875	6.5521240234375E-06	6.01464489591308E-06	140102.46875	9.49601453612559E-05
2	450	110.835459720167	0.927886962890625	0.92803955078125	6.4666748046875E-06	6.00132989347912E-06	143511.09375	9.56156945903786E-05
2	451	110.936167719913	0.937957763671875	0.93841552734375	6.3751220703125E-06	5.98251335759414E-06	147199.625	9.62623307714239E-05
2	452	111.036875719659	0.948028564453125	0.94818115234375	6.28662109375E-06	5.96085556026082E-06	150825.25	9.68999011092819E-05
2	453	111.137583719405	0.958099365234375	0.95794677734375	6.219482421875E-06	5.95793289903668E-06	154023.5625	9.75296352407895E-05
2	454	111.23829171915	0.968170166015625	0.968017578125	6.1859130859375E-06	5.98807218921138E-06	156487.421875	9.81542907538824E-05
2	455	111.338999718896	0.978240966796875	0.9783935546875	6.195068359375E-06	6.06121466262266E-06	157931.03125	9.87777239060961E-05
2	456	111.439707718642	0.988311767578125	0.98846435546875	6.25E-06	6.17790192336543E-06	158154.296875	9.94043803075328E-05
2	457	111.540415718388	0.998382568359375	0.99822998046875	6.35986328125E-06	6.34860589343589E-06	156957.78125	0.000100039338576607
2	458	111.641123718133	1.00845336914063	1.00830078125	6.512451171875E-06	6.56650945529691E-06	154826.625	0.000100687509984709
2	459	111.741831717879	1.01852416992188	1.0186767578125	6.6986083984375E-06	6.8237163759477E-06	152072.90625	0.000101352743513416
2	460	111.842539717625	1.02859497070313	1.02935791015625	6.890869140625E-06	7.09317055225256E-06	149379.984375	0.000102037025499158
2	461	111.94324771737	1.03866577148438	1.0382080078125	7.061767578125E-06	7.33158367438591E-06	147018.15625	0.000102739599242341
2	462	112.043955717116	1.04873657226563	1.048583984375	7.1868896484375E-06	7.5360571827332E-06	145902.34375	0.000103457074146718
2	463	112.144663716862	1.05880737304688	1.0595703125	7.2509765625E-06	7.68291920394404E-06	146127.953125	0.000104184080555569
2	464	112.245371716608	1.06887817382813	1.0693359375	7.2540283203125E-06	7.75699299992993E-06	147412.703125	0.000104914463008754
2	465	112.346079716353	1.07894897460938	1.07879638671875	7.2021484375E-06	7.76965134718921E-06	149788.140625	0.000105642393464223
2	466	112.446787716099	1.08901977539063	1.08917236328125	7.110595703125E-06	7.7446638897527E-06	153175.96875	0.000106363091617823
2	467	112.547495715845	1.09909057617188	1.0992431640625	6.9976806640625E-06	7.69215239415644E-06	157086.796875	0.000107073501567356
2	468	112.648203715591	1.10916137695313	1.1090087890625	6.8756103515625E-06	7.6251121754467E-06	161296.046875	0.000107772080809809
2	469	112.748911715336	1.11923217773438	1.1187744140625	6.7535400390625E-06	7.55568771637627E-06	165657.484375	0.000108458363683894
2	470	112.849619715082	1.12930297851563	1.12945556640625	6.6314697265625E-06	7.48995034882682E-06	170317.53125	0.000109132350189611
2	471	112.950327714828	1.13937377929688	1.13922119140625	6.5216064453125E-06	7.42955216992414E-06	174684.140625	0.000109794658783358
2	472	113.051035714574	1.14944458007813	1.1492919921875	6.4208984375E-06	7.37948721507564E-06	178992.390625	0.00011044636630686
2	473	113.151743714319	1.15951538085938	1.1590576171875	6.329345703125E-06	7.33607612346532E-06	183124.40625	0.000111088389530778
2	474	113.252451714065	1.16958618164063	1.1700439453125	6.243896484375E-06	7.30563306206022E-06	187390.03125	0.000111721506982576
2	475	113.353159713811	1.17965698242188	1.17889404296875	6.170654296875E-06	7.27454744264833E-06	191048.46875	0.000112346628156956
2	476	113.453867713557	1.18972778320313	1.1895751953125	6.103515625E-06	7.26059033695492E-06	194900.015625	0.000112964684376493
2	477	113.554575713302	1.19979858398438	1.199951171875	6.04248046875E-06	7.2506813921791E-06	198585.859375	0.000113576279545669
2	478	113.655283713048	1.20986938476563	1.21002197265625	5.987548828125E-06	7.24506571714301E-06	202089.703125	0.000114182039396837
2	479	113.755991712794	1.21994018554688	1.21978759765625	5.9356689453125E-06	7.24025539966533E-06	205501.28125	0.000114782422315329
2	480	113.856699712539	1.23001098632813	1.23046875	5.8929443359375E-06	7.25108338883729E-06	208803.734375	0.000115378039481584
2	481	113.957407712285	1.24008178710938	1.2396240234375	5.8502197265625E-06	7.25207291907282E-06	211893.59375	0.000115969356556889
2	482	114.058115712031	1.25015258789063	1.25	5.8135986328125E-06	7.26699818187626E-06	215013.140625	0.000116556679131463
2	483	114.158823711777	1.26022338867188	1.2603759765625	5.7769775390625E-06	7.28116356185637E-06	218172.21875	0.00011714030551957
2	484	114.259531711522	1.27029418945313	1.27044677734375	5.7464599609375E-06	7.30057126929751E-06	221083.375	0.000117720555863343
2	485	114.360239711268	1.28036499023438	1.2811279296875	5.7159423828125E-06	7.32285343474359E-06	224132.40625	0.000118297735753004
2	486	114.460947711014	1.29043579101563	1.2908935546875	5.6884765625E-06	7.34321747586364E-06	226931.328125	0.000118871997983661
2	487	114.56165571076	1.30050659179688	1.30035400390625	5.6610107421875E-06	7.36131778467097E-06	229703.515625	0.000119443488074467
2	488	114.662363710505	1.31057739257813	1.3104248046875	5.6365966796875E-06	7.38633616492734E-06	232485.109375	0.000120012366096489
2	489	114.763071710251	1.32064819335938	1.32080078125	5.615234375E-06	7.41660596759175E-06	235217.390625	0.000120578937639948
2	490	114.863779709997	1.33071899414063	1.33056640625	5.5938720703125E-06	7.44301769373124E-06	237861.4375	0.000121143362775911
2	491	114.964487709743	1.34078979492188	1.34063720703125	5.5755615234375E-06	7.47480498830555E-06	240448.828125	0.000121705787023529
2	492	115.065195709488	1.35086059570313	1.3507080078125	5.5572509765625E-06	7.5062234827783E-06	243053.265625	0.000122266370453872
2	493	115.165903709234	1.36093139648438	1.36077880859375	5.5419921875E-06	7.54142502046307E-06	245539.65625	0.000122825265862048
2	494	115.26661170898	1.37100219726563	1.370849609375	5.5328369140625E-06	7.58468740968965E-06	247766.140625	0.000123382924357429
2	495	115.367319708726	1.38107299804688	1.3812255859375	5.523681640625E-06	7.62945001042681E-06	250055.25	0.000123939666082151
2	496	115.468027708471	1.39114379882813	1.39129638671875	5.5145263671875E-06	7.67233996157302E-06	252296.640625	0.000124495476484299
2	497	115.568735708217	1.40121459960938	1.40106201171875	5.5084228515625E-06	7.71764189266833E-06	254349.03125	0.000125050530186854
2	498	115.669443707963	1.41128540039063	1.4111328125	5.50537109375E-06	7.76881006459007E-06	256319.296875	0.000125605118228123
2	499	115.770151707708	1.42135620117188	1.4215087890625	5.50537109375E-06	7.82593360781902E-06	258204	0.000126159560750239
2	500	115.870859707454	1.43142700195313	1.4312744140625	5.5084228515625E-06	7.88406487117754E-06	259833.796875	0.000126714148791507
2	501	115.9715677072	1.44149780273438	1.4410400390625	5.511474609375E-06	7.94225525169168E-06	261461.796875	0.000127269042422995
2	502	116.072275706946	1.45156860351563	1.45172119140625	5.5206298828125E-06	8.01441547082504E-06	262962.96875	0.000127824547234923
2	503	116.172983706691	1.46163940429688	1.46148681640625	5.5328369140625E-06	8.08616823633201E-06	264147.8125	0.000128381143440492
2	504	116.273691706437	1.47171020507813	1.47186279296875	5.548095703125E-06	8.1660355135682E-06	265291.53125	0.000128939107526094
2	505	116.374399706183	1.48178100585938	1.48223876953125	5.572509765625E-06	8.25978986540576E-06	265991.25	0.000129499079775997
2	506	116.475107705929	1.49185180664063	1.4923095703125	5.5999755859375E-06	8.35689661471406E-06	266485.03125	0.000130061656818725
2	507	116.575815705674	1.50192260742188	1.50177001953125	5.6365966796875E-06	8.46487182570854E-06	266432.0625	0.000130627464386635
2	508	116.67652370542	1.49185180664063	1.49169921875	5.4443359375E-06	8.12131111160852E-06	273991.03125	0.000131185428472236
2	509	116.777231705166	1.48178100585938	1.48193359375	5.303955078125E-06	7.86010878073284E-06	279401.625	0.000131726643303409
2	510	116.877939704912	1.47171020507813	1.47186279296875	5.1910400390625E-06	7.64049855206395E-06	283539.125	0.000132255110656843
2	511	116.978647704657	1.46163940429688	1.4617919921875	5.0994873046875E-06	7.45438956073485E-06	286654.6875	0.000132773275254294
2	512	117.079355704403	1.45156860351563	1.451416015625	5.0201416015625E-06	7.28631403035251E-06	289118.53125	0.000133282839669846
2	513	117.180063704149	1.44149780273438	1.441650390625	4.9468994140625E-06	7.13169947630377E-06	291425.03125	0.000133784720674157
2	514	117.280771703895	1.43142700195313	1.4312744140625	4.88525390625E-06	6.99213887855876E-06	292978.5	0.000134279820485972
2	515	117.38147970364	1.42135620117188	1.42120361328125	4.83123779296875E-06	6.86617249812116E-06	294169.6875	0.00013476908497978
2	516	117.482187703386	1.41128540039063	1.41143798828125	4.78118896484375E-06	6.74835109748528E-06	295206.5	0.000135253096232191
2	517	117.582895703132	1.40121459960938	1.40106201171875	4.736328125E-06	6.6358888943796E-06	295811.875	0.000135732349008322
2	518	117.683603702877	1.39114379882813	1.39129638671875	4.69512939453125E-06	6.53231609248905E-06	296327.625	0.000136207265313715
2	519	117.784311702623	1.38107299804688	1.38092041015625	4.6575927734375E-06	6.43176508674514E-06	296488	0.00013667820894625
2	520	117.885019702369	1.37100219726563	1.37054443359375	4.62127685546875E-06	6.33366516922251E-06	296572.6875	0.000137145427288488
2	521	117.985727702115	1.36093139648438	1.361083984375	4.58770751953125E-06	6.24425501882797E-06	296680.65625	0.000137609138619155
2	522	118.08643570186	1.35086059570313	1.3507080078125	4.55596923828125E-06	6.15378394286381E-06	296469.96875	0.00013806956121698
2	523	118.187143701606	1.34078979492188	1.3409423828125	4.525146484375E-06	6.06796038482571E-06	296331.28125	0.000138526840601116
2	524	118.287851701352	1.33071899414063	1.33087158203125	4.4964599609375E-06	5.984210929455E-06	295982.09375	0.0001389811077388
2	525	118.388559701098	1.32064819335938	1.32080078125	4.4683837890625E-06	5.90184481552569E-06	295588.03125	0.0001394325227011
2	526	118.489267700843	1.31057739257813	1.31072998046875	4.44091796875E-06	5.82084430789109E-06	295148.4375	0.000139881143695675
2	527	118.589975700589	1.30050659179688	1.3006591796875	4.4146728515625E-06	5.74198475078447E-06	294621.875	0.000140327058034018
2	528	118.690683700335	1.29043579101563	1.290283203125	4.3896484375E-06	5.66388962397468E-06	293937.71875	0.000140770396683365
2	529	118.791391700081	1.28036499023438	1.28082275390625	4.3646240234375E-06	5.5903092288645E-06	293455.46875	0.000141211203299463
2	530	118.892099699826	1.27029418945313	1.27044677734375	4.3414306640625E-06	5.51555649508373E-06	292633.21875	0.000141649594297633
2	531	118.992807699572	1.26022338867188	1.2603759765625	4.31793212890625E-06	5.44221802556422E-06	291893.4375	0.000142085627885535
2	532	119.093515699318	1.25015258789063	1.25	4.295654296875E-06	5.36956758878659E-06	290991.78125	0.000142519347718917
2	533	119.194223699064	1.24008178710938	1.23992919921875	4.273681640625E-06	5.29906265001046E-06	290131.40625	0.000142950855661184
2	534	119.294931698809	1.23001098632813	1.22955322265625	4.25262451171875E-06	5.22882828590809E-06	289128.09375	0.000143380180816166
2	535	119.395639698555	1.21994018554688	1.21978759765625	4.2315673828125E-06	5.16161344421562E-06	288259.0625	0.00014380739594344
2	536	119.496347698301	1.20986938476563	1.209716796875	4.2095947265625E-06	5.09241726831533E-06	287371.34375	0.000144232442835346
2	537	119.597055698046	1.19979858398438	1.199951171875	4.18914794921875E-06	5.02677312397282E-06	286442.78125	0.000144655350595713
2	538	119.697763697792	1.18972778320313	1.18988037109375	4.16656494140625E-06	4.95771382702515E-06	285578.28125	0.00014507609012071
2	539	119.798471697538	1.17965698242188	1.1798095703125	4.14306640625E-06	4.88802925247001E-06	284767.25	0.000145494515891187
2	540	119.899179697284	1.16958618164063	1.16943359375	4.11865234375E-06	4.81649021821795E-06	283936	0.000145910526043735
2	541	119.999887697029	1.15951538085938	1.15936279296875	4.091796875E-06	4.74387661597575E-06	283338.3125	0.000146323960507289
2	542	120.100595696775	1.14944458007813	1.14990234375	4.06005859375E-06	4.6686709538335E-06	283223.09375	0.00014673444093205
2	543	120.201303696521	1.13937377929688	1.138916015625	4.0240478515625E-06	4.58305248685065E-06	283027.4375	0.000147141501656733
2	544	120.302011696267	1.12930297851563	1.1297607421875	3.97857666015625E-06	4.49483923148364E-06	283961.0625	0.000147544473293237
2	545	120.402719696012	1.11923217773438	1.1187744140625	3.92333984375E-06	4.38933193436242E-06	285158.6875	0.000147942366311327
2	546	120.503427695758	1.10916137695313	1.1090087890625	3.8519287109375E-06	4.2718229451566E-06	287910	0.000148333871038631
2	547	120.604135695504	1.09909057617188	1.09893798828125	3.759765625E-06	4.1317493923998E-06	292288.96875	0.000148717153933831
2	548	120.70484369525	1.08901977539063	1.08917236328125	3.638916015625E-06	3.96340647057514E-06	299312.3125	0.000149089712067507
2	549	120.805551694995	1.07894897460938	1.0791015625	3.48388671875E-06	3.75946729036514E-06	309740.71875	0.000149448373122141
2	550	120.906259694741	1.06887817382813	1.06903076171875	3.28887939453125E-06	3.51591302205634E-06	325044.09375	0.000149789411807433
2	551	121.006967694487	1.05880737304688	1.0589599609375	3.0523681640625E-06	3.23233552990132E-06	346930.625	0.000150108709931374
2	552	121.107675694233	1.04873657226563	1.04888916015625	2.7813720703125E-06	2.91735091195733E-06	377112.15625	0.000150402469444089
2	553	121.208383693978	1.03866577148438	1.038818359375	2.4932861328125E-06	2.59007128988742E-06	416646.28125	0.000150668071000837
2	554	121.309091693724	1.02859497070313	1.0284423828125	2.2088623046875E-06	2.27168766286923E-06	465598.25	0.000150904845213518
2	555	121.40979969347	1.01852416992188	1.01806640625	1.95709228515625E-06	1.99244982468372E-06	520193.34375	0.000151114611071534
2	556	121.510507693215	1.00845336914063	1.00921630859375	1.7584228515625E-06	1.77462902684056E-06	573932.6875	0.000151301705045626
2	557	121.611215692961	0.998382568359375	0.99853515625	1.6290283203125E-06	1.62664196068363E-06	612963.6875	0.000151472268044017
2	558	121.711923692707	0.988311767578125	0.9881591796875	1.566162109375E-06	1.54761744397547E-06	630943.125	0.000151633168570697
2	559	121.812631692453	0.978240966796875	0.9783935546875	1.55548095703125E-06	1.52187249113922E-06	628997.4375	0.000151790358358994
2	560	121.913339692198	0.968170166015625	0.96832275390625	1.57684326171875E-06	1.52689324295352E-06	614089.4375	0.000151948072016239
2	561	122.014047691944	0.958099365234375	0.95794677734375	1.6070556640625E-06	1.53947382841579E-06	596088.125	0.000152108405018225
2	562	122.11475569169	0.948028564453125	0.94818115234375	1.629638671875E-06	1.5451926174137E-06	581835.25	0.000152271386468783
2	563	122.215463691436	0.937957763671875	0.9381103515625	1.632080078125E-06	1.53107123423979E-06	574794.3125	0.00015243561938405
2	564	122.316171691181	0.927886962890625	0.92803955078125	1.60308837890625E-06	1.48772937791364E-06	578907.3125	0.000152598528075032
2	565	122.416879690927	0.917816162109375	0.91766357421875	1.5362548828125E-06	1.40976521834091E-06	597338.125	0.000152756605530158
2	566	122.517587690673	0.907745361328125	0.90789794921875	1.42364501953125E-06	1.29252441638528E-06	637727.75	0.000152905646245927
2	567	122.618295690419	0.897674560546875	0.89813232421875	1.26220703125E-06	1.13362887077528E-06	711557.0625	0.000153040891746059
2	568	122.719003690164	0.887603759765625	0.88775634765625	1.05804443359375E-06	9.39285655476851E-07	839053.9375	0.000153157729073428
2	569	122.81971168991	0.877532958984375	0.8782958984375	8.221435546875E-07	7.22085303550557E-07	1068300	0.000153252403833903
2	570	122.920419689656	0.867462158203125	0.86761474609375	5.76171875000001E-07	4.99895236316661E-07	1505826.25	0.000153322805999778
2	571	123.021127689402	0.857391357421875	0.8575439453125	3.436279296875E-07	2.94676056000753E-07	2495559.5	0.00015336912474595
2	572	123.121835689147	0.847320556640625	0.84686279296875	1.51977539062501E-07	1.28704115809342E-07	5572289.5	0.000153394081280567
2	573	123.222543688893	0.837249755859375	0.83740234375	1.220703125E-08	1.02221964226601E-08	68600000	0.000153402346768416
2	574	123.323251688639	0.827178955078125	0.82733154296875	-7.04956054687497E-08	-5.83232342421525E-08	-11735931	0.00015339940728154
2	575	123.423959688384	0.817108154296875	0.8172607421875	-1.0498046875E-07	-8.57964153055946E-08	-7784884	0.000153390574268997
2	576	123.52466768813	0.807037353515625	0.8074951171875	-1.06201171875001E-07	-8.5756923340341E-08	-7603448.5	0.000153379936818965
2	577	123.625375687876	0.796966552734375	0.79742431640625	-9.52148437499995E-08	-7.59266285399463E-08	-8375000	0.000153369794134051
2	578	123.726083687622	0.786895751953125	0.787353515625	-9.21630859374994E-08	-7.25649300648001E-08	-8543047	0.000153360364492983
2	579	123.826791687367	0.776824951171875	0.77667236328125	-1.16882324218751E-07	-9.07792667703688E-08	-6644909	0.000153349843458273
2	580	123.927499687113	0.766754150390625	0.7666015625	-1.873779296875E-07	-1.43644200534254E-07	-4091205.5	0.000153334520291537
2	581	124.028207686859	0.756683349609375	0.75714111328125	-3.2073974609375E-07	-2.42845231923638E-07	-2360609	0.000153308938024566
2	582	124.128915686605	0.746612548828125	0.74652099609375	-5.316162109375E-07	-3.96862645857254E-07	-1404248	0.000153266009874642
2	583	124.22962368635	0.736541748046875	0.736480712890625	-8.30078125E-07	-6.11336474776181E-07	-887242.6875	0.000153197441250086
2	584	124.330331686096	0.726470947265625	0.72637939453125	-1.21490478515625E-06	-8.82481742792152E-07	-597890	0.00015309447189793
2	585	124.431039685842	0.716400146484375	0.716339111328125	-1.6766357421875E-06	-1.20103970857599E-06	-427247.90625	0.000152948865434155
2	586	124.531747685588	0.706329345703125	0.706268310546875	-2.18658447265625E-06	-1.54431529608701E-06	-323000.71875	0.000152754349983297
2	587	124.632455685333	0.696258544921875	0.69622802734375	-2.7056884765625E-06	-1.88377600807144E-06	-257320.109375	0.000152508000610396
2	588	124.733163685079	0.686187744140625	0.686187744140625	-3.182373046875E-06	-2.18370519178279E-06	-215621.421875	0.000152211505337618
2	589	124.833871684825	0.676116943359375	0.676025390625	-3.57147216796875E-06	-2.41440579884511E-06	-189284.8125	0.000151871427078731
2	590	124.934579684571	0.666046142578125	0.666015625	-3.83514404296875E-06	-2.55426584772067E-06	-173661.171875	0.000151498476043344
2	591	125.035287684316	0.655975341796875	0.65594482421875	-3.95904541015625E-06	-2.59691546489194E-06	-165682.5625	0.000151106010889634
2	592	125.135995684062	0.645904541015625	0.6458740234375	-3.95172119140625E-06	-2.55231407209067E-06	-163441.1875	0.000150707666762173
2	593	125.236703683808	0.635833740234375	0.63580322265625	-3.84185791015625E-06	-2.4426656182186E-06	-165493.6875	0.000150315230712295
2	594	125.337411683553	0.625762939453125	0.625762939453125	-3.6651611328125E-06	-2.29352190217469E-06	-170732.71875	0.000149937215610407
2	595	125.438119683299	0.615692138671875	0.61566162109375	-3.455810546875E-06	-2.12760983231419E-06	-178152.609375	0.00014957865641918
2	596	125.538827683045	0.605621337890625	0.605560302734375	-3.2366943359375E-06	-1.96001360563969E-06	-187092.21875	0.000149241663166322
2	597	125.639535682791	0.595550537109375	0.59552001953125	-3.0224609375E-06	-1.79993594429106E-06	-197031.515625	0.000148926483234391
2	598	125.740243682536	0.585479736328125	0.585418701171875	-2.82073974609375E-06	-1.65131370977178E-06	-207540.859375	0.000148632258060388
2	599	125.840951682282	0.575408935546875	0.57537841796875	-2.63519287109375E-06	-1.51623316924088E-06	-218343.953125	0.000148357532452792
2	600	125.941659682028	0.565338134765625	0.5653076171875	-2.46795654296875E-06	-1.39515452701744E-06	-229059	0.000148100560181774
2	601	126.042367681774	0.555267333984375	0.555267333984375	-2.31689453125E-06	-1.28649583075457E-06	-239660.171875	0.000147859624121338
2	602	126.143075681519	0.545196533203125	0.545135498046875	-2.181396484375E-06	-1.18915659186314E-06	-249902.078125	0.000147633123560809
2	603	126.243783681265	0.535125732421875	0.535125732421875	-2.05963134765625E-06	-1.10216171833599E-06	-259816.28125	0.000147419574204832
2	604	126.344491681011	0.525054931640625	0.524993896484375	-1.9500732421875E-06	-1.02377657640318E-06	-269217.53125	0.000147217666381039
2	605	126.445199680757	0.514984130859375	0.514984130859375	-1.8511962890625E-06	-9.53336666498217E-07	-278189.9375	0.000147026250488125
2	606	126.545907680502	0.504913330078125	0.5048828125	-1.76177978515625E-06	-8.89492298483674E-07	-286575.46875	0.00014684432244394
2	607	126.646615680248	0.494842529296875	0.494842529296875	-1.6802978515625E-06	-8.31482850571774E-07	-294496.90625	0.00014667100913357
2	608	126.747323679994	0.484771728515625	0.484771728515625	-1.60614013671875E-06	-7.78611308760446E-07	-301824.0625	0.000146505524753593
2	609	126.84803167974	0.474700927734375	0.474700927734375	-1.53778076171875E-06	-7.29985913494602E-07	-308692.21875	0.000146347214467824
2	610	126.948739679485	0.464630126953125	0.464630126953125	-1.47552490234375E-06	-6.8557329768737E-07	-314891.4375	0.000146195481647737
2	611	127.049447679231	0.454559326171875	0.454559326171875	-1.417236328125E-06	-6.44217948320147E-07	-320736.4375	0.000146049816976301
2	612	127.150155678977	0.444488525390625	0.44451904296875	-1.363525390625E-06	-6.06113019330223E-07	-326007.15625	0.000145909798447974
2	613	127.250863678722	0.434417724609375	0.4344482421875	-1.31439208984375E-06	-5.71035343455151E-07	-330531.6875	0.000145774945849553
2	614	127.351571678468	0.424346923828125	0.42437744140625	-1.2689208984375E-06	-5.38501410574099E-07	-334439.65625	0.000145644866279326
2	615	127.452279678214	0.414276123046875	0.414276123046875	-1.2261962890625E-06	-5.07983827446878E-07	-337854.6875	0.000145519225043245
2	616	127.55298767796	0.404205322265625	0.404205322265625	-1.18621826171875E-06	-4.79475716019806E-07	-340751.21875	0.000145397760206833
2	617	127.653695677705	0.394134521484375	0.394195556640625	-1.14837646484375E-06	-4.52684901119937E-07	-343263.375	0.000145280195283704
2	618	127.754403677451	0.384063720703125	0.384124755859375	-1.1138916015625E-06	-4.27873345643093E-07	-344849.3125	0.000145166282891296
2	619	127.855111677197	0.373992919921875	0.374053955078125	-1.08062744140625E-06	-4.04212954663308E-07	-346145.1875	0.000145055775647052
2	620	127.955819676943	0.363922119140625	0.363983154296875	-1.0498046875E-06	-3.82111181806977E-07	-346715.15625	0.000144948498927988
2	621	128.056527676688	0.353851318359375	0.353790283203125	-1.02081298828125E-06	-3.61153723815733E-07	-346576.96875	0.000144844249007292
2	622	128.157235676434	0.343780517578125	0.34381103515625	-9.9334716796875E-07	-3.41523701763435E-07	-346113.6875	0.00014474282215815
2	623	128.25794367618	0.333709716796875	0.333740234375	-9.674072265625E-07	-3.22862717894168E-07	-344984.21875	0.000144644087413326
2	624	128.358651675926	0.323638916015625	0.32366943359375	-9.4268798828125E-07	-3.05119272070442E-07	-343347.375	0.000144547913805582
2	625	128.459359675671	0.313568115234375	0.313568115234375	-9.2041015625E-07	-2.88611261112237E-07	-340683.03125	0.000144454097608104
2	626	128.560067675417	0.303497314453125	0.303497314453125	-8.990478515625E-07	-2.72858613925564E-07	-337576.375	0.000144362478749827
2	627	128.660775675163	0.293426513671875	0.29345703125	-8.7921142578125E-07	-2.58010771858608E-07	-333773	0.000144272940815426
2	628	128.761483674909	0.283355712890625	0.28338623046875	-8.6029052734375E-07	-2.43794488596905E-07	-329407.59375	0.000144185338285752
2	629	128.862191674654	0.273284912109375	0.2733154296875	-8.43505859375E-07	-2.30543165002928E-07	-324023.15625	0.00014409955474548
2	630	128.9628996744	0.263214111328125	0.26324462890625	-8.2733154296875E-07	-2.17790585566036E-07	-318185.1875	0.00014401541557163
2	631	129.063607674146	0.253143310546875	0.253204345703125	-8.1298828125E-07	-2.05852160206632E-07	-311448.9375	0.000143932818900794
2	632	129.164315673891	0.243072509765625	0.24310302734375	-8.00170898437499E-07	-1.94523963159554E-07	-303813.875	0.000143851590109989
2	633	129.265023673637	0.233001708984375	0.2330322265625	-7.8887939453125E-07	-1.83834316658249E-07	-295396.53125	0.000143771583680063
2	634	129.365731673383	0.222930908203125	0.222930908203125	-7.7972412109375E-07	-1.73824602711647E-07	-285910	0.000143692595884204
2	635	129.466439673129	0.212860107421875	0.212921142578125	-7.72705078124999E-07	-1.64525246759695E-07	-275552.9375	0.000143614422995597
2	636	129.567147672874	0.202789306640625	0.20281982421875	-7.67822265625E-07	-1.55729580342268E-07	-264149.4375	0.000143536846735515
2	637	129.66785567262	0.192718505859375	0.1927490234375	-7.647705078125E-07	-1.47408769635149E-07	-252035.109375	0.000143459677929059
2	638	129.768563672366	0.182647705078125	0.182708740234375	-7.647705078125E-07	-1.39730261139448E-07	-238906.625	0.000143382654641755
2	639	129.869271672112	0.172576904296875	0.172607421875	-7.69653320312499E-07	-1.32847873146602E-07	-224266.46875	0.000143305398523808
2	640	129.969979671857	0.162506103515625	0.16253662109375	-7.7880859375E-07	-1.26584907889082E-07	-208699.0625	0.000143227429362014
2	641	130.070687671603	0.152435302734375	0.152496337890625	-7.940673828125E-07	-1.21092369909093E-07	-192044.578125	0.000143148223287426
2	642	130.171395671349	0.142364501953125	0.142425537109375	-8.16650390625E-07	-1.16311866804608E-07	-174402.09375	0.000143067110911943
2	643	130.272103671095	0.132293701171875	0.132293701171875	-8.50830078125001E-07	-1.1255946219535E-07	-155487.8125	0.000142983146361075
2	644	130.37281167084	0.122222900390625	0.12225341796875	-8.98132324218751E-07	-1.09799749736794E-07	-136119.609375	0.000142895078170113
2	645	130.473519670586	0.112152099609375	0.112213134765625	-9.65270996093751E-07	-1.08316079661108E-07	-116250.3984375	0.000142801247420721
2	646	130.574227670332	0.102081298828125	0.10211181640625	-1.05712890625E-06	-1.07945353988725E-07	-96593.5390625	0.000142699413117953
2	647	130.674935670078	0.092010498046875	0.09210205078125	-1.17889404296875E-06	-1.08578554147698E-07	-78125.8125	0.000142586824949831
2	648	130.775643669823	0.081939697265625	0.08203125	-1.3385009765625E-06	-1.09798904190939E-07	-61285.91015625	0.000142460063216276
2	649	130.876351669569	0.071868896484375	0.071929931640625	-1.54052734375E-06	-1.1081002071478E-07	-46691.76171875	0.000142315097036771
2	650	130.977059669315	0.061798095703125	0.061859130859375	-1.78009033203125E-06	-1.10114839912967E-07	-34750.55859375	0.000142147880978882
2	651	131.07776766906	0.051727294921875	0.051788330078125	-2.05108642578125E-06	-1.06222337592499E-07	-25249.220703125	0.0001419549662387
2	652	131.178475668806	0.041656494140625	0.041766357421875	-2.3321533203125E-06	-9.74055467395374E-08	-17908.923828125	0.000141734257340431
2	653	131.279183668552	0.031585693359375	0.031671142578125	-2.59857177734375E-06	-8.22997350269361E-08	-12187.9052734375	0.000141485972562805
2	654	131.379891668298	0.021514892578125	0.0215972900390625	-2.8204345703125E-06	-6.09137416063277E-08	-7657.43408203125	0.000141213109600358
2	655	131.480599668043	0.011444091796875	0.0115264892578125	-2.9791259765625E-06	-3.43388641965703E-08	-3869.08447265625	0.000140921081765555
2	656	131.581307667789	0.001373291015625	0.0014984130859375	-3.06610107421875E-06	-4.59428584065336E-09	-488.703094482422	0.000140616670250893
2	657	131.682015667535	-0.008697509765625	-0.00861206054687499	-3.0859375E-06	2.65762807316605E-08	2790.74389648438	0.000140306903631426
2	658	131.782723667281	-0.018768310546875	-0.018634033203125	-3.05511474609375E-06	5.69291032093133E-08	6099.291015625	0.000139997675432824
2	659	131.883431667026	-0.028839111328125	-0.02872314453125	-2.99102783203125E-06	8.59117221807537E-08	9603.1025390625	0.000139693220262416
2	660	131.984139666772	-0.038909912109375	-0.038763427734375	-2.90771484375E-06	1.12712989164265E-07	13331.2333984375	0.00013939620112069
2	661	132.084847666518	-0.048980712890625	-0.04886474609375	-2.81829833984375E-06	1.37715431947072E-07	17338.38671875	0.000139107869472355
2	662	132.185555666264	-0.059051513671875	-0.059051513671875	-2.72979736328125E-06	1.61198656201123E-07	21632.197265625	0.0001388285018038
2	663	132.286263666009	-0.069122314453125	-0.06903076171875	-2.646484375E-06	1.82688822292221E-07	26083.94921875	0.000138557777972892
2	664	132.386971665755	-0.079193115234375	-0.07916259765625	-2.57049560546875E-06	2.034871044998E-07	30796.62890625	0.000138295086799189
2	665	132.487679665501	-0.089263916015625	-0.0892333984375	-2.5018310546875E-06	2.23246885866502E-07	35667.23828125	0.000138039671583101
2	666	132.588387665247	-0.099334716796875	-0.0992431640625	-2.44140625E-06	2.42292884422568E-07	40650	0.00013779076107312
2	667	132.689095664992	-0.109405517578125	-0.109344482421875	-2.3876953125E-06	2.61081311236921E-07	45794.98828125	0.000137547598569654
2	668	132.789803664738	-0.119476318359375	-0.119384765625	-2.34130859375E-06	2.79516569889893E-07	50990.6171875	0.000137309471028857
2	669	132.890511664484	-0.129547119140625	-0.12945556640625	-2.301025390625E-06	2.97880518473903E-07	56259.94921875	0.000137075709062628
2	670	132.991219664229	-0.139617919921875	-0.13946533203125	-2.266845703125E-06	3.16146383738669E-07	61523.9609375	0.000136845701490529
2	671	133.091927663975	-0.149688720703125	-0.1495361328125	-2.23724365234375E-06	3.3454873005212E-07	66839.453125	0.000136618909891695
2	672	133.192635663721	-0.159759521484375	-0.15966796875	-2.21282958984375E-06	3.53318000634317E-07	72155.5703125	0.000136394824949093
2	673	133.293343663467	-0.169830322265625	-0.169677734375	-2.19329833984375E-06	3.7215389170342E-07	77361.90625	0.000136172966449521
2	674	133.394051663212	-0.179901123046875	-0.17974853515625	-2.17864990234375E-06	3.9160909182101E-07	82504.5546875	0.000135952810524032
2	675	133.494759662958	-0.189971923828125	-0.1898193359375	-2.16766357421875E-06	4.11464441185672E-07	87568.6328125	0.000135733964270912
2	676	133.595467662704	-0.200042724609375	-0.1998291015625	-2.161865234375E-06	4.32003588457519E-07	92433.6484375	0.000135515947476961
2	677	133.69617566245	-0.189971923828125	-0.18988037109375	-1.9287109375E-06	3.66224327308373E-07	98449.375	0.000135309979668818
