Potential,Current,Normalized_Potential,Normalized_Current
-0.204925537109375,8.89282226562499e-07,-0.196380615234375,0.1371810563977025
-0.19989013671875,1.11907958984375e-06,-0.19134521484375,0.17262969588550986
-0.194854736328125,1.124267578125e-06,-0.186309814453125,0.1734299971754072
-0.1898193359375,1.12213134765625e-06,-0.1812744140625,0.17310046135015533
-0.184783935546875,1.12060546875e-06,-0.176239013671875,0.17286507861783262
-0.17974853515625,1.12030029296875e-06,-0.17120361328125,0.17281800207136805
-0.174713134765625,1.123046875e-06,-0.166168212890625,0.173241690989549
-0.169677734375,1.12762451171875e-06,-0.1611328125,0.17394783918651727
-0.164642333984375,1.13555908203125e-06,-0.156097412109375,0.1751718293945956
-0.15960693359375,1.146240234375e-06,-0.15106201171875,0.17681950852085493
-0.154571533203125,1.162109375e-06,-0.146026611328125,0.17926748893701158
-0.1495361328125,1.18133544921875e-06,-0.1409912109375,0.18223331136427834
-0.144500732421875,1.20697021484375e-06,-0.135955810546875,0.18618774126730064
-0.13946533203125,1.2384033203125e-06,-0.13092041015625,0.1910366255531494
-0.134429931640625,1.278076171875e-06,-0.125885009765625,0.1971565765935411
-0.12939453125,1.32598876953125e-06,-0.120849609375,0.20454759438847567
-0.124359130859375,1.38641357421875e-06,-0.115814208984375,0.21386875058845684
-0.11932373046875,1.4581298828125e-06,-0.11077880859375,0.22493173900762642
-0.114288330078125,1.54388427734375e-06,-0.105743408203125,0.23816024856416534
-0.1092529296875,1.64520263671875e-06,-0.1007080078125,0.2537896619903964
-0.104217529296875,1.7657470703125e-06,-0.095672607421875,0.2723848978438942
-0.09918212890625,1.90460205078125e-06,-0.09063720703125,0.29380472648526507
-0.094146728515625,2.0697021484375e-06,-0.085601806640625,0.31927313812258734
-0.089111328125,2.257080078125e-06,-0.08056640625,0.3481781376518219
-0.084075927734375,2.47222900390625e-06,-0.075531005859375,0.38136710290933057
-0.07904052734375,2.71240234375e-06,-0.07049560546875,0.4184163449769325
-0.074005126953125,2.97576904296875e-06,-0.065460205078125,0.4590434045758403
-0.0689697265625,3.2666015625e-06,-0.0604248046875,0.5039073533565578
-0.063934326171875,3.5797119140625e-06,-0.055389404296875,0.5522078900291875
-0.05889892578125,3.90960693359375e-06,-0.05035400390625,0.6030976367573675
-0.053863525390625,4.251708984375e-06,-0.045318603515625,0.6558704453441295
-0.048828125,4.59716796875e-06,-0.040283203125,0.7091610959420017
-0.043792724609375,4.94720458984375e-06,-0.035247802734375,0.7631578947368421
-0.03875732421875,5.28045654296875e-06,-0.03021240234375,0.8145654834761321
-0.033721923828125,5.59326171875e-06,-0.025177001953125,0.8628189436022974
-0.0286865234375,5.87127685546875e-06,-0.0201416015625,0.9057056774315037
-0.023651123046875,6.107177734375e-06,-0.015106201171875,0.9420958478486018
-0.01861572265625,6.29241943359375e-06,-0.01007080078125,0.9706713115525846
-0.013580322265625,6.4178466796875e-06,-0.005035400390625,0.9900197721495151
-0.008544921875,6.4825439453125e-06,0.0,1.0
-0.003509521484375,6.4801025390625e-06,0.005035400390625,0.9996233876282836
0.00152587890625,6.40869140625e-06,0.01007080078125,0.9886074757555785
0.006561279296875,6.26373291015625e-06,0.015106201171875,0.9662461161849166
0.0115966796875,6.06231689453125e-06,0.0201416015625,0.9351755955183128
0.016632080078125,5.80352783203125e-06,0.025177001953125,0.8952546841163732
0.02166748046875,5.49774169921875e-06,0.03021240234375,0.8480839845588928
0.026702880859375,5.15777587890625e-06,0.035247802734375,0.7956407117973825
0.03173828125,4.79736328125e-06,0.040283203125,0.7400433104227474
0.036773681640625,4.42626953125e-06,0.045318603515625,0.6827982299218529
0.04180908203125,4.0533447265625e-06,0.05035400390625,0.6252706901421712
0.046844482421875,3.6895751953125e-06,0.055389404296875,0.5691554467564259
0.0518798828125,3.345947265625e-06,0.0604248046875,0.5161472554373411
0.056915283203125,3.02032470703125e-06,0.065460205078125,0.4659165803596648
0.06195068359375,2.72125244140625e-06,0.07049560546875,0.4197815648244045
0.066986083984375,2.45361328125e-06,0.075531005859375,0.37849543357499293
0.072021484375,2.21343994140625e-06,0.08056640625,0.34144619150739103
0.077056884765625,2.000732421875e-06,0.085601806640625,0.3086338386215987
0.08209228515625,1.81488037109375e-06,0.09063720703125,0.27996422182468694
0.087127685546875,1.65374755859375e-06,0.095672607421875,0.2551078052914038
0.0921630859375,1.51580810546875e-06,0.1007080078125,0.2338292062894266
0.097198486328125,1.39617919921875e-06,0.105743408203125,0.21537520007532246
0.10223388671875,1.29486083984375e-06,0.11077880859375,0.19974578664909143
0.107269287109375,1.207275390625e-06,0.115814208984375,0.18623481781376516
0.1123046875,1.1346435546875e-06,0.120849609375,0.17503059975520194
0.117340087890625,1.0711669921875e-06,0.125885009765625,0.16523867809057527
0.12237548828125,1.01806640625e-06,0.13092041015625,0.15704735900574335
0.127410888671875,9.722900390625e-07,0.135955810546875,0.14998587703606064
0.1324462890625,9.33227539062499e-07,0.1409912109375,0.14396007908859793
0.137481689453125,8.99353027343749e-07,0.146026611328125,0.1387345824310327
0.14251708984375,8.709716796875e-07,0.15106201171875,0.13435646360982959
0.147552490234375,8.45947265624999e-07,0.156097412109375,0.1304961867997362
0.152587890625,8.23974609375e-07,0.1611328125,0.12710667545428866
0.157623291015625,8.0535888671875e-07,0.166168212890625,0.12423500611995104
0.16265869140625,7.8857421875e-07,0.17120361328125,0.12164579606440071
0.167694091796875,7.74230957031251e-07,0.176239013671875,0.11943319838056696
0.1727294921875,7.611083984375e-07,0.1812744140625,0.11740890688259109
0.177764892578125,7.4951171875e-07,0.186309814453125,0.11561999811693814
0.18280029296875,7.38830566406251e-07,0.19134521484375,0.113972318990679
0.187835693359375,7.293701171875e-07,0.196380615234375,0.11251294605027776
0.19287109375,7.2021484375e-07,0.201416015625,0.11110064965634121
0.197906494140625,7.11975097656251e-07,0.206451416015625,0.10982958290179848
0.20294189453125,7.05261230468751e-07,0.21148681640625,0.10879389887957835
0.207977294921875,6.976318359375e-07,0.216522216796875,0.10761698521796441
0.2130126953125,6.9122314453125e-07,0.2215576171875,0.10662837774220883
0.218048095703125,6.854248046875e-07,0.226593017578125,0.10573392335938236
0.22308349609375,6.7962646484375e-07,0.23162841796875,0.10483946897655588
0.228118896484375,6.7413330078125e-07,0.236663818359375,0.10399209114019395
0.233154296875,6.69250488281251e-07,0.24169921875,0.10323886639676129
0.238189697265625,6.646728515625e-07,0.246734619140625,0.10253271819979287
0.24322509765625,6.6070556640625e-07,0.25177001953125,0.10192072309575369
0.248260498046875,6.561279296875e-07,0.256805419921875,0.10121457489878542
0.2532958984375,6.52770996093749e-07,0.2618408203125,0.10069673288767521
0.258331298828125,6.488037109375e-07,0.266876220703125,0.1000847377836362
0.26336669921875,6.46362304687499e-07,0.27191162109375,0.09970812541191962
0.268402099609375,6.4361572265625e-07,0.276947021484375,0.09928443649373883
0.2734375,6.4117431640625e-07,0.281982421875,0.09890782412202241
0.278472900390625,6.38732910156249e-07,0.287017822265625,0.09853121175030584
0.28350830078125,6.3751220703125e-07,0.29205322265625,0.09834290556444779
0.288543701171875,6.35681152343749e-07,0.297088623046875,0.09806044628566032
0.2935791015625,6.3446044921875e-07,0.3021240234375,0.09787214009980227
0.298614501953125,6.3323974609375e-07,0.307159423828125,0.09768383391394408
0.30364990234375,6.33544921875001e-07,0.31219482421875,0.09773091046040877
0.308685302734375,6.33544921875e-07,0.317230224609375,0.09773091046040863
0.313720703125,6.329345703125e-07,0.322265625,0.09763675736747952
0.318756103515625,6.33544921875001e-07,0.327301025390625,0.09773091046040877
0.32379150390625,6.34155273437499e-07,0.33233642578125,0.09782506355333757
0.328826904296875,6.3629150390625e-07,0.337371826171875,0.09815459937858959
0.3338623046875,6.37207031249999e-07,0.3424072265625,0.09829582901798309
0.338897705078125,6.38732910156251e-07,0.347442626953125,0.09853121175030614
0.34393310546875,6.4056396484375e-07,0.35247802734375,0.09881367102909332
0.348968505859375,6.427001953125e-07,0.357513427734375,0.09914320685434516
0.35400390625,6.44531250000001e-07,0.362548828125,0.09942566613313263
0.359039306640625,6.4666748046875e-07,0.367584228515625,0.09975520195838433
0.36407470703125,6.4849853515625e-07,0.37261962890625,0.10003766123717164
0.369110107421875,6.5093994140625e-07,0.377655029296875,0.10041427360888805
0.3741455078125,6.5155029296875e-07,0.3826904296875,0.10050842670181716
0.379180908203125,6.53686523437501e-07,0.387725830078125,0.10083796252706917
0.38421630859375,6.5460205078125e-07,0.39276123046875,0.10097919216646267
0.389251708984375,6.55517578124999e-07,0.397796630859375,0.10112042180585618
0.394287109375,6.57043457031251e-07,0.40283203125,0.10135580453817923
0.399322509765625,6.57958984375e-07,0.407867431640625,0.10149703417757273
0.40435791015625,6.5887451171875e-07,0.41290283203125,0.10163826381696639
0.409393310546875,6.60095214843749e-07,0.417938232421875,0.10182657000282444
0.4144287109375,6.61621093749999e-07,0.4229736328125,0.10206195273514719
0.419464111328125,6.63452148437499e-07,0.428009033203125,0.1023444120139345
0.42449951171875,6.65283203125e-07,0.43304443359375,0.10262687129272197
0.429534912109375,6.67724609374999e-07,0.438079833984375,0.10300348366443823
0.4345703125,6.70776367187501e-07,0.443115234375,0.10347424912908405
0.439605712890625,6.7413330078125e-07,0.448150634765625,0.10399209114019395
0.44464111328125,6.76879882812501e-07,0.45318603515625,0.10441578005837507
0.449676513671875,6.805419921875e-07,0.458221435546875,0.10498069861594954
0.4547119140625,6.854248046875e-07,0.4632568359375,0.10573392335938236
0.459747314453125,6.9091796875e-07,0.468292236328125,0.10658130119574429
0.46478271484375,6.95190429687499e-07,0.47332763671875,0.10724037284624785
0.469818115234375,7.0098876953125e-07,0.478363037109375,0.10813482722907448
0.474853515625,7.0648193359375e-07,0.4833984375,0.1089822050654364
0.479888916015625,7.13500976562501e-07,0.488433837890625,0.11006496563412124
0.48492431640625,7.2052001953125e-07,0.49346923828125,0.11114772620280576
0.489959716796875,7.2784423828125e-07,0.498504638671875,0.11227756331795499
0.4949951171875,7.36083984375001e-07,0.5035400390625,0.11354863007249805
0.500030517578125,7.45544433593749e-07,0.508575439453125,0.11500800301289882
0.50506591796875,7.56530761718749e-07,0.51361083984375,0.11670275868562267
0.510101318359375,7.66906738281251e-07,0.518646240234375,0.11830336126541773
0.51513671875,7.80639648437499e-07,0.523681640625,0.12042180585632223
0.520172119140625,7.952880859375e-07,0.528717041015625,0.12268148008662084
0.52520751953125,8.123779296875e-07,0.53375244140625,0.12531776668863573
0.530242919921875,8.30688476562499e-07,0.538787841796875,0.12814235947650865
0.5352783203125,8.5296630859375e-07,0.5438232421875,0.13157894736842105
0.540313720703125,8.78601074218749e-07,0.548858642578125,0.1355333772714432
0.54534912109375,9.07287597656251e-07,0.55389404296875,0.13995857263911135
0.550384521484375,9.40856933593749e-07,0.558929443359375,0.1451369927502117
0.555419921875,9.80224609374999e-07,0.56396484375,0.15120986724413882
0.560455322265625,1.02508544921875e-06,0.569000244140625,0.15813011957442802
0.56549072265625,1.07666015625e-06,0.57403564453125,0.1660860559269372
0.570526123046875,1.136474609375e-06,0.579071044921875,0.17531305903398928
0.5755615234375,1.204833984375e-06,0.5841064453125,0.18585820544204879
0.580596923828125,1.28326416015625e-06,0.589141845703125,0.19795687788343846
0.58563232421875,1.3702392578125e-06,0.59417724609375,0.21137369362583563
0.590667724609375,1.4666748046875e-06,0.599212646484375,0.22624988230863383
0.595703125,1.572265625e-06,0.604248046875,0.24253836738536863
0.600738525390625,1.68365478515625e-06,0.609283447265625,0.25972130684492983
0.60577392578125,1.79840087890625e-06,0.61431884765625,0.27742208831560117
0.610809326171875,1.91375732421875e-06,0.619354248046875,0.2952170228792016
0.6158447265625,2.0281982421875e-06,0.6243896484375,0.31287072780340835
0.620880126953125,2.137451171875e-06,0.629425048828125,0.3297241314377178
0.62591552734375,2.23846435546875e-06,0.63446044921875,0.34530646831748424
0.630950927734375,2.33001708984375e-06,0.639495849609375,0.35942943225684965
0.635986328125,2.40814208984375e-06,0.64453125,0.37148102815177475
0.641021728515625,2.47161865234375e-06,0.649566650390625,0.38127294981640153
0.64605712890625,2.51708984375e-06,0.65460205078125,0.3882873552396196
0.651092529296875,2.54425048828125e-06,0.659637451171875,0.39247716787496467
0.6561279296875,2.5531005859375e-06,0.6646728515625,0.3938423877224367
0.661163330078125,2.54547119140625e-06,0.669708251953125,0.3926654740608229
0.66619873046875,2.520751953125e-06,0.67474365234375,0.3888522737971943
0.671234130859375,2.48382568359375e-06,0.679779052734375,0.38315601167498353
0.67626953125,2.43988037109375e-06,0.684814453125,0.3763769889840881
0.681304931640625,2.391357421875e-06,0.689849853515625,0.36889181809622446
0.68634033203125,2.34222412109375e-06,0.69488525390625,0.3613124941154317
0.691375732421875,2.2998046875e-06,0.699920654296875,0.35476885415685905
0.6964111328125,2.26654052734375e-06,0.7049560546875,0.349637510592223
0.701446533203125,2.2442626953125e-06,0.709991455078125,0.34620092270031066
0.70648193359375,2.24212646484375e-06,0.71502685546875,0.3458713868750588
0.711517333984375,2.259521484375e-06,0.720062255859375,0.34855475002353825
0.716552734375,2.30072021484375e-06,0.72509765625,0.3549100837962527
0.721588134765625,2.36724853515625e-06,0.730133056640625,0.3651727709255249
0.72662353515625,2.46246337890625e-06,0.73516845703125,0.37986065342246494
0.731658935546875,2.586669921875e-06,0.740203857421875,0.3990208078335373
0.7366943359375,2.74322509765625e-06,0.7452392578125,0.42317107616985217
0.741729736328125,2.93121337890625e-06,0.750274658203125,0.4521702287920158
0.74676513671875,3.14971923828125e-06,0.75531005859375,0.4858770360606346
0.751800537109375,3.397216796875e-06,0.760345458984375,0.5240561152433858
0.7568359375,3.67645263671875e-06,0.765380859375,0.5671311552584503
0.761871337890625,3.9788818359375e-06,0.770416259765625,0.6137840128048206
0.76690673828125,4.29962158203125e-06,0.77545166015625,0.6632614631390641
0.771942138671875,4.637451171875e-06,0.780487060546875,0.7153752000753225
0.7769775390625,4.9835205078125e-06,0.7855224609375,0.7687600037661237
0.782012939453125,5.3277587890625e-06,0.790557861328125,0.8218623481781377
0.78704833984375,5.6610107421875e-06,0.79559326171875,0.8732699369174277
0.792083740234375,5.97869873046875e-06,0.800628662109375,0.9222766217870257
0.797119140625,6.265869140625e-06,0.8056640625,0.9665756520101686
0.802154541015625,6.512451171875e-06,0.810699462890625,1.004613501553526
0.80718994140625,6.71234130859375e-06,0.81573486328125,1.0354486394878073
0.812225341796875,6.85943603515625e-06,0.820770263671875,1.058139534883721
0.8172607421875,6.9427490234375e-06,0.8258056640625,1.0709914320685434
0.822296142578125,6.95831298828125e-06,0.830841064453125,1.0733923359382356
0.82733154296875,6.90948486328125e-06,0.83587646484375,1.0658600885039073
0.832366943359375,6.79107666015625e-06,0.840911865234375,1.0475943884756616
0.83740234375,6.605224609375e-06,0.845947265625,1.0189247716787497
0.842437744140625,6.361083984375e-06,0.850982666015625,0.9812635345071085
0.84747314453125,6.063232421875e-06,0.85601806640625,0.9353168251577064
0.852508544921875,5.72601318359375e-06,0.861053466796875,0.8832972413143771
0.8575439453125,5.3546142578125e-06,0.8660888671875,0.8260050842670182
0.862579345703125,4.96185302734375e-06,0.871124267578125,0.7654175689671406
0.86761474609375,4.5648193359375e-06,0.87615966796875,0.7041709820167592
0.872650146484375,4.17572021484375e-06,0.881195068359375,0.6441483852744563
0.877685546875,3.7994384765625e-06,0.88623046875,0.5861030034836644
0.882720947265625,3.4429931640625e-06,0.891265869140625,0.5311175972130685
0.88775634765625,3.12103271484375e-06,0.89630126953125,0.48145184069296676
0.892791748046875,2.828369140625e-06,0.901336669921875,0.436305432633462
0.8978271484375,2.57080078125e-06,0.9063720703125,0.39657282741738065
0.902862548828125,2.34466552734375e-06,0.911407470703125,0.3616891064871481
0.90789794921875,2.15576171875e-06,0.91644287109375,0.3325487242255908
0.912933349609375,1.99951171875e-06,0.921478271484375,0.30844553243574047
0.91796875,1.87255859375e-06,0.926513671875,0.28886168910648713
0.923004150390625,1.77490234375e-06,0.931549072265625,0.2737971942378307
0.92803955078125,1.7034912109375e-06,0.93658447265625,0.2627812823651257
0.933074951171875,1.654052734375e-06,0.941619873046875,0.2551548818378684
0.9381103515625,1.62322998046875e-06,0.9466552734375,0.2504001506449487
0.943145751953125,1.60888671875e-06,0.951690673828125,0.24818755296111478
0.94818115234375,1.60858154296875e-06,0.95672607421875,0.24814047641465023
0.953216552734375,1.61773681640625e-06,0.961761474609375,0.24955277280858676
0.958251953125,1.63238525390625e-06,0.966796875,0.2518124470388852
0.963287353515625,1.64947509765625e-06,0.971832275390625,0.2544487336409001
0.96832275390625,1.66595458984375e-06,0.97686767578125,0.25699086714998587
0.973358154296875,1.67724609375e-06,0.981903076171875,0.2587326993691743
0.9783935546875,1.6815185546875e-06,0.9869384765625,0.25939177101967803
0.983428955078125,1.67755126953125e-06,0.991973876953125,0.25877977591563883
0.98846435546875,1.661376953125e-06,0.99700927734375,0.25628471895301763
0.993499755859375,1.6351318359375e-06,1.002044677734375,0.25223613595706623
0.99853515625,1.5972900390625e-06,1.007080078125,0.2463986441954618
1.00357055664063,1.5496826171875e-06,1.01211547851563,0.2390547029469918
1.00860595703125,1.4947509765625e-06,1.01715087890625,0.23058092458337257
1.01364135742188,1.43310546875e-06,1.02218627929688,0.2210714621975332
1.0186767578125,1.3665771484375e-06,1.0272216796875,0.21080877506826098
1.02371215820313,1.300048828125e-06,1.03225708007813,0.2005460879389888
1.02874755859375,1.234130859375e-06,1.03729248046875,0.19037755390264569
1.03378295898438,1.16943359375e-06,1.04232788085938,0.18039732605216083
1.038818359375,1.109619140625e-06,1.04736328125,0.17117032294510875
1.04385375976563,1.05255126953125e-06,1.05239868164063,0.16236700875623764
1.04888916015625,1.0015869140625e-06,1.05743408203125,0.15450522549665757
1.05392456054688,9.5489501953125e-07,1.06246948242188,0.1473025138875812
1.0589599609375,9.14001464843748e-07,1.0675048828125,0.14099425666133103
1.06399536132813,8.77685546875001e-07,1.07254028320313,0.13539214763204988
1.06903076171875,8.46252441406251e-07,1.07757568359375,0.1305432633462011
1.07406616210938,8.19702148437501e-07,1.08261108398438,0.1264476038037851
1.0791015625,7.96203613281249e-07,1.087646484375,0.12282270972601435
1.08413696289063,7.76062011718751e-07,1.09268188476563,0.11971565765935427
1.08917236328125,7.5927734375e-07,1.09771728515625,0.11712644760380378
1.09420776367188,7.45544433593751e-07,1.10275268554688,0.11500800301289912
1.0992431640625,7.330322265625e-07,1.1077880859375,0.11307786460785237
1.10427856445313,7.22656249999999e-07,1.11282348632813,0.11147726202805748
1.10931396484375,7.14111328124998e-07,1.11785888671875,0.11015911872704988
1.11434936523438,7.07092285156251e-07,1.12289428710938,0.10907635815836567
1.119384765625,7.00988769531249e-07,1.1279296875,0.10813482722907432
1.12442016601563,6.964111328125e-07,1.13296508789063,0.1074286790321062
1.12945556640625,6.9244384765625e-07,1.13800048828125,0.10681668392806704
1.13449096679688,6.88781738281251e-07,1.14303588867188,0.10625176537049258
1.1395263671875,6.866455078125e-07,1.1480712890625,0.10592222954524055
1.14456176757813,6.84509277343749e-07,1.15310668945313,0.10559269371998854
1.14959716796875,6.82678222656249e-07,1.15814208984375,0.10531023444120123
