Potential - Start -0.2 V, Upper Vertex 1.5 V, Lower Vertex -0.2 V, Stop -0.19 V; Scan - # end cross 5, Rate 0.1 Vps, Step 0.01 V 
Scan	Index	Time (s)	Potential applied (V)	WE(1).Potential (V)	WE(1).Current (A)	WE(1).Power (W)	WE(1).Resistance (Ω)	WE(1).Charge (C)
1	1	71.6926628189934	-0.189971923828125	-0.1898193359375	-1.63879394531249E-07	3.11074757064489E-08	1158286.75	0
1	2	71.7933708187392	-0.179901123046875	-0.179779052734375	-1.31835937499999E-07	2.37013395576469E-08	1363657.5	-1.48904497621061E-08
1	3	71.8940788184849	-0.169830322265625	-0.169677734375	-1.05895996093749E-07	1.79681922674035E-08	1602305.5	-2.68612030396298E-08
1	4	71.9947868182306	-0.159759521484375	-0.159637451171875	-8.45336914062495E-08	1.3494742212572E-08	1888447.75	-3.64500998273343E-08
1	5	72.0954948179764	-0.149688720703125	-0.14959716796875	-6.53076171875003E-08	9.76983471900894E-09	2290654.25	-4.39952074771099E-08
1	6	72.1962028177221	-0.139617919921875	-0.139495849609375	-4.85229492187503E-08	6.76875000493737E-09	2874842.75	-4.97270313815079E-08
1	7	72.2969108174678	-0.129547119140625	-0.129486083984375	-3.26538085937494E-08	4.22821377910054E-09	3965420.5	-5.38146061046518E-08
1	8	72.3976188172136	-0.119476318359375	-0.119354248046875	-1.678466796875E-08	2.00332150868121E-09	7110909	-5.63040316592378E-08
1	9	72.4983268169593	-0.109405517578125	-0.10931396484375	-1.22070312500028E-09	1.33439898020171E-10	89550000	-5.72106735319267E-08
1	10	72.5990348167051	-0.099334716796875	-0.099273681640625	1.46484375000006E-08	-1.45420431252319E-09	-6777083.5	-5.65345352754321E-08
1	11	72.6997428164508	-0.089263916015625	-0.0892333984375	3.11279296874994E-08	-2.77765077605352E-09	-2866666.75	-5.42295097716305E-08
1	12	72.8004508161965	-0.079193115234375	-0.07916259765625	4.94384765624994E-08	-3.91367827035083E-09	-1601234.625	-5.01726695745219E-08
1	13	72.9011588159423	-0.069122314453125	-0.06903076171875	7.14111328125003E-08	-4.92956475639517E-09	-966666.6875	-4.40874075025022E-08
1	14	73.001866815688	-0.059051513671875	-0.05902099609375	9.73510742187503E-08	-5.74575720335702E-09	-606269.625	-3.55895579673415E-08
1	15	73.1025748154337	-0.048980712890625	-0.048834228515625	1.31835937499999E-07	-6.43810604827877E-09	-370416.65625	-2.40490756198142E-08
1	16	73.2032828151795	-0.038909912109375	-0.038775634765625	1.76391601562501E-07	-6.83969592074618E-09	-219827	-8.5285867257312E-09
1	17	73.3039908149252	-0.028839111328125	-0.028717041015625	2.35900878906251E-07	-6.77437483886933E-09	-121733.5078125	1.2231988755218E-08
1	18	73.404698814671	-0.018768310546875	-0.0186370849609375	3.1585693359375E-07	-5.88665249878773E-09	-59004.83203125	4.00152018187327E-08
1	19	73.5054068144167	-0.008697509765625	-0.00859375	4.2236328125E-07	-3.62968433087474E-09	-20346.822265625	7.71875434679714E-08
1	20	73.6061148141624	0.001373291015625	0.00150146484374999	5.6182861328125E-07	8.43565883812403E-10	2672.46069335938	1.26745533179928E-07
1	21	73.7068228139082	0.011444091796875	0.0115020751953125	7.3577880859375E-07	8.46298231493847E-09	15632.5185546875	1.92085252592733E-07
1	22	73.8075308136539	0.021514892578125	0.021624755859375	9.417724609375E-07	2.03655989849949E-08	22961.76171875	2.76556676226392E-07
1	23	73.9082388133996	0.031585693359375	0.0316925048828125	1.1688232421875E-06	3.7042937606202E-08	27114.8828125	3.82833604817279E-07
1	24	74.0089468131454	0.041656494140625	0.04176025390625	1.3995361328125E-06	5.8444985739925E-08	29838.640625	5.12160795551608E-07
1	25	74.1096548128911	0.051727294921875	0.051727294921875	1.61041259765625E-06	8.33022895108115E-08	32120.5234375	6.63723710658815E-07
1	26	74.2103628126368	0.061798095703125	0.061798095703125	1.7791748046875E-06	1.09949617410621E-07	34734.1328125	8.34403010685492E-07
1	27	74.3110708123826	0.071868896484375	0.071868896484375	1.8927001953125E-06	1.36026272912204E-07	37971.62109375	1.01929663287592E-06
1	28	74.4117788121283	0.081939697265625	0.081939697265625	1.9488525390625E-06	1.5968838340541E-07	42045.09765625	1.21273410513822E-06
1	29	74.5124868118741	0.092010498046875	0.092071533203125	1.954345703125E-06	1.79939604549872E-07	47111.18359375	1.40927579650452E-06
1	30	74.6131948116198	0.102081298828125	0.102081298828125	1.9244384765625E-06	1.96449178702096E-07	53044.71875	1.60458807840769E-06
1	31	74.7139028113655	0.112152099609375	0.11212158203125	1.8719482421875E-06	2.0988578341985E-07	59895.66796875	1.79575135916821E-06
1	32	74.8146108111113	0.122222900390625	0.12225341796875	1.80755615234375E-06	2.20979913478914E-07	67634.6484375	1.98102907233988E-06
1	33	74.915318810857	0.132293701171875	0.132232666015625	1.7401123046875E-06	2.30099672648976E-07	75990.8828125	2.15966838368331E-06
1	34	75.0160268106027	0.142364501953125	0.142364501953125	1.67449951171875E-06	2.3838927631914E-07	85019.140625	2.33160767493246E-06
1	35	75.1167348103485	0.152435302734375	0.15240478515625	1.6119384765625E-06	2.45667109766146E-07	94547.5234375	2.49709296440415E-06
1	36	75.2174428100942	0.162506103515625	0.162445068359375	1.55517578125E-06	2.52630627528561E-07	104454.484375	2.65656990450225E-06
1	37	75.3181508098399	0.172576904296875	0.172576904296875	1.505126953125E-06	2.5975012363233E-07	114659.375	2.81066832030774E-06
1	38	75.4188588095857	0.182647705078125	0.1826171875	1.4593505859375E-06	2.66502496515386E-07	125135.9296875	2.95994163934665E-06
1	39	75.5195668093314	0.192718505859375	0.192718505859375	1.41845703125E-06	2.73362928737697E-07	135864.890625	3.10485074805911E-06
1	40	75.6202748090772	0.202789306640625	0.202880859375	1.38153076171875E-06	2.8028614451614E-07	146852.21875	3.24584129884897E-06
1	41	75.7209828088229	0.212860107421875	0.21282958984375	1.3482666015625E-06	2.8695100695586E-07	157854.234375	3.38329755322775E-06
1	42	75.8216908085686	0.222930908203125	0.22296142578125	1.31866455078125E-06	2.94011329060595E-07	169081.234375	3.517588311297E-06
1	43	75.9223988083144	0.233001708984375	0.232940673828125	1.29180908203125E-06	3.00914877016112E-07	180321.28125	3.64903598892852E-06
1	44	76.0231068080601	0.243072509765625	0.24310302734375	1.26800537109375E-06	3.082559487666E-07	191720.828125	3.77793298866891E-06
1	45	76.1238148078058	0.253143310546875	0.253173828125	1.24603271484375E-06	3.15462841626868E-07	203183.953125	3.90452487408766E-06
1	46	76.2245228075516	0.263214111328125	0.26318359375	1.22589111328125E-06	3.22634434724023E-07	214687.578125	4.02899604523554E-06
1	47	76.3252308072973	0.273284912109375	0.2733154296875	1.20758056640625E-06	3.3005039767886E-07	226333.078125	4.15153090216336E-06
1	48	76.4259388070431	0.283355712890625	0.2833251953125	1.1907958984375E-06	3.3738245974746E-07	237929.28125	4.27229906563298E-06
1	49	76.5266468067888	0.293426513671875	0.293426513671875	1.17584228515625E-06	3.4502329526731E-07	249545.8125	4.39146879216423E-06
1	50	76.6273548065345	0.303497314453125	0.303466796875	1.16119384765625E-06	3.5238377904534E-07	261340.34375	4.50914785687928E-06
1	51	76.7280628062803	0.313568115234375	0.313568115234375	1.14837646484375E-06	3.60094247753295E-07	273053.40625	4.62544403490028E-06
1	52	76.828770806026	0.323638916015625	0.323638916015625	1.13616943359375E-06	3.67708651083376E-07	284850.9375	4.74047965326463E-06
1	53	76.9294788057717	0.333709716796875	0.333709716796875	1.1248779296875E-06	3.75382711581551E-07	296663.03125	4.85433247376932E-06
1	54	77.0301868055175	0.343780517578125	0.34375	1.114501953125E-06	3.83110062784908E-07	308433.71875	4.96709435537923E-06
1	55	77.1308948052632	0.353851318359375	0.35382080078125	1.10504150390625E-06	3.90986684806194E-07	320187.78125	5.07885715705925E-06
1	56	77.2316028050089	0.363922119140625	0.36395263671875	1.09619140625E-06	3.98961731207237E-07	332015.625	5.18969818585902E-06
1	57	77.3323108047547	0.373992919921875	0.3740234375	1.0882568359375E-06	4.0703355352889E-07	343690.4375	5.29969383933349E-06
1	58	77.4330188045004	0.384063720703125	0.384063720703125	1.08123779296875E-06	4.15264196362841E-07	355207.46875	5.40893643119489E-06
1	59	77.5337268042462	0.394134521484375	0.3941650390625	1.07513427734375E-06	4.2378033526802E-07	366619.375	5.5175187299028E-06
1	60	77.6344348039919	0.404205322265625	0.404144287109375	1.0693359375E-06	4.32165990105204E-07	377939.5	5.6255012168549E-06
1	61	77.7351428037376	0.414276123046875	0.414276123046875	1.06475830078125E-06	4.4110393560004E-07	389079.96875	5.73296119910083E-06
1	62	77.8358508034834	0.424346923828125	0.424285888671875	1.06048583984375E-06	4.49949169478714E-07	400086.34375	5.83997598369024E-06
1	63	77.9365588032291	0.434417724609375	0.434326171875	1.05682373046875E-06	4.59006201936063E-07	410973.125	5.94659104535822E-06
1	64	78.0372668029748	0.444488525390625	0.444488525390625	1.053466796875E-06	4.68253915641981E-07	421929.3125	6.05285231358721E-06
1	65	78.1379748027206	0.454559326171875	0.45452880859375	1.0504150390625E-06	4.77443848012626E-07	432713.5625	6.15879116594442E-06
1	66	78.2386828024663	0.464630126953125	0.464569091796875	1.04736328125E-06	4.86572616864578E-07	443560.59375	6.26442306383979E-06
1	67	78.3393908022121	0.474700927734375	0.474639892578125	1.0443115234375E-06	4.95671883982141E-07	454500.3125	6.3697470977786E-06
1	68	78.4400988019578	0.484771728515625	0.484710693359375	1.0418701171875E-06	5.05005573359085E-07	465231.4375	6.47479464532807E-06
1	69	78.5408068017035	0.494842529296875	0.494781494140625	1.0400390625E-06	5.14592045419704E-07	475733.59375	6.57962709738058E-06
1	70	78.6415148014493	0.504913330078125	0.504852294921875	1.03851318359375E-06	5.24295728610014E-07	486129.90625	6.68429038341856E-06
1	71	78.742222801195	0.514984130859375	0.514892578125	1.03759765625E-06	5.34251284989296E-07	496235.3125	6.78883088767179E-06
1	72	78.8429308009407	0.525054931640625	0.52496337890625	1.03668212890625E-06	5.44220142728591E-07	506388	6.8932790782128E-06
1	73	78.9436388006865	0.535125732421875	0.5350341796875	1.036376953125E-06	5.54497091798112E-07	516254.40625	6.99766587786144E-06
1	74	79.0443468004322	0.545196533203125	0.545166015625	1.036376953125E-06	5.64997492347175E-07	526030.625	7.10203767084749E-06
1	75	79.1450548001779	0.555267333984375	0.55517578125	1.036376953125E-06	5.75371359445853E-07	535689.0625	7.2064090090862E-06
1	76	79.2457627999237	0.565338134765625	0.56524658203125	1.03729248046875E-06	5.86325995755033E-07	544925	7.3108267315547E-06
1	77	79.3464707996694	0.575408935546875	0.57537841796875	1.03790283203125E-06	5.97186897266511E-07	554366.375	7.41532085157814E-06
1	78	79.4471787994152	0.585479736328125	0.585418701171875	1.0394287109375E-06	6.08500954513147E-07	563212	7.51992274672375E-06
1	79	79.5478867991609	0.595550537109375	0.595458984375	1.04156494140625E-06	6.20209220869583E-07	571696.4375	7.62470926929382E-06
1	80	79.6485947989066	0.605621337890625	0.605499267578125	1.043701171875E-06	6.31960233477002E-07	580146.25	7.72971088736085E-06
1	81	79.7493027986524	0.615692138671875	0.615631103515625	1.04583740234375E-06	6.43850000869861E-07	588649	7.83492760092486E-06
1	82	79.8500107983981	0.625762939453125	0.625640869140625	1.048583984375E-06	6.56037002499943E-07	596653.125	7.94038987805834E-06
1	83	79.9507187981438	0.635833740234375	0.635772705078125	1.05133056640625E-06	6.68407267312432E-07	604731.5	8.04612864158116E-06
1	84	80.0514267978896	0.645904541015625	0.645843505859375	1.0540771484375E-06	6.80768835081835E-07	612709.9375	8.15214480098803E-06
1	85	80.1521347976353	0.655975341796875	0.6558837890625	1.05712890625E-06	6.93353683800524E-07	620438.8125	8.25845199869946E-06
1	86	80.252842797381	0.666046142578125	0.665985107421875	1.0601806640625E-06	7.06064554378827E-07	628180.75	8.36506751511479E-06
1	87	80.3535507971268	0.676116943359375	0.676025390625	1.0638427734375E-06	7.19184754416347E-07	635456.125	8.47202045406448E-06
1	88	80.4542587968725	0.686187744140625	0.686065673828125	1.0675048828125E-06	7.32378452994453E-07	642681.5625	8.57934264786309E-06
1	89	80.5549667966183	0.696258544921875	0.696136474609375	1.07025146484375E-06	7.45041063510143E-07	650442	8.68698680278612E-06
1	90	80.655674796364	0.706329345703125	0.706207275390625	1.0748291015625E-06	7.59052170451469E-07	657041.4375	8.79500021255808E-06
1	91	80.7563827961097	0.716400146484375	0.71636962890625	1.0784912109375E-06	7.72598355069931E-07	664233.1875	8.90342835191404E-06
1	92	80.8570907958555	0.726470947265625	0.72637939453125	1.08306884765625E-06	7.86718885592563E-07	670667.8125	9.01227213034872E-06
1	93	80.9577987956012	0.736541748046875	0.73638916015625	1.08734130859375E-06	8.00706345671642E-07	677238.3125	9.12156065169256E-06
1	94	81.0585067953469	0.746612548828125	0.746490478515625	1.09130859375E-06	8.1465145740367E-07	684032.4375	9.23126390262041E-06
1	95	81.1592147950927	0.756683349609375	0.75653076171875	1.0955810546875E-06	8.28840768463124E-07	690529.25	9.34138279262697E-06
1	96	81.2599227948384	0.766754150390625	0.76629638671875	1.1004638671875E-06	8.4328144112078E-07	696339.5	9.45196279644733E-06
1	97	81.3606307945842	0.776824951171875	0.7763671875	1.10443115234375E-06	8.57444092616788E-07	702956.625	9.56298754317686E-06
1	98	81.4613387943299	0.786895751953125	0.78704833984375	1.10809326171875E-06	8.72122939199471E-07	710272.6875	9.67439700616524E-06
1	99	81.5620467940756	0.796966552734375	0.797119140625	1.11236572265625E-06	8.86687985257595E-07	716598.125	9.78620664682239E-06
1	100	81.6627547938214	0.807037353515625	0.806884765625	1.11572265625E-06	9.00259578884288E-07	723194.75	9.898399184749E-06
1	101	81.7634627935671	0.817108154296875	0.81756591796875	1.11907958984375E-06	9.14921315597894E-07	730569.9375	1.00109309641994E-05
1	102	81.8641707933128	0.827178955078125	0.82733154296875	1.12274169921875E-06	9.28879558159679E-07	736885.0625	1.0123815627594E-05
1	103	81.9648787930586	0.837249755859375	0.83709716796875	1.12518310546875E-06	9.41887549288367E-07	743965.3125	1.02370077001979E-05
1	104	82.0655867928043	0.847320556640625	0.84747314453125	1.12823486328125E-06	9.56148710429261E-07	751149.5625	1.03504762591911E-05
1	105	82.16629479255	0.857391357421875	0.8575439453125	1.13006591796875E-06	9.69081156654283E-07	758844.1875	1.04641903817537E-05
1	106	82.2670027922958	0.867462158203125	0.86669921875	1.13250732421875E-06	9.81543280431652E-07	765292.375	1.05781200545607E-05
1	107	82.3677107920415	0.877532958984375	0.877685546875	1.1346435546875E-06	9.95860204966448E-07	773534.1875	1.06922798295273E-05
1	108	82.4684187917873	0.887603759765625	0.88775634765625	1.136474609375E-06	1.00891247711843E-06	781149.3125	1.08066396933282E-05
1	109	82.569126791533	0.897674560546875	0.89813232421875	1.1383056640625E-06	1.02234901078191E-06	789008.0625	1.09211841845536E-05
1	110	82.6698347912787	0.907745361328125	0.9075927734375	1.13922119140625E-06	1.03394881989516E-06	796678.3125	1.10358669189736E-05
1	111	82.7705427910245	0.917816162109375	0.91766357421875	1.141357421875E-06	1.04738217032718E-06	804010.6875	1.11507033579983E-05
1	112	82.8712507907702	0.927886962890625	0.92803955078125	1.14288330078125E-06	1.06064089777647E-06	812016	1.12657235149527E-05
1	113	82.9719587905159	0.937957763671875	0.9381103515625	1.14410400390625E-06	1.07329583443061E-06	819952	1.13808828245965E-05
1	114	83.0726667902617	0.948028564453125	0.9478759765625	1.14593505859375E-06	1.08620429273287E-06	827163.8125	1.14961949293502E-05
1	115	83.1733747900074	0.958099365234375	0.95794677734375	1.14898681640625E-06	1.10066821434884E-06	833731.75	1.1611753507168E-05
1	116	83.2740827897532	0.968170166015625	0.968017578125	1.1517333984375E-06	1.11489816845278E-06	840487.5625	1.17276040327852E-05
1	117	83.3747907894989	0.978240966796875	0.9783935546875	1.15478515625E-06	1.12983423150581E-06	847251.625	1.18437465062016E-05
1	118	83.4754987892446	0.988311767578125	0.9881591796875	1.15814208984375E-06	1.14442866561149E-06	853228	1.19602118502371E-05
1	119	83.5762067889904	0.998382568359375	0.99822998046875	1.162109375E-06	1.16005242034589E-06	858981.125	1.20770455396269E-05
1	120	83.6769147887361	1.00845336914063	1.00830078125	1.16546630859375E-06	1.17514059638779E-06	865147.9375	1.21942484838655E-05
1	121	83.7776227884818	1.01852416992188	1.01837158203125	1.16973876953125E-06	1.19122876185429E-06	870597.4375	1.23118352348683E-05
1	122	83.8783307882276	1.02859497070313	1.02874755859375	1.17340087890625E-06	1.20713320939103E-06	876723.0625	1.24298221635399E-05
1	123	83.9790387879733	1.03866577148438	1.0382080078125	1.177978515625E-06	1.22298661153764E-06	881347.1875	1.25482229123008E-05
1	124	84.079746787719	1.04873657226563	1.04827880859375	1.18194580078125E-06	1.23900872495142E-06	886909.375	1.26670547615504E-05
1	125	84.1804547874648	1.05880737304688	1.05865478515625	1.1865234375E-06	1.25611870771536E-06	892232.5625	1.27863168017939E-05
1	126	84.2811627872105	1.06887817382813	1.0687255859375	1.19110107421875E-06	1.2729601621686E-06	897258.5	1.29060399558512E-05
1	127	84.3818707869563	1.07894897460938	1.07818603515625	1.195068359375E-06	1.28850592773233E-06	902196.1875	1.30261933009024E-05
1	128	84.482578786702	1.08901977539063	1.0888671875	1.1993408203125E-06	1.30592286495812E-06	907888.0625	1.31467613755376E-05
1	129	84.5832867864477	1.09909057617188	1.09893798828125	1.20330810546875E-06	1.32236095851113E-06	913264	1.32677441797568E-05
1	130	84.6839947861935	1.10916137695313	1.1090087890625	1.20697021484375E-06	1.33854052819515E-06	918836.9375	1.33891107907402E-05
1	131	84.7847027859392	1.11923217773438	1.11846923828125	1.2109375E-06	1.35439631776535E-06	923639.125	1.35108621179825E-05
1	132	84.8854107856849	1.12930297851563	1.129150390625	1.21490478515625E-06	1.37181018544652E-06	929414.75	1.36330136228935E-05
1	133	84.9861187854307	1.13937377929688	1.13922119140625	1.21826171875E-06	1.38786947445624E-06	935120.25	1.3755532563664E-05
1	134	85.0868267851764	1.14944458007813	1.14898681640625	1.22161865234375E-06	1.40362374168035E-06	940544.625	1.38783907459583E-05
1	135	85.1875347849221	1.15951538085938	1.15966796875	1.2249755859375E-06	1.42056489949027E-06	946686.625	1.4001586350787E-05
1	136	85.2882427846679	1.16958618164063	1.16912841796875	1.22802734375E-06	1.43572151500848E-06	952037.8125	1.41251048262347E-05
1	137	85.3889507844136	1.17965698242188	1.1798095703125	1.23077392578125E-06	1.45207889090671E-06	958591.625	1.42489152494818E-05
1	138	85.4896587841594	1.18972778320313	1.18988037109375	1.234130859375E-06	1.46846809911949E-06	964144.375	1.4373033081938E-05
1	139	85.5903667839051	1.19979858398438	1.1993408203125	1.2371826171875E-06	1.48380354403344E-06	969412.9375	1.44974737850134E-05
1	140	85.6910747836508	1.20986938476563	1.20941162109375	1.240234375E-06	1.49995389620017E-06	975147.625	1.4622221897298E-05
1	141	85.7917827833966	1.21994018554688	1.2200927734375	1.24298095703125E-06	1.51655206082069E-06	981586.0625	1.47472610478872E-05
1	142	85.8924907831423	1.23001098632813	1.23016357421875	1.2457275390625E-06	1.53244855027879E-06	987506.125	1.48725775943603E-05
1	143	85.993198782888	1.24008178710938	1.23992919921875	1.25E-06	1.54991141698702E-06	991943.375	1.49982479342725E-05
1	144	86.0939067826338	1.25015258789063	1.25	1.25274658203125E-06	1.56593318934029E-06	997807.625	1.5124271158129E-05
1	145	86.1946147823795	1.26022338867188	1.26007080078125	1.25640869140625E-06	1.58316379383905E-06	1002914.8125	1.52506172526046E-05
1	146	86.2953227821253	1.27029418945313	1.27044677734375	1.26007080078125E-06	1.60085289735434E-06	1008234.4375	1.53773326019291E-05
1	147	86.396030781871	1.28036499023438	1.280517578125	1.26373291015625E-06	1.61823220423685E-06	1013281.8125	1.55044162966078E-05
1	148	86.4967387816167	1.29043579101563	1.290283203125	1.26739501953125E-06	1.63529841756826E-06	1018059.25	1.56318674271461E-05
1	149	86.5974467813625	1.30050659179688	1.30096435546875	1.27227783203125E-06	1.6551880435145E-06	1022547.375	1.5759749658173E-05
1	150	86.6981547811082	1.31057739257813	1.3104248046875	1.27716064453125E-06	1.67362304637209E-06	1026045.375	1.58881248353282E-05
1	151	86.7988627808539	1.32064819335938	1.3201904296875	1.28204345703125E-06	1.69254144566366E-06	1029754.875	1.60169911396224E-05
1	152	86.8995707805997	1.33071899414063	1.33056640625	1.287841796875E-06	1.71355895872694E-06	1033175.375	1.61463958647801E-05
1	153	87.0002787803454	1.34078979492188	1.34033203125	1.29425048828125E-06	1.73472528786078E-06	1035604.875	1.62764135893667E-05
1	154	87.1009867800911	1.35086059570313	1.3507080078125	1.30035400390625E-06	1.75639843291719E-06	1038723.375	1.64070625032764E-05
1	155	87.2016947798369	1.36093139648438	1.36016845703125	1.3067626953125E-06	1.77741731022252E-06	1040868.75	1.65383407875197E-05
1	156	87.3024027795826	1.37100219726563	1.37115478515625	1.31378173828125E-06	1.801398070711E-06	1043670.1875	1.66702957358211E-05
1	157	87.4031107793284	1.38107299804688	1.38092041015625	1.3214111328125E-06	1.82476355803374E-06	1045034.6875	1.68029891938204E-05
1	158	87.5038187790741	1.39114379882813	1.39068603515625	1.3287353515625E-06	1.84785358214867E-06	1046623.875	1.69364338944433E-05
1	159	87.6045267788198	1.40121459960938	1.4013671875	1.33697509765625E-06	1.87359296432987E-06	1048162.5625	1.70706625794992E-05
1	160	87.7052347785656	1.41128540039063	1.41082763671875	1.34490966796875E-06	1.89743559531053E-06	1049013	1.72057061718078E-05
1	161	87.8059427783113	1.42135620117188	1.42120361328125	1.35345458984375E-06	1.9235344552726E-06	1050056.375	1.73415810422739E-05
1	162	87.906650778057	1.43142700195313	1.4312744140625	1.3616943359375E-06	1.94895824279229E-06	1051098.125	1.74782981048338E-05
1	163	88.0073587778028	1.44149780273438	1.44073486328125	1.36993408203125E-06	1.97371173271677E-06	1051682	1.76158482645405E-05
1	164	88.1080667775485	1.45156860351563	1.45111083984375	1.37847900390625E-06	2.0003258214274E-06	1052689.875	1.77542406163411E-05
1	165	88.2087747772943	1.46163940429688	1.4617919921875	1.3861083984375E-06	2.02620208256121E-06	1054601.5	1.78934496943839E-05
1	166	88.30948277704	1.47171020507813	1.47125244140625	1.39434814453125E-06	2.05143805942498E-06	1055154.25	1.80334554897854E-05
1	167	88.4101907767857	1.48178100585938	1.48193359375	1.4013671875E-06	2.07673315344437E-06	1057491.25	1.81742307177046E-05
1	168	88.5108987765315	1.49185180664063	1.49169921875	1.40899658203125E-06	2.1017990547989E-06	1058696.125	1.83157444553217E-05
1	169	88.6116067762772	1.50192260742188	1.50146484375	1.41571044921875E-06	2.1256394120428E-06	1060573.5	1.8457980331732E-05
1	170	88.7123147760229	1.49185180664063	1.49169921875	1.3140869140625E-06	1.96022233467374E-06	1135160.375	1.85954359039897E-05
1	171	88.8130227757687	1.48178100585938	1.48162841796875	1.24481201171875E-06	1.84434884431539E-06	1190242.75	1.87242876563687E-05
1	172	88.9137307755144	1.47171020507813	1.4715576171875	1.19049072265625E-06	1.75187562945212E-06	1236093.375	1.88469148270087E-05
1	173	89.0144387752601	1.46163940429688	1.46209716796875	1.1456298828125E-06	1.67502219028393E-06	1276238.625	1.89645470527466E-05
1	174	89.1151467750059	1.45156860351563	1.451416015625	1.107177734375E-06	1.606975388313E-06	1310915.125	1.907798468892E-05
1	175	89.2158547747516	1.44149780273438	1.44134521484375	1.0736083984375E-06	1.5474403198823E-06	1342524.25	1.9187797079212E-05
1	176	89.3165627744974	1.43142700195313	1.43096923828125	1.0430908203125E-06	1.49263087223517E-06	1371854.875	1.92943807633128E-05
1	177	89.4172707742431	1.42135620117188	1.4215087890625	1.01593017578125E-06	1.44415366776229E-06	1399219	1.93980613403255E-05
1	178	89.5179787739888	1.41128540039063	1.41082763671875	9.9090576171875E-07	1.39799715270783E-06	1423775.875	1.94991134776501E-05
1	179	89.6186867737346	1.40121459960938	1.4013671875	9.68322753906251E-07	1.35697575842642E-06	1447210.875	1.95977681869408E-05
1	180	89.7193947734803	1.39114379882813	1.3909912109375	9.47265625E-07	1.31763817989849E-06	1468427.875	1.9694225557032E-05
1	181	89.820102773226	1.38107299804688	1.38092041015625	9.2742919921875E-07	1.28070587379625E-06	1488976.625	1.97886238311185E-05
1	182	89.9208107729718	1.37100219726563	1.37054443359375	9.10034179687499E-07	1.24724226679973E-06	1506036.25	1.98811467271298E-05
1	183	90.0215187727175	1.36093139648438	1.361083984375	8.9263916015625E-07	1.21495679650252E-06	1524786.375	1.9971919755335E-05
1	184	90.1222267724633	1.35086059570313	1.35040283203125	8.76464843749999E-07	1.18358059353341E-06	1540738.25	2.00610011233948E-05
1	185	90.222934772209	1.34078979492188	1.34063720703125	8.612060546875E-07	1.15456487037591E-06	1556697.375	2.01484999706736E-05
1	186	90.3236427719547	1.33071899414063	1.33026123046875	8.4686279296875E-07	1.12654868189566E-06	1570810.875	2.02345072466414E-05
1	187	90.4243507717005	1.32064819335938	1.3201904296875	8.331298828125E-07	1.09989014163148E-06	1584615.375	2.03191011678427E-05
1	188	90.5250587714462	1.31057739257813	1.3104248046875	8.209228515625E-07	1.07575760921463E-06	1596282.625	2.04023890546523E-05
1	189	90.6257667711919	1.30050659179688	1.3006591796875	8.08105468750001E-07	1.05106971659552E-06	1609516.75	2.04844182007946E-05
1	190	90.7264747709377	1.29043579101563	1.290283203125	7.9620361328125E-07	1.0273281532136E-06	1620544.25	2.05652013391955E-05
1	191	90.8271827706834	1.28036499023438	1.28021240234375	7.8399658203125E-07	1.00368208677537E-06	1632931.25	2.06447712116642E-05
1	192	90.9278907704291	1.27029418945313	1.26983642578125	7.73010253906251E-07	9.81596599558543E-07	1642716.125	2.07231714739464E-05
1	193	91.0285987701749	1.26022338867188	1.259765625	7.62023925781249E-07	9.59971544034488E-07	1653183.875	2.08004676096607E-05
1	194	91.1293067699206	1.25015258789063	1.24969482421875	7.51647949218751E-07	9.39330504934333E-07	1662606.625	2.08766869036481E-05
1	195	91.2300147696664	1.24008178710938	1.2396240234375	7.40966796875001E-07	9.1852018613281E-07	1672982	2.09518457268132E-05
1	196	91.3307227694121	1.23001098632813	1.22955322265625	7.3089599609375E-07	8.98675523330894E-07	1682254.75	2.10259604500607E-05
1	197	91.4314307691578	1.21994018554688	1.21978759765625	7.20825195312499E-07	8.79253661878465E-07	1692210	2.1099060177221E-05
1	198	91.5321387689036	1.20986938476563	1.209716796875	7.1075439453125E-07	8.59811507325503E-07	1702018.125	2.11711449082941E-05
1	199	91.6328467686493	1.19979858398438	1.19964599609375	7.00988769531249E-07	8.40938355395338E-07	1711362.625	2.12422328331741E-05
1	200	91.733554768395	1.18972778320313	1.1895751953125	6.9122314453125E-07	8.2226188169443E-07	1720971.375	2.13123366847867E-05
1	201	91.8342627681408	1.17965698242188	1.17889404296875	6.817626953125E-07	8.03725981768366E-07	1729185.375	2.13814710150473E-05
1	202	91.9349707678865	1.16958618164063	1.16973876953125	6.719970703125E-07	7.86060979862668E-07	1740690.375	2.14496394619346E-05
1	203	92.0356787676322	1.15951538085938	1.15936279296875	6.622314453125E-07	7.67766437093087E-07	1750691.375	2.15168220165651E-05
1	204	92.136386767378	1.14944458007813	1.14990234375	6.52160644531249E-07	7.49921014175925E-07	1763219.5	2.15830077650025E-05
1	205	92.2370947671237	1.13937377929688	1.1395263671875	6.43005371093749E-07	7.32721559870697E-07	1772188	2.16482239920879E-05
1	206	92.3378027668695	1.12930297851563	1.12945556640625	6.329345703125E-07	7.1487141894977E-07	1784474.5	2.17124725168105E-05
1	207	92.4385107666152	1.11923217773438	1.11968994140625	6.23779296875E-07	6.98439350799163E-07	1795009.875	2.17757533391705E-05
1	208	92.5392187663609	1.10916137695313	1.10931396484375	6.14318847656251E-07	6.81472442920494E-07	1805762.625	2.18380973819876E-05
1	209	92.6399267661067	1.09909057617188	1.0992431640625	6.0455322265625E-07	6.64550952933496E-07	1818273.75	2.18994719034526E-05
1	210	92.7406347658524	1.08901977539063	1.08917236328125	5.95703124999999E-07	6.48823345272831E-07	1828381.125	2.19599096453749E-05
1	211	92.8413427655981	1.07894897460938	1.0784912109375	5.86853027343751E-07	6.32915771348053E-07	1837753.625	2.20194560824893E-05
1	212	92.9420507653439	1.06887817382813	1.0687255859375	5.78918457031249E-07	6.1870497347627E-07	1846072.75	2.20781566895312E-05
1	213	93.0427587650896	1.05880737304688	1.05865478515625	5.71594238281251E-07	6.05120987984265E-07	1852109	2.21360896830447E-05
1	214	93.1434667648354	1.04873657226563	1.04888916015625	5.63964843750001E-07	5.91536604588327E-07	1859848.625	2.21932696149452E-05
1	215	93.2441747645811	1.03866577148438	1.03912353515625	5.5694580078125E-07	5.78735466660873E-07	1865753.5	2.22497128561372E-05
1	216	93.3448827643268	1.02859497070313	1.0284423828125	5.50537109375E-07	5.66195694773342E-07	1868071	2.23054776142817E-05
1	217	93.4455907640726	1.01852416992188	1.01837158203125	5.44128417968751E-07	5.54124881091411E-07	1871564.875	2.23605984501773E-05
1	218	93.5462987638183	1.00845336914063	1.00799560546875	5.37109375E-07	5.41403892384551E-07	1876704.5	2.24150444410043E-05
1	219	93.647006763564	0.998382568359375	0.9979248046875	5.3070068359375E-07	5.29599390119984E-07	1880391	2.24688119487837E-05
1	220	93.7477147633098	0.988311767578125	0.98846435546875	5.230712890625E-07	5.17037278768839E-07	1889731.75	2.25218736886745E-05
1	221	93.8484227630555	0.978240966796875	0.9783935546875	5.157470703125E-07	5.04603576700902E-07	1897041.5	2.25741823669523E-05
1	222	93.9491307628012	0.968170166015625	0.968017578125	5.07507324218751E-07	4.91276011871378E-07	1907396.375	2.26257070607971E-05
1	223	94.049838762547	0.958099365234375	0.9576416015625	4.9896240234375E-07	4.77827143186005E-07	1919266.125	2.26763877435587E-05
1	224	94.1505467622927	0.948028564453125	0.94818115234375	4.8980712890625E-07	4.64425880863928E-07	1935825.625	2.27261753025232E-05
1	225	94.2512547620385	0.937957763671875	0.93780517578125	4.8065185546875E-07	4.50757795533718E-07	1951111.125	2.27750424528494E-05
1	226	94.3519627617842	0.927886962890625	0.92742919921875	4.70886230468751E-07	4.36713634144326E-07	1969539.875	2.28229564527282E-05
1	227	94.4526707615299	0.917816162109375	0.91796875	4.608154296875E-07	4.23014142825195E-07	1992053	2.28698718274245E-05
1	228	94.5533787612757	0.907745361328125	0.908203125	4.5166015625E-07	4.10199163525249E-07	2010810.75	2.29158176807687E-05
1	229	94.6540867610214	0.897674560546875	0.89752197265625	4.41589355468749E-07	3.96336133690056E-07	2032481	2.29607958317501E-05
1	230	94.7547947607671	0.887603759765625	0.887451171875	4.3182373046875E-07	3.83222442223996E-07	2055123.75	2.30047771765385E-05
1	231	94.8555027605129	0.877532958984375	0.87738037109375	4.23278808593749E-07	3.71376529528789E-07	2072819	2.30478344747098E-05
1	232	94.9562107602586	0.867462158203125	0.86761474609375	4.14428710937501E-07	3.59564467089513E-07	2093519.875	2.3090016838978E-05
1	233	95.0569187600044	0.857391357421875	0.85723876953125	4.058837890625E-07	3.47939305811451E-07	2112030	2.31313224503538E-05
1	234	95.1576267597501	0.847320556640625	0.84747314453125	3.97644042968751E-07	3.36992656002622E-07	2131235.5	2.31717822316568E-05
1	235	95.2583347594958	0.837249755859375	0.83709716796875	3.89709472656249E-07	3.26224693480981E-07	2148003.25	2.32114289246965E-05
1	236	95.3590427592416	0.827178955078125	0.82763671875	3.826904296875E-07	3.1672863087806E-07	2162679.5	2.32503225561231E-05
1	237	95.4597507589873	0.817108154296875	0.81695556640625	3.7567138671875E-07	3.06906827063358E-07	2174654.75	2.32885086006718E-05
1	238	95.560458758733	0.807037353515625	0.80657958984375	3.68652343750001E-07	2.97347440891826E-07	2187914	2.33259888773318E-05
1	239	95.6611667584788	0.796966552734375	0.7977294921875	3.62548828125001E-07	2.8921590455866E-07	2200336.75	2.3362807041849E-05
1	240	95.7618747582245	0.786895751953125	0.78704833984375	3.56445312500001E-07	2.80539666164259E-07	2208048	2.33990122069372E-05
1	241	95.8625827579702	0.776824951171875	0.7763671875	3.5125732421875E-07	2.72704653525579E-07	2210252	2.34346480283421E-05
1	242	95.963290757716	0.766754150390625	0.76690673828125	3.460693359375E-07	2.65402888999233E-07	2216049.5	2.34697617997881E-05
1	243	96.0639987574617	0.756683349609375	0.7562255859375	3.41796875E-07	2.58475523651214E-07	2212500	2.3504397177021E-05
1	244	96.1647067572075	0.746612548828125	0.7464599609375	3.369140625E-07	2.51492849656643E-07	2215579.75	2.35385741689242E-05
1	245	96.2654147569532	0.736541748046875	0.736419677734375	3.3233642578125E-07	2.44739084109824E-07	2215886.25	2.35722727666143E-05
1	246	96.3661227566989	0.726470947265625	0.726348876953125	3.2806396484375E-07	2.38288876630577E-07	2214046.75	2.360552753089E-05
1	247	96.4668307564447	0.716400146484375	0.71630859375	3.2501220703125E-07	2.32809028943848E-07	2203943.75	2.36384112213273E-05
1	248	96.5675387561904	0.706329345703125	0.70623779296875	3.21044921874999E-07	2.26734059083356E-07	2199810	2.36709438468097E-05
1	249	96.6682467559361	0.696258544921875	0.696136474609375	3.17993164062499E-07	2.21366647679133E-07	2189155.5	2.37031217693584E-05
1	250	96.7689547556819	0.686187744140625	0.68609619140625	3.14941406249999E-07	2.16080081827386E-07	2178488.5	2.37349922826979E-05
1	251	96.8696627554276	0.676116943359375	0.675994873046875	3.11889648437499E-07	2.10835793268416E-07	2167417	2.37665553868283E-05
1	252	96.9703707551733	0.666046142578125	0.665924072265625	3.08837890624999E-07	2.05662587404731E-07	2156225.25	2.37978110817494E-05
1	253	97.0710787549191	0.655975341796875	0.6558837890625	3.06091308593751E-07	2.00760311486192E-07	2142771.75	2.38287757383659E-05
1	254	97.1717867546648	0.645904541015625	0.64581298828125	3.0364990234375E-07	1.96101041183283E-07	2126834.25	2.38594784605084E-05
1	255	97.2724947544106	0.635833740234375	0.63580322265625	3.01513671875001E-07	1.91703364293971E-07	2108704.5	2.3889951989986E-05
1	256	97.3732027541563	0.625762939453125	0.625701904296875	2.99072265625E-07	1.87130083872944E-07	2092142.875	2.392019268882E-05
1	257	97.473910753902	0.615692138671875	0.61553955078125	2.96936035156251E-07	1.82775877988206E-07	2072970.125	2.39502041949891E-05
1	258	97.5746187536478	0.605621337890625	0.60552978515625	2.947998046875E-07	1.78510063619797E-07	2054037.25	2.39800010604085E-05
1	259	97.6753267533935	0.595550537109375	0.595458984375	2.9296875E-07	1.74450860868092E-07	2032500.125	2.40095978369936E-05
1	260	97.7760347531392	0.585479736328125	0.585418701171875	2.91748046875E-07	1.70794763221238E-07	2006589.875	2.40390399994794E-05
1	261	97.876742752885	0.575408935546875	0.57537841796875	2.899169921875E-07	1.66811972235337E-07	1984631.625	2.40683293668553E-05
1	262	97.9774507526307	0.565338134765625	0.565338134765625	2.880859375E-07	1.62865973152293E-07	1962394	2.40974350163015E-05
1	263	98.0781587523765	0.555267333984375	0.555206298828125	2.8717041015625E-07	1.59438812374901E-07	1933368.875	2.41264006035635E-05
1	264	98.1788667521222	0.545196533203125	0.545135498046875	2.8564453125E-07	1.5571497158362E-07	1908440.25	2.41552443185356E-05
1	265	98.2795747518679	0.535125732421875	0.535064697265625	2.8411865234375E-07	1.52021854660234E-07	1883243.875	2.41839334194083E-05
1	266	98.3802827516137	0.525054931640625	0.52496337890625	2.825927734375E-07	1.48350849826784E-07	1857667.5	2.42124697251711E-05
1	267	98.4809907513594	0.514984130859375	0.514923095703125	2.8106689453125E-07	1.44727835049707E-07	1832030.5	2.4240853235824E-05
1	268	98.5816987511051	0.504913330078125	0.504852294921875	2.79846191406249E-07	1.4128097802768E-07	1804035	2.42690966842929E-05
1	269	98.6824067508509	0.494842529296875	0.49481201171875	2.78320312499999E-07	1.37716227754936E-07	1777851	2.42972018895671E-05
1	270	98.7831147505966	0.484771728515625	0.484710693359375	2.76794433593749E-07	1.34165219378701E-07	1751157.75	2.43251542997314E-05
1	271	98.8838227503423	0.474700927734375	0.47467041015625	2.75268554687499E-07	1.30661831576617E-07	1724390.25	2.43529539147858E-05
1	272	98.9845307500881	0.464630126953125	0.464599609375	2.74047851562501E-07	1.27322522303075E-07	1695323	2.43806134676561E-05
1	273	99.0852387498338	0.454559326171875	0.454498291015625	2.72521972656251E-07	1.23860758094452E-07	1667749.25	2.44081365963211E-05
1	274	99.1859467495796	0.444488525390625	0.44451904296875	2.7008056640625E-07	1.20055958063858E-07	1645875.75	2.44354578171624E-05
1	275	99.2866547493253	0.434417724609375	0.434356689453125	2.67944335937501E-07	1.16383411352672E-07	1621070.625	2.44625498453388E-05
1	276	99.387362749071	0.424346923828125	0.424346923828125	2.66113281249999E-07	1.12924347206445E-07	1594610.25	2.44894417846808E-05
1	277	99.4880707488168	0.414276123046875	0.414306640625	2.63061523437499E-07	1.08988132296872E-07	1574942.125	2.45160881604534E-05
1	278	99.5887787485625	0.404205322265625	0.40423583984375	2.61535644531249E-07	1.05722072873959E-07	1545624.375	2.45425035245717E-05
1	279	99.6894867483082	0.394134521484375	0.394134521484375	2.60009765624999E-07	1.02478821872865E-07	1515845.125	2.45687660935801E-05
1	280	99.790194748054	0.384063720703125	0.384063720703125	2.58483886718749E-07	9.92742812400138E-08	1485832.375	2.45948740484891E-05
1	281	99.8909027477997	0.373992919921875	0.373992919921875	2.5787353515625E-07	9.64428750194202E-08	1450295.875	2.46208746830234E-05
1	282	99.9916107475455	0.363922119140625	0.3638916015625	2.5604248046875E-07	9.31717067942373E-08	1421215.75	2.46467516262783E-05
1	283	100.092318747291	0.353851318359375	0.35382080078125	2.545166015625E-07	9.0053269730106E-08	1390167.875	2.4672461222508E-05
1	284	100.193026747037	0.343780517578125	0.343780517578125	2.532958984375E-07	8.70781917683416E-08	1357228.875	2.46980307565536E-05
1	285	100.293734746783	0.333709716796875	0.333709716796875	2.5177001953125E-07	8.4018104473671E-08	1325454.5	2.4723463866394E-05
1	286	100.394442746528	0.323638916015625	0.32354736328125	2.50244140625E-07	8.09658331490937E-08	1292926.875	2.47487423621351E-05
1	287	100.495150746274	0.313568115234375	0.313568115234375	2.484130859375E-07	7.7894419803215E-08	1262285.125	2.47738516918616E-05
1	288	100.59585874602	0.303497314453125	0.303436279296875	2.46276855468749E-07	7.47293285030537E-08	1232094.25	2.47987609327538E-05
1	289	100.696566745766	0.293426513671875	0.2933349609375	2.4444580078125E-07	7.17044983389314E-08	1200000	2.48234700848116E-05
1	290	100.797274745511	0.283355712890625	0.2833251953125	2.4261474609375E-07	6.87388634901254E-08	1167798.75	2.48479955189396E-05
1	291	100.897982745257	0.273284912109375	0.273284912109375	2.3956298828125E-07	6.54689458201574E-08	1140764.375	2.48722753894981E-05
1	292	100.998690745003	0.263214111328125	0.26318359375	2.35900878906251E-07	6.20852418364848E-08	1115653.375	2.48962169280276E-05
1	293	101.099398744749	0.253143310546875	0.253143310546875	2.32543945312499E-07	5.88669415435561E-08	1088582.75	2.49198055826128E-05
1	294	101.200106744494	0.243072509765625	0.243072509765625	2.2857666015625E-07	5.55607009289361E-08	1063417.875	2.4943024982349E-05
1	295	101.30081474424	0.233001708984375	0.23297119140625	2.24914550781249E-07	5.23986081191197E-08	1035820.9375	2.49658587563317E-05
1	296	101.401522743986	0.222930908203125	0.22296142578125	2.20336914062499E-07	4.91266334279317E-08	1011911.375	2.49882796197198E-05
1	297	101.502230743732	0.212860107421875	0.212860107421875	2.1392822265625E-07	4.55367832330467E-08	995007.1875	2.50101456913399E-05
1	298	101.602938743477	0.202789306640625	0.20281982421875	2.0782470703125E-07	4.21509689374489E-08	975917.8125	2.50313842116157E-05
1	299	101.703646743223	0.192718505859375	0.19268798828125	1.995849609375E-07	3.84576246403867E-08	965443.4375	2.50518987741088E-05
1	300	101.804354742969	0.182647705078125	0.182708740234375	1.904296875E-07	3.47931674582469E-08	959455.125	2.50715365837095E-05
1	301	101.905062742714	0.172576904296875	0.172576904296875	1.77917480468751E-07	3.07044452085847E-08	969982.875	2.50900848186575E-05
1	302	102.00577074246	0.162506103515625	0.16253662109375	1.62353515624999E-07	2.63883919160435E-08	1001127.8125	2.51072178798495E-05
1	303	102.106478742206	0.152435302734375	0.1524658203125	1.41296386718751E-07	2.15428688221664E-08	1079049.75	2.51225083047757E-05
1	304	102.207186741952	0.142364501953125	0.1424560546875	1.1322021484375E-07	1.61289044342539E-08	1258221.125	2.51353249041131E-05
1	305	102.307894741697	0.132293701171875	0.13232421875	7.50732421874997E-08	9.93400739446315E-09	1762601.75	2.51448054768844E-05
1	306	102.408602741443	0.122222900390625	0.12225341796875	2.31933593749997E-08	2.83546741641771E-09	5271053	2.5149753128062E-05
1	307	102.509310741189	0.112152099609375	0.112213134765625	-4.85229492187503E-08	-5.44491207676856E-09	-2312578.5	2.51484780164901E-05
1	308	102.610018740935	0.102081298828125	0.10211181640625	-1.44042968749999E-07	-1.47084895374405E-08	-708898.3125	2.51387828029692E-05
1	309	102.71072674068	0.092010498046875	0.092071533203125	-2.703857421875E-07	-2.48948275327621E-08	-340519.21875	2.51179135375423E-05
1	310	102.811434740426	0.081939697265625	0.081939697265625	-4.315185546875E-07	-3.53585001278134E-08	-189886.84375	2.50825705734314E-05
1	311	102.912142740172	0.071868896484375	0.071929931640625	-6.2774658203125E-07	-4.51537651713352E-08	-114584.3515625	2.50292323471513E-05
1	312	103.012850739918	0.061798095703125	0.06182861328125	-8.50524902343749E-07	-5.25867740464037E-08	-72694.65625	2.49547956627794E-05
1	313	103.113558739663	0.051727294921875	0.05181884765625	-1.08734130859375E-06	-5.63447706269926E-08	-47656.47265625	2.48572159762261E-05
1	314	103.214266739409	0.041656494140625	0.04173583984375	-1.31317138671875E-06	-5.48063070482385E-08	-31782.478515625	2.47363404923817E-05
1	315	103.314974739155	0.031585693359375	0.0316741943359375	-1.507568359375E-06	-4.77510120333591E-08	-21010.123046875	2.45943047048058E-05
1	316	103.415682738901	0.021514892578125	0.0215789794921875	-1.6473388671875E-06	-3.55478917413166E-08	-13099.2958984375	2.44354432652472E-05
1	317	103.516390738646	0.011444091796875	0.011529541015625	-1.72698974609375E-06	-1.9911398752015E-08	-6676.09130859375	2.42655314650619E-05
1	318	103.617098738392	0.001373291015625	0.0014801025390625	-1.749267578125E-06	-2.58909538253249E-09	-846.127014160156	2.40904882957693E-05
1	319	103.717806738138	-0.008697509765625	-0.00859985351562501	-1.7279052734375E-06	1.48597312232823E-08	4977.0400390625	2.39153996517416E-05
1	320	103.818514737883	-0.018768310546875	-0.01865234375	-1.6766357421875E-06	3.12731884832829E-08	11124.86328125	2.3743967176415E-05
1	321	103.919222737629	-0.028839111328125	-0.0287261962890625	-1.60980224609375E-06	4.62434925907473E-08	17844.55078125	2.35784809774486E-05
1	322	104.019930737375	-0.038909912109375	-0.038751220703125	-1.53717041015625E-06	5.95672311476392E-08	25209.451171875	2.34200178965693E-05
1	323	104.120638737121	-0.048980712890625	-0.04884033203125	-1.46514892578125E-06	7.15583610144677E-08	33334.72265625	2.32688398682512E-05
1	324	104.221346736866	-0.059051513671875	-0.05902099609375	-1.39739990234375E-06	8.24759283091225E-08	42236.296875	2.31246995099355E-05
1	325	104.322054736612	-0.069122314453125	-0.069091796875	-1.33544921875E-06	9.22685785553767E-08	51736.75	2.29870893235784E-05
1	326	104.422762736358	-0.079193115234375	-0.07916259765625	-1.27960205078125E-06	1.01296613763679E-07	61865.015625	2.28554108616663E-05
1	327	104.523470736104	-0.089263916015625	-0.08917236328125	-1.23016357421875E-06	1.09696593142417E-07	72488.21875	2.27290347538656E-05
1	328	104.624178735849	-0.099334716796875	-0.0992431640625	-1.18682861328125E-06	1.177846300493E-07	83620.46875	2.26073279918637E-05
1	329	104.724886735595	-0.109405517578125	-0.10931396484375	-1.148681640625E-06	1.25566941733268E-07	95164.7265625	2.24897266889457E-05
1	330	104.825594735341	-0.119476318359375	-0.119415283203125	-1.1151123046875E-06	1.33161449866748E-07	107088.125	2.23757360799937E-05
1	331	104.926302735087	-0.129547119140625	-0.129486083984375	-1.0858154296875E-06	1.40597975928358E-07	119252.3984375	2.22649105126038E-05
1	332	105.027010734832	-0.139617919921875	-0.1395263671875	-1.06048583984375E-06	1.47965735664002E-07	131568.34375	2.21568352571921E-05
1	333	105.127718734578	-0.149688720703125	-0.149627685546875	-1.0382080078125E-06	1.55344650920597E-07	144121.109375	2.20511574298143E-05
1	334	105.228426734324	-0.159759521484375	-0.159637451171875	-1.01806640625E-06	1.62521530455706E-07	156804.546875	2.19476150959963E-05
1	335	105.329134734069	-0.169830322265625	-0.169708251953125	-1.0015869140625E-06	1.69977553809986E-07	169439.375	2.18459190364229E-05
1	336	105.429842733815	-0.179901123046875	-0.17974853515625	-9.86633300781251E-07	1.77345881979818E-07	182183.734375	2.17458036786411E-05
1	337	105.530550733561	-0.189971923828125	-0.1898193359375	-9.7381591796875E-07	1.84849085371752E-07	194923.234375	2.16470871237107E-05
1	338	105.631258733307	-0.200042724609375	-0.199951171875	-9.63134765625E-07	1.92579918234514E-07	207604.5625	2.15495529118925E-05
1	339	105.731966733052	-0.189971923828125	-0.189849853515625	-8.3465576171875E-07	1.58459272370237E-07	227458.875	2.14590272662463E-05
2	340	105.832674732798	-0.179901123046875	-0.1798095703125	-7.476806640625E-07	1.34440128363167E-07	240489.796875	2.13793500734027E-05
2	341	105.933382732544	-0.169830322265625	-0.169769287109375	-6.787109375E-07	1.15224274566117E-07	250134.890625	2.13075254578143E-05
2	342	106.03409073229	-0.159759521484375	-0.159759521484375	-6.20422363281251E-07	9.91183739529333E-08	257501.25	2.12421091418946E-05
2	343	106.134798732035	-0.149688720703125	-0.149566650390625	-5.694580078125E-07	8.51719264005624E-08	262647.375	2.11821952689206E-05
2	344	106.235506731781	-0.139617919921875	-0.1395263671875	-5.2490234375E-07	7.32377145595819E-08	265813.96875	2.11270889849402E-05
2	345	106.336214731527	-0.129547119140625	-0.129425048828125	-4.84313964843749E-07	6.26823535299081E-08	267233.78125	2.10762718779733E-05
2	346	106.436922731273	-0.119476318359375	-0.119384765625	-4.46472167968751E-07	5.3301970837083E-08	267395.78125	2.10294019780122E-05
2	347	106.537630731018	-0.109405517578125	-0.10931396484375	-4.107666015625E-07	4.49025243653978E-08	266121.84375	2.0986237359466E-05
2	348	106.638338730764	-0.099334716796875	-0.099273681640625	-3.7689208984375E-07	3.741546450442E-08	263400.8125	2.09465742955217E-05
2	349	106.73904673051	-0.089263916015625	-0.0892333984375	-3.4332275390625E-07	3.06358565183018E-08	259911.125	2.09103091037832E-05
2	350	106.839754730256	-0.079193115234375	-0.0791015625	-3.0853271484375E-07	2.44054199072252E-08	256379.8125	2.08774854399962E-05
2	351	106.940462730001	-0.069122314453125	-0.069061279296875	-2.716064453125E-07	1.87574880072816E-08	254269.671875	2.08482742891647E-05
2	352	107.041170729747	-0.059051513671875	-0.0589599609375	-2.30712890625E-07	1.36028228681084E-08	255555.5625	2.0822979422519E-05
2	353	107.141878729493	-0.048980712890625	-0.04884033203125	-1.8341064453125E-07	8.95783625054491E-09	266289.53125	2.08021265279967E-05
2	354	107.242586729238	-0.038909912109375	-0.038775634765625	-1.2542724609375E-07	4.86352114137389E-09	309148.40625	2.07865759875858E-05
2	355	107.343294728984	-0.028839111328125	-0.0286895751953125	-5.37109374999997E-08	1.5409438169911E-09	534147.75	2.07775556191336E-05
2	356	107.44400272873	-0.018768310546875	-0.0186431884765625	4.02832031249994E-08	-7.51007311894369E-10	-462803.0625	2.07768789550755E-05
2	357	107.544710728476	-0.008697509765625	-0.008624267578125	1.59606933593751E-07	-1.37649291964692E-09	-54034.421875	2.07869452424347E-05
2	358	107.645418728221	0.001373291015625	0.00146484375	3.11279296875E-07	4.5597550735188E-10	4705.8828125	2.081065576931E-05
2	359	107.746126727967	0.011444091796875	0.0115325927734375	4.98046875E-07	5.74377168049978E-09	23155.63671875	2.0851408407907E-05
2	360	107.846834727713	0.021514892578125	0.0216033935546875	7.1746826171875E-07	1.54997490398046E-08	30110.591796875	2.09126137633575E-05
2	361	107.947542727459	0.031585693359375	0.0317108154296875	9.5855712890625E-07	3.03966238845987E-08	33081.82421875	2.09970094147138E-05
2	362	108.048250727204	0.041656494140625	0.0417694091796875	1.20269775390625E-06	5.02359718268508E-08	34729.765625	2.11058359127492E-05
2	363	108.14895872695	0.051727294921875	0.05181884765625	1.42547607421875E-06	7.38665235644476E-08	36351.9609375	2.12381764868042E-05
2	364	108.249666726696	0.061798095703125	0.061737060546875	1.6058349609375E-06	9.91395268101769E-08	38445.4609375	2.13908151636133E-05
2	365	108.350374726442	0.071868896484375	0.0718994140625	1.7291259765625E-06	1.24323150885175E-07	41581.36328125	2.15587424463592E-05
2	366	108.451082726187	0.081939697265625	0.08197021484375	1.793212890625E-06	1.46990046800966E-07	45711.37109375	2.17361066461308E-05
2	367	108.551790725933	0.092010498046875	0.09197998046875	1.805419921875E-06	1.66062477546802E-07	50946.5859375	2.19173125515226E-05
2	368	108.652498725679	0.102081298828125	0.102081298828125	1.78009033203125E-06	1.81713929237048E-07	57346.1328125	2.2097858163761E-05
2	369	108.753206725425	0.112152099609375	0.1121826171875	1.7303466796875E-06	1.94114818441449E-07	64832.453125	2.22746220970294E-05
2	370	108.85391472517	0.122222900390625	0.12225341796875	1.6693115234375E-06	2.04079029231252E-07	73235.8359375	2.24458090087865E-05
2	371	108.954622724916	0.132293701171875	0.132354736328125	1.605224609375E-06	2.12459084991679E-07	82452.46875	2.26106949412497E-05
2	372	109.055330724662	0.142364501953125	0.142425537109375	1.5411376953125E-06	2.19497351849895E-07	92415.84375	2.27691252803197E-05
2	373	109.156038724407	0.152435302734375	0.152435302734375	1.48162841796875E-06	2.25852474500243E-07	102883.625	2.29213346756296E-05
2	374	109.256746724153	0.162506103515625	0.162567138671875	1.42730712890625E-06	2.32033229963235E-07	113897.796875	2.30678106163396E-05
2	375	109.357454723899	0.172576904296875	0.17254638671875	1.37847900390625E-06	2.37851565998426E-07	125171.578125	2.32090933423024E-05
2	376	109.458162723645	0.182647705078125	0.182708740234375	1.33514404296875E-06	2.43942480437909E-07	136845.71875	2.33457358262967E-05
2	377	109.55887072339	0.192718505859375	0.19268798828125	1.2969970703125E-06	2.49915757422059E-07	148564.703125	2.34782746701967E-05
2	378	109.659578723136	0.202789306640625	0.202880859375	1.26312255859375E-06	2.56263376741117E-07	160618.515625	2.3607186449226E-05
2	379	109.760286722882	0.212860107421875	0.212860107421875	1.2322998046875E-06	2.62307452203459E-07	172734.03125	2.37328404182335E-05
2	380	109.860994722628	0.222930908203125	0.22296142578125	1.2054443359375E-06	2.68767564648442E-07	184962.03125	2.3855591280153E-05
2	381	109.961702722373	0.233001708984375	0.23297119140625	1.18133544921875E-06	2.75217104217518E-07	197210.03125	2.39757755480241E-05
2	382	110.062410722119	0.243072509765625	0.24310302734375	1.15997314453125E-06	2.81992953432564E-07	209576.4375	2.40936697082361E-05
2	383	110.163118721865	0.253143310546875	0.25311279296875	1.1407470703125E-06	2.88737680875784E-07	221883.375	2.42095193243586E-05
2	384	110.263826721611	0.263214111328125	0.26318359375	1.12335205078125E-06	2.95647822667888E-07	234284.171875	2.43235263042152E-05
2	385	110.364534721356	0.273284912109375	0.27325439453125	1.10748291015625E-06	3.02624556525188E-07	246734.65625	2.44358579948312E-05
2	386	110.465242721102	0.283355712890625	0.2833251953125	1.092529296875E-06	3.09541064780205E-07	259329.625	2.45466362684965E-05
2	387	110.565950720848	0.293426513671875	0.293426513671875	1.0797119140625E-06	3.16816084477978E-07	271763.71875	2.46560175582999E-05
2	388	110.666658720594	0.303497314453125	0.303436279296875	1.06719970703125E-06	3.2382712333856E-07	284329.4375	2.47641237365315E-05
2	389	110.767366720339	0.313568115234375	0.3135986328125	1.0565185546875E-06	3.31322752344931E-07	296822.65625	2.48710621235659E-05
2	390	110.868074720085	0.323638916015625	0.323638916015625	1.046142578125E-06	3.38572448299601E-07	309364.0625	2.49769382207887E-05
2	391	110.968782719831	0.333709716796875	0.333709716796875	1.0369873046875E-06	3.46052758004589E-07	321806.9375	2.50818320637336E-05
2	392	111.069490719576	0.343780517578125	0.343780517578125	1.02783203125E-06	3.53348610815374E-07	334471.5	2.51858036790509E-05
2	393	111.170198719322	0.353851318359375	0.353851318359375	1.02081298828125E-06	3.61216024202804E-07	346636.78125	2.52889622061048E-05
2	394	111.270906719068	0.363922119140625	0.363861083984375	1.01409912109375E-06	3.68991209143132E-07	358802.28125	2.53914276981959E-05
2	395	111.371614718814	0.373992919921875	0.3739013671875	1.00738525390625E-06	3.76662711687459E-07	371160.28125	2.54932183452183E-05
2	396	111.472322718559	0.384063720703125	0.384002685546875	1.002197265625E-06	3.8484643027914E-07	383160.78125	2.55944087257376E-05
2	397	111.573030718305	0.394134521484375	0.39410400390625	9.9761962890625E-07	3.93165890955061E-07	395044.34375	2.56951079791179E-05
2	398	111.673738718051	0.404205322265625	0.404205322265625	9.9365234375E-07	4.01639539404641E-07	406787.5	2.57953761320096E-05
2	399	111.774446717797	0.414276123046875	0.414215087890625	9.9029541015625E-07	4.10195269751057E-07	418274.28125	2.58952750300523E-05
2	400	111.875154717542	0.424346923828125	0.424346923828125	9.869384765625E-07	4.18804262380945E-07	429962.9375	2.59948374150554E-05
2	401	111.975862717288	0.434417724609375	0.43438720703125	9.844970703125E-07	4.2765293528646E-07	441227.53125	2.60941069427645E-05
2	402	112.076570717034	0.444488525390625	0.44439697265625	9.82666015625E-07	4.36693767369434E-07	452236.0625	2.6193161829724E-05
2	403	112.17727871678	0.454559326171875	0.45452880859375	9.7991943359375E-07	4.45401582283012E-07	463843.0625	2.62919857050292E-05
2	404	112.277986716525	0.464630126953125	0.464599609375	9.7808837890625E-07	4.54419449624766E-07	475007.8125	2.63905785686802E-05
2	405	112.378694716271	0.474700927734375	0.4747314453125	9.75952148437501E-07	4.63315188881097E-07	486429	2.64889731624862E-05
2	406	112.479402716017	0.484771728515625	0.484771728515625	9.74426269531251E-07	4.72374296123235E-07	497494.53125	2.65871822193731E-05
2	407	112.580110715763	0.494842529296875	0.4947509765625	9.735107421875E-07	4.81645372474304E-07	508213.15625	2.66852675849805E-05
2	408	112.680818715508	0.504913330078125	0.504852294921875	9.722900390625E-07	4.90862817059678E-07	519240.46875	2.67832474492025E-05
2	409	112.781526715254	0.514984130859375	0.51495361328125	9.722900390625E-07	5.00684222970449E-07	529629.6875	2.68811636487953E-05
2	410	112.882234715	0.525054931640625	0.524993896484375	9.7198486328125E-07	5.10286099597579E-07	540125.625	2.69790671154624E-05
2	411	112.982942714745	0.535125732421875	0.53509521484375	9.72595214843749E-07	5.20431058248505E-07	550172.5625	2.70769833150553E-05
2	412	113.083650714491	0.545196533203125	0.545135498046875	9.72595214843749E-07	5.30196189174603E-07	560495.75	2.71749322564574E-05
2	413	113.184358714237	0.555267333984375	0.55523681640625	9.7320556640625E-07	5.40359508249821E-07	570523.75	2.727291030169E-05
2	414	113.285066713983	0.565338134765625	0.56536865234375	9.7381591796875E-07	5.50564948298415E-07	580570.375	2.73709520115517E-05
2	415	113.385774713728	0.575408935546875	0.57537841796875	9.7503662109375E-07	5.61015042421786E-07	590109.5625	2.74690828518942E-05
2	416	113.486482713474	0.585479736328125	0.585418701171875	9.7686767578125E-07	5.71876626054291E-07	599281.5	2.75673701253254E-05
2	417	113.58719071322	0.595550537109375	0.595489501953125	9.79003906250001E-07	5.82986501740379E-07	608260.625	2.76658556686016E-05
2	418	113.687898712966	0.605621337890625	0.60552978515625	9.8114013671875E-07	5.94109565099643E-07	617169.5	2.77645576716168E-05
2	419	113.788606712711	0.615692138671875	0.615631103515625	9.83581542968751E-07	6.0552338254638E-07	625907.5	2.78634888672968E-05
2	420	113.889314712457	0.625762939453125	0.62567138671875	9.86633300781251E-07	6.17308216988022E-07	634147.875	2.79626965493662E-05
2	421	113.990022712203	0.635833740234375	0.635711669921875	9.9029541015625E-07	6.2954228496892E-07	641941.5	2.80622425634647E-05
2	422	114.090730711949	0.645904541015625	0.64581298828125	9.9334716796875E-07	6.41516521682206E-07	650138.25	2.81621269095922E-05
2	423	114.191438711694	0.655975341796875	0.655853271484375	9.967041015625E-07	6.53691643037746E-07	658022.0625	2.82623350358335E-05
2	424	114.29214671144	0.666046142578125	0.66595458984375	1.00067138671875E-06	6.66401660964766E-07	665507.8125	2.83629105979344E-05
2	425	114.392854711186	0.676116943359375	0.675994873046875	1.0040283203125E-06	6.78717981372756E-07	673282.6875	2.84638554148842E-05
2	426	114.493562710932	0.686187744140625	0.686065673828125	1.00860595703125E-06	6.91969944455195E-07	680211.8125	2.85651985905133E-05
2	427	114.594270710677	0.696258544921875	0.69610595703125	1.0125732421875E-06	7.04858223343763E-07	687462.375	2.86669728666311E-05
2	428	114.694978710423	0.706329345703125	0.70623779296875	1.0174560546875E-06	7.18565900115209E-07	694121.1875	2.87691927951528E-05
2	429	114.795686710169	0.716400146484375	0.716278076171875	1.02203369140625E-06	7.32060300379089E-07	700836.125	2.88718892988982E-05
2	430	114.896394709914	0.726470947265625	0.726318359375	1.02691650390625E-06	7.45868305784825E-07	707280.8125	2.89750623778673E-05
2	431	114.99710270966	0.736541748046875	0.7364501953125	1.03179931640625E-06	7.59868839850242E-07	713753.3125	2.90787265839754E-05
2	432	115.097810709406	0.746612548828125	0.746490478515625	1.0369873046875E-06	7.74101181377773E-07	719864.625	2.9182898288127E-05
2	433	115.198518709152	0.756683349609375	0.7568359375	1.04248046875E-06	7.88986653788015E-07	725995.3125	2.92876084131422E-05
2	434	115.299226708897	0.766754150390625	0.7672119140625	1.0479736328125E-06	8.04017815880798E-07	732090.875	2.93928715109359E-05
2	435	115.399934708643	0.776824951171875	0.77728271484375	1.053466796875E-06	8.18841556338157E-07	737833.125	2.94986875815084E-05
2	436	115.500642708389	0.786895751953125	0.78643798828125	1.05865478515625E-06	8.3256634297868E-07	742865.375	2.96050402539549E-05
2	437	115.601350708135	0.796966552734375	0.797119140625	1.0638427734375E-06	8.48009449327947E-07	749282.875	2.97119167953497E-05
2	438	115.70205870788	0.807037353515625	0.80718994140625	1.0687255859375E-06	8.62664478518127E-07	755282.75	2.9819300834788E-05
2	439	115.802766707626	0.817108154296875	0.8172607421875	1.072998046875E-06	8.76919102665852E-07	761661	2.99271450785454E-05
2	440	115.903474707372	0.827178955078125	0.8270263671875	1.077880859375E-06	8.91435888661363E-07	767270.6875	3.0035449526622E-05
2	441	116.004182707118	0.837249755859375	0.83770751953125	1.0821533203125E-06	9.06527930055745E-07	774111.6875	3.0144215998007E-05
2	442	116.104890706863	0.847320556640625	0.84747314453125	1.08673095703125E-06	9.20975253393408E-07	779837.1875	3.02534281217959E-05
2	443	116.205598706609	0.857391357421875	0.85784912109375	1.09100341796875E-06	9.35916261823877E-07	786293.75	3.03630858979886E-05
2	444	116.306306706355	0.867462158203125	0.86700439453125	1.09466552734375E-06	9.49079833389987E-07	792026.75	3.04731438518502E-05
2	445	116.407014706101	0.877532958984375	0.877685546875	1.09832763671875E-06	9.63986281021789E-07	799110.875	3.05835710605606E-05
2	446	116.507722705846	0.887603759765625	0.88775634765625	1.10107421875E-06	9.77485569819692E-07	806263.875	3.06943184114061E-05
2	447	116.608430705592	0.897674560546875	0.897216796875	1.1041259765625E-06	9.90640387499298E-07	812603.625	3.0805360438535E-05
2	448	116.709138705338	0.907745361328125	0.9075927734375	1.10687255859375E-06	1.00458953511406E-06	819961.375	3.09166898659896E-05
2	449	116.809846705083	0.917816162109375	0.91796875	1.1090087890625E-06	1.01803539109824E-06	827738.0625	3.10282703139819E-05
2	450	116.910554704829	0.927886962890625	0.9283447265625	1.1114501953125E-06	1.03180889254872E-06	835255.375	3.11400799546391E-05
2	451	117.011262704575	0.937957763671875	0.93719482421875	1.11358642578125E-06	1.04364744402119E-06	841600.4375	3.12521187879611E-05
2	452	117.111970704321	0.948028564453125	0.9478759765625	1.11480712890625E-06	1.05669892036531E-06	850260.0625	3.1364328606287E-05
2	453	117.212678704066	0.958099365234375	0.95794677734375	1.11724853515625E-06	1.07026460227644E-06	857416	3.14767203235533E-05
2	454	117.313386703812	0.968170166015625	0.96832275390625	1.11846923828125E-06	1.08303913748387E-06	865757.1875	3.15892975777388E-05
2	455	117.414094703558	0.978240966796875	0.97808837890625	1.12060546875E-06	1.09605116449529E-06	872821.375	3.17020421789493E-05
2	456	117.514802703304	0.988311767578125	0.98846435546875	1.1224365234375E-06	1.10948849396664E-06	880641.6875	3.18149905069731E-05
2	457	117.615510703049	0.998382568359375	0.99822998046875	1.1248779296875E-06	1.12288682885264E-06	887411.8125	3.19281498377677E-05
2	458	117.716218702795	1.00845336914063	1.00799560546875	1.1273193359375E-06	1.13633279852365E-06	894152.75	3.20415565511212E-05
2	459	117.816926702541	1.01852416992188	1.01806640625	1.13006591796875E-06	1.15048214865965E-06	900891.1875	3.21552251989488E-05
2	460	117.917634702287	1.02859497070313	1.02935791015625	1.1328125E-06	1.16606952360598E-06	908674.5625	3.22691703331657E-05
2	461	118.018342702032	1.03866577148438	1.03851318359375	1.136474609375E-06	1.18024377115944E-06	913802.375	3.23834392474964E-05
2	462	118.119050701778	1.04873657226563	1.048583984375	1.14013671875E-06	1.19552908017795E-06	919700.25	3.24980755976867E-05
2	463	118.219758701524	1.05880737304688	1.0589599609375	1.14410400390625E-06	1.21156028853875E-06	925580.1875	3.26130975736305E-05
2	464	118.32046670127	1.06887817382813	1.06903076171875	1.14776611328125E-06	1.22699725579878E-06	931401.25	3.27285015373491E-05
2	465	118.421174701015	1.07894897460938	1.07879638671875	1.15264892578125E-06	1.24347343444242E-06	935928	3.28443347825669E-05
2	466	118.521882700761	1.08901977539063	1.08856201171875	1.15631103515625E-06	1.25871622458362E-06	941409.375	3.29606009472627E-05
2	467	118.622590700507	1.09909057617188	1.09893798828125	1.160888671875E-06	1.27574458019808E-06	946635.1875	3.30772818415426E-05
2	468	118.723298700252	1.10916137695313	1.10870361328125	1.16546630859375E-06	1.29215675315209E-06	951296.1875	3.31944247591309E-05
2	469	118.824006699998	1.11923217773438	1.119384765625	1.1700439453125E-06	1.30972932765872E-06	956703.1875	3.3312026062049E-05
2	470	118.924714699744	1.12930297851563	1.129150390625	1.17431640625E-06	1.32597983792948E-06	961538.5	3.34300748363603E-05
2	471	119.02542269949	1.13937377929688	1.13922119140625	1.17828369140625E-06	1.34232573145709E-06	966847.9375	3.35485347022768E-05
2	472	119.126130699235	1.14944458007813	1.14990234375	1.18255615234375E-06	1.35982406845869E-06	972387.0625	3.36674129357561E-05
2	473	119.226838698981	1.15951538085938	1.15936279296875	1.1859130859375E-06	1.37490349061409E-06	977611.9375	3.3786676794989E-05
2	474	119.327546698727	1.16958618164063	1.16973876953125	1.18988037109375E-06	1.39184919589752E-06	983072.625	3.39063080900814E-05
2	475	119.428254698473	1.17965698242188	1.17919921875	1.1932373046875E-06	1.40706447382399E-06	988235.3125	3.40263068210334E-05
2	476	119.528962698218	1.18972778320313	1.1895751953125	1.19659423828125E-06	1.42343878906104E-06	994134.1875	3.41466438840143E-05
2	477	119.629670697964	1.19979858398438	1.19964599609375	1.19964599609375E-06	1.43915053740784E-06	1000000	3.42673047271091E-05
2	478	119.73037869771	1.20986938476563	1.209716796875	1.20330810546875E-06	1.45566207265801E-06	1005325.875	3.4388303902233E-05
2	479	119.831086697456	1.21994018554688	1.21978759765625	1.20635986328125E-06	1.47150274187879E-06	1011130.8125	3.45096377714071E-05
2	480	119.931794697201	1.23001098632813	1.23016357421875	1.2091064453125E-06	1.48739854921587E-06	1017415.5	3.46312663168646E-05
2	481	120.032502696947	1.24008178710938	1.240234375	1.21185302734375E-06	1.50298183143605E-06	1023419.8125	3.47531713487115E-05
2	482	120.133210696693	1.25015258789063	1.24969482421875	1.2152099609375E-06	1.51864162489801E-06	1028377.6875	3.48753856087569E-05
2	483	120.233918696439	1.26022338867188	1.26007080078125	1.21826171875E-06	1.53509597566881E-06	1034318.6875	3.49979200109374E-05
2	484	120.334626696184	1.27029418945313	1.26983642578125	1.220703125E-06	1.55009320224053E-06	1040250	3.51207308995072E-05
2	485	120.43533469593	1.28036499023438	1.280517578125	1.22344970703125E-06	1.56664884798374E-06	1046645.0625	3.52438037225511E-05
2	486	120.536042695676	1.29043579101563	1.28997802734375	1.226806640625E-06	1.58255352289416E-06	1051492.625	3.53671857737936E-05
2	487	120.636750695421	1.30050659179688	1.300048828125	1.23016357421875E-06	1.59927265031001E-06	1056809.75	3.54909025190864E-05
2	488	120.737458695167	1.31057739257813	1.31072998046875	1.2335205078125E-06	1.6168122556337E-06	1062592.75	3.56149575964082E-05
2	489	120.838166694913	1.32064819335938	1.32080078125	1.23687744140625E-06	1.63366871674953E-06	1067851	3.57393546437379E-05
2	490	120.938874694659	1.33071899414063	1.33026123046875	1.2408447265625E-06	1.65064750490274E-06	1072061	3.58641154889483E-05
2	491	121.039582694404	1.34078979492188	1.34124755859375	1.2451171875E-06	1.67001030604297E-06	1077206	3.59892947017215E-05
2	492	121.14029069415	1.35086059570313	1.35101318359375	1.25E-06	1.68876647421712E-06	1080810.625	3.61149322998244E-05
2	493	121.240998693896	1.36093139648438	1.36077880859375	1.2554931640625E-06	1.70844839431084E-06	1083860	3.62410937668756E-05
2	494	121.341706693642	1.37100219726563	1.37115478515625	1.2615966796875E-06	1.72984425717004E-06	1086840.875	3.63678409485146E-05
2	495	121.442414693387	1.38107299804688	1.38092041015625	1.268310546875E-06	1.75143588876381E-06	1088787.375	3.64952320524026E-05
2	496	121.543122693133	1.39114379882813	1.3909912109375	1.2750244140625E-06	1.77354775132699E-06	1090952.625	3.66232998203486E-05
2	497	121.643830692879	1.40121459960938	1.4007568359375	1.282958984375E-06	1.79711344117095E-06	1091817.375	3.67521024600137E-05
2	498	121.744538692625	1.41128540039063	1.41082763671875	1.2908935546875E-06	1.82122835212795E-06	1092907.75	3.68817054550163E-05
2	499	121.84524669237	1.42135620117188	1.42120361328125	1.300048828125E-06	1.84763405286503E-06	1093192.5	3.70121706509963E-05
2	500	121.945954692116	1.43142700195313	1.43096923828125	1.30889892578125E-06	1.87299394838192E-06	1093261.875	3.71435417036992E-05
2	501	122.046662691862	1.44149780273438	1.44134521484375	1.31805419921875E-06	1.89977106401784E-06	1093540.25	3.7275818613125E-05
2	502	122.147370691608	1.45156860351563	1.45172119140625	1.32720947265625E-06	1.9267381503596E-06	1093814.625	3.74090195691679E-05
2	503	122.248078691353	1.46163940429688	1.461181640625	1.33575439453125E-06	1.95177972273086E-06	1093899.875	3.75431118300185E-05
2	504	122.348786691099	1.47171020507813	1.47216796875	1.3446044921875E-06	1.97948361346789E-06	1094870.625	3.76780772057828E-05
2	505	122.449494690845	1.48178100585938	1.48162841796875	1.35345458984375E-06	2.00531667360337E-06	1094701.25	3.78139338863548E-05
2	506	122.55020269059	1.49185180664063	1.49139404296875	1.3616943359375E-06	2.03082277039357E-06	1095248.75	3.79506527679041E-05
2	507	122.650910690336	1.50192260742188	1.5020751953125	1.36993408203125E-06	2.05774381356605E-06	1096458.125	3.80882011086214E-05
2	508	122.751618690082	1.49185180664063	1.4910888671875	1.2713623046875E-06	1.89571414921375E-06	1172827.625	3.82212019758299E-05
2	509	122.852326689828	1.48178100585938	1.48193359375	1.20452880859375E-06	1.78503159986576E-06	1230301.5	3.83458718715701E-05
2	510	122.953034689573	1.47171020507813	1.4715576171875	1.1529541015625E-06	1.6966382645478E-06	1276336.75	3.84645827580243E-05
2	511	123.053742689319	1.46163940429688	1.4617919921875	1.1102294921875E-06	1.62292462846381E-06	1316657.5	3.85785424441565E-05
2	512	123.154450689065	1.45156860351563	1.45172119140625	1.07269287109375E-06	1.55725092554349E-06	1353342.875	3.8688460335834E-05
2	513	123.255158688811	1.44149780273438	1.441650390625	1.0394287109375E-06	1.49849267927493E-06	1386964.25	3.87948130082805E-05
2	514	123.355866688556	1.43142700195313	1.4312744140625	1.01043701171875E-06	1.44621265008027E-06	1416490.5	3.88980333809741E-05
2	515	123.456574688302	1.42135620117188	1.4208984375	9.8388671875E-07	1.39800306442339E-06	1444168.75	3.8998456147965E-05
2	516	123.557282688048	1.41128540039063	1.41082763671875	9.5947265625E-07	1.3536505321099E-06	1470419.75	3.90963105019182E-05
2	517	123.657990687794	1.40121459960938	1.4013671875	9.368896484375E-07	1.31292642890912E-06	1495765.5	3.91918001696467E-05
2	518	123.758698687539	1.39114379882813	1.3909912109375	9.16442871093751E-07	1.27476391753589E-06	1517815.625	3.92851252399851E-05
2	519	123.859406687285	1.38107299804688	1.38092041015625	8.9752197265625E-07	1.23940640150977E-06	1538592.375	3.93764639738947E-05
2	520	123.960114687031	1.37100219726563	1.370849609375	8.7921142578125E-07	1.20526658520248E-06	1559180.875	3.94659291487187E-05
2	521	124.060822686777	1.36093139648438	1.361083984375	8.6181640625E-07	1.173004420707E-06	1579320.125	3.9553597162012E-05
2	522	124.161530686522	1.35086059570313	1.35101318359375	8.46252441406251E-07	1.14329816369718E-06	1596466	3.96396062569693E-05
2	523	124.262238686268	1.34078979492188	1.3409423828125	8.30993652343751E-07	1.11431461391476E-06	1613661.375	3.97240619349759E-05
2	524	124.362946686014	1.33071899414063	1.33056640625	8.1695556640625E-07	1.08701362933061E-06	1628688.875	3.98070442315657E-05
2	525	124.463654685759	1.32064819335938	1.32049560546875	8.0291748046875E-07	1.06024890556E-06	1644621.875	3.98886113543995E-05
2	526	124.564362685505	1.31057739257813	1.3104248046875	7.89794921875001E-07	1.03496688552696E-06	1659196.375	3.99688105972018E-05
2	527	124.665070685251	1.30050659179688	1.3006591796875	7.7667236328125E-07	1.01018599707459E-06	1674656.25	4.00476856157184E-05
2	528	124.765778684997	1.29043579101563	1.28997802734375	7.6416015625E-07	9.85749807114189E-07	1688099.125	4.01252727897372E-05
2	529	124.866486684742	1.28036499023438	1.280517578125	7.51953125E-07	9.62889203037776E-07	1702922.125	4.0201615775004E-05
2	530	124.967194684488	1.27029418945313	1.2701416015625	7.403564453125E-07	9.40357494982891E-07	1715581.25	4.02767618652433E-05
2	531	125.067902684234	1.26022338867188	1.2603759765625	7.28759765625001E-07	9.18511261716048E-07	1729480.75	4.03507365263067E-05
2	532	125.16861068398	1.25015258789063	1.2506103515625	7.171630859375E-07	8.96891549473366E-07	1743829.875	4.0423543396173E-05
2	533	125.269318683725	1.24008178710938	1.2396240234375	7.061767578125E-07	8.75393652677303E-07	1755401.875	4.04952152166516E-05
2	534	125.370026683471	1.23001098632813	1.2298583984375	6.94885253906249E-07	8.54610391343158E-07	1769872.75	4.05657629016787E-05
2	535	125.470734683217	1.21994018554688	1.21978759765625	6.84814453125E-07	8.35328137327451E-07	1781194.375	4.06352373829577E-05
2	536	125.571442682963	1.20986938476563	1.209716796875	6.7291259765625E-07	8.14033626284072E-07	1797732.5	4.07036059186794E-05
2	537	125.672150682708	1.19979858398438	1.1993408203125	6.622314453125E-07	7.94241145740671E-07	1811060	4.07708357670344E-05
2	538	125.772858682454	1.18972778320313	1.18927001953125	6.5155029296875E-07	7.7486924965342E-07	1825292.75	4.08369887736626E-05
2	539	125.8735666822	1.17965698242188	1.1798095703125	6.4056396484375E-07	7.55743485569838E-07	1841829.5	4.09020503866486E-05
2	540	125.974274681946	1.16958618164063	1.16943359375	6.29577636718751E-07	7.36249262445199E-07	1857489.125	4.09660096920561E-05
2	541	126.074982681691	1.15951538085938	1.15936279296875	6.18591308593749E-07	7.1717170158081E-07	1874198.375	4.10288594139274E-05
2	542	126.175690681437	1.14944458007813	1.14959716796875	6.07910156249999E-07	6.98851749802998E-07	1891064.375	4.10906177421566E-05
2	543	126.276398681183	1.13937377929688	1.13922119140625	5.97534179687501E-07	6.80723587720422E-07	1906537.375	4.11513174185529E-05
2	544	126.377106680928	1.12930297851563	1.1297607421875	5.87158203125E-07	6.63348259877239E-07	1924116.5	4.12109693570528E-05
2	545	126.477814680674	1.11923217773438	1.119384765625	5.780029296875E-07	6.47007652787579E-07	1936642	4.12696426792536E-05
2	546	126.57852268042	1.10916137695313	1.1083984375	5.6884765625E-07	6.30509873644769E-07	1948497.875	4.13273883168586E-05
2	547	126.679230680166	1.09909057617188	1.09893798828125	5.60302734375E-07	6.15737974385411E-07	1961329	4.13842462876346E-05
2	548	126.779938679911	1.08901977539063	1.08856201171875	5.51452636718749E-07	6.00290377406054E-07	1973990.125	4.14402275055181E-05
2	549	126.880646679657	1.07894897460938	1.0797119140625	5.43823242187499E-07	5.8717239426187E-07	1985409.75	4.14953792642336E-05
2	550	126.981354679403	1.06887817382813	1.068115234375	5.36499023437501E-07	5.7304276879222E-07	1990898.875	4.15497779613361E-05
2	551	127.082062679149	1.05880737304688	1.0589599609375	5.291748046875E-07	5.60374871838576E-07	2001153.5	4.16034381487407E-05
2	552	127.182770678894	1.04873657226563	1.04888916015625	5.21240234375001E-07	5.46723242678127E-07	2012295.125	4.1656330722617E-05
2	553	127.28347867864	1.03866577148438	1.0382080078125	5.13916015625E-07	5.33551713033376E-07	2020190	4.1708455682965E-05
2	554	127.384186678386	1.02859497070313	1.02874755859375	5.0567626953125E-07	5.2021323426743E-07	2034399.5	4.17597984778695E-05
2	555	127.484894678132	1.01852416992188	1.01837158203125	4.974365234375E-07	5.06575247527508E-07	2047239.25	4.18103081756271E-05
2	556	127.585602677877	1.00845336914063	1.00860595703125	4.8797607421875E-07	4.9217555897485E-07	2066916.75	4.18599265685771E-05
2	557	127.686310677623	0.998382568359375	0.9979248046875	4.779052734375E-07	4.76913498914655E-07	2088122.75	4.19085627072491E-05
2	558	127.787018677369	0.988311767578125	0.9881591796875	4.6722412109375E-07	4.61691797681851E-07	2114957.5	4.19561547460034E-05
2	559	127.887726677115	0.978240966796875	0.97808837890625	4.5623779296875E-07	4.46240875362491E-07	2143812.75	4.20026553911157E-05
2	560	127.98843467686	0.968170166015625	0.96832275390625	4.44946289062501E-07	4.30851599730886E-07	2176269	4.20480319007766E-05
2	561	128.089142676606	0.958099365234375	0.958251953125	4.3365478515625E-07	4.15550545085352E-07	2209711.5	4.20922733610496E-05
2	562	128.189850676352	0.948028564453125	0.94818115234375	4.2266845703125E-07	4.00766253960683E-07	2243321.25	4.21353943238501E-05
2	563	128.290558676097	0.937957763671875	0.93780517578125	4.119873046875E-07	3.8636380850221E-07	2276296.5	4.21774202550296E-05
2	564	128.391266675843	0.927886962890625	0.92803955078125	4.00695800781251E-07	3.71861546000218E-07	2316070	4.22183438786305E-05
2	565	128.491974675589	0.917816162109375	0.91796875	3.90625E-07	3.58581530690572E-07	2350000	4.22581906605046E-05
2	566	128.592682675335	0.907745361328125	0.9075927734375	3.80859375000001E-07	3.45665227996506E-07	2383012.75	4.22970369982067E-05
2	567	128.69339067508	0.897674560546875	0.8978271484375	3.71398925781249E-07	3.33452049972038E-07	2417420	4.23349156335462E-05
2	568	128.794098674826	0.887603759765625	0.88714599609375	3.62548828125001E-07	3.21633734756688E-07	2446969.75	4.23718738602474E-05
2	569	128.894806674572	0.877532958984375	0.8770751953125	3.5369873046875E-07	3.10220372057302E-07	2479724	4.24079371441621E-05
2	570	128.995514674318	0.867462158203125	0.867919921875	3.45764160156251E-07	3.00095592820071E-07	2510150	4.24431600549724E-05
2	571	129.096222674063	0.857391357421875	0.8575439453125	3.38134765625001E-07	2.89965413458049E-07	2536101.25	4.24775971623603E-05
2	572	129.196930673809	0.847320556640625	0.84747314453125	3.3111572265625E-07	2.80611658354246E-07	2559447.25	4.25112957600504E-05
2	573	129.297638673555	0.837249755859375	0.83740234375	3.2470703125E-07	2.71910437277256E-07	2578947.25	4.25443176936824E-05
2	574	129.398346673301	0.827178955078125	0.82763671875	3.18603515625E-07	2.63687951473912E-07	2597701.25	4.25767138949595E-05
2	575	129.499054673046	0.817108154296875	0.8172607421875	3.12194824218751E-07	2.55144584571099E-07	2617790.75	4.26084770879243E-05
2	576	129.599762672792	0.807037353515625	0.806884765625	3.06396484375E-07	2.47226665806011E-07	2633466	4.26396254624706E-05
2	577	129.700470672538	0.796966552734375	0.79742431640625	3.01513671875001E-07	2.40434331999495E-07	2644737	4.26702354161534E-05
2	578	129.801178672284	0.786895751953125	0.78704833984375	2.96630859374999E-07	2.33462813525875E-07	2653292.25	4.27003542426974E-05
2	579	129.901886672029	0.776824951171875	0.77667236328125	2.92053222656249E-07	2.26829655503025E-07	2659352.25	4.27299964940175E-05
2	580	130.002594671775	0.766754150390625	0.7666015625	2.8717041015625E-07	2.20145267348926E-07	2669500.75	4.2759162170114E-05
2	581	130.103302671521	0.756683349609375	0.75653076171875	2.8228759765625E-07	2.1355926094202E-07	2680000	4.27878367190715E-05
2	582	130.204010671266	0.746612548828125	0.7464599609375	2.78320312499999E-07	2.07754965231288E-07	2682017.75	4.28160674346145E-05
2	583	130.304718671012	0.736541748046875	0.736328125	2.74047851562501E-07	2.01789134735009E-07	2686859.75	4.28438797825947E-05
2	584	130.405426670758	0.726470947265625	0.726287841796875	2.70996093750001E-07	1.96821162035121E-07	2680067.75	4.28713246947154E-05
2	585	130.506134670504	0.716400146484375	0.71630859375	2.67639160156249E-07	1.91712231867314E-07	2676396.75	4.28984458267223E-05
2	586	130.606842670249	0.706329345703125	0.706268310546875	2.64587402343749E-07	1.86869684171143E-07	2669319.75	4.29252468165942E-05
2	587	130.707550669995	0.696258544921875	0.696136474609375	2.61840820312501E-07	1.8227694909001E-07	2658624.75	4.29517567681614E-05
2	588	130.808258669741	0.686187744140625	0.686065673828125	2.593994140625E-07	1.7796502049805E-07	2644823.75	4.29780011472758E-05
2	589	130.908966669487	0.676116943359375	0.676025390625	2.5665283203125E-07	1.73503835299016E-07	2634007	4.30039872298948E-05
2	590	131.009674669232	0.666046142578125	0.665985107421875	2.53906249999999E-07	1.69097788216277E-07	2622956.75	4.30296968261246E-05
2	591	131.110382668978	0.655975341796875	0.655853271484375	2.520751953125E-07	1.65324337331185E-07	2601816	4.30551735917106E-05
2	592	131.211090668724	0.645904541015625	0.64581298828125	2.50244140625E-07	1.61610913096411E-07	2580731.75	4.30804684583563E-05
2	593	131.31179866847	0.635833740234375	0.635772705078125	2.484130859375E-07	1.57934252342784E-07	2559336.75	4.31055777880829E-05
2	594	131.412506668215	0.625762939453125	0.62567138671875	2.4688720703125E-07	1.54470257029971E-07	2534240	4.31305161328055E-05
2	595	131.513214667961	0.615692138671875	0.615631103515625	2.45056152343751E-07	1.50864195802569E-07	2512204.25	4.3155287130503E-05
2	596	131.613922667707	0.605621337890625	0.60552978515625	2.4383544921875E-07	1.47649629411717E-07	2483354.25	4.31799053330906E-05
2	597	131.714630667453	0.595550537109375	0.59552001953125	2.4261474609375E-07	1.44481930419715E-07	2454591.25	4.32043998443987E-05
2	598	131.815338667198	0.585479736328125	0.585418701171875	2.4078369140625E-07	1.40959272698638E-07	2431305.5	4.3228741560597E-05
2	599	131.916046666944	0.575408935546875	0.575347900390625	2.3956298828125E-07	1.3783206043172E-07	2401656.25	4.32529304816853E-05
2	600	132.01675466669	0.565338134765625	0.5653076171875	2.3773193359375E-07	1.34391669348588E-07	2377920.5	4.3276962969685E-05
2	601	132.117462666435	0.555267333984375	0.55517578125	2.3651123046875E-07	1.31305299078122E-07	2347355	4.33008426625747E-05
2	602	132.218170666181	0.545196533203125	0.545166015625	2.349853515625E-07	1.28106023566943E-07	2320000	4.33245841122698E-05
2	603	132.318878665927	0.535125732421875	0.5350341796875	2.3345947265625E-07	1.24908794418843E-07	2291764.75	4.3348172766855E-05
2	604	132.419586665673	0.525054931640625	0.525054931640625	2.3193359375E-07	1.21777873118845E-07	2263816	4.33716086263303E-05
2	605	132.520294665418	0.514984130859375	0.514862060546875	2.30712890625E-07	1.18785308700353E-07	2231613.75	4.33949026046321E-05
2	606	132.621002665164	0.504913330078125	0.504852294921875	2.29492187499999E-07	1.15859656091288E-07	2199867	4.34180765296333E-05
2	607	132.72171066491	0.494842529296875	0.49481201171875	2.28271484375001E-07	1.12951468622668E-07	2167647.25	4.3441126763355E-05
2	608	132.822418664656	0.484771728515625	0.484771728515625	2.26745605468751E-07	1.0991985277542E-07	2137954.25	4.34640387538821E-05
2	609	132.923126664401	0.474700927734375	0.47467041015625	2.25219726562501E-07	1.06905140739855E-07	2107588	4.34867979492992E-05
2	610	133.023834664147	0.464630126953125	0.464599609375	2.23693847656251E-07	1.0392807325843E-07	2076944.125	4.35094007116277E-05
2	611	133.124542663893	0.454559326171875	0.454559326171875	2.2247314453125E-07	1.01127234586329E-07	2043210	4.35318688687403E-05
2	612	133.225250663639	0.444488525390625	0.444427490234375	2.20642089843751E-07	9.80594023758385E-08	2014246.25	4.35541805927642E-05
2	613	133.325958663384	0.434417724609375	0.43438720703125	2.19116210937501E-07	9.51812779703687E-08	1982451.375	4.35763249697629E-05
2	614	133.42666666313	0.424346923828125	0.424346923828125	2.1697998046875E-07	9.20747851296255E-08	1955696.25	4.35982838098425E-05
2	615	133.527374662876	0.414276123046875	0.4141845703125	2.1514892578125E-07	8.91113600687277E-08	1925106.5	4.36200425610878E-05
2	616	133.628082662622	0.404205322265625	0.4041748046875	2.13012695312501E-07	8.60943600855535E-08	1897421.375	4.36416012234986E-05
2	617	133.728790662367	0.394134521484375	0.39410400390625	2.11486816406251E-07	8.3347799773037E-08	1863492.125	4.36629779869691E-05
2	618	133.829498662113	0.384063720703125	0.384033203125	2.1087646484375E-07	8.09835611903509E-08	1821128.75	4.36842456110753E-05
2	619	133.930206661859	0.373992919921875	0.373992919921875	2.09960937500001E-07	7.85239038236796E-08	1781250	4.37054368376266E-05
2	620	134.030914661604	0.363922119140625	0.3638916015625	2.08740234375E-07	7.59588161258762E-08	1743274.875	4.37265189248137E-05
2	621	134.13162266135	0.353851318359375	0.353790283203125	2.08129882812499E-07	7.36343253038285E-08	1699853.375	4.37475100625306E-05
2	622	134.232330661096	0.343780517578125	0.34375	2.0599365234375E-07	7.08103158331141E-08	1668740.875	4.37683629570529E-05
2	623	134.333038660842	0.333709716796875	0.333740234375	2.05078124999999E-07	6.84428229646983E-08	1627381	4.37890630564652E-05
2	624	134.433746660587	0.323638916015625	0.323638916015625	2.032470703125E-07	6.57786642932479E-08	1592342.375	4.38096249126829E-05
2	625	134.534454660333	0.313568115234375	0.313568115234375	2.0111083984375E-07	6.30619467756333E-08	1559180.625	4.38299830420874E-05
2	626	134.635162660079	0.303497314453125	0.303466796875	1.99279785156251E-07	6.04747967258845E-08	1522817.75	4.38501447206363E-05
2	627	134.735870659825	0.293426513671875	0.293426513671875	1.971435546875E-07	5.78471457401974E-08	1488390.125	4.38701063103508E-05
2	628	134.83657865957	0.283355712890625	0.28338623046875	1.94396972656249E-07	5.50894228013021E-08	1457770.875	4.38898241554853E-05
2	629	134.937286659316	0.273284912109375	0.273345947265625	1.91650390625001E-07	5.23868557422702E-08	1426273.875	4.39092618762515E-05
2	630	135.037994659062	0.263214111328125	0.26318359375	1.88598632812501E-07	4.96360677004759E-08	1395469.25	4.39284085587133E-05
2	631	135.138702658808	0.253143310546875	0.25311279296875	1.849365234375E-07	4.68097987038618E-08	1368646.875	4.39472169091459E-05
2	632	135.239410658553	0.243072509765625	0.24310302734375	1.81884765625E-07	4.42167369385515E-08	1336577.25	4.39656869275495E-05
2	633	135.340118658299	0.233001708984375	0.23297119140625	1.7730712890625E-07	4.13074516814049E-08	1313941.5	4.39837749581784E-05
2	634	135.440826658045	0.222930908203125	0.22296142578125	1.7242431640625E-07	3.84439680090054E-08	1293097.375	4.40013864135835E-05
2	635	135.541534657791	0.212860107421875	0.212860107421875	1.66931152343749E-07	3.55329810020066E-08	1275137.125	4.40184740000404E-05
2	636	135.642242657536	0.202789306640625	0.202850341796875	1.605224609375E-07	3.25620348462508E-08	1263688.25	4.40349613199942E-05
2	637	135.742950657282	0.192718505859375	0.1927490234375	1.51977539062501E-07	2.92935204981859E-08	1268273.125	4.40506992163137E-05
2	638	135.843658657028	0.182647705078125	0.18267822265625	1.422119140625E-07	2.59790198242627E-08	1284549.375	4.40655130660161E-05
2	639	135.944366656773	0.172576904296875	0.172576904296875	1.2939453125E-07	2.23305054447565E-08	1333726.5	4.4079188228352E-05
2	640	136.045074656519	0.162506103515625	0.16253662109375	1.129150390625E-07	1.83528285901957E-08	1439459.5	4.4091390009271E-05
2	641	136.145782656265	0.152435302734375	0.1524658203125	9.06372070312494E-08	1.3819076549737E-08	1682154.875	4.41016381955706E-05
2	642	136.246490656011	0.142364501953125	0.14239501953125	6.01196289062494E-08	8.56073523181067E-09	2368528	4.4109230657341E-05
2	643	136.347198655756	0.132293701171875	0.132293701171875	1.89208984374994E-08	2.50311571470263E-09	6991935.5	4.41132106061559E-05
2	644	136.447906655502	0.122222900390625	0.122283935546875	-3.662109375E-08	-4.47817116722149E-09	-3339166.75	4.41123193013482E-05
2	645	136.548614655248	0.112152099609375	0.112274169921875	-1.13830566406251E-07	-1.27802319838111E-08	-986327.0625	4.4104741391493E-05
2	646	136.649322654994	0.102081298828125	0.10211181640625	-2.17285156249999E-07	-2.21873808214923E-08	-469943.84375	4.40880685346201E-05
2	647	136.750030654739	0.092010498046875	0.09197998046875	-3.521728515625E-07	-3.23928510681526E-08	-261178.515625	4.40593939856626E-05
2	648	136.850738654485	0.081939697265625	0.082000732421875	-5.230712890625E-07	-4.28922284356759E-08	-156767.796875	4.40153235103935E-05
2	649	136.951446654231	0.071868896484375	0.0718994140625	-7.2906494140625E-07	-5.24193417561492E-08	-98618.671875	4.39522736996878E-05
2	650	137.052154653977	0.061798095703125	0.061859130859375	-9.5855712890625E-07	-5.92955053946298E-08	-64533.59375	4.38672941527329E-05
2	651	137.152862653722	0.051727294921875	0.051849365234375	-1.19659423828125E-06	-6.20426519049033E-08	-43330.78515625	4.37587732449174E-05
2	652	137.253570653468	0.041656494140625	0.0417755126953125	-1.41876220703125E-06	-5.92695172940694E-08	-29445.04296875	4.36270820500795E-05
2	653	137.354278653214	0.031585693359375	0.031671142578125	-1.60186767578125E-06	-5.07329822596603E-08	-19771.38671875	4.3474978156155E-05
2	654	137.45498665296	0.021514892578125	0.0216156005859375	-1.727294921875E-06	-3.73365161010497E-08	-12514.134765625	4.3307343730703E-05
2	655	137.555694652705	0.011444091796875	0.0115478515625	-1.7926025390625E-06	-2.07007069263909E-08	-6441.94775390625	4.31301014032215E-05
2	656	137.656402652451	0.001373291015625	0.0014801025390625	-1.80206298828125E-06	-2.66723798603152E-09	-821.337890625	4.29490974056534E-05
2	657	137.757110652197	-0.008697509765625	-0.00859680175781249	-1.771240234375E-06	1.52270001052557E-08	4853.5498046875	4.27691666118335E-05
2	658	137.857818651942	-0.018768310546875	-0.018646240234375	-1.71356201171875E-06	3.19514867896942E-08	10881.5673828125	4.25936923420522E-05
2	659	137.958526651688	-0.028839111328125	-0.028753662109375	-1.64398193359375E-06	4.72705004028739E-08	17490.25390625	4.24246281909291E-05
2	660	138.059234651434	-0.038909912109375	-0.0388092041015625	-1.56982421875E-06	6.09236252557821E-08	24722.005859375	4.22627999796532E-05
2	661	138.15994265118	-0.048980712890625	-0.048870849609375	-1.497802734375E-06	7.31988905045E-08	32628.36328125	4.21083313995041E-05
2	662	138.260650650925	-0.059051513671875	-0.058990478515625	-1.43096923828125E-06	8.44135570332583E-08	41224.14453125	4.19608550146222E-05
2	663	138.361358650671	-0.069122314453125	-0.069061279296875	-1.3702392578125E-06	9.46304794524622E-08	50400.890625	4.18198033003137E-05
2	664	138.462066650417	-0.079193115234375	-0.0792236328125	-1.31561279296875E-06	1.04227616759545E-07	60218.05078125	4.168456143816E-05
2	665	138.562774650163	-0.089263916015625	-0.0892333984375	-1.2677001953125E-06	1.13121195965959E-07	70389.984375	4.15544818679336E-05
2	666	138.663482649908	-0.099334716796875	-0.099273681640625	-1.22528076171875E-06	1.21638123573575E-07	81021.171875	4.14289497712161E-05
2	667	138.764190649654	-0.109405517578125	-0.10931396484375	-1.1883544921875E-06	1.2990373932098E-07	91987.6796875	4.13074121752288E-05
2	668	138.8648986494	-0.119476318359375	-0.119415283203125	-1.15631103515625E-06	1.38081205136587E-07	103272.6328125	4.11893488490023E-05
2	669	138.965606649146	-0.129547119140625	-0.129486083984375	-1.12762451171875E-06	1.46011686297243E-07	114830.8515625	4.10743450629525E-05
2	670	139.066314648891	-0.139617919921875	-0.13958740234375	-1.10321044921875E-06	1.53994264451285E-07	126528.3671875	4.09620115533471E-05
2	671	139.167022648637	-0.149688720703125	-0.14959716796875	-1.0821533203125E-06	1.61887072636091E-07	138240.28125	4.08519699703902E-05
2	672	139.267730648383	-0.159759521484375	-0.15966796875	-1.06414794921875E-06	1.69910336467183E-07	150043.015625	4.07438965339679E-05
2	673	139.368438648129	-0.169830322265625	-0.169708251953125	-1.048583984375E-06	1.77953353386329E-07	161845.171875	4.06375111197121E-05
2	674	139.469146647874	-0.179901123046875	-0.17974853515625	-1.03515625E-06	1.86067808272128E-07	173643.875	4.05325881729368E-05
2	675	139.56985464762	-0.189971923828125	-0.189849853515625	-1.0235595703125E-06	1.94322623769949E-07	185480.03125	4.04289239668287E-05
2	676	139.670562647366	-0.200042724609375	-0.199951171875	-1.0150146484375E-06	2.02953359007552E-07	196993.390625	4.0326271118829E-05
2	677	139.771270647111	-0.189971923828125	-0.18988037109375	-8.8165283203125E-07	1.67408558127136E-07	215368.65625	4.02307668991853E-05
