Potential - Start -0.2 V, Upper Vertex 1.5 V, Lower Vertex -0.2 V, Stop -0.19 V; Scan - # end cross 5, Rate 0.1 Vps, Step 0.01 V 
Scan	Index	Time (s)	Potential applied (V)	WE(1).Potential (V)	WE(1).Current (A)	WE(1).Power (W)	WE(1).Resistance (Ω)	WE(1).Charge (C)
1	1	66.3055818325945	-0.189971923828125	-0.1898193359375	-1.94396972656249E-07	3.69003032574255E-08	976452.1875	0
1	2	66.4062898323402	-0.179901123046875	-0.179779052734375	-1.59606933593751E-07	2.86939823013199E-08	1126386.25	-1.78255117333492E-08
1	3	66.506997832086	-0.169830322265625	-0.169647216796875	-1.324462890625E-07	2.24691447670011E-08	1280875.625	-3.2531559668314E-08
1	4	66.6077058318317	-0.159759521484375	-0.159637451171875	-1.1016845703125E-07	1.7587010958664E-08	1449030.5	-4.47481838250496E-08
1	5	66.7084138315774	-0.149688720703125	-0.149627685546875	-8.97216796875003E-08	1.34248470118337E-08	1667687	-5.48134515554466E-08
1	6	66.8091218313232	-0.139617919921875	-0.139495849609375	-7.11059570312506E-08	9.91898652102918E-09	1961802.5	-6.2911766463003E-08
1	7	66.9098298310689	-0.129547119140625	-0.129425048828125	-5.340576171875E-08	6.91204293801206E-09	2423428.75	-6.91814250330935E-08
1	8	67.0105378308147	-0.119476318359375	-0.119384765625	-3.60107421875006E-08	4.29913393773518E-09	3315254.25	-7.36839069759299E-08
1	9	67.1112458305604	-0.109405517578125	-0.10931396484375	-1.678466796875E-08	1.83479864634961E-09	6512727.5	-7.63423670946395E-08
1	10	67.2119538303061	-0.099334716796875	-0.099273681640625	4.27246093750028E-09	-4.24142942989647E-10	-23235714	-7.6972405338438E-08
1	11	67.3126618300519	-0.089263916015625	-0.0892333984375	2.80761718749994E-08	-2.50533216394899E-09	-3178261	-7.53435216438447E-08
1	12	67.4133698297976	-0.079193115234375	-0.0791015625	5.73730468750006E-08	-4.53829773761072E-09	-1378723.375	-7.10408158965947E-08
1	13	67.5140778295433	-0.069122314453125	-0.069091796875	9.36889648437495E-08	-6.473138469687E-09	-737459.3125	-6.34342356420348E-08
1	14	67.6147858292891	-0.059051513671875	-0.0589599609375	1.4190673828125E-07	-8.36681568472386E-09	-415483.875	-5.15710532056346E-08
1	15	67.7154938290348	-0.048980712890625	-0.04881591796875	2.0599365234375E-07	-1.00557686621983E-08	-236977.78125	-3.40528742981405E-08
1	16	67.8162018287805	-0.038909912109375	-0.0387786865234375	2.9266357421875E-07	-1.13491083197914E-08	-132502.609375	-8.94349039270992E-09
1	17	67.9169098285263	-0.028839111328125	-0.0287200927734375	4.08935546875E-07	-1.17446665726106E-08	-70231.34375	2.63848303205805E-08
1	18	68.017617828272	-0.018768310546875	-0.0186248779296875	5.615234375E-07	-1.04583053328611E-08	-33168.4765625	7.52513216184525E-08
1	19	68.1183258280178	-0.008697509765625	-0.00856628417968749	7.550048828125E-07	-6.46758646638546E-09	-11345.9990234375	1.41543793574783E-07
1	20	68.2190338277635	0.001373291015625	0.001483154296875	9.89685058593751E-07	1.46785561483398E-09	1498.6123046875	2.29395908490915E-07
1	21	68.3197418275092	0.011444091796875	0.011572265625	1.25701904296875E-06	1.45465577361392E-08	9206.1181640625	3.42526448093849E-07
1	22	68.420449827255	0.021514892578125	0.0216064453125	1.5386962890625E-06	3.32457545937359E-08	14042.0478515625	4.83301903386746E-07
1	23	68.5211578270007	0.031585693359375	0.031658935546875	1.8084716796875E-06	5.72542901977613E-08	17505.90625	6.5184519826289E-07
1	24	68.6218658267464	0.041656494140625	0.0417633056640625	2.03857421875E-06	8.51375929755704E-08	20486.52734375	8.45559327444789E-07
1	25	68.7225738264922	0.051727294921875	0.0517578125	2.20794677734375E-06	1.14278485341401E-07	23441.60546875	1.05938863725896E-06
1	26	68.8232818262379	0.061798095703125	0.0618896484375	2.3065185546875E-06	1.42749627229932E-07	26832.494140625	1.28671001675684E-06
1	27	68.9239898259837	0.071868896484375	0.071868896484375	2.3382568359375E-06	1.68047932902482E-07	30736.1015625	1.5205930594675E-06
1	28	69.0246978257294	0.081939697265625	0.08203125	2.31903076171875E-06	1.90232995578299E-07	35373.07421875	1.75510604094598E-06
1	29	69.1254058254751	0.092010498046875	0.092071533203125	2.26287841796875E-06	2.0834667679992E-07	40687.796875	1.98582347366028E-06
1	30	69.2261138252209	0.102081298828125	0.102142333984375	2.1875E-06	2.23436359192419E-07	46693.63671875	2.20991796595627E-06
1	31	69.3268218249666	0.112152099609375	0.11224365234375	2.10357666015625E-06	2.36113123719406E-07	53358.48046875	2.42599071498262E-06
1	32	69.4275298247123	0.122222900390625	0.122314453125	2.0184326171875E-06	2.46883473664639E-07	60598.734375	2.6335503662267E-06
1	33	69.5282378244581	0.132293701171875	0.132354736328125	1.93878173828125E-06	2.56606938364712E-07	68266.9609375	2.83281201518548E-06
1	34	69.6289458242038	0.142364501953125	0.142333984375	1.8646240234375E-06	2.65399364707264E-07	76333.8828125	3.02432863463764E-06
1	35	69.7296538239495	0.152435302734375	0.152496337890625	1.79718017578125E-06	2.74063381766609E-07	84853.1171875	3.20871504300158E-06
1	36	69.8303618236953	0.162506103515625	0.16253662109375	1.737060546875E-06	2.8233594662197E-07	93569.921875	3.38667837240791E-06
1	37	69.931069823441	0.172576904296875	0.172576904296875	1.683349609375E-06	2.9050724492663E-07	102519.9453125	3.55890961145633E-06
1	38	70.0317778231868	0.182647705078125	0.1826171875	1.63543701171875E-06	2.98658903830074E-07	111662.625	3.72602380593889E-06
1	39	70.1324858229325	0.192718505859375	0.192779541015625	1.5924072265625E-06	3.06983537257111E-07	121061.7109375	3.88855869459803E-06
1	40	70.2331938226782	0.202789306640625	0.2027587890625	1.5545654296875E-06	3.1520178822575E-07	130427.953125	4.04702132072998E-06
1	41	70.333901822424	0.212860107421875	0.212890625	1.5203857421875E-06	3.23675863000972E-07	140024.09375	4.20185733673861E-06
1	42	70.4346098221697	0.222930908203125	0.22296142578125	1.4898681640625E-06	3.32183134332809E-07	149651.78125	4.35343554272549E-06
1	43	70.5353178219154	0.233001708984375	0.232940673828125	1.46270751953125E-06	3.40724056968611E-07	159253.078125	4.50210973212961E-06
1	44	70.6360258216612	0.243072509765625	0.24310302734375	1.43829345703125E-06	3.49653504372327E-07	169021.859375	4.64818685941282E-06
1	45	70.7367338214069	0.253143310546875	0.253143310546875	1.41632080078125E-06	3.58532133759581E-07	178733.03125	4.79192794955452E-06
1	46	70.8374418211527	0.263214111328125	0.26324462890625	1.396484375E-06	3.67616991070463E-07	188505.25	4.93356401420897E-06
1	47	70.9381498208984	0.273284912109375	0.273284912109375	1.37786865234375E-06	3.76550730152303E-07	198338.875	5.07326376464334E-06
1	48	71.0388578206441	0.283355712890625	0.283355712890625	1.3616943359375E-06	3.8584386174989E-07	208090.546875	5.2112118282821E-06
1	49	71.1395658203899	0.293426513671875	0.293426513671875	1.3470458984375E-06	3.95258979324353E-07	217829.640625	5.34760738446494E-06
1	50	71.2402738201356	0.303497314453125	0.303497314453125	1.3330078125E-06	4.04564275413577E-07	227678.578125	5.48255911780871E-06
1	51	71.3409818198813	0.313568115234375	0.31353759765625	1.32110595703125E-06	4.1421640162298E-07	237329.640625	5.61620436201338E-06
1	52	71.4416898196271	0.323638916015625	0.323638916015625	1.3104248046875E-06	4.24104456442365E-07	246972.53125	5.74871228309348E-06
1	53	71.5423978193728	0.333709716796875	0.333709716796875	1.30035400390625E-06	4.33940726907167E-07	256629.921875	5.8801756495086E-06
1	54	71.6431058191185	0.343780517578125	0.343780517578125	1.29180908203125E-06	4.44098787966141E-07	266123.3125	6.01070132688619E-06
1	55	71.7438138188643	0.353851318359375	0.353851318359375	1.2841796875E-06	4.54408677796891E-07	275546.5625	6.14041255175835E-06
1	56	71.84452181861	0.363922119140625	0.363922119140625	1.27655029296875E-06	4.64564891444752E-07	285082.46875	6.26935570835485E-06
1	57	71.9452298183558	0.373992919921875	0.373992919921875	1.270751953125E-06	4.75252221576739E-07	294308.375	6.39762265564059E-06
1	58	72.0459378181015	0.384063720703125	0.384124755859375	1.265869140625E-06	4.86251622078271E-07	303447.46875	6.52535163681023E-06
1	59	72.1466458178472	0.394134521484375	0.394134521484375	1.26190185546875E-06	4.97359053497348E-07	312333.75	6.652634965576E-06
1	60	72.247353817593	0.404205322265625	0.40423583984375	1.258544921875E-06	5.08748939864745E-07	321193.03125	6.7795494942402E-06
1	61	72.3480618173387	0.414276123046875	0.414276123046875	1.2567138671875E-06	5.20626542765967E-07	329650.3125	6.90620299792499E-06
1	62	72.4487698170844	0.424346923828125	0.42437744140625	1.2548828125E-06	5.32543936060392E-07	338180.9375	7.03267187418533E-06
1	63	72.5494778168302	0.434417724609375	0.434417724609375	1.25335693359375E-06	5.44480485586973E-07	346603.375	7.15897158443113E-06
1	64	72.6501858165759	0.444488525390625	0.444427490234375	1.25274658203125E-06	5.56754969238682E-07	354762.5	7.28516397430212E-06
1	65	72.7508938163216	0.454559326171875	0.45452880859375	1.2530517578125E-06	5.69548149087495E-07	362737.4375	7.41134090276319E-06
1	66	72.8516018160674	0.464630126953125	0.464599609375	1.2530517578125E-06	5.82167388074595E-07	370774.46875	7.53753329263418E-06
1	67	72.9523098158131	0.474700927734375	0.474700927734375	1.2542724609375E-06	5.95404287651036E-07	378467.15625	7.66378707339754E-06
1	68	73.0530178155589	0.484771728515625	0.48480224609375	1.256103515625E-06	6.08961784109852E-07	385957.25	7.79019410401816E-06
1	69	73.1537258153046	0.494842529296875	0.49481201171875	1.258544921875E-06	6.22743129952141E-07	393162	7.91681668488309E-06
1	70	73.2544338150503	0.504913330078125	0.504852294921875	1.2615966796875E-06	6.36919935459446E-07	400169.34375	8.04371666163206E-06
1	71	73.3551418147961	0.514984130859375	0.51495361328125	1.26556396484375E-06	6.51706727694545E-07	406896.5625	8.17096861283062E-06
1	72	73.4558498145418	0.525054931640625	0.525054931640625	1.2701416015625E-06	6.66894095502357E-07	413383	8.29865166451782E-06
1	73	73.5565578142875	0.535125732421875	0.53509521484375	1.27593994140625E-06	6.82749316638365E-07	419373.375	8.42685767565854E-06
1	74	73.6572658140333	0.545196533203125	0.545135498046875	1.28204345703125E-06	6.98887390626624E-07	425208.3125	8.55566213431302E-06
1	75	73.757973813779	0.555267333984375	0.5552978515625	1.290283203125E-06	7.16491513230721E-07	430368.96875	8.68518873176072E-06
1	76	73.8586818135248	0.565338134765625	0.5653076171875	1.300048828125E-06	7.34927482426428E-07	434835.6875	8.81562209542608E-06
1	77	73.9593898132705	0.575408935546875	0.57537841796875	1.3116455078125E-06	7.5469250759852E-07	438669.15625	8.94713139132364E-06
1	78	74.0600978130162	0.585479736328125	0.58544921875	1.3275146484375E-06	7.77192383338843E-07	441011.5	9.08002402866259E-06
1	79	74.160805812762	0.595550537109375	0.595489501953125	1.3470458984375E-06	8.02151703283016E-07	442070.6875	9.21469927561702E-06
1	80	74.2615138125077	0.605621337890625	0.60552978515625	1.37359619140625E-06	8.31753425245552E-07	440835.375	9.35169373406097E-06
1	81	74.3622218122534	0.615692138671875	0.615631103515625	1.41021728515625E-06	8.6817357214386E-07	436550.53125	9.49187051446643E-06
1	82	74.4629298119992	0.625762939453125	0.625732421875	1.45904541015625E-06	9.129719842349E-07	428864.25	9.63634920481127E-06
1	83	74.5636378117449	0.635833740234375	0.6357421875	1.5252685546875E-06	9.69677557804971E-07	416806.71875	9.7866213764064E-06
1	84	74.6643458114906	0.645904541015625	0.645843505859375	1.61346435546875E-06	1.04204548279085E-06	400283.71875	9.94466881820699E-06
1	85	74.7650538112364	0.655975341796875	0.6558837890625	1.72576904296875E-06	1.13190390038653E-06	380053.0625	1.0112812560692E-05
1	86	74.8657618109821	0.666046142578125	0.665985107421875	1.8597412109375E-06	1.23855988931609E-06	358106.34375	1.02933572634356E-05
1	87	74.9664698107279	0.676116943359375	0.676055908203125	2.0074462890625E-06	1.35714594762248E-06	336774.09375	1.04880855360534E-05
1	88	75.0671778104736	0.686187744140625	0.686126708984375	2.15606689453125E-06	1.47933496918995E-06	318230.71875	1.06977349787485E-05
1	89	75.1678858102193	0.696258544921875	0.6961669921875	2.288818359375E-06	1.59339970196015E-06	304160.03125	1.09215534394025E-05
1	90	75.2685938099651	0.706329345703125	0.706298828125	2.39410400390625E-06	1.69095278579334E-06	295015.96875	1.11573572212365E-05
1	91	75.3693018097108	0.716400146484375	0.71630859375	2.4627685546875E-06	1.76410219410172E-06	290855.03125	1.14019203465432E-05
1	92	75.4700098094565	0.726470947265625	0.7264404296875	2.49542236328125E-06	1.81277562205651E-06	291109.21875	1.16515848276322E-05
1	93	75.5707178092023	0.736541748046875	0.736419677734375	2.4981689453125E-06	1.83970075795514E-06	294783.78125	1.19030319183366E-05
1	94	75.671425808948	0.746612548828125	0.746490478515625	2.47894287109375E-06	1.85050726031477E-06	301132.59375	1.21536495498731E-05
1	95	75.7721338086938	0.756683349609375	0.75653076171875	2.447509765625E-06	1.85161650279042E-06	309102.25	1.2401716048771E-05
1	96	75.8728418084395	0.766754150390625	0.76751708984375	2.41119384765625E-06	1.85063231583626E-06	318314.15625	1.26463710330427E-05
1	97	75.9735498081852	0.776824951171875	0.7769775390625	2.37396240234375E-06	1.84451550921949E-06	327291.4375	1.28873225548887E-05
1	98	76.074257807931	0.786895751953125	0.78643798828125	2.3406982421875E-06	1.84081386578328E-06	335984.375	1.31247252284084E-05
1	99	76.1749658076767	0.796966552734375	0.797119140625	2.31292724609375E-06	1.84367843303335E-06	344636.53125	1.3359053809836E-05
1	100	76.2756738074224	0.807037353515625	0.80780029296875	2.2918701171875E-06	1.85137332664453E-06	352463.40625	1.35909231175901E-05
1	101	76.3763818071682	0.817108154296875	0.81756591796875	2.27783203125E-06	1.86227782705828E-06	358922.84375	1.38210261866334E-05
1	102	76.4770898069139	0.827178955078125	0.82733154296875	2.27142333984375E-06	1.87922012173658E-06	364234.875	1.40500997076742E-05
1	103	76.5777978066596	0.837249755859375	0.83740234375	2.2711181640625E-06	1.90183959603019E-06	368718.09375	1.4278834896686E-05
1	104	76.6785058064054	0.847320556640625	0.84808349609375	2.27569580078125E-06	1.92998004422407E-06	372669.96875	1.45077847264474E-05
1	105	76.7792138061511	0.857391357421875	0.8575439453125	2.2821044921875E-06	1.95700476979255E-06	375768.9375	1.47372884384822E-05
1	106	76.8799218058969	0.867462158203125	0.86761474609375	2.28851318359375E-06	1.98554766939196E-06	379117.21875	1.49674369822606E-05
1	107	76.9806298056426	0.877532958984375	0.87799072265625	2.29248046875E-06	2.01277634914732E-06	382987.25	1.51981084854924E-05
1	108	77.0813378053883	0.887603759765625	0.887451171875	2.29248046875E-06	2.03446438717947E-06	387113.96875	1.5428979168064E-05
1	109	77.1820458051341	0.897674560546875	0.89752197265625	2.28973388671875E-06	2.05508649742114E-06	391976.5625	1.56597125169355E-05
1	110	77.2827538048798	0.907745361328125	0.90728759765625	2.28485107421875E-06	2.07301695809292E-06	397088.3125	1.58900602400536E-05
1	111	77.3834618046255	0.917816162109375	0.91827392578125	2.27996826171875E-06	2.09363520298211E-06	402757.34375	1.6119918655022E-05
1	112	77.4841698043713	0.927886962890625	0.92742919921875	2.27691650390625E-06	2.11167866837059E-06	407318.09375	1.63493750733323E-05
1	113	77.584877804117	0.937957763671875	0.9381103515625	2.27630615234375E-06	2.1354262571549E-06	412119.59375	1.65786477737129E-05
1	114	77.6855858038628	0.948028564453125	0.94818115234375	2.28057861328125E-06	2.16240164263581E-06	415763.40625	1.68081060110126E-05
1	115	77.7862938036085	0.958099365234375	0.95794677734375	2.29095458984375E-06	2.19461253436748E-06	418143.0625	1.70383009390207E-05
1	116	77.8870018033542	0.968170166015625	0.9686279296875	2.3095703125E-06	2.23711413127603E-06	419397.5	1.72699546965305E-05
1	117	77.9877098031	0.978240966796875	0.9783935546875	2.33734130859375E-06	2.28683961722709E-06	418592.5	1.75039458554238E-05
1	118	78.0884178028457	0.988311767578125	0.9881591796875	2.3736572265625E-06	2.34555113820534E-06	416302.375	1.7741163901519E-05
1	119	78.1891258025914	0.998382568359375	0.99853515625	2.41790771484375E-06	2.41436578107823E-06	412974.90625	1.79824382939842E-05
1	120	78.2898338023372	1.00845336914063	1.00860595703125	2.46673583984375E-06	2.48796436608245E-06	408882.84375	1.82284002221422E-05
1	121	78.3905418020829	1.01852416992188	1.0186767578125	2.51434326171875E-06	2.56130283560196E-06	405146.28125	1.84792170330184E-05
1	122	78.4912498018286	1.02859497070313	1.02874755859375	2.57568359375E-06	2.64972823060816E-06	399407.59375	1.87355199159356E-05
1	123	78.5919578015744	1.03866577148438	1.03851318359375	2.9095458984375E-06	3.02160174214805E-06	356933.09375	1.90117225429276E-05
1	124	78.6926658013201	1.04873657226563	1.04949951171875	2.89794921875E-06	3.04139621221111E-06	362152.5	1.93041541933781E-05
1	125	78.7933738010659	1.05880737304688	1.0589599609375	2.85888671875E-06	3.02744638247532E-06	370409.9375	1.95940338016953E-05
1	126	78.8940818008116	1.06887817382813	1.0693359375	2.81494140625E-06	3.01011800729611E-06	379878.59375	1.98797333723633E-05
1	127	78.9947898005573	1.07894897460938	1.07879638671875	2.77252197265625E-06	2.99098655887065E-06	389102.9375	2.01610837393673E-05
1	128	79.0954978003031	1.08901977539063	1.08917236328125	2.73223876953125E-06	2.9758789423795E-06	398637.34375	2.04382704396266E-05
1	129	79.1962058000488	1.09909057617188	1.09893798828125	2.69500732421875E-06	2.9616458050441E-06	407768.09375	2.07115554076154E-05
1	130	79.2969137997945	1.10916137695313	1.109619140625	2.66082763671875E-06	2.95250515591761E-06	417020.3125	2.09812424145639E-05
1	131	79.3976217995403	1.11923217773438	1.1187744140625	2.6300048828125E-06	2.9423822525132E-06	425388.71875	2.12476570595754E-05
1	132	79.498329799286	1.12930297851563	1.12945556640625	2.6031494140625E-06	2.94014148494171E-06	433880.4375	2.15111667785095E-05
1	133	79.5990377990317	1.13937377929688	1.13922119140625	2.58026123046875E-06	2.93948824037216E-06	441513.90625	2.17721735680243E-05
1	134	79.6997457987775	1.14944458007813	1.14959716796875	2.56011962890625E-06	2.94310621029581E-06	449040.40625	2.20310121221701E-05
1	135	79.8004537985232	1.15951538085938	1.15997314453125	2.5433349609375E-06	2.95020004159596E-06	456083.53125	2.22879916691454E-05
1	136	79.901161798269	1.16958618164063	1.16973876953125	2.5299072265625E-06	2.95933045890706E-06	462364.3125	2.254344872199E-05
1	137	80.0018697980147	1.17965698242188	1.1798095703125	2.51861572265625E-06	2.97148699246463E-06	468435.71875	2.27976615860825E-05
1	138	80.1025777977604	1.18972778320313	1.18927001953125	2.50946044921875E-06	2.98442591883941E-06	473914.65625	2.30508467211621E-05
1	139	80.2032857975062	1.19979858398438	1.19964599609375	2.5018310546875E-06	3.00131159747252E-06	479507.21875	2.33031842071796E-05
1	140	80.3039937972519	1.20986938476563	1.209716796875	2.4969482421875E-06	3.02060016110772E-06	484478.15625	2.35548923228635E-05
1	141	80.4047017969976	1.21994018554688	1.2200927734375	2.4932861328125E-06	3.04204036183364E-06	489351.3125	2.38061711570481E-05
1	142	80.5054097967434	1.23001098632813	1.23016357421875	2.4908447265625E-06	3.06414654005494E-06	493874.0625	2.40571425820235E-05
1	143	80.6061177964891	1.24008178710938	1.240234375	2.49053955078125E-06	3.08885273625492E-06	497978.1875	2.43079757638043E-05
1	144	80.7068257962349	1.25015258789063	1.25	2.49053955078125E-06	3.11317444356973E-06	501899.28125	2.45587925746804E-05
1	145	80.8075337959806	1.26022338867188	1.2603759765625	2.49176025390625E-06	3.14055455419293E-06	505817.53125	2.48096712311963E-05
1	146	80.9082417957263	1.27029418945313	1.270751953125	2.4945068359375E-06	3.16989940074563E-06	509420.125	2.50607499765465E-05
1	147	81.0089497954721	1.28036499023438	1.28082275390625	2.4981689453125E-06	3.19971150020137E-06	512704.625	2.53121506830212E-05
1	148	81.1096577952178	1.29043579101563	1.28997802734375	2.50244140625E-06	3.22809432873328E-06	515487.84375	2.55639515671646E-05
1	149	81.2103657949635	1.30050659179688	1.3006591796875	2.50823974609375E-06	3.26236499859078E-06	518554.5625	2.58162599493517E-05
1	150	81.3110737947093	1.31057739257813	1.31072998046875	2.51495361328125E-06	3.29642512042483E-06	521174.625	2.60691977018723E-05
1	151	81.411781794455	1.32064819335938	1.32110595703125	2.523193359375E-06	3.33340562974627E-06	523584.9375	2.63228885160061E-05
1	152	81.5124897942007	1.33071899414063	1.33087158203125	2.53204345703125E-06	3.36982475346304E-06	525611.6875	2.65774397121277E-05
1	153	81.6131977939465	1.34078979492188	1.3409423828125	2.542724609375E-06	3.40964720635384E-06	527364.375	2.68329731625272E-05
1	154	81.7139057936922	1.35086059570313	1.3507080078125	2.554931640625E-06	3.45096646015008E-06	528667	2.7089661671198E-05
1	155	81.814613793438	1.36093139648438	1.361083984375	2.5689697265625E-06	3.49658353115956E-06	529817.0625	2.73476707661757E-05
1	156	81.9153217931837	1.37100219726563	1.3714599609375	2.5848388671875E-06	3.54500275534519E-06	530578.5625	2.76071859843796E-05
1	157	82.0160297929294	1.38107299804688	1.3812255859375	2.6025390625E-06	3.59469368049758E-06	530722.3125	2.78683910437394E-05
1	158	82.1167377926752	1.39114379882813	1.39129638671875	2.62420654296875E-06	3.65104892807722E-06	530177.9375	2.8131578801549E-05
1	159	82.2174457924209	1.40121459960938	1.40106201171875	2.64984130859375E-06	3.71259193343576E-06	528734.3125	2.83971476164879E-05
1	160	82.3181537921666	1.41128540039063	1.4111328125	2.6806640625E-06	3.78277286472439E-06	526411.6875	2.86655595118646E-05
1	161	82.4188617919124	1.42135620117188	1.4215087890625	2.71697998046875E-06	3.86221063308767E-06	523194.4375	2.89373529085424E-05
1	162	82.5195697916581	1.43142700195313	1.431884765625	2.76092529296875E-06	3.95332699554274E-06	518624.9375	2.92131862806855E-05
1	163	82.6202777914039	1.44149780273438	1.441650390625	2.81402587890625E-06	4.05684113502502E-06	512308.875	2.94939072773559E-05
1	164	82.7209857911496	1.45156860351563	1.45172119140625	2.879638671875E-06	4.18043237004895E-06	504133.125	2.97806072921958E-05
1	165	82.8216937908953	1.46163940429688	1.46148681640625	2.96112060546875E-06	4.3276386350044E-06	493558.6875	3.00747124128975E-05
1	166	82.9224017906411	1.47171020507813	1.47216796875	3.06060791015625E-06	4.50572906629532E-06	481005.09375	3.0377930670511E-05
1	167	83.0231097903868	1.48178100585938	1.48223876953125	3.17962646484375E-06	4.71296561954659E-06	466167.59375	3.06921501760371E-05
1	168	83.1238177901325	1.49185180664063	1.49169921875	3.31634521484375E-06	4.94698952024919E-06	449802.15625	3.10192481265403E-05
1	169	83.2245257898783	1.50192260742188	1.5020751953125	3.46893310546875E-06	5.21059837410576E-06	433007.84375	3.1360916182166E-05
1	170	83.325233789624	1.49185180664063	1.49139404296875	3.1195068359375E-06	4.65241373603931E-06	478086.5	3.16926707455423E-05
1	171	83.4259417893697	1.48178100585938	1.48162841796875	2.86468505859375E-06	4.24439895141404E-06	517204.65625	3.19939972541761E-05
1	172	83.5266497891155	1.47171020507813	1.47186279296875	2.6641845703125E-06	3.92131414628238E-06	552462.8125	3.22723972203676E-05
1	173	83.6273577888612	1.46163940429688	1.46148681640625	2.5030517578125E-06	3.65817709280236E-06	583882	3.25325891026296E-05
1	174	83.728065788607	1.45156860351563	1.451416015625	2.37060546875E-06	3.44073464475514E-06	612255.4375	3.27779962390196E-05
1	175	83.8287737883527	1.44149780273438	1.441650390625	2.25982666015625E-06	3.25788005284267E-06	637947.3125	3.30111579387449E-05
1	176	83.9294817880984	1.43142700195313	1.43157958984375	2.16766357421875E-06	3.10318296214973E-06	660425.1875	3.32341005560011E-05
1	177	84.0301897878442	1.42135620117188	1.4215087890625	2.08953857421875E-06	2.97029760076839E-06	680297.9375	3.34484684572089E-05
1	178	84.1308977875899	1.41128540039063	1.4111328125	2.02392578125E-06	2.85602777694294E-06	697225.625	3.36555967805907E-05
1	179	84.2316057873356	1.40121459960938	1.4013671875	1.9671630859375E-06	2.7567177767196E-06	712379.75	3.38565623678733E-05
1	180	84.3323137870814	1.39114379882813	1.3909912109375	1.91986083984375E-06	2.67050950242265E-06	724527.125	3.40522929036524E-05
1	181	84.4330217868271	1.38107299804688	1.38153076171875	1.878662109375E-06	2.59542935054924E-06	735380.125	3.42435632774141E-05
1	182	84.5337297865728	1.37100219726563	1.37115478515625	1.84356689453125E-06	2.52781546805636E-06	743751.0625	3.44309919455554E-05
1	183	84.6344377863186	1.36093139648438	1.36077880859375	1.81243896484375E-06	2.46632839662198E-06	750799.8125	3.46150845871307E-05
1	184	84.7351457860643	1.35086059570313	1.3507080078125	1.785888671875E-06	2.41221391661384E-06	756322.6875	3.47962741216179E-05
1	185	84.8358537858101	1.34078979492188	1.3409423828125	1.7620849609375E-06	2.36285427490657E-06	760997.5625	3.49749316228554E-05
1	186	84.9365617855558	1.33071899414063	1.33056640625	1.74041748046875E-06	2.31574108511268E-06	764509.9375	3.51512971974444E-05
1	187	85.0372697853015	1.32064819335938	1.32080078125	1.72210693359375E-06	2.2745600745111E-06	766967.9375	3.53256473317742E-05
1	188	85.1379777850473	1.31057739257813	1.31072998046875	1.7041015625E-06	2.23361689677404E-06	769161.9375	3.54981712007429E-05
1	189	85.238685784793	1.30050659179688	1.30035400390625	1.688232421875E-06	2.19529965761467E-06	770245.875	3.56689888576511E-05
1	190	85.3393937845387	1.29043579101563	1.29058837890625	1.67266845703125E-06	2.15872637454595E-06	771574.5625	3.58382239937782E-05
1	191	85.4401017842845	1.28036499023438	1.28021240234375	1.65802001953125E-06	2.12261784326984E-06	772133.25	3.60059348167852E-05
1	192	85.5408097840302	1.27029418945313	1.27044677734375	1.644287109375E-06	2.08897927223006E-06	772642.9375	3.61722195520997E-05
1	193	85.641517783776	1.26022338867188	1.2603759765625	1.630859375E-06	2.05549577003694E-06	772829.375	3.63371364073828E-05
1	194	85.7422257835217	1.25015258789063	1.25030517578125	1.6180419921875E-06	2.02304636331974E-06	772727.25	3.65007326763589E-05
1	195	85.8429337832674	1.24008178710938	1.240234375	1.60614013671875E-06	1.99199030248565E-06	772183.1875	3.6663084756583E-05
1	196	85.9436417830132	1.23001098632813	1.23016357421875	1.5948486328125E-06	1.96192468138179E-06	771335.625	3.68242654076312E-05
1	197	86.0443497827589	1.21994018554688	1.22039794921875	1.58355712890625E-06	1.93256983038737E-06	770668.75	3.69843110092916E-05
1	198	86.1450577825046	1.20986938476563	1.21002197265625	1.57318115234375E-06	1.90358366580767E-06	769156.1875	3.71432652173098E-05
1	199	86.2457657822504	1.19979858398438	1.1993408203125	1.5625E-06	1.87396994988376E-06	767578.125	3.73011607734952E-05
1	200	86.3464737819961	1.18972778320313	1.18927001953125	1.55242919921875E-06	1.84625741894706E-06	766070.4375	3.74580085917842E-05
1	201	86.4471817817418	1.17965698242188	1.17919921875	1.541748046875E-06	1.81802806764608E-06	764845.625	3.76138123101555E-05
1	202	86.5478897814876	1.16958618164063	1.16973876953125	1.53076171875E-06	1.79059122729086E-06	764154.75	3.77685246348847E-05
1	203	86.6485977812333	1.15951538085938	1.15997314453125	1.52099609375E-06	1.76431456111459E-06	762640.4375	3.79221928596962E-05
1	204	86.7493057809791	1.14944458007813	1.14898681640625	1.50970458984375E-06	1.7346307004118E-06	761067.3125	3.80748024326749E-05
1	205	86.8500137807248	1.13937377929688	1.1395263671875	1.4984130859375E-06	1.70748126038234E-06	760488.8125	3.8226273318287E-05
1	206	86.9507217804705	1.12930297851563	1.12945556640625	1.4862060546875E-06	1.67860366673267E-06	759959	3.83765618607868E-05
1	207	87.0514297802163	1.11923217773438	1.119384765625	1.47216796875E-06	1.64792231771571E-06	760364.875	3.85255261790007E-05
1	208	87.152137779962	1.10916137695313	1.1090087890625	1.456298828125E-06	1.61504817697278E-06	761525.5625	3.86729880119674E-05
1	209	87.2528457797077	1.09909057617188	1.09893798828125	1.4373779296875E-06	1.57958925228741E-06	764543.5	3.8818696339149E-05
1	210	87.3535537794535	1.08901977539063	1.0888671875	1.414794921875E-06	1.54052372636215E-06	769629.0625	3.89623128285166E-05
1	211	87.4542617791992	1.07894897460938	1.0791015625	1.38641357421875E-06	1.49608092669951E-06	778340.375	3.91033645428251E-05
1	212	87.554969778945	1.06887817382813	1.06903076171875	1.35223388671875E-06	1.44557964176784E-06	790566.4375	3.92412657674868E-05
1	213	87.6556777786907	1.05880737304688	1.05865478515625	1.30889892578125E-06	1.38567202156992E-06	808813.3125	3.93752670788672E-05
1	214	87.7563857784364	1.04873657226563	1.04827880859375	1.2579345703125E-06	1.31866613628517E-06	833333.375	3.95045171899255E-05
1	215	87.8570937781822	1.03866577148438	1.038818359375	1.19903564453125E-06	1.24558027891908E-06	866378.1875	3.96282339352183E-05
1	216	87.9578017779279	1.02859497070313	1.02874755859375	1.13616943359375E-06	1.16883154532843E-06	905452.625	3.97458206862211E-05
1	217	88.0585097776736	1.01852416992188	1.01837158203125	1.0736083984375E-06	1.09333223008434E-06	948550.375	3.98570919060148E-05
1	218	88.1592177774194	1.00845336914063	1.00860595703125	1.01806640625E-06	1.02682781744079E-06	990707.4375	3.99624150304589E-05
1	219	88.2599257771651	0.998382568359375	0.99884033203125	9.74426269531251E-07	9.7329620984965E-07	1025054.8125	4.00627468479797E-05
1	220	88.3606337769108	0.988311767578125	0.98876953125	9.442138671875E-07	9.33609896947019E-07	1047188.125	4.01593570131809E-05
1	221	88.4613417766566	0.978240966796875	0.9783935546875	9.26513671875E-07	9.06494960872806E-07	1055994.75	4.02535551984329E-05
1	222	88.5620497764023	0.968170166015625	0.96832275390625	9.185791015625E-07	8.8948104348674E-07	1054152.875	4.03464655391872E-05
1	223	88.6627577761481	0.958099365234375	0.95794677734375	9.1705322265625E-07	8.78488151556667E-07	1044592.375	4.0438895666739E-05
1	224	88.7634657758938	0.948028564453125	0.94818115234375	9.1888427734375E-07	8.7126875314425E-07	1031883.125	4.05313439841848E-05
1	225	88.8641737756395	0.937957763671875	0.93780517578125	9.21020507812501E-07	8.63737795953057E-07	1018224	4.06239887524862E-05
1	226	88.9648817753853	0.927886962890625	0.9283447265625	9.22546386718751E-07	8.5644103364757E-07	1006285.1875	4.07168190577067E-05
1	227	89.065589775131	0.917816162109375	0.91827392578125	9.22241210937499E-07	8.46870079840301E-07	995698.1875	4.0809711208567E-05
1	228	89.1662977748767	0.907745361328125	0.9075927734375	9.17663574218749E-07	8.32864827771118E-07	989025.625	4.09023596148472E-05
1	229	89.2670057746225	0.897674560546875	0.89752197265625	9.0911865234375E-07	8.15953967503447E-07	987244.0625	4.09943459089845E-05
1	230	89.3677137743682	0.887603759765625	0.88775634765625	8.9691162109375E-07	7.96238964539953E-07	989792.4375	4.10852844652254E-05
1	231	89.4684217741139	0.877532958984375	0.877685546875	8.79821777343751E-07	7.72206817600818E-07	997572	4.11747496400494E-05
1	232	89.5691297738597	0.867462158203125	0.86761474609375	8.6029052734375E-07	7.46400758089294E-07	1008513.6875	4.1262373997597E-05
1	233	89.6698377736054	0.857391357421875	0.8575439453125	8.3892822265625E-07	7.19417812433676E-07	1022189.9375	4.1347935621161E-05
1	234	89.7705457733512	0.847320556640625	0.8477783203125	8.19091796875E-07	6.9440824290723E-07	1035022.375	4.1431423596805E-05
1	235	89.8712537730969	0.837249755859375	0.83770751953125	8.026123046875E-07	6.72354360631289E-07	1043726.25	4.15130816691089E-05
1	236	89.9719617728426	0.827178955078125	0.82733154296875	7.891845703125E-07	6.52917265142605E-07	1048337.25	4.15932372561656E-05
1	237	90.0726697725884	0.817108154296875	0.81695556640625	7.794189453125E-07	6.36750655758078E-07	1048159.75	4.16722214140464E-05
1	238	90.1733777723341	0.807037353515625	0.8074951171875	7.7178955078125E-07	6.23216294570739E-07	1046263.375	4.17503324570134E-05
1	239	90.2740857720798	0.796966552734375	0.79742431640625	7.6324462890625E-07	6.08629818543704E-07	1044782.125	4.18276249547489E-05
1	240	90.3747937718256	0.786895751953125	0.7867431640625	7.51953125E-07	5.91593959597958E-07	1046266.25	4.19039206462912E-05
1	241	90.4755017715713	0.776824951171875	0.77667236328125	7.354736328125E-07	5.7122201724269E-07	1056016.625	4.19788193539716E-05
1	242	90.5762097713171	0.766754150390625	0.76751708984375	7.1075439453125E-07	5.45516115835198E-07	1079862.625	4.2051644413732E-05
1	243	90.6769177710628	0.756683349609375	0.7568359375	6.732177734375E-07	5.09515416524664E-07	1124206.75	4.21213335357606E-05
1	244	90.7776257708085	0.746612548828125	0.746490478515625	6.1920166015625E-07	4.62228143760512E-07	1205569.25	4.21864097006619E-05
1	245	90.8783337705543	0.736541748046875	0.7364501953125	5.43823242187499E-07	4.00498691988105E-07	1354208.875	4.22449738834985E-05
1	246	90.9790417703	0.726470947265625	0.72637939453125	4.4525146484375E-07	3.2342148870157E-07	1631391.375	4.22947778133675E-05
1	247	91.0797497700457	0.716400146484375	0.71636962890625	3.22875976562501E-07	2.3129852877446E-07	2218714.75	4.23334568040445E-05
1	248	91.1804577697915	0.706329345703125	0.706298828125	1.7822265625E-07	1.25878443668626E-07	3963013.75	4.23586861870717E-05
1	249	91.2811657695372	0.696258544921875	0.6961669921875	2.22778320312506E-08	1.5509090900423E-08	31249316	4.23687852162402E-05
1	250	91.3818737692829	0.686187744140625	0.686126708984375	-1.30615234375001E-07	-8.96186023169321E-08	-5253037.5	4.23633282480296E-05
1	251	91.4825817690287	0.676116943359375	0.6761474609375	-2.642822265625E-07	-1.78693753127845E-07	-2558429.5	4.234344305587E-05
1	252	91.5832897687744	0.666046142578125	0.666015625	-3.65600585937501E-07	-2.43495691165663E-07	-1821702.875	4.23117271566298E-05
1	253	91.6839977685202	0.655975341796875	0.655853271484375	-4.28466796875E-07	-2.81011352853966E-07	-1530698	4.2271742131561E-05
1	254	91.7847057682659	0.645904541015625	0.64581298828125	-4.52270507812499E-07	-2.92082148689587E-07	-1427935.25	4.22273951699026E-05
1	255	91.8854137680116	0.635833740234375	0.63580322265625	-4.44641113281249E-07	-2.82704235132769E-07	-1429924.5	4.21822296630125E-05
1	256	91.9861217677574	0.625762939453125	0.625732421875	-4.14428710937501E-07	-2.593214674107E-07	-1509867.5	4.21389740949962E-05
1	257	92.0868297675031	0.615692138671875	0.61566162109375	-3.6895751953125E-07	-2.2715296665865E-07	-1668651.875	4.20995274907909E-05
1	258	92.1875377672488	0.605621337890625	0.60552978515625	-3.16162109375E-07	-1.91445565178583E-07	-1915251	4.20650285377633E-05
1	259	92.2882457669946	0.595550537109375	0.59552001953125	-2.5970458984375E-07	-1.54659289819392E-07	-2293067	4.2036030208692E-05
1	260	92.3889537667403	0.585479736328125	0.585479736328125	-2.02026367187499E-07	-1.18282336813991E-07	-2898036.5	4.20127798861358E-05
1	261	92.4896617664861	0.575408935546875	0.575408935546875	-1.4190673828125E-07	-8.16544059034641E-08	-4054838.75	4.19954631070141E-05
1	262	92.5903697662318	0.565338134765625	0.565338134765625	-7.99560546874995E-08	-4.52022064223456E-08	-7070611	4.19842908740975E-05
1	263	92.6910777659775	0.555267333984375	0.55523681640625	-2.62451171874997E-08	-1.4572254514178E-08	-21155814	4.19789430452511E-05
1	264	92.7917857657233	0.545196533203125	0.54522705078125	1.61743164062506E-08	8.81867379121104E-09	33709436	4.19784373661969E-05
1	265	92.892493765469	0.535125732421875	0.535125732421875	5.035400390625E-08	2.69457238744053E-08	10627273	4.19817843066994E-05
1	266	92.9932017652147	0.525054931640625	0.525054931640625	7.87353515625006E-08	4.13403817844937E-08	6668605	4.19882853748277E-05
1	267	93.0939097649605	0.514984130859375	0.5150146484375	1.03759765625E-07	5.34377946337372E-08	4963529.5	4.19974749092944E-05
1	268	93.1946177647062	0.504913330078125	0.50494384765625	1.2542724609375E-07	6.33337151612068E-08	4025790.75	4.20090145780705E-05
1	269	93.2953257644519	0.494842529296875	0.494842529296875	1.4373779296875E-07	7.1127573164631E-08	3442675.25	4.20225696871057E-05
1	270	93.3960337641977	0.484771728515625	0.484771728515625	1.605224609375E-07	7.78167503767691E-08	3019962	4.20378892158624E-05
1	271	93.4967417639434	0.474700927734375	0.474700927734375	1.7578125E-07	8.34435169849712E-08	2700521	4.20548240072094E-05
1	272	93.5974497636892	0.464630126953125	0.464599609375	1.8890380859375E-07	8.77646328945048E-08	2459450.75	4.20731885242276E-05
1	273	93.6981577634349	0.454559326171875	0.45458984375	2.0111083984375E-07	9.14229403292666E-08	2260394.5	4.20928263338283E-05
1	274	93.7988657631806	0.444488525390625	0.444488525390625	2.1209716796875E-07	9.42747533372312E-08	2095683.5	4.2113631934626E-05
1	275	93.8995737629264	0.434417724609375	0.43438720703125	2.2125244140625E-07	9.61092254669893E-08	1963310.375	4.2135452531511E-05
1	276	94.0002817626721	0.424346923828125	0.424346923828125	2.29797363281251E-07	9.75137979253304E-08	1846613.625	4.21581680711824E-05
1	277	94.1009897624178	0.414276123046875	0.414306640625	2.37121582031249E-07	9.82410455208083E-08	1747233	4.21816766902339E-05
1	278	94.2016977621636	0.404205322265625	0.40423583984375	2.44750976562499E-07	9.89371145010409E-08	1651621	4.22059420088772E-05
1	279	94.3024057619093	0.394134521484375	0.39410400390625	2.50854492187499E-07	9.8862763309171E-08	1571046.25	4.22308985434938E-05
1	280	94.403113761655	0.384063720703125	0.384033203125	2.56958007812499E-07	9.86804025160382E-08	1494536.875	4.22564662585501E-05
1	281	94.5038217614008	0.373992919921875	0.374053955078125	2.63366699218751E-07	9.8513353918861E-08	1420278.125	4.22826669819187E-05
1	282	94.6045297611465	0.363922119140625	0.363922119140625	2.685546875E-07	9.77329932538851E-08	1355113.625	4.23094534198754E-05
1	283	94.7052377608923	0.353851318359375	0.35382080078125	2.728271484375E-07	9.65319202350656E-08	1296868	4.23367127950769E-05
1	284	94.805945760638	0.343780517578125	0.34381103515625	2.77099609375001E-07	9.52699039658E-08	1240748.875	4.23644050897565E-05
1	285	94.9066537603837	0.333709716796875	0.33367919921875	2.8106689453125E-07	9.37861770466952E-08	1187187.875	4.23925121140201E-05
1	286	95.0073617601295	0.323638916015625	0.323638916015625	2.84729003906251E-07	9.2149385011453E-08	1136656	4.24210011260584E-05
1	287	95.1080697598752	0.313568115234375	0.313568115234375	2.87475585937499E-07	9.01431747024617E-08	1090764.375	4.24498139182106E-05
1	288	95.2087777596209	0.303497314453125	0.303436279296875	2.8961181640625E-07	8.78787318470131E-08	1047734.4375	4.24788704549428E-05
1	289	95.3094857593667	0.293426513671875	0.293426513671875	2.92053222656249E-07	8.56961577255788E-08	1004702.25	4.25081598223187E-05
1	290	95.4101937591124	0.283355712890625	0.283355712890625	2.93884277343751E-07	8.32737896416802E-08	964174.4375	4.25376638304442E-05
1	291	95.5109017588582	0.273284912109375	0.2733154296875	2.9571533203125E-07	8.08235611771124E-08	924251.8125	4.25673533754889E-05
1	292	95.6116097586039	0.263214111328125	0.263214111328125	2.96630859374999E-07	7.80774271902374E-08	887345.75	4.25971811637282E-05
1	293	95.7123177583496	0.253143310546875	0.25311279296875	2.96630859374999E-07	7.50810613681097E-08	853292.25	4.26270526077133E-05
1	294	95.8130257580954	0.243072509765625	0.2430419921875	2.96936035156251E-07	7.21679285220489E-08	818499.5	4.26569422415923E-05
1	295	95.9137337578411	0.233001708984375	0.2330322265625	2.96630859374999E-07	6.9124546087096E-08	785596.75	4.26868318754714E-05
1	296	96.0144417575868	0.222930908203125	0.22296142578125	2.9571533203125E-07	6.59331078622927E-08	753973.1875	4.27166596637107E-05
1	297	96.1151497573326	0.212860107421875	0.212890625	2.94189453125E-07	6.26301783768213E-08	723651.4375	4.27463637606706E-05
1	298	96.2158577570783	0.202789306640625	0.202880859375	2.9144287109375E-07	5.9128176133072E-08	696125.6875	4.27758495789021E-05
1	299	96.316565756824	0.192718505859375	0.1927490234375	2.8839111328125E-07	5.55871046969969E-08	668359.8125	4.28050479968078E-05
1	300	96.4172737565698	0.182647705078125	0.182647705078125	2.83203125000001E-07	5.17263991639538E-08	644935.375	4.28338316851296E-05
1	301	96.5179817563155	0.172576904296875	0.172637939453125	2.7618408203125E-07	4.7679847625659E-08	625082.875	4.28619969170541E-05
1	302	96.6186897560613	0.162506103515625	0.16253662109375	2.667236328125E-07	4.3352354595072E-08	609382.1875	4.28893363277894E-05
1	303	96.719397755807	0.152435302734375	0.1524658203125	2.5360107421875E-07	3.86654939177333E-08	601203.4375	4.2915537051158E-05
1	304	96.8201057555527	0.142364501953125	0.142425537109375	2.349853515625E-07	3.34679164382123E-08	606103.875	4.29401370638516E-05
1	305	96.9208137552985	0.132293701171875	0.132293701171875	2.093505859375E-07	2.76957621281326E-08	631924.25	4.29625106335152E-05
1	306	97.0215217550442	0.122222900390625	0.122314453125	1.727294921875E-07	2.11273132322276E-08	708127.25	4.29817519034259E-05
1	307	97.1222297547899	0.112152099609375	0.11224365234375	1.2176513671875E-07	1.36673641293328E-08	921804.5	4.29965803050436E-05
1	308	97.2229377545357	0.102081298828125	0.102142333984375	5.09643554687494E-08	5.20561815875453E-09	2004191.75	4.30052787123714E-05
1	309	97.3236457542814	0.092010498046875	0.092132568359375	-4.69970703125003E-08	-4.32996083432613E-09	-1960389.625	4.30054788012058E-05
1	310	97.4243537540272	0.081939697265625	0.081939697265625	-1.77917480468751E-07	-1.4578503737539E-08	-460548.90625	4.29941537731793E-05
1	311	97.5250617537729	0.071868896484375	0.071868896484375	-3.50036621093749E-07	-2.51567442433043E-08	-205318.234375	4.29675674240571E-05
1	312	97.6257697535186	0.061798095703125	0.061859130859375	-5.645751953125E-07	-3.49241311425885E-08	-109567.5625	4.29215142503381E-05
1	313	97.7264777532644	0.051727294921875	0.051849365234375	-8.209228515625E-07	-4.25643271739773E-08	-63159.85546875	4.28517487307545E-05
1	314	97.8271857530101	0.041656494140625	0.041741943359375	-1.1041259765625E-06	-4.60883669006762E-08	-37805.41796875	4.27548147854395E-05
1	315	97.9278937527558	0.031585693359375	0.031658935546875	-1.3946533203125E-06	-4.41532392869703E-08	-22700.220703125	4.26289916504174E-05
1	316	98.0286017525016	0.021514892578125	0.021624755859375	-1.6607666015625E-06	-3.59136684835448E-08	-13020.9482421875	4.24751378886867E-05
1	317	98.1293097522473	0.011444091796875	0.0115478515625	-1.87713623046875E-06	-2.16768896166286E-08	-6151.845703125	4.22969897044823E-05
1	318	98.230017751993	0.001373291015625	0.00147399902343751	-2.02392578125E-06	-2.9832643022587E-09	-728.287170410156	4.21005570387933E-05
1	319	98.3307257517388	-0.008697509765625	-0.0086181640625	-2.0965576171875E-06	1.80684764927719E-08	4110.6259765625	4.18930721934885E-05
1	320	98.4314337514845	-0.018768310546875	-0.01864013671875	-2.1038818359375E-06	3.9216644154294E-08	8859.8779296875	4.1681563743623E-05
1	321	98.5321417512303	-0.028839111328125	-0.0287261962890625	-2.0623779296875E-06	5.92442717106678E-08	13928.6767578125	4.14717760577332E-05
1	322	98.632849750976	-0.038909912109375	-0.0387847900390625	-1.99127197265625E-06	7.72310713159641E-08	19477.39453125	4.12676599808037E-05
1	323	98.7335577507217	-0.048980712890625	-0.0488555908203125	-1.9049072265625E-06	9.30653669684034E-08	25647.228515625	4.10714710596949E-05
1	324	98.8342657504675	-0.059051513671875	-0.05902099609375	-1.8145751953125E-06	1.07098031776331E-07	32526.068359375	4.08841806347482E-05
1	325	98.9349737502132	-0.069122314453125	-0.069061279296875	-1.7266845703125E-06	1.1924704779176E-07	39996.46484375	4.07058651035186E-05
1	326	99.0356817499589	-0.079193115234375	-0.079132080078125	-1.64581298828125E-06	1.30236600170974E-07	48080.84765625	4.05360442528035E-05
1	327	99.1363897497047	-0.089263916015625	-0.089202880859375	-1.5716552734375E-06	1.40196178222141E-07	56757.28125	4.03740305046085E-05
1	328	99.2370977494504	-0.099334716796875	-0.099273681640625	-1.50665283203125E-06	1.49570965390922E-07	65890.21875	4.02190271415748E-05
1	329	99.3378057491961	-0.109405517578125	-0.10931396484375	-1.44866943359375E-06	1.58359796387231E-07	75458.1875	4.00702156184707E-05
1	330	99.4385137489419	-0.119476318359375	-0.119354248046875	-1.39892578125E-06	1.6696773741387E-07	85318.5	3.9926828321768E-05
1	331	99.5392217486876	-0.129547119140625	-0.129425048828125	-1.35498046875E-06	1.75368413124488E-07	95518.0234375	3.97881558455992E-05
1	332	99.6399297484334	-0.139617919921875	-0.139556884765625	-1.31805419921875E-06	1.83943527076735E-07	105880.9921875	3.96535579056945E-05
1	333	99.7406377481791	-0.149688720703125	-0.1495361328125	-1.285400390625E-06	1.92213789773632E-07	116334.2890625	3.95224633393809E-05
1	334	99.8413457479248	-0.159759521484375	-0.159576416015625	-1.25732421875E-06	2.00639291847438E-07	126917.4765625	3.93944283132441E-05
1	335	99.9420537476706	-0.169830322265625	-0.169677734375	-1.23382568359375E-06	2.09352734259483E-07	137521.65625	3.92689871659968E-05
1	336	100.042761747416	-0.179901123046875	-0.1796875	-1.2139892578125E-06	2.18138680452284E-07	148014.078125	3.91457324440125E-05
1	337	100.143469747162	-0.189971923828125	-0.18988037109375	-1.19781494140625E-06	2.27441532274497E-07	158522.296875	3.90242857974954E-05
1	338	100.244177746908	-0.200042724609375	-0.1998291015625	-1.18438720703125E-06	2.366750351257E-07	168719.40625	3.8904334360268E-05
1	339	100.344885746654	-0.189971923828125	-0.1898193359375	-1.03363037109375E-06	1.96203032487574E-07	183643.34375	3.87926484108903E-05
2	340	100.445593746399	-0.179901123046875	-0.1798095703125	-9.307861328125E-07	1.67364248682134E-07	193180.34375	3.86937317671254E-05
2	341	100.546301746145	-0.169830322265625	-0.169708251953125	-8.48388671875E-07	1.43978553523993E-07	200035.96875	3.8604142901022E-05
2	342	100.647009745891	-0.159759521484375	-0.15966796875	-7.7850341796875E-07	1.24302061976778E-07	205096.046875	3.85222228942439E-05
2	343	100.747717745636	-0.149688720703125	-0.149566650390625	-7.1746826171875E-07	1.07309325869664E-07	208464.484375	3.84468949050643E-05
2	344	100.848425745382	-0.139617919921875	-0.139495849609375	-6.622314453125E-07	9.23785350437356E-08	210645.171875	3.83774204237852E-05
2	345	100.949133745128	-0.129547119140625	-0.12945556640625	-6.11267089843751E-07	7.91319223480969E-08	211782.328125	3.83132937713526E-05
2	346	101.049841744874	-0.119476318359375	-0.119415283203125	-5.6427001953125E-07	6.73824658292688E-08	211627.90625	3.82541038561612E-05
2	347	101.150549744619	-0.109405517578125	-0.10931396484375	-5.1849365234375E-07	5.66785978151074E-08	210829.890625	3.81995814677794E-05
2	348	101.251257744365	-0.099334716796875	-0.09918212890625	-4.730224609375E-07	4.69153746962547E-08	209677.421875	3.81496538466308E-05
2	349	101.351965744111	-0.089263916015625	-0.08917236328125	-4.26025390625E-07	3.79896896163245E-08	209312.328125	3.81043828383554E-05
2	350	101.452673743857	-0.079193115234375	-0.079193115234375	-3.75976562499999E-07	2.97747551059047E-08	210633.125	3.80640012735967E-05
2	351	101.553381743602	-0.069122314453125	-0.069091796875	-3.18603515625E-07	2.20128875128012E-08	216858.25	3.80290257453453E-05
2	352	101.654089743348	-0.059051513671875	-0.05902099609375	-2.50244140625E-07	1.47696583852053E-08	235853.65625	3.80003803002182E-05
2	353	101.754797743094	-0.048980712890625	-0.04886474609375	-1.66931152343749E-07	8.15704748191592E-09	292723.96875	3.79793746105861E-05
2	354	101.85550574284	-0.038909912109375	-0.0387908935546875	-6.103515625E-08	2.36760810956582E-09	635550.0625	3.79678967874497E-05
2	355	101.956213742585	-0.028839111328125	-0.028704833984375	7.56835937500006E-08	-2.17248485867572E-09	-379274.1875	3.79686316591688E-05
2	356	102.056921742331	-0.018768310546875	-0.018670654296875	2.4871826171875E-07	-4.6437325096349E-09	-75067.484375	3.79849661840126E-05
2	357	102.157629742077	-0.008697509765625	-0.00859375	4.6356201171875E-07	-3.98373600773994E-09	-18538.513671875	3.80208330170717E-05
2	358	102.258337741823	0.001373291015625	0.00150451660156251	7.19299316406249E-07	1.08219766481454E-09	2091.64184570313	3.80803976440802E-05
2	359	102.359045741568	0.011444091796875	0.0115264892578125	1.0076904296875E-06	1.16151337437032E-08	11438.5224609375	3.81673562515061E-05
2	360	102.459753741314	0.021514892578125	0.021612548828125	1.3092041015625E-06	2.82952381525092E-08	16508.158203125	3.82840225938708E-05
2	361	102.56046174106	0.031585693359375	0.031646728515625	1.59576416015625E-06	5.05007164974813E-08	19831.70703125	3.84302984457463E-05
2	362	102.661169740805	0.041656494140625	0.041778564453125	1.84112548828125E-06	7.69195764860342E-08	22691.861328125	3.86033607355785E-05
2	363	102.761877740551	0.051727294921875	0.05181884765625	2.02178955078125E-06	1.04766797903721E-07	25630.189453125	3.87978725484572E-05
2	364	102.862585740297	0.061798095703125	0.061859130859375	2.12890625E-06	1.31692274862871E-07	29056.767578125	3.90068780689035E-05
2	365	102.963293740043	0.071868896484375	0.071929931640625	2.16705322265625E-06	1.55875994778398E-07	33192.5078125	3.92231959267519E-05
2	366	103.064001739788	0.081939697265625	0.082000732421875	2.15179443359375E-06	1.76448722299938E-07	38108.0703125	3.94406670238823E-05
2	367	103.164709739534	0.092010498046875	0.092041015625	2.09930419921875E-06	1.93222078337385E-07	43843.5859375	3.96547256968915E-05
2	368	103.26541773928	0.102081298828125	0.10211181640625	2.02728271484375E-06	2.07009506425493E-07	50368.8125	3.98625161324162E-05
2	369	103.366125739026	0.112152099609375	0.112213134765625	1.9464111328125E-06	2.18412878894014E-07	57651.3046875	4.00626086047851E-05
2	370	103.466833738771	0.122222900390625	0.122314453125	1.8646240234375E-06	2.28070462071628E-07	65597.3828125	4.02545083488803E-05
2	371	103.567541738517	0.132293701171875	0.13238525390625	1.78741455078125E-06	2.36627315075566E-07	74065.2265625	4.04384045396E-05
2	372	103.668249738263	0.142364501953125	0.14239501953125	1.71630859375E-06	2.44393788761954E-07	82965.859375	4.06148319598287E-05
2	373	103.768957738009	0.152435302734375	0.1524658203125	1.651611328125E-06	2.51814270768591E-07	92313.375	4.07844199799001E-05
2	374	103.869665737754	0.162506103515625	0.162506103515625	1.59454345703125E-06	2.59123027035457E-07	101913.8828125	4.09478743677028E-05
2	375	103.9703737375	0.172576904296875	0.172607421875	1.5435791015625E-06	2.66433204387795E-07	111822.859375	4.11058936151676E-05
2	376	104.071081737246	0.182647705078125	0.18267822265625	1.4984130859375E-06	2.73727437161142E-07	121914.4609375	4.12590707128402E-05
2	377	104.171789736992	0.192718505859375	0.192779541015625	1.45904541015625E-06	2.8127411155765E-07	132127.171875	4.14079877373297E-05
2	378	104.272497736737	0.202789306640625	0.20281982421875	1.4239501953125E-06	2.88805324544228E-07	142434.640625	4.15531576436479E-05
2	379	104.373205736483	0.212860107421875	0.212860107421875	1.39251708984375E-06	2.96411343470027E-07	152859.953125	4.16949806094635E-05
2	380	104.473913736229	0.222930908203125	0.22296142578125	1.36444091796875E-06	3.04217678603891E-07	163408.640625	4.18338022427633E-05
2	381	104.574621735974	0.233001708984375	0.233001708984375	1.3397216796875E-06	3.12157425241821E-07	173918	4.1969968151534E-05
2	382	104.67532973572	0.243072509765625	0.24310302734375	1.31805419921875E-06	3.20422969934953E-07	184440.84375	4.21037984779105E-05
2	383	104.776037735466	0.253143310546875	0.253173828125	1.29791259765625E-06	3.28597508314488E-07	195062.3125	4.22355224145576E-05
2	384	104.876745735212	0.263214111328125	0.263214111328125	1.27960205078125E-06	3.36809307555086E-07	205699.984375	4.23653109464794E-05
2	385	104.977453734957	0.273284912109375	0.273223876953125	1.2640380859375E-06	3.45365378962015E-07	216151.625	4.24933932663407E-05
2	386	105.078161734703	0.283355712890625	0.283355712890625	1.24969482421875E-06	3.54108180999901E-07	226739.921875	4.26199694629759E-05
2	387	105.178869734449	0.293426513671875	0.293426513671875	1.23626708984375E-06	3.62753524996151E-07	237348.8125	4.27451486757491E-05
2	388	105.279577734195	0.303497314453125	0.303497314453125	1.22467041015625E-06	3.71684194533373E-07	247819.578125	4.28690655098762E-05
2	389	105.38028573394	0.313568115234375	0.3135986328125	1.21429443359375E-06	3.80801083110782E-07	258255.84375	4.2991876398446E-05
2	390	105.480993733686	0.323638916015625	0.32366943359375	1.20452880859375E-06	3.8986914319139E-07	268710.4375	4.31136759289075E-05
2	391	105.581701733432	0.333709716796875	0.333770751953125	1.19598388671875E-06	3.99184415300624E-07	279076.3125	4.32345514127519E-05
2	392	105.682409733178	0.343780517578125	0.343841552734375	1.1883544921875E-06	4.08605615120905E-07	289342.59375	4.33546119893435E-05
2	393	105.783117732923	0.353851318359375	0.353912353515625	1.181640625E-06	4.18197231510931E-07	299509.28125	4.34739486081526E-05
2	394	105.883825732669	0.363922119140625	0.3638916015625	1.1761474609375E-06	4.27990158868852E-07	309392.84375	4.3592674046522E-05
2	395	105.984533732415	0.373992919921875	0.3740234375	1.17156982421875E-06	4.38194575735906E-07	319249.8125	4.37108901678585E-05
2	396	106.085241732161	0.384063720703125	0.384063720703125	1.16729736328125E-06	4.48316569645613E-07	329019.625	4.38286624557804E-05
2	397	106.185949731906	0.394134521484375	0.394073486328125	1.16424560546875E-06	4.5879829713158E-07	338479.71875	4.39460636698641E-05
2	398	106.286657731652	0.404205322265625	0.404205322265625	1.16119384765625E-06	4.69360742272329E-07	348094.625	4.40631592937279E-05
2	399	106.387365731398	0.414276123046875	0.414306640625	1.15997314453125E-06	4.80584560591524E-07	357169.1875	4.41800402768422E-05
2	400	106.488073731143	0.424346923828125	0.424346923828125	1.15814208984375E-06	4.91453988615831E-07	366403.1875	4.42967684648465E-05
2	401	106.588781730889	0.434417724609375	0.434417724609375	1.15692138671875E-06	5.02587170103652E-07	375494.59375	4.44133402197622E-05
2	402	106.689489730635	0.444488525390625	0.4444580078125	1.1566162109375E-06	5.140673238202E-07	384274.40625	4.45298355771229E-05
2	403	106.790197730381	0.454559326171875	0.45458984375	1.1566162109375E-06	5.25785992522287E-07	393034.28125	4.46463163825683E-05
2	404	106.890905730126	0.464630126953125	0.464691162109375	1.1566162109375E-06	5.37469361461262E-07	401767.8125	4.47627971880138E-05
2	405	106.991613729872	0.474700927734375	0.47467041015625	1.1578369140625E-06	5.49590936316235E-07	409963.09375	4.4879339839099E-05
2	406	107.092321729618	0.484771728515625	0.484710693359375	1.15997314453125E-06	5.6225132993859E-07	417863.75	4.49960498372093E-05
2	407	107.193029729364	0.494842529296875	0.49481201171875	1.1614990234375E-06	5.74723628687934E-07	426011.59375	4.51129453722388E-05
2	408	107.293737729109	0.504913330078125	0.5048828125	1.1639404296875E-06	5.87653516959108E-07	433770.34375	4.52300409961026E-05
2	409	107.394445728855	0.514984130859375	0.51495361328125	1.1676025390625E-06	6.0126109246994E-07	441035.0625	4.53474422101863E-05
2	410	107.495153728601	0.525054931640625	0.524993896484375	1.17218017578125E-06	6.15387421021296E-07	447878.15625	4.54652581538539E-05
2	411	107.595861728347	0.535125732421875	0.53509521484375	1.1773681640625E-06	6.30004080903745E-07	454484.1875	4.55835688626394E-05
2	412	107.696569728092	0.545196533203125	0.545135498046875	1.18438720703125E-06	6.45651482500398E-07	460267.96875	4.57024943898432E-05
2	413	107.797277727838	0.555267333984375	0.555206298828125	1.1932373046875E-06	6.62492823266803E-07	465294.125	4.58222166344058E-05
2	414	107.897985727584	0.565338134765625	0.565277099609375	1.2030029296875E-06	6.80029984323482E-07	469888.40625	4.59428774775006E-05
2	415	107.99869372733	0.575408935546875	0.57537841796875	1.21673583984375E-06	7.00083489846293E-07	472886.90625	4.60647206637077E-05
2	416	108.099401727075	0.585479736328125	0.58551025390625	1.2335205078125E-06	7.22238894468319E-07	474666	4.61880990769714E-05
2	417	108.200109726821	0.595550537109375	0.59552001953125	1.25640869140625E-06	7.48216507417965E-07	473985.9375	4.6313478378579E-05
2	418	108.300817726567	0.605621337890625	0.6055908203125	1.28570556640625E-06	7.78611422447284E-07	471018.3125	4.64414843008853E-05
2	419	108.401525726312	0.615692138671875	0.615631103515625	1.32537841796875E-06	8.15944190435403E-07	464494.59375	4.65729608549736E-05
2	420	108.502233726058	0.625762939453125	0.62579345703125	1.3787841796875E-06	8.62834099280008E-07	453873.40625	4.67091267637443E-05
2	421	108.602941725804	0.635833740234375	0.635772705078125	1.45050048828125E-06	9.22188576168992E-07	438312.65625	4.68515936518088E-05
2	422	108.70364972555	0.645904541015625	0.645843505859375	1.544189453125E-06	9.97304709926539E-07	418241.09375	4.70023878733627E-05
2	423	108.804357725295	0.655975341796875	0.65594482421875	1.6607666015625E-06	1.08937126697128E-06	394965.09375	4.71637686132453E-05
2	424	108.905065725041	0.666046142578125	0.665985107421875	1.7974853515625E-06	1.19709841328586E-06	370509.34375	4.73379077448044E-05
2	425	109.005773724787	0.676116943359375	0.67608642578125	1.9464111328125E-06	1.31594208596653E-06	347350.28125	4.75264278065879E-05
2	426	109.106481724533	0.686187744140625	0.686065673828125	2.093505859375E-06	1.4362824458658E-06	327711.375	4.7729852667544E-05
2	427	109.207189724278	0.696258544921875	0.696197509765625	2.22442626953125E-06	1.54863994339394E-06	312978.46875	4.79472764709499E-05
2	428	109.307897724024	0.706329345703125	0.706298828125	2.32666015625E-06	1.64331720498012E-06	303567.6875	4.8176443669945E-05
2	429	109.40860572377	0.716400146484375	0.71630859375	2.39288330078125E-06	1.71404280990828E-06	299349.5625	4.84140909975395E-05
2	430	109.509313723516	0.726470947265625	0.726409912109375	2.423095703125E-06	1.76016067143792E-06	299785.90625	4.86565950268414E-05
2	431	109.610021723261	0.736541748046875	0.7364501953125	2.42401123046875E-06	1.78516347659752E-06	303814.6875	4.89006670250092E-05
2	432	109.710729723007	0.746612548828125	0.746490478515625	2.40478515625E-06	1.79514927367563E-06	310418.78125	4.914381497656E-05
2	433	109.811437722753	0.756683349609375	0.7562255859375	2.37274169921875E-06	1.79432788627309E-06	318713.84375	4.93843836011365E-05
2	434	109.912145722499	0.766754150390625	0.76690673828125	2.33642578125E-06	1.79182063675398E-06	328239.3125	4.96215070597827E-05
2	435	110.012853722244	0.776824951171875	0.77728271484375	2.29888916015625E-06	1.7868867416837E-06	338112.3125	4.98549161420669E-05
2	436	110.11356172199	0.786895751953125	0.7867431640625	2.26470947265625E-06	1.78174457232672E-06	347392.5625	5.00847090734169E-05
2	437	110.214269721736	0.796966552734375	0.7977294921875	2.236328125E-06	1.78398488515086E-06	356713.96875	5.03113551530987E-05
2	438	110.314977721481	0.807037353515625	0.80718994140625	2.21282958984375E-06	1.78617369783751E-06	364777.28125	5.0535389163997E-05
2	439	110.415685721227	0.817108154296875	0.8172607421875	2.1954345703125E-06	1.79424239377113E-06	372254.65625	5.07573640788905E-05
2	440	110.516393720973	0.827178955078125	0.82794189453125	2.1856689453125E-06	1.80960671514185E-06	378804.84375	5.09779674757738E-05
2	441	110.617101720719	0.837249755859375	0.83709716796875	2.18048095703125E-06	1.82527435299562E-06	383904.84375	5.11978214490227E-05
2	442	110.717809720464	0.847320556640625	0.84716796875	2.17926025390625E-06	1.84619943865982E-06	388741.0625	5.14173516421579E-05
2	443	110.81851772021	0.857391357421875	0.85784912109375	2.18017578125E-06	1.87026182629779E-06	393477.0625	5.16368672833778E-05
2	444	110.919225719956	0.867462158203125	0.867919921875	2.18109130859375E-06	1.89301260888897E-06	397929.1875	5.18564738740679E-05
2	445	111.019933719702	0.877532958984375	0.87799072265625	2.17987060546875E-06	1.91390608961228E-06	402771.96875	5.20760659128428E-05
2	446	111.120641719447	0.887603759765625	0.8880615234375	2.17681884765625E-06	1.93314895113872E-06	407963	5.2295443310868E-05
2	447	111.221349719193	0.897674560546875	0.89752197265625	2.17193603515625E-06	1.94936023945047E-06	413235.9375	5.25144205312245E-05
2	448	111.322057718939	0.907745361328125	0.90789794921875	2.16644287109375E-06	1.96690893972118E-06	419073.125	5.27328738826327E-05
2	449	111.422765718685	0.917816162109375	0.91766357421875	2.161865234375E-06	1.98386510419368E-06	424477.6875	5.29508215549868E-05
2	450	111.52347371843	0.927886962890625	0.9283447265625	2.15789794921875E-06	2.00327303900849E-06	430207.90625	5.31683399458416E-05
2	451	111.624181718176	0.937957763671875	0.9381103515625	2.1588134765625E-06	2.02520527636807E-06	434549.0625	5.33857019036077E-05
2	452	111.724889717922	0.948028564453125	0.94818115234375	2.1636962890625E-06	2.05157607524598E-06	438222.84375	5.36033585376572E-05
2	453	111.825597717668	0.958099365234375	0.958251953125	2.17498779296875E-06	2.08418623515172E-06	440578.09375	5.38218300789595E-05
2	454	111.926305717413	0.968170166015625	0.96832275390625	2.19390869140625E-06	2.12441159419541E-06	441368.78125	5.40418222954031E-05
2	455	112.027013717159	0.978240966796875	0.97808837890625	2.22137451171875E-06	2.17270053326502E-06	440307.75	5.42641464562621E-05
2	456	112.127721716905	0.988311767578125	0.98846435546875	2.25799560546875E-06	2.23194797399628E-06	437761.875	5.44897011423018E-05
2	457	112.22842971665	0.998382568359375	0.99822998046875	2.30072021484375E-06	2.29664783546468E-06	433877.1875	5.47192503290717E-05
2	458	112.329137716396	1.00845336914063	1.0089111328125	2.34710693359375E-06	2.36802225117572E-06	429853.09375	5.49532887816895E-05
2	459	112.429845716142	1.01852416992188	1.019287109375	2.3931884765625E-06	2.4393461899308E-06	425911.78125	5.51919802092016E-05
2	460	112.530553715888	1.02859497070313	1.02874755859375	2.43133544921875E-06	2.50123025580251E-06	423120.375	5.54349135200027E-05
2	461	112.631261715633	1.03866577148438	1.03851318359375	2.45819091796875E-06	2.55286363426421E-06	422470.5	5.56811210117303E-05
2	462	112.731969715379	1.04873657226563	1.048583984375	2.47222900390625E-06	2.59233979704732E-06	424145.1875	5.59293875994626E-05
2	463	112.832677715125	1.05880737304688	1.05926513671875	2.4737548828125E-06	2.62036223830364E-06	428201.34375	5.61784399906173E-05
2	464	112.933385714871	1.06887817382813	1.06903076171875	2.46612548828125E-06	2.63636388808663E-06	433485.96875	5.64271831535734E-05
2	465	113.034093714616	1.07894897460938	1.07879638671875	2.4517822265625E-06	2.64497384705464E-06	440005	5.66748167329933E-05
2	466	113.134801714362	1.08901977539063	1.0888671875	2.4346923828125E-06	2.6510565476201E-06	447229.90625	5.6920871429611E-05
2	467	113.235509714108	1.09909057617188	1.0992431640625	2.41668701171875E-06	2.65652670350391E-06	454855.40625	5.71651580685284E-05
2	468	113.336217713854	1.10916137695313	1.1090087890625	2.39837646484375E-06	2.65982043856638E-06	462399.8125	5.74076148041058E-05
2	469	113.436925713599	1.11923217773438	1.1187744140625	2.3809814453125E-06	2.66378106061893E-06	469879.53125	5.76482743781526E-05
2	470	113.537633713345	1.12930297851563	1.12945556640625	2.36541748046875E-06	2.67163386524771E-06	477486.78125	5.78872750338633E-05
2	471	113.638341713091	1.13937377929688	1.13922119140625	2.35107421875E-06	2.67839368461864E-06	484553.46875	5.81247695663478E-05
2	472	113.739049712837	1.14944458007813	1.1492919921875	2.33978271484375E-06	2.68909343503765E-06	491196.03125	5.83609726163559E-05
2	473	113.839757712582	1.15951538085938	1.15936279296875	2.33001708984375E-06	2.70133500634984E-06	497576.96875	5.8596117014531E-05
2	474	113.940465712328	1.16958618164063	1.1688232421875	2.32147216796875E-06	2.71339058599551E-06	503483.65625	5.88303373660892E-05
2	475	114.041173712074	1.17965698242188	1.1798095703125	2.314453125E-06	2.73061391453666E-06	509757.40625	5.90637755522039E-05
2	476	114.141881711819	1.18972778320313	1.1895751953125	2.3095703125E-06	2.74740727945755E-06	515063.46875	5.92966134718154E-05
2	477	114.242589711565	1.19979858398438	1.199951171875	2.30621337890625E-06	2.76734317594673E-06	520312.34375	5.95290366618428E-05
2	478	114.343297711311	1.20986938476563	1.209716796875	2.30438232421875E-06	2.78764991890057E-06	524963.625	5.97611979173962E-05
2	479	114.444005711057	1.21994018554688	1.2200927734375	2.303466796875E-06	2.81044322036905E-06	529676.75	5.99932209297549E-05
2	480	114.544713710802	1.23001098632813	1.2298583984375	2.30438232421875E-06	2.8340637072688E-06	533704.1875	6.02252439421136E-05
2	481	114.645421710548	1.24008178710938	1.240234375	2.30712890625E-06	2.86138060801022E-06	537566.125	6.04574524913915E-05
2	482	114.746129710294	1.25015258789063	1.24969482421875	2.310791015625E-06	2.88778346657637E-06	540808.25	6.06899848207831E-05
2	483	114.84683771004	1.26022338867188	1.26007080078125	2.3150634765625E-06	2.91714400191267E-06	544292.125	6.09229136898648E-05
2	484	114.947545709785	1.27029418945313	1.2701416015625	2.320556640625E-06	2.94743540507625E-06	547343.5	6.11563373240642E-05
2	485	115.048253709531	1.28036499023438	1.28082275390625	2.32818603515625E-06	2.98199347525951E-06	550137.6875	6.13904194324277E-05
2	486	115.148961709277	1.29043579101563	1.2908935546875	2.33673095703125E-06	3.016470827788E-06	552435.6875	6.1625316448044E-05
2	487	115.249669709023	1.30050659179688	1.3006591796875	2.34619140625E-06	3.05159551317047E-06	554370.4375	6.18611229583621E-05
2	488	115.350377708768	1.31057739257813	1.31072998046875	2.35748291015625E-06	3.09002348330978E-06	555987.0625	6.2097969930619E-05
2	489	115.451085708514	1.32064819335938	1.32080078125	2.3699951171875E-06	3.1302911338571E-06	557301.125	6.23360174358822E-05
2	490	115.55179370826	1.33071899414063	1.33026123046875	2.3834228515625E-06	3.17057492793538E-06	558130.625	6.25753673375584E-05
2	491	115.652501708006	1.34078979492188	1.3409423828125	2.39837646484375E-06	3.21608467857004E-06	559104.25	6.28161506028846E-05
2	492	115.753209707751	1.35086059570313	1.35101318359375	2.413330078125E-06	3.26044073517551E-06	559812.875	6.30584399914369E-05
2	493	115.853917707497	1.36093139648438	1.361083984375	2.430419921875E-06	3.3080057164625E-06	560020.0625	6.33023446425796E-05
2	494	115.954625707243	1.37100219726563	1.3714599609375	2.44903564453125E-06	3.35875415657938E-06	560000.0625	6.35480464552529E-05
2	495	116.055333706988	1.38107299804688	1.3812255859375	2.4700927734375E-06	3.41175541507255E-06	559179.625	6.37957418803126E-05
2	496	116.156041706734	1.39114379882813	1.39068603515625	2.4945068359375E-06	3.46907586390444E-06	557499.375	6.40457292320207E-05
2	497	116.25674970648	1.40121459960938	1.4007568359375	2.52227783203125E-06	3.53309792444634E-06	555353.9375	6.42983432044275E-05
2	498	116.357457706226	1.41128540039063	1.4111328125	2.55615234375E-06	3.60707053914666E-06	552053.5	6.45540640107356E-05
2	499	116.458165705971	1.42135620117188	1.42120361328125	2.59552001953125E-06	3.68876226275461E-06	547560.3125	6.48134737275541E-05
2	500	116.558873705717	1.43142700195313	1.4312744140625	2.64190673828125E-06	3.78129334421828E-06	541758.125	6.50771980872378E-05
2	501	116.659581705463	1.44149780273438	1.44195556640625	2.69805908203125E-06	3.89048136639758E-06	534441.8125	6.53460811008699E-05
2	502	116.760289705209	1.45156860351563	1.45172119140625	2.764892578125E-06	4.01385295845103E-06	525055.1875	6.56211632303894E-05
2	503	116.860997704954	1.46163940429688	1.46209716796875	2.84698486328125E-06	4.16256852986407E-06	513559.875	6.5903746872209E-05
2	504	116.9617057047	1.47171020507813	1.47186279296875	2.94708251953125E-06	4.33770128438482E-06	499430.46875	6.61954982206225E-05
2	505	117.062413704446	1.48178100585938	1.4813232421875	3.06427001953125E-06	4.53917436971096E-06	483418	6.64981998852454E-05
2	506	117.163121704192	1.49185180664063	1.49200439453125	3.2000732421875E-06	4.77452340419404E-06	466240.6875	6.68136344756931E-05
2	507	117.263829703937	1.50192260742188	1.5020751953125	3.3502197265625E-06	5.03228193338146E-06	448351.25	6.71434609103017E-05
2	508	117.364537703683	1.49185180664063	1.49169921875	3.01116943359375E-06	4.49175922767608E-06	495388.6875	6.74637849442661E-05
2	509	117.465245703429	1.48178100585938	1.48193359375	2.76458740234375E-06	4.09693484471063E-06	536041.5	6.77546195220202E-05
2	510	117.565953703175	1.47171020507813	1.47186279296875	2.572021484375E-06	3.78566278413928E-06	572259.125	6.80233351886272E-05
2	511	117.66666170292	1.46163940429688	1.4617919921875	2.4163818359375E-06	3.5322473195265E-06	604950.8125	6.82745230733417E-05
2	512	117.767369702666	1.45156860351563	1.451416015625	2.2894287109375E-06	3.32291347149294E-06	633964.25	6.85114791849628E-05
2	513	117.868077702412	1.44149780273438	1.44134521484375	2.1826171875E-06	3.14590488414979E-06	660374.6875	6.87366627971642E-05
2	514	117.968785702157	1.43142700195313	1.431884765625	2.09442138671875E-06	2.99896987598913E-06	683666.0625	6.8952031142544E-05
2	515	118.069493701903	1.42135620117188	1.42181396484375	2.01995849609375E-06	2.87200509774266E-06	703882.8125	6.91592067596503E-05
2	516	118.170201701649	1.41128540039063	1.41082763671875	1.95709228515625E-06	2.76111995844985E-06	720879.4375	6.9359470217023E-05
2	517	118.270909701395	1.40121459960938	1.4013671875	1.90338134765625E-06	2.66733604803449E-06	736251.4375	6.95538547006436E-05
2	518	118.37161770114	1.39114379882813	1.3909912109375	1.85791015625E-06	2.58433669841907E-06	748685.9375	6.97432551532984E-05
2	519	118.472325700886	1.38107299804688	1.3812255859375	1.81915283203125E-06	2.51266033046704E-06	759268.625	6.99284064467065E-05
2	520	118.573033700632	1.37100219726563	1.37115478515625	1.78558349609375E-06	2.44831130657985E-06	767902.9375	7.01099197613075E-05
2	521	118.673741700378	1.36093139648438	1.3604736328125	1.75689697265625E-06	2.3902118755359E-06	774361.6875	7.02882971381769E-05
2	522	118.774449700123	1.35086059570313	1.35101318359375	1.73187255859375E-06	2.33978266805934E-06	780088.125	7.04639751347713E-05
2	523	118.875157699869	1.34078979492188	1.3409423828125	1.70928955078125E-06	2.29205875257321E-06	784502.75	7.06372520653531E-05
2	524	118.975865699615	1.33071899414063	1.3311767578125	1.688232421875E-06	2.24733571485558E-06	788503.25	7.08083316567354E-05
2	525	119.076573699361	1.32064819335938	1.32080078125	1.67022705078125E-06	2.2060371520638E-06	790791.1875	7.09774394636042E-05
2	526	119.177281699106	1.31057739257813	1.31103515625	1.65252685546875E-06	2.16652074414014E-06	793351.8125	7.11447573849E-05
2	527	119.277989698852	1.30050659179688	1.3006591796875	1.63665771484375E-06	2.12873374039191E-06	794704.5	7.13103800080717E-05
2	528	119.378697698598	1.29043579101563	1.290283203125	1.6217041015625E-06	2.09245763471699E-06	795634.1875	7.14744528522715E-05
2	529	119.479405698343	1.28036499023438	1.280517578125	1.60614013671875E-06	2.0566906187014E-06	797263.9375	7.16369831934571E-05
2	530	119.580113698089	1.27029418945313	1.2701416015625	1.59149169921875E-06	2.02141973204562E-06	798082.4375	7.1798000135459E-05
2	531	119.680821697835	1.26022338867188	1.26068115234375	1.5777587890625E-06	1.98905081560952E-06	799032.875	7.19575837138109E-05
2	532	119.781529697581	1.25015258789063	1.25	1.56402587890625E-06	1.95503230315808E-06	799219.5	7.21157848602161E-05
2	533	119.882237697326	1.24008178710938	1.240234375	1.5509033203125E-06	1.9234835235693E-06	799685.125	7.2272632678505E-05
2	534	119.982945697072	1.23001098632813	1.23046875	1.5380859375E-06	1.89256672911142E-06	800000	7.2428178100381E-05
2	535	120.083653696818	1.21994018554688	1.21978759765625	1.52496337890625E-06	1.86013130587526E-06	799880	7.25824138498865E-05
2	536	120.184361696564	1.20986938476563	1.209716796875	1.512451171875E-06	1.82963754014054E-06	799838.5625	7.27353617548943E-05
2	537	120.285069696309	1.19979858398438	1.1993408203125	1.49993896484375E-06	1.79893788754271E-06	799593.125	7.28870436432771E-05
2	538	120.385777696055	1.18972778320313	1.190185546875	1.48712158203125E-06	1.7699504724078E-06	800328.375	7.30374522390775E-05
2	539	120.486485695801	1.17965698242188	1.17950439453125	1.474609375E-06	1.73930823166302E-06	799875.8125	7.31865875422955E-05
2	540	120.587193695547	1.16958618164063	1.16973876953125	1.46209716796875E-06	1.71027170381421E-06	800041.8125	7.33344641048461E-05
2	541	120.687901695292	1.15951538085938	1.15936279296875	1.44866943359375E-06	1.67953339769156E-06	800294.9375	7.34810309950262E-05
2	542	120.788609695038	1.14944458007813	1.14959716796875	1.435546875E-06	1.65030064636085E-06	800807.8125	7.36262663849629E-05
2	543	120.889317694784	1.13937377929688	1.1395263671875	1.42120361328125E-06	1.61949901666958E-06	801803.75	7.37701120669954E-05
2	544	120.99002569453	1.12930297851563	1.129150390625	1.40594482421875E-06	1.58752311563148E-06	803125.6875	7.39124734536745E-05
2	545	121.090733694275	1.11923217773438	1.119384765625	1.38946533203125E-06	1.55534632995113E-06	805622.6875	7.40532341296785E-05
2	546	121.191441694021	1.10916137695313	1.10931396484375	1.370849609375E-06	1.52070253989223E-06	809216.4375	7.41922267479822E-05
2	547	121.292149693767	1.09909057617188	1.09954833984375	1.3494873046875E-06	1.48382650877465E-06	814789.6875	7.43292039260268E-05
2	548	121.392857693512	1.08901977539063	1.08917236328125	1.324462890625E-06	1.44256830481027E-06	822350.3125	7.44638527976349E-05
2	549	121.493565693258	1.07894897460938	1.07879638671875	1.295166015625E-06	1.39722033054568E-06	832940.6875	7.45957586332224E-05
2	550	121.594273693004	1.06887817382813	1.0687255859375	1.258544921875E-06	1.345039095213E-06	849175.5625	7.47243466321379E-05
2	551	121.69498169275	1.05880737304688	1.058349609375	1.21490478515625E-06	1.28579392821848E-06	871137.9375	7.48488964745775E-05
2	552	121.795689692495	1.04873657226563	1.04827880859375	1.16302490234375E-06	1.21917435080832E-06	901338.25	7.49686369090341E-05
2	553	121.896397692241	1.03866577148438	1.03851318359375	1.10382080078125E-06	1.14633235170913E-06	940835	7.50827821320854E-05
2	554	121.997105691987	1.02859497070313	1.02813720703125	1.03973388671875E-06	1.06898914964404E-06	988846.5	7.51907136873342E-05
2	555	122.097813691733	1.01852416992188	1.01837158203125	9.7625732421875E-07	9.94192646430747E-07	1043138.5	7.52922278479673E-05
2	556	122.198521691478	1.00845336914063	1.0089111328125	9.1827392578125E-07	9.26456721117574E-07	1098704	7.53876229282469E-05
2	557	122.299229691224	0.998382568359375	0.99884033203125	8.7127685546875E-07	8.70266433139477E-07	1146409.875	7.54777356632985E-05
2	558	122.39993769097	0.988311767578125	0.9881591796875	8.380126953125E-07	8.28089923743391E-07	1179169.75	7.55638029659167E-05
2	559	122.500645690716	0.978240966796875	0.9783935546875	8.1695556640625E-07	7.99304018528346E-07	1197609.25	7.56471417844296E-05
2	560	122.601353690461	0.968170166015625	0.96832275390625	8.056640625E-07	7.80142840994813E-07	1201894	7.57288435124792E-05
2	561	122.702061690207	0.958099365234375	0.95794677734375	8.0108642578125E-07	7.67398148582288E-07	1195809.5	7.58097521611489E-05
2	562	122.802769689953	0.948028564453125	0.9478759765625	8.0108642578125E-07	7.5933053267363E-07	1183238.125	7.5890427979175E-05
2	563	122.903477689699	0.937957763671875	0.9381103515625	8.026123046875E-07	7.52938888126664E-07	1168821.25	7.59711838327348E-05
2	564	123.004185689444	0.927886962890625	0.9283447265625	8.038330078125E-07	7.46234093185194E-07	1154897.5	7.60520706535317E-05
2	565	123.10489368919	0.917816162109375	0.91827392578125	8.03527832031251E-07	7.37858670163405E-07	1142802.875	7.61330084060319E-05
2	566	123.205601688936	0.907745361328125	0.908203125	8.00476074218751E-07	7.26994869637565E-07	1134578.75	7.62137788115069E-05
2	567	123.306309688681	0.897674560546875	0.89813232421875	7.940673828125E-07	7.13177598754555E-07	1131053	7.62940690037794E-05
2	568	123.407017688427	0.887603759765625	0.88775634765625	7.843017578125E-07	6.96268841693382E-07	1131906.625	7.63735442887992E-05
2	569	123.507725688173	0.877532958984375	0.87799072265625	7.7056884765625E-07	6.76552247114159E-07	1139406	7.64518408686854E-05
2	570	123.608433687919	0.867462158203125	0.86761474609375	7.54394531249999E-07	6.54523830689868E-07	1150080.875	7.65286240493879E-05
2	571	123.709141687664	0.857391357421875	0.8575439453125	7.366943359375E-07	6.31747752777301E-07	1164043.125	7.66037119319662E-05
2	572	123.80984968741	0.847320556640625	0.84716796875	7.19604492187501E-07	6.09625885772402E-07	1177268.875	7.6677039032802E-05
2	573	123.910557687156	0.837249755859375	0.83740234375	7.03125E-07	5.88798513945221E-07	1190972.25	7.67486781114712E-05
2	574	124.011265686902	0.827178955078125	0.8270263671875	6.9000244140625E-07	5.7065017244895E-07	1198584.75	7.68188328947872E-05
2	575	124.111973686647	0.817108154296875	0.8172607421875	6.787109375E-07	5.5468382242907E-07	1204136.75	7.68877507653087E-05
2	576	124.212681686393	0.807037353515625	0.8074951171875	6.67724609375001E-07	5.39184327408293E-07	1209323.625	7.69555481383577E-05
2	577	124.313389686139	0.796966552734375	0.797119140625	6.56738281249999E-07	5.23498670190747E-07	1213754.625	7.70222395658493E-05
2	578	124.414097685885	0.786895751953125	0.7867431640625	6.427001953125E-07	5.05639945913572E-07	1224121.625	7.70876722526737E-05
2	579	124.51480568563	0.776824951171875	0.77667236328125	6.23474121093751E-07	4.84235101794184E-07	1245717.125	7.71514314692467E-05
2	580	124.615513685376	0.766754150390625	0.7666015625	5.96008300781251E-07	4.56900892231715E-07	1286226.25	7.72128332755528E-05
2	581	124.716221685122	0.756683349609375	0.7568359375	5.5694580078125E-07	4.21516602955307E-07	1358904.125	7.72708881413564E-05
2	582	124.816929684868	0.746612548828125	0.74652099609375	5.02624511718749E-07	3.75219741499677E-07	1485245.875	7.73242427385412E-05
2	583	124.917637684613	0.736541748046875	0.7364501953125	4.290771484375E-07	3.15993958110994E-07	1716358.5	7.73711581132375E-05
2	584	125.018345684359	0.726470947265625	0.7264404296875	3.32031250000001E-07	2.41200922346252E-07	2187867.75	7.7409487857949E-05
2	585	125.119053684105	0.716400146484375	0.716339111328125	2.1026611328125E-07	1.50621843886256E-07	3406821.5	7.7436794526875E-05
2	586	125.21976168385	0.706329345703125	0.706298828125	6.83593750000003E-08	4.82821462810534E-08	10332143	7.74508225731552E-05
2	587	125.320469683596	0.696258544921875	0.696197509765625	-8.72802734374997E-08	-6.076430736357E-08	-7976573.5	7.74498694227077E-05
2	588	125.421177683342	0.686187744140625	0.6861572265625	-2.40478515625001E-07	-1.65006056818129E-07	-2853299.75	7.74333675508387E-05
2	589	125.521885683088	0.676116943359375	0.676025390625	-3.77197265625E-07	-2.54994915849238E-07	-1792233	7.74022628320381E-05
2	590	125.622593682833	0.666046142578125	0.66595458984375	-4.8370361328125E-07	-3.2212463452197E-07	-1376782.375	7.73589126765728E-05
2	591	125.723301682579	0.655975341796875	0.65594482421875	-5.51757812500001E-07	-3.61922673164372E-07	-1188827.5	7.73067731643096E-05
2	592	125.824009682325	0.645904541015625	0.6458740234375	-5.828857421875E-07	-3.76470751461966E-07	-1108062.875	7.72496350691654E-05
2	593	125.924717682071	0.635833740234375	0.6358642578125	-5.80444335937499E-07	-3.69083778650747E-07	-1095478.5	7.71910636103712E-05
2	594	126.025425681816	0.625762939453125	0.625762939453125	-5.5389404296875E-07	-3.46606356060875E-07	-1129752.125	7.71339400671422E-05
2	595	126.126133681562	0.615692138671875	0.61566162109375	-5.1239013671875E-07	-3.15458919430966E-07	-1201548.625	7.70802507759072E-05
2	596	126.226841681308	0.605621337890625	0.6055908203125	-4.608154296875E-07	-2.79065574204651E-07	-1314172.25	7.70312472013757E-05
2	597	126.327549681054	0.595550537109375	0.595550537109375	-4.05273437500001E-07	-2.41360794461798E-07	-1469503	7.69876351114362E-05
2	598	126.428257680799	0.585479736328125	0.58544921875	-3.48510742187499E-07	-2.04035330853003E-07	-1679860	7.69496764405631E-05
2	599	126.528965680545	0.575408935546875	0.575347900390625	-2.90527343749999E-07	-1.67154297514571E-07	-1980357.125	7.69175021559931E-05
2	600	126.629673680291	0.565338134765625	0.5653076171875	-2.3040771484375E-07	-1.30251237351331E-07	-2453510	7.6891272328794E-05
2	601	126.730381680037	0.555267333984375	0.555206298828125	-1.739501953125E-07	-9.65782405160098E-08	-3191754.5	7.68709069234319E-05
2	602	126.831089679782	0.545196533203125	0.545166015625	-1.27563476562501E-07	-6.95432689212794E-08	-4273684.5	7.68557219998911E-05
2	603	126.931797679528	0.535125732421875	0.535125732421875	-9.002685546875E-08	-4.81756856629545E-08	-5944068	7.68447716836818E-05
2	604	127.032505679274	0.525054931640625	0.524993896484375	-5.76782226562503E-08	-3.02807130481142E-08	-9102117	7.68373283790424E-05
2	605	127.133213679019	0.514984130859375	0.514984130859375	-2.99072265625006E-08	-1.54017474329748E-08	-17219388	7.68329191487283E-05
2	606	127.233921678765	0.504913330078125	0.504913330078125	-4.88281249999972E-09	-2.46539699766402E-09	-103406256	7.68311729189008E-05
2	607	127.334629678511	0.494842529296875	0.494842529296875	1.77001953125006E-08	8.75880967754483E-09	27956896	7.68318132031709E-05
2	608	127.435337678257	0.484771728515625	0.484771728515625	3.78417968750003E-08	1.83446342560956E-08	12810484	7.68346144468524E-05
2	609	127.536045678002	0.474700927734375	0.474700927734375	5.46264648437503E-08	2.59312340489259E-08	8689944	7.68392710597254E-05
2	610	127.636753677748	0.464630126953125	0.46466064453125	7.04956054687497E-08	3.27565317093104E-08	6591342.5	7.68455647630617E-05
2	611	127.737461677494	0.454559326171875	0.45452880859375	8.45336914062495E-08	3.84229963401594E-08	5376895.5	7.68533718655817E-05
2	612	127.83816967724	0.444488525390625	0.444549560546875	9.67407226562494E-08	4.30060431710899E-08	4595268	7.68625031923875E-05
2	613	127.938877676985	0.434417724609375	0.4344482421875	1.0833740234375E-07	4.70669938579249E-08	4010140.75	7.6872827776242E-05
2	614	128.039585676731	0.424346923828125	0.424346923828125	1.18408203125001E-07	5.02461574569679E-08	3583763	7.68842437537387E-05
2	615	128.140293676477	0.414276123046875	0.414276123046875	1.2786865234375E-07	5.29729256015798E-08	3239857	7.68966492614709E-05
2	616	128.241001676223	0.404205322265625	0.404205322265625	1.361083984375E-07	5.50157395196038E-08	2969731	7.6909942436032E-05
2	617	128.341709675968	0.394134521484375	0.394134521484375	1.446533203125E-07	5.70128655397184E-08	2724683.75	7.69240796216764E-05
2	618	128.442417675714	0.384063720703125	0.384033203125	1.5228271484375E-07	5.84816177706671E-08	2521843.75	7.69390317145735E-05
2	619	128.54312567546	0.373992919921875	0.3740234375	1.59606933593751E-07	5.96967311139451E-08	2343403.5	7.69547332311049E-05
2	620	128.643833675206	0.363922119140625	0.36395263671875	1.666259765625E-07	6.06439627404143E-08	2184249.25	7.69711623433977E-05
2	621	128.744541674951	0.353851318359375	0.353851318359375	1.7242431640625E-07	6.10125709954445E-08	2052212.5	7.69882317399606E-05
2	622	128.845249674697	0.343780517578125	0.34381103515625	1.7852783203125E-07	6.13798363247042E-08	1925812	7.70059050410055E-05
2	623	128.945957674443	0.333709716796875	0.333740234375	1.83715820312499E-07	6.13133579463465E-08	1816611.375	7.70241458667442E-05
2	624	129.046665674188	0.323638916015625	0.32366943359375	1.8798828125E-07	6.08460624107465E-08	1721753.25	7.70428596297279E-05
2	625	129.147373673934	0.313568115234375	0.313568115234375	1.922607421875E-07	6.02868368559939E-08	1630952.375	7.70620099501684E-05
2	626	129.24808167368	0.303497314453125	0.303466796875	1.9561767578125E-07	5.93634688073053E-08	1551326.125	7.70815386204049E-05
2	627	129.348789673426	0.293426513671875	0.29345703125	1.995849609375E-07	5.85696113830636E-08	1470336.375	7.71014383644797E-05
2	628	129.449497673171	0.283355712890625	0.28338623046875	2.02026367187499E-07	5.72514871066687E-08	1402719.125	7.71216655266471E-05
2	629	129.550205672917	0.273284912109375	0.2733154296875	2.044677734375E-07	5.58841968256729E-08	1336716.5	7.71421327954158E-05
2	630	129.650913672663	0.263214111328125	0.26324462890625	2.0599365234375E-07	5.42267208913927E-08	1277926	7.71628037909977E-05
2	631	129.751621672409	0.253143310546875	0.253143310546875	2.0751953125E-07	5.25321794953015E-08	1219853	7.71836203057319E-05
2	632	129.852329672154	0.243072509765625	0.24310302734375	2.08129882812499E-07	5.05970021436042E-08	1168035.25	7.72045532357879E-05
2	633	129.9530376719	0.233001708984375	0.233001708984375	2.08740234375E-07	4.86368314511765E-08	1116228.125	7.72255443735048E-05
2	634	130.053745671646	0.222930908203125	0.222900390625	2.08435058593751E-07	4.6460254310432E-08	1069399.75	7.7246550063137E-05
2	635	130.154453671392	0.212860107421875	0.212890625	2.0751953125E-07	4.41789609340049E-08	1025882.4375	7.72674975451082E-05
2	636	130.255161671137	0.202789306640625	0.202789306640625	2.05383300781251E-07	4.16495389288229E-08	987370	7.72882849560119E-05
2	637	130.355869670883	0.192718505859375	0.1927490234375	2.02026367187499E-07	3.89403815859168E-08	954078.625	7.73088031564839E-05
2	638	130.456577670629	0.182647705078125	0.182708740234375	1.9805908203125E-07	3.61871244081158E-08	922496.125	7.73289502831176E-05
2	639	130.557285670375	0.172576904296875	0.172637939453125	1.91650390625001E-07	3.30861276154337E-08	900796.1875	7.7348573540803E-05
2	640	130.65799367012	0.162506103515625	0.162567138671875	1.8310546875E-07	2.97669320303839E-08	887833.3125	7.73674400988966E-05
2	641	130.758701669866	0.152435302734375	0.1524658203125	1.70288085937501E-07	2.5963110772409E-08	895340.5625	7.73852370912209E-05
2	642	130.859409669612	0.142364501953125	0.142364501953125	1.5228271484375E-07	2.16796518515139E-08	934869.75	7.74014770286158E-05
2	643	130.960117669357	0.132293701171875	0.13232421875	1.26953125E-07	1.67989728794282E-08	1042307.6875	7.7415541454684E-05
2	644	131.060825669103	0.122222900390625	0.122283935546875	9.18579101562497E-08	1.12327462886697E-08	1331229.25	7.74265572545119E-05
2	645	131.161533668849	0.112152099609375	0.112213134765625	4.119873046875E-08	4.6230383965451E-09	2723703.75	7.74332584114745E-05
2	646	131.262241668595	0.102081298828125	0.102142333984375	-3.0517578125E-08	-3.11713654888024E-09	-3347000.25	7.7433796832338E-05
2	647	131.36294966834	0.092010498046875	0.092071533203125	-1.26953125E-07	-1.16887690637668E-08	-725240.375	7.74258660385385E-05
2	648	131.463657668086	0.081939697265625	0.082000732421875	-2.5787353515625E-07	-2.11458175414236E-08	-317988.1875	7.74064901634119E-05
2	649	131.564365667832	0.071868896484375	0.071929931640625	-4.290771484375E-07	-3.08634895418436E-08	-167638.6875	7.73719002609141E-05
2	650	131.665073667578	0.061798095703125	0.0618896484375	-6.44531249999999E-07	-3.98898087894395E-08	-96022.734375	7.73178398958407E-05
2	651	131.765781667323	0.051727294921875	0.05181884765625	-9.01184082031251E-07	-4.66983216540484E-08	-57500.84765625	7.72400017012842E-05
2	652	131.866489667069	0.041656494140625	0.041748046875	-1.1859130859375E-06	-4.95095555663738E-08	-35203.29296875	7.71349077695049E-05
2	653	131.967197666815	0.031585693359375	0.031689453125	-1.478271484375E-06	-4.68456136104578E-08	-21436.830078125	7.70007609389722E-05
2	654	132.067905666561	0.021514892578125	0.0216156005859375	-1.7474365234375E-06	-3.77718905042457E-08	-12369.8916015625	7.68383324611932E-05
2	655	132.168613666306	0.011444091796875	0.0115570068359375	-1.966552734375E-06	-2.27274625785867E-08	-5876.78515625	7.66513185226358E-05
2	656	132.269321666052	0.001373291015625	0.00147705078125	-2.11639404296875E-06	-3.12602144170171E-09	-697.909240722656	7.64457217883319E-05
2	657	132.370029665798	-0.008697509765625	-0.0085906982421875	-2.19146728515625E-06	1.88262347933232E-08	3920.06689453125	7.62288036639802E-05
2	658	132.470737665544	-0.018768310546875	-0.0186553955078125	-2.200927734375E-06	4.10591738386756E-08	8476.1513671875	7.60076291044243E-05
2	659	132.571445665289	-0.028839111328125	-0.0287078857421875	-2.1612548828125E-06	6.20450535393502E-08	13282.9716796875	7.57879752200097E-05
2	660	132.672153665035	-0.038909912109375	-0.0387847900390625	-2.09075927734375E-06	8.10896594316546E-08	18550.578125	7.55738728912547E-05
2	661	132.772861664781	-0.048980712890625	-0.048809814453125	-2.0050048828125E-06	9.78639178583762E-08	24343.98828125	7.53676358726807E-05
2	662	132.873569664526	-0.059051513671875	-0.0589599609375	-1.91497802734375E-06	1.12907024174547E-07	30788.845703125	7.51702464185655E-05
2	663	132.974277664272	-0.069122314453125	-0.069061279296875	-1.82708740234375E-06	1.26180992765512E-07	37798.56640625	7.4981820944231E-05
2	664	133.074985664018	-0.079193115234375	-0.079193115234375	-1.74652099609375E-06	1.38312444164512E-07	45343.3515625	7.4801871960517E-05
2	665	133.175693663764	-0.089263916015625	-0.0892333984375	-1.6729736328125E-06	1.49285114048325E-07	53338.19921875	7.46296864235774E-05
2	666	133.276401663509	-0.099334716796875	-0.099334716796875	-1.607666015625E-06	1.59697037815931E-07	61788.16015625	7.44644930819049E-05
2	667	133.377109663255	-0.109405517578125	-0.109344482421875	-1.5509033203125E-06	1.69582719422579E-07	70503.734375	7.43054479244165E-05
2	668	133.477817663001	-0.119476318359375	-0.119354248046875	-1.5020751953125E-06	1.79279055601E-07	79459.5703125	7.4151721491944E-05
2	669	133.578525662747	-0.129547119140625	-0.129425048828125	-1.45965576171875E-06	1.88916018828422E-07	88668.1953125	7.40025861887261E-05
2	670	133.679233662492	-0.139617919921875	-0.139495849609375	-1.4239501953125E-06	1.98635135006953E-07	97964	7.38573799026199E-05
2	671	133.779941662238	-0.149688720703125	-0.149566650390625	-1.3934326171875E-06	2.0841105197178E-07	107336.8359375	7.37155132810585E-05
2	672	133.880649661984	-0.159759521484375	-0.15972900390625	-1.36810302734375E-06	2.18525727291308E-07	116752.1796875	7.35764624550939E-05
2	673	133.98135766173	-0.169830322265625	-0.169708251953125	-1.34765625E-06	2.28708373128939E-07	125928.453125	7.34397108317353E-05
2	674	134.082065661475	-0.179901123046875	-0.17974853515625	-1.3311767578125E-06	2.39277056834908E-07	135029.8125	7.33048218535259E-05
2	675	134.182773661221	-0.189971923828125	-0.1898193359375	-1.31805419921875E-06	2.5019215854627E-07	144014.828125	7.31714244466275E-05
2	676	134.283481660967	-0.200042724609375	-0.199920654296875	-1.30859375E-06	2.61614900409768E-07	152775.1875	7.30391620891169E-05
2	677	134.384189660713	-0.189971923828125	-0.189849853515625	-1.15020751953125E-06	2.18366722037899E-07	165057.046875	7.29153471183963E-05
