Potential - Start -0.2 V, Upper Vertex 1.5 V, Lower Vertex -0.2 V, Stop -0.19 V; Scan - # end cross 5, Rate 0.1 Vps, Step 0.01 V 
Scan	Index	Time (s)	Potential applied (V)	WE(1).Potential (V)	WE(1).Current (A)	WE(1).Power (W)	WE(1).Resistance (Ω)	WE(1).Charge (C)
1	1	65.4015668348769	-0.189971923828125	-0.18988037109375	-2.40173339843749E-07	4.56042030805293E-08	790597.25	0
1	2	65.5022748346227	-0.179901123046875	-0.179718017578125	-2.08435058593751E-07	3.74595359176055E-08	862225.5	-2.25892264893446E-08
1	3	65.6029828343684	-0.169830322265625	-0.169708251953125	-1.8280029296875E-07	3.10227186162138E-08	928380.625	-4.2289492796499E-08
1	4	65.7036908341141	-0.159759521484375	-0.159698486328125	-1.60827636718749E-07	2.56839314261015E-08	992979.125	-5.95925335744596E-08
1	5	65.8043988338599	-0.149688720703125	-0.149566650390625	-1.40380859375E-07	2.09962962571808E-08	1065434.75	-7.47595834127424E-08
1	6	65.9051068336056	-0.139617919921875	-0.139556884765625	-1.220703125E-07	1.70357505879792E-08	1143250.125	-8.79750530202728E-08
1	7	66.0058148333513	-0.129547119140625	-0.1295166015625	-1.03759765625E-07	1.34386111128038E-08	1248235.375	-9.93465008036765E-08
1	8	66.1065228330971	-0.119476318359375	-0.119415283203125	-8.544921875E-08	1.02039425797784E-08	1397500	-1.08873926762953E-07
1	9	66.2072308328428	-0.109405517578125	-0.109375	-6.7138671875E-08	7.34329219653773E-09	1629090.875	-1.16557338003531E-07
1	10	66.3079388325885	-0.099334716796875	-0.099273681640625	-4.69970703125003E-08	4.66557192879691E-09	2112337.75	-1.2230452739459E-07
1	11	66.4086468323343	-0.089263916015625	-0.0892333984375	-2.41088867187503E-08	2.15131779057742E-09	3701266	-1.25884994872649E-07
1	12	66.50935483208	-0.079193115234375	-0.07916259765625	3.0517578125E-09	-2.41585057514371E-10	-25940000	-1.26945309375515E-07
1	13	66.6100628318258	-0.069122314453125	-0.069061279296875	3.662109375E-08	-2.52909937437096E-09	-1885833.375	-1.24947618473925E-07
1	14	66.7107708315715	-0.059051513671875	-0.0589599609375	7.87353515625006E-08	-4.64223282037324E-09	-748837.25	-1.19138967136223E-07
1	15	66.8114788313172	-0.048980712890625	-0.04884033203125	1.35192871093751E-07	-6.60286447740077E-09	-361264.125	-1.08366819517869E-07
1	16	66.912186831063	-0.038909912109375	-0.03873291015625	2.105712890625E-07	-8.15603851123115E-09	-183942.03125	-9.09562132278552E-08
1	17	67.0128948308087	-0.028839111328125	-0.0286956787109375	3.0975341796875E-07	-8.88858409098248E-09	-92640.3984375	-6.47557882871297E-08
1	18	67.1136028305544	-0.018768310546875	-0.018634033203125	4.3975830078125E-07	-8.19446999145157E-09	-42373.3515625	-2.70148738934495E-08
1	19	67.2143108303002	-0.008697509765625	-0.0086395263671875	6.04248046875E-07	-5.22041698758358E-09	-14297.98046875	2.55550212102662E-08
1	20	67.3150188300459	0.001373291015625	0.00147399902343751	8.0413818359375E-07	1.18529885906327E-09	1833.01708984375	9.64729025554334E-08
1	21	67.4157268297917	0.011444091796875	0.0115386962890625	1.03271484375E-06	1.19161835954174E-08	11173.16796875	1.8896579945249E-07
1	22	67.5164348295374	0.021514892578125	0.0216400146484375	1.27410888671875E-06	2.7571733340892E-08	16984.431640625	3.05123592170276E-07
1	23	67.6171428292831	0.031585693359375	0.0316650390625	1.507568359375E-06	4.77372097407169E-08	21004.048828125	4.45192171127928E-07
1	24	67.7178508290289	0.041656494140625	0.041741943359375	1.70928955078125E-06	7.13490706516495E-08	24420.640625	6.07173831213004E-07
1	25	67.8185588287746	0.051727294921875	0.05169677734375	1.85943603515625E-06	9.61268469268362E-08	27802.396484375	7.86873442848446E-07
1	26	67.9192668285203	0.061798095703125	0.061798095703125	1.95037841796875E-06	1.2052967690579E-07	31685.181640625	9.78712819232896E-07
1	27	68.0199748282661	0.071868896484375	0.071929931640625	1.983642578125E-06	1.42683276749267E-07	36261.5390625	1.17680656330776E-06
1	28	68.1206828280118	0.081939697265625	0.082000732421875	1.97265625E-06	1.61759260208783E-07	41568.6875	1.37602194172359E-06
1	29	68.2213908277575	0.092010498046875	0.092071533203125	1.929931640625E-06	1.77691759972731E-07	47707.1484375	1.5725329376437E-06
1	30	68.3220988275033	0.102081298828125	0.10211181640625	1.868896484375E-06	1.90836416891216E-07	54637.4921875	1.7638191138758E-06
1	31	68.422806827249	0.112152099609375	0.112091064453125	1.80023193359375E-06	2.01789902121163E-07	62264.79296875	1.94857443602814E-06
1	32	68.5235148269948	0.122222900390625	0.122283935546875	1.73065185546875E-06	2.11630904800586E-07	70657.734375	2.12636859941995E-06
1	33	68.6242228267405	0.132293701171875	0.13232421875	1.663818359375E-06	2.20163457242961E-07	79530.4453125	2.29729357670294E-06
1	34	68.7249308264862	0.142364501953125	0.14239501953125	1.60186767578125E-06	2.28097974286356E-07	88893.125	2.46173408413597E-06
1	35	68.825638826232	0.152435302734375	0.1524658203125	1.54571533203125E-06	2.35668764503316E-07	98637.7109375	2.6202274057141E-06
1	36	68.9263468259777	0.162506103515625	0.162506103515625	1.49505615234375E-06	2.42955763951613E-07	108695.6484375	2.7733424303733E-06
1	37	69.0270548257234	0.172576904296875	0.172607421875	1.44989013671875E-06	2.50261791734374E-07	119048.625	2.92163213089225E-06
1	38	69.1277628254692	0.182647705078125	0.182708740234375	1.40960693359375E-06	2.57547497994892E-07	129616.8046875	3.06561923935078E-06
1	39	69.2284708252149	0.192718505859375	0.1927490234375	1.373291015625E-06	2.6470050329408E-07	140355.5625	3.20574940815277E-06
1	40	69.3291788249606	0.202789306640625	0.202880859375	1.34124755859375E-06	2.72113453547718E-07	151262.796875	3.34243713950855E-06
1	41	69.4298868247064	0.212860107421875	0.212860107421875	1.312255859375E-06	2.79326911822864E-07	162209.3125	3.47605168826703E-06
1	42	69.5305948244521	0.222930908203125	0.222991943359375	1.28662109375E-06	2.86906129076669E-07	173315.9375	3.60691569767368E-06
1	43	69.6313028241979	0.233001708984375	0.233001708984375	1.26251220703125E-06	2.94167506353915E-07	184554.015625	3.73527473129798E-06
1	44	69.7320108239436	0.243072509765625	0.2430419921875	1.2408447265625E-06	3.01577358641225E-07	195868.1875	3.8613288779743E-06
1	45	69.8327188236893	0.253143310546875	0.253082275390625	1.221923828125E-06	3.09247241148114E-07	207117.890625	3.98533893530839E-06
1	46	69.9334268234351	0.263214111328125	0.26318359375	1.20452880859375E-06	3.17012194273047E-07	218495.0625	4.10752045354457E-06
1	47	70.0341348231808	0.273284912109375	0.2733154296875	1.18927001953125E-06	3.25045817817227E-07	229817.828125	4.22805806010729E-06
1	48	70.1348428229265	0.283355712890625	0.283355712890625	1.17401123046875E-06	3.32662779101156E-07	241356.90625	4.34705862062401E-06
1	49	70.2355508226723	0.293426513671875	0.293365478515625	1.160888671875E-06	3.40564639600416E-07	252707.6875	4.4646299102169E-06
1	50	70.336258822418	0.303497314453125	0.303497314453125	1.1480712890625E-06	3.48436572039645E-07	264354.0625	4.58089562016539E-06
1	51	70.4369668221638	0.313568115234375	0.313568115234375	1.1376953125E-06	3.56744976670598E-07	275616.9375	4.69599308416946E-06
1	52	70.5376748219095	0.323638916015625	0.323638916015625	1.12701416015625E-06	3.64745631031838E-07	287164.90625	4.81003007735126E-06
1	53	70.6383828216552	0.333709716796875	0.333770751953125	1.11785888671875E-06	3.73108605344896E-07	298580.40625	4.92306844535051E-06
1	54	70.739090821401	0.343780517578125	0.343780517578125	1.1102294921875E-06	3.81675278049443E-07	309648.15625	5.03526143802446E-06
1	55	70.8397988211467	0.353851318359375	0.35382080078125	1.10260009765625E-06	3.90122835369766E-07	320896.75	5.14668636242277E-06
1	56	70.9405068208924	0.363922119140625	0.3638916015625	1.09619140625E-06	3.98894826503238E-07	331959.9375	5.25740415469045E-06
1	57	71.0412148206382	0.373992919921875	0.37396240234375	1.09039306640625E-06	4.07766009402621E-07	342961.09375	5.36750758328708E-06
1	58	71.1419228203839	0.384063720703125	0.38409423828125	1.0858154296875E-06	4.17055417756274E-07	353738.0625	5.47708850717754E-06
1	59	71.2426308201296	0.394134521484375	0.394134521484375	1.08245849609375E-06	4.26634244377055E-07	364110.53125	5.58626970814657E-06
1	60	71.3433388198754	0.404205322265625	0.40423583984375	1.07879638671875E-06	4.36088157584891E-07	374710.0625	5.69509757042397E-06
1	61	71.4440468196211	0.414276123046875	0.414276123046875	1.07666015625E-06	4.46034590595445E-07	384778.90625	5.80363348490209E-06
1	62	71.5447548193669	0.424346923828125	0.42431640625	1.07452392578125E-06	4.5593810682476E-07	394887.84375	5.91195430388325E-06
1	63	71.6454628191126	0.434417724609375	0.434356689453125	1.07269287109375E-06	4.65931321969038E-07	404921.78125	6.02007503403001E-06
1	64	71.7461708188583	0.444488525390625	0.4444580078125	1.07147216796875E-06	4.76224386147805E-07	414810.59375	6.12804251431953E-06
1	65	71.8468788186041	0.454559326171875	0.454559326171875	1.070556640625E-06	4.86631506646518E-07	424600.90625	6.23590221948689E-06
1	66	71.9475868183498	0.464630126953125	0.464630126953125	1.06964111328125E-06	4.96987468068255E-07	434379.5	6.34366961094202E-06
1	67	72.0482948180955	0.474700927734375	0.474700927734375	1.06903076171875E-06	5.07469906096958E-07	444047.96875	6.45136015009484E-06
1	68	72.1490028178413	0.484771728515625	0.484771728515625	1.0693359375E-06	5.18383785674814E-07	453339.0625	6.55903568258509E-06
1	69	72.249710817587	0.494842529296875	0.494873046875	1.0699462890625E-06	5.29487579115084E-07	462521.40625	6.66675714455778E-06
1	70	72.3504188173328	0.504913330078125	0.5048828125	1.07086181640625E-06	5.40659698344825E-07	471473.375	6.77455500408541E-06
1	71	72.4511268170785	0.514984130859375	0.51495361328125	1.07269287109375E-06	5.52387064089999E-07	480056.90625	6.88249156155507E-06
1	72	72.5518348168242	0.525054931640625	0.524993896484375	1.0748291015625E-06	5.6427870731568E-07	488444.0625	6.99062820785912E-06
1	73	72.65254281657	0.535125732421875	0.53509521484375	1.07635498046875E-06	5.75952356030029E-07	497136.40625	7.09894902684027E-06
1	74	72.7532508163157	0.545196533203125	0.545166015625	1.0791015625E-06	5.88289481129323E-07	505203.65625	7.20748448657105E-06
1	75	72.8539588160614	0.555267333984375	0.55523681640625	1.0821533203125E-06	6.00851365106791E-07	513085.1875	7.31631234884844E-06
1	76	72.9546668158072	0.565338134765625	0.5653076171875	1.08551025390625E-06	6.13647216596291E-07	520775.9375	7.42546308174497E-06
1	77	73.0553748155529	0.575408935546875	0.57537841796875	1.08856201171875E-06	6.26335065589956E-07	528567.4375	7.53493623051327E-06
1	78	73.1560828152986	0.585479736328125	0.585418701171875	1.092529296875E-06	6.39587085515814E-07	535838	7.64476317272056E-06
1	79	73.2567908150444	0.595550537109375	0.595489501953125	1.09649658203125E-06	6.52952223845205E-07	543083.75	7.75498938310193E-06
1	80	73.3574988147901	0.605621337890625	0.605560302734375	1.10107421875E-06	6.66766823087528E-07	549972.3125	7.86564578447724E-06
1	81	73.4582068145359	0.615692138671875	0.61566162109375	1.10626220703125E-06	6.81083179188136E-07	556524.125	7.97679422248621E-06
1	82	73.5589148142816	0.625762939453125	0.62567138671875	1.112060546875E-06	6.95784478921269E-07	562623.5	8.08849563327385E-06
1	83	73.6596228140273	0.635833740234375	0.635772705078125	1.11846923828125E-06	7.11092184246809E-07	568431.125	8.20081095298519E-06
1	84	73.7603308137731	0.645904541015625	0.64581298828125	1.1260986328125E-06	7.27249073406711E-07	573495.9375	8.31383385957452E-06
1	85	73.8610388135188	0.655975341796875	0.6558837890625	1.134033203125E-06	7.43793975743756E-07	578363.875	8.42764075059677E-06
1	86	73.9617468132645	0.666046142578125	0.66595458984375	1.1431884765625E-06	7.61311582664348E-07	582541.375	8.54230802360689E-06
1	87	74.0624548130103	0.676116943359375	0.676025390625	1.15264892578125E-06	7.79219931246189E-07	586497.25	8.65791298565455E-06
1	88	74.163162812756	0.686187744140625	0.686065673828125	1.162109375E-06	7.97283348674682E-07	590362.375	8.77447018865496E-06
1	89	74.2638708125018	0.696258544921875	0.6961669921875	1.171875E-06	8.15820669686218E-07	594062.5	8.89199600351276E-06
1	90	74.3645788122475	0.706329345703125	0.70623779296875	1.17919921875E-06	8.32795024052757E-07	598913.0625	9.01038129086373E-06
1	91	74.4652868119932	0.716400146484375	0.71630859375	1.18499755859375E-06	8.48823844989965E-07	604481.125	9.1294286903576E-06
1	92	74.565994811739	0.726470947265625	0.726348876953125	1.18927001953125E-06	8.63824880070752E-07	610751.875	9.24898176890565E-06
1	93	74.6667028114847	0.736541748046875	0.7364501953125	1.19232177734375E-06	8.78085586464294E-07	617660.625	9.36890501179732E-06
1	94	74.7674108112304	0.746612548828125	0.7464599609375	1.19415283203125E-06	8.91387230694818E-07	625095.875	9.48907381825848E-06
1	95	74.8681188109762	0.756683349609375	0.7568359375	1.1956787109375E-06	9.04932619505416E-07	632976	9.60941088123946E-06
1	96	74.9688268107219	0.766754150390625	0.76690673828125	1.1968994140625E-06	9.17910199405014E-07	640744.5625	9.72988709690981E-06
1	97	75.0695348104676	0.776824951171875	0.77667236328125	1.1981201171875E-06	9.30546775634866E-07	648242.5	9.8504860943649E-06
1	98	75.1702428102134	0.786895751953125	0.787353515625	1.199951171875E-06	9.44785767842404E-07	656154.625	9.97123788692988E-06
1	99	75.2709508099591	0.796966552734375	0.797119140625	1.20208740234375E-06	9.58206783252535E-07	663112.5	1.0092190677824E-05
1	100	75.3716588097049	0.807037353515625	0.806884765625	1.20452880859375E-06	9.71915937952872E-07	669875.875	1.02133735708776E-05
1	101	75.4723668094506	0.817108154296875	0.8172607421875	1.20758056640625E-06	9.86908162303735E-07	676775.3125	1.03348320408259E-05
1	102	75.5730748091963	0.827178955078125	0.82763671875	1.21124267578125E-06	1.00246893453004E-06	683295.5625	1.04566297522979E-05
1	103	75.6737828089421	0.837249755859375	0.8380126953125	1.2152099609375E-06	1.01836144494882E-06	689603.1875	1.05788112705341E-05
1	104	75.7744908086878	0.847320556640625	0.84716796875	1.2200927734375E-06	1.0336234481656E-06	694347.1875	1.07014384411741E-05
1	105	75.8751988084335	0.857391357421875	0.8575439453125	1.2249755859375E-06	1.05047035958705E-06	700049.8125	1.08245576484478E-05
1	106	75.9759068081793	0.867462158203125	0.86700439453125	1.23016357421875E-06	1.0665571608115E-06	704787.9375	1.09481834442704E-05
1	107	76.076614807925	0.877532958984375	0.87799072265625	1.2353515625E-06	1.08462722892E-06	710721.375	1.10723321995465E-05
1	108	76.1773228076707	0.887603759765625	0.887451171875	1.24176025390625E-06	1.10200153358164E-06	714671.9375	1.11970648504212E-05
1	109	76.2780308074165	0.897674560546875	0.8978271484375	1.24786376953125E-06	1.120365936913E-06	719491.3125	1.13224268716294E-05
1	110	76.3787388071622	0.907745361328125	0.908203125	1.25457763671875E-06	1.13941132440232E-06	723911.5	1.14484355435707E-05
1	111	76.479446806908	0.917816162109375	0.91766357421875	1.26251220703125E-06	1.15856153115601E-06	726855.1875	1.15751809062203E-05
1	112	76.5801548066537	0.927886962890625	0.927734375	1.27044677734375E-06	1.17863714876876E-06	730242.625	1.17027257147129E-05
1	113	76.6808628063994	0.937957763671875	0.93780517578125	1.280517578125E-06	1.20087588584283E-06	732364.1875	1.18311763799284E-05
1	114	76.7815708061452	0.948028564453125	0.948486328125	1.29241943359375E-06	1.22584208384069E-06	733884.3125	1.19607339001959E-05
1	115	76.8822788058909	0.958099365234375	0.958251953125	1.30645751953125E-06	1.25191547795112E-06	733473.5	1.20915983643499E-05
1	116	76.9829868056366	0.968170166015625	0.968017578125	1.32293701171875E-06	1.28062629300985E-06	731718.5625	1.22239989650552E-05
1	117	77.0836948053824	0.978240966796875	0.9783935546875	1.3433837890625E-06	1.31435797356971E-06	728305.375	1.23582585729309E-05
1	118	77.1844028051281	0.988311767578125	0.9881591796875	1.36627197265625E-06	1.35009418045229E-06	723252.1875	1.24947009680909E-05
1	119	77.2851108048739	0.998382568359375	0.99853515625	1.39251708984375E-06	1.39047733682673E-06	717072.0625	1.2633616279345E-05
1	120	77.3858188046196	1.00845336914063	1.00799560546875	1.41998291015625E-06	1.43133649999072E-06	709864.625	1.27752373373369E-05
1	121	77.4865268043653	1.01852416992188	1.01837158203125	1.44683837890625E-06	1.47341904721543E-06	703859.9375	1.2919593245897E-05
1	122	77.5872348041111	1.02859497070313	1.02813720703125	1.4697265625E-06	1.51108054069482E-06	699543.25	1.30664539028658E-05
1	123	77.6879428038568	1.03866577148438	1.03912353515625	1.488037109375E-06	1.54625445247802E-06	698318.3125	1.32153891172493E-05
1	124	77.7886508036025	1.04873657226563	1.04888916015625	1.500244140625E-06	1.57358977048716E-06	699145.625	1.33658613776788E-05
1	125	77.8893588033483	1.05880737304688	1.058349609375	1.50787353515625E-06	1.59585738401802E-06	701882.1875	1.35173322632909E-05
1	126	77.990066803094	1.06887817382813	1.0687255859375	1.51123046875E-06	1.61509058216325E-06	707189.0625	1.36693561216816E-05
1	127	78.0907748028397	1.07894897460938	1.0791015625	1.512451171875E-06	1.63208835601836E-06	713478.625	1.38216100822319E-05
1	128	78.1914828025855	1.08901977539063	1.0888671875	1.51214599609375E-06	1.64652612966165E-06	720080.6875	1.3973910427012E-05
1	129	78.2921908023312	1.09909057617188	1.09893798828125	1.51153564453125E-06	1.66108395660558E-06	727034.125	1.4126165297057E-05
1	130	78.392898802077	1.10916137695313	1.10870361328125	1.5106201171875E-06	1.67482994584134E-06	733939.375	1.42783428600524E-05
1	131	78.4936068018227	1.11923217773438	1.11968994140625	1.51031494140625E-06	1.69108432146459E-06	741361.9375	1.44304594869027E-05
1	132	78.5943148015684	1.12930297851563	1.129150390625	1.51123046875E-06	1.70640635133168E-06	747172.875	1.45826061270782E-05
1	133	78.6950228013142	1.13937377929688	1.1395263671875	1.5130615234375E-06	1.72417355770449E-06	753126.25	1.47348910104483E-05
1	134	78.7957308010599	1.14944458007813	1.14959716796875	1.51580810546875E-06	1.74256865648204E-06	758405.5	1.48874069054727E-05
1	135	78.8964388008056	1.15951538085938	1.15936279296875	1.51885986328125E-06	1.76090952663799E-06	763311.25	1.50402147482964E-05
1	136	78.9971468005514	1.16958618164063	1.16973876953125	1.52313232421875E-06	1.78166681052971E-06	767982.375	1.51933909364743E-05
1	137	79.0978548002971	1.17965698242188	1.17950439453125	1.5289306640625E-06	1.80338042810035E-06	771457.125	1.53470737132011E-05
1	138	79.1985628000429	1.18972778320313	1.1895751953125	1.534423828125E-06	1.82531243808626E-06	775258.625	1.55013258336112E-05
1	139	79.2992707997886	1.19979858398438	1.19964599609375	1.5411376953125E-06	1.84881957920879E-06	778415.875	1.56561927724397E-05
1	140	79.3999787995343	1.20986938476563	1.21002197265625	1.54815673828125E-06	1.87330363132787E-06	781588.8125	1.58117527462309E-05
1	141	79.5006867992801	1.21994018554688	1.22039794921875	1.556396484375E-06	1.89942306860758E-06	784117.6875	1.59680785145611E-05
1	142	79.6013947990258	1.23001098632813	1.2298583984375	1.56463623046875E-06	1.92428092304908E-06	786034.75	1.61252355610486E-05
1	143	79.7021027987715	1.24008178710938	1.2408447265625	1.57379150390625E-06	1.95283087123244E-06	788442.9375	1.62832675414393E-05
1	144	79.8028107985173	1.25015258789063	1.24969482421875	1.58294677734375E-06	1.97820031644369E-06	789473.6875	1.64422217494575E-05
1	145	79.903518798263	1.26022338867188	1.2603759765625	1.593017578125E-06	2.00780095838127E-06	791187.8125	1.66021436598385E-05
1	146	80.0042267980087	1.27029418945313	1.27044677734375	1.6033935546875E-06	2.03702620638069E-06	792348.6875	1.67630969372112E-05
1	147	80.1049347977545	1.28036499023438	1.28021240234375	1.61376953125E-06	2.06596769203315E-06	793305.5625	1.69250924955122E-05
1	148	80.2056427975002	1.29043579101563	1.28997802734375	1.624755859375E-06	2.0958991626685E-06	793951.9375	1.70881667145295E-05
1	149	80.306350797246	1.30050659179688	1.3006591796875	1.63604736328125E-06	2.12793997889094E-06	795001	1.72523614310194E-05
1	150	80.4070587969917	1.31057739257813	1.31072998046875	1.64825439453125E-06	2.16041644307552E-06	795223.125	1.74177384906216E-05
1	151	80.5077667967374	1.32064819335938	1.3201904296875	1.65985107421875E-06	2.19131948142604E-06	795366.8125	1.75843142642407E-05
1	152	80.6084747964832	1.33071899414063	1.33056640625	1.67327880859375E-06	2.22640846914146E-06	795185.125	1.77521505975164E-05
1	153	80.7091827962289	1.34078979492188	1.34063720703125	1.68670654296875E-06	2.26126144298178E-06	794825.4375	1.79213402589085E-05
1	154	80.8098907959746	1.35086059570313	1.351318359375	1.70257568359375E-06	2.3007216896076E-06	793690.625	1.80920033017173E-05
1	155	80.9105987957204	1.36093139648438	1.36077880859375	1.71905517578125E-06	2.33925379689026E-06	791585.3125	1.82642961590318E-05
1	156	81.0113067954661	1.37100219726563	1.370849609375	1.7376708984375E-06	2.38208531300188E-06	788900.625	1.84383570740465E-05
1	157	81.1120147952118	1.38107299804688	1.3812255859375	1.7584228515625E-06	2.42877854361723E-06	785491.125	1.86143988685217E-05
1	158	81.2127227949576	1.39114379882813	1.3909912109375	1.7828369140625E-06	2.4799103357509E-06	780212.25	1.87927162187407E-05
1	159	81.3134307947033	1.40121459960938	1.40045166015625	1.81060791015625E-06	2.53566872743249E-06	773470.4375	1.89736601896584E-05
1	160	81.4141387944491	1.41128540039063	1.4111328125	1.84356689453125E-06	2.60151750808291E-06	765436.25	1.91576618817635E-05
1	161	81.5148467941948	1.42135620117188	1.4215087890625	1.88262939453125E-06	2.67617429017264E-06	755065.6875	1.93452906387392E-05
1	162	81.6155547939405	1.43142700195313	1.43096923828125	1.92901611328125E-06	2.76036257673695E-06	741813.0625	1.95372231246438E-05
1	163	81.7162627936863	1.44149780273438	1.44134521484375	1.98486328125E-06	2.86087310996663E-06	726168.5	1.9734301531571E-05
1	164	81.816970793432	1.45156860351563	1.45172119140625	2.0538330078125E-06	2.98159284284338E-06	706835.0625	1.99376663658768E-05
1	165	81.9176787931777	1.46163940429688	1.46209716796875	2.13775634765625E-06	3.12560746351664E-06	683940.0625	2.01487291633384E-05
1	166	82.0183867929235	1.47171020507813	1.4727783203125	2.23907470703125E-06	3.29766044160351E-06	657762.0625	2.03691215574509E-05
1	167	82.1190947926692	1.48178100585938	1.48193359375	2.3583984375E-06	3.49498986906838E-06	628364.375	2.06006225198507E-05
1	168	82.219802792415	1.49185180664063	1.49169921875	2.49420166015625E-06	3.72059867004282E-06	598066.8125	2.08449691854184E-05
1	169	82.3205107921607	1.50192260742188	1.50177001953125	2.6446533203125E-06	3.97166104448843E-06	567851.375	2.11037313420093E-05
1	170	82.4212187919064	1.49185180664063	1.49200439453125	2.2998046875E-06	3.43131864610768E-06	648752.625	2.13527055166196E-05
1	171	82.5219267916522	1.48178100585938	1.48193359375	2.04498291015625E-06	3.0305288873933E-06	724667.9375	2.15714826481417E-05
1	172	82.6226347913979	1.47171020507813	1.47125244140625	1.84326171875E-06	2.71190310741076E-06	798178.8125	2.17672713915817E-05
1	173	82.7233427911436	1.46163940429688	1.461181640625	1.67877197265625E-06	2.45299065682048E-06	870387.25	2.19446192204487E-05
1	174	82.8240507908894	1.45156860351563	1.451416015625	1.54266357421875E-06	2.23904658014362E-06	940850.6875	2.21068312384887E-05
1	175	82.9247587906351	1.44149780273438	1.441650390625	1.4288330078125E-06	2.05987771551008E-06	1008970.5	2.22564576688455E-05
1	176	83.0254667903808	1.43142700195313	1.4306640625	1.33331298828125E-06	1.90752302842156E-06	1073014.375	2.23955430556089E-05
1	177	83.1261747901266	1.42135620117188	1.42181396484375	1.2518310546875E-06	1.77987078586739E-06	1135787.5	2.25257153942948E-05
1	178	83.2268827898723	1.41128540039063	1.4111328125	1.1834716796875E-06	1.67003577189462E-06	1192367.25	2.26483425649349E-05
1	179	83.3275907896181	1.40121459960938	1.4013671875	1.12457275390625E-06	1.57593922267552E-06	1246133	2.27645614359062E-05
1	180	83.4282987893638	1.39114379882813	1.3909912109375	1.07391357421875E-06	1.49380423408729E-06	1295254.375	2.2875265131006E-05
1	181	83.5290067891095	1.38107299804688	1.38092041015625	1.03057861328125E-06	1.42314695494861E-06	1339946.75	2.29812339966884E-05
1	182	83.6297147888553	1.37100219726563	1.370849609375	9.93957519531249E-07	1.36256630867138E-06	1379183.25	2.30831774388207E-05
1	183	83.730422788601	1.36093139648438	1.361083984375	9.6160888671875E-07	1.30883040583285E-06	1415423.75	2.31816484301817E-05
1	184	83.8311307883467	1.35086059570313	1.35101318359375	9.3414306640625E-07	1.2620395182239E-06	1446259.5	2.32771071750904E-05
1	185	83.9318387880925	1.34078979492188	1.34063720703125	9.09423828125E-07	1.21920743367809E-06	1474161.125	2.33699374803109E-05
1	186	84.0325467878382	1.33071899414063	1.33056640625	8.8775634765625E-07	1.18121874947974E-06	1498796.875	2.34604340221267E-05
1	187	84.133254787584	1.32064819335938	1.32049560546875	8.6822509765625E-07	1.14648742055579E-06	1520913.875	2.35488532780437E-05
1	188	84.2339627873297	1.31057739257813	1.31103515625	8.50524902343749E-07	1.11506801658834E-06	1541442.5	2.36354007938644E-05
1	189	84.3346707870754	1.30050659179688	1.30096435546875	8.343505859375E-07	1.08546032606682E-06	1559253.875	2.37202402786352E-05
1	190	84.4353787868212	1.29043579101563	1.29058837890625	8.18786621093751E-07	1.05671642813832E-06	1576220.75	2.38034826907096E-05
1	191	84.5360867865669	1.28036499023438	1.2799072265625	8.0474853515625E-07	1.03000343187887E-06	1590443.625	2.38852335314732E-05
1	192	84.6367947863126	1.27029418945313	1.2701416015625	7.91320800781251E-07	1.00508941613953E-06	1605090.75	2.39656019402901E-05
1	193	84.7375027860584	1.26022338867188	1.26068115234375	7.7880859375E-07	9.81829316515359E-07	1618730.5	2.40446643147152E-05
1	194	84.8382107858041	1.25015258789063	1.25030517578125	7.66601562499999E-07	9.58485884439142E-07	1630971.375	2.41224825003883E-05
1	195	84.9389187855498	1.24008178710938	1.2396240234375	7.550048828125E-07	9.35922173539439E-07	1641875.5	2.4199100153055E-05
1	196	85.0396267852956	1.23001098632813	1.23016357421875	7.4432373046875E-07	9.15639930099132E-07	1652726.625	2.42745973082492E-05
1	197	85.1403347850413	1.21994018554688	1.21978759765625	7.33642578125E-07	8.94888046332198E-07	1662645.625	2.43490194407059E-05
1	198	85.2410427847871	1.20986938476563	1.20941162109375	7.232666015625E-07	8.74726993060904E-07	1672152	2.44223811023403E-05
1	199	85.3417507845328	1.19979858398438	1.199951171875	7.1319580078125E-07	8.55800124099915E-07	1682499	2.44947132159723E-05
1	200	85.4424587842785	1.18972778320313	1.1895751953125	7.037353515625E-07	8.37146103549458E-07	1690373	2.4566061256337E-05
1	201	85.5431667840243	1.17965698242188	1.17950439453125	6.9427490234375E-07	8.1890027558984E-07	1698901.125	2.46364561462542E-05
1	202	85.64387478377	1.16958618164063	1.1700439453125	6.84509277343751E-07	8.00905922915263E-07	1709318	2.47058833338087E-05
1	203	85.7445827835157	1.15951538085938	1.15997314453125	6.7474365234375E-07	7.82684537625755E-07	1719131.625	2.4774326448096E-05
1	204	85.8452907832615	1.14944458007813	1.14959716796875	6.65283203125E-07	7.64807680297963E-07	1727981.625	2.48418036790099E-05
1	205	85.9459987830072	1.13937377929688	1.13983154296875	6.55517578125001E-07	7.47179626614525E-07	1738826.875	2.49083113885717E-05
1	206	86.0467067827529	1.12930297851563	1.12945556640625	6.4544677734375E-07	7.29003488686431E-07	1749881.75	2.49738186539616E-05
1	207	86.1474147824987	1.11923217773438	1.11907958984375	6.3507080078125E-07	7.10694735062134E-07	1762133.75	2.50382981903385E-05
1	208	86.2481227822444	1.10916137695313	1.10870361328125	6.23168945312499E-07	6.90909644163185E-07	1779138.125	2.51016554102534E-05
1	209	86.3488307819902	1.09909057617188	1.0992431640625	6.10961914062499E-07	6.71595671519754E-07	1799200.875	2.51637993642362E-05
1	210	86.4495387817359	1.08901977539063	1.08856201171875	5.9661865234375E-07	6.49456353585265E-07	1824552.5	2.52246063610073E-05
1	211	86.5502467814816	1.07894897460938	1.07940673828125	5.79833984375E-07	6.25876680260262E-07	1861579	2.52838453889126E-05
1	212	86.6509547812274	1.06887817382813	1.0687255859375	5.6121826171875E-07	5.99788336330676E-07	1904295.875	2.53413018072024E-05
1	213	86.7516627809731	1.05880737304688	1.05865478515625	5.389404296875E-07	5.70551833334321E-07	1964326.25	2.53966991294874E-05
1	214	86.8523707807188	1.04873657226563	1.048583984375	5.133056640625E-07	5.38244137260335E-07	2042806.125	2.54496844718233E-05
1	215	86.9530787804646	1.03866577148438	1.038818359375	4.840087890625E-07	5.02797149692924E-07	2146280	2.54999031312764E-05
1	216	87.0537867802103	1.02859497070313	1.0284423828125	4.5318603515625E-07	4.66075732674653E-07	2269360.25	2.55470931733726E-05
1	217	87.1544947799561	1.01852416992188	1.01837158203125	4.23583984375001E-07	4.31365890563029E-07	2404178.75	2.55912436841754E-05
1	218	87.2552027797018	1.00845336914063	1.00830078125	3.9642333984375E-07	3.99713968590731E-07	2543495	2.56325329246465E-05
1	219	87.3559107794475	0.998382568359375	0.99853515625	3.74755859375001E-07	3.74206877040706E-07	2664495.25	2.56713647104334E-05
1	220	87.4566187791933	0.988311767578125	0.98785400390625	3.59191894531249E-07	3.54829154503022E-07	2750212.5	2.57083229371347E-05
1	221	87.557326778939	0.978240966796875	0.977783203125	3.4942626953125E-07	3.41663138669901E-07	2798253.25	2.57440042332746E-05
1	222	87.6580347786847	0.968170166015625	0.968017578125	3.436279296875E-07	3.32637881683695E-07	2817051.5	2.57789015449816E-05
1	223	87.7587427784305	0.958099365234375	0.95855712890625	3.40576171875E-07	3.26461702115921E-07	2814516.25	2.58133550232742E-05
1	224	87.8594507781762	0.948028564453125	0.9478759765625	3.39660644531251E-07	3.21956150628466E-07	2790656	2.5847606593743E-05
1	225	87.9601587779219	0.937957763671875	0.93841552734375	3.39660644531251E-07	3.18742820581974E-07	2762803.25	2.58818145084661E-05
1	226	88.0608667776677	0.927886962890625	0.92803955078125	3.399658203125E-07	3.15501722525369E-07	2729802.5	2.5916035156115E-05
1	227	88.1615747774134	0.917816162109375	0.91766357421875	3.39660644531251E-07	3.11694179799815E-07	2701707.25	2.59502576227533E-05
1	228	88.2622827771592	0.907745361328125	0.908203125	3.39660644531251E-07	3.08480849753323E-07	2673854.5	2.59844637184869E-05
1	229	88.3629907769049	0.897674560546875	0.89752197265625	3.3843994140625E-07	3.03757275332828E-07	2651938.75	2.60186097875703E-05
1	230	88.4636987766506	0.887603759765625	0.8880615234375	3.369140625E-07	2.99200394238142E-07	2635869.75	2.60526157944696E-05
1	231	88.5644067763964	0.877532958984375	0.87738037109375	3.35083007812501E-07	2.93995242373057E-07	2618397.25	2.60864544543438E-05
1	232	88.6651147761421	0.867462158203125	0.8673095703125	3.326416015625E-07	2.88503258616402E-07	2607339.5	2.61200766544789E-05
1	233	88.7658227758878	0.857391357421875	0.85784912109375	3.2989501953125E-07	2.83000161971358E-07	2600370	2.61534387391293E-05
1	234	88.8665307756336	0.847320556640625	0.84716796875	3.27453613281251E-07	2.77408190640926E-07	2587139	2.61865388893057E-05
1	235	88.9672387753793	0.837249755859375	0.83770751953125	3.24401855468751E-07	2.71753862080004E-07	2582314.25	2.62193607341032E-05
1	236	89.0679467751251	0.827178955078125	0.82733154296875	3.21350097656251E-07	2.65863064896621E-07	2574549	2.6251876988681E-05
1	237	89.1686547748708	0.817108154296875	0.81695556640625	3.18298339843751E-07	2.60035591281849E-07	2566634.75	2.62840858340496E-05
1	238	89.2693627746165	0.807037353515625	0.8074951171875	3.15246582031251E-07	2.54560063694953E-07	2561471.5	2.6315987270209E-05
1	239	89.3700707743623	0.796966552734375	0.79681396484375	3.1158447265625E-07	2.48274858449804E-07	2557296.75	2.63475521933287E-05
1	240	89.470778774108	0.786895751953125	0.78704833984375	3.0792236328125E-07	2.42349784684848E-07	2555996	2.63787460426101E-05
1	241	89.5714867738537	0.776824951171875	0.7763671875	3.0364990234375E-07	2.35743812027067E-07	2556784	2.64095415332122E-05
1	242	89.6721947735995	0.766754150390625	0.7672119140625	2.99072265625E-07	2.29451813993364E-07	2565306	2.64398913714103E-05
1	243	89.7729027733452	0.756683349609375	0.75714111328125	2.9449462890625E-07	2.22973980612551E-07	2570984.5	2.64697791863E-05
1	244	89.8736107730909	0.746612548828125	0.74658203125	2.8839111328125E-07	2.15307622397631E-07	2588783.25	2.64991303993156E-05
1	245	89.9743187728367	0.736541748046875	0.736419677734375	2.8106689453125E-07	2.0698318792256E-07	2620087	2.65278049482731E-05
1	246	90.0750267725824	0.726470947265625	0.726409912109375	2.72521972656251E-07	1.9796264894012E-07	2665509.75	2.65556791418931E-05
1	247	90.1757347723282	0.716400146484375	0.716278076171875	2.62451171875E-07	1.87988007382955E-07	2729186.25	2.65826183749596E-05
1	248	90.2764427720739	0.706329345703125	0.706298828125	2.520751953125E-07	1.78040409082314E-07	2801937.25	2.66085262410343E-05
1	249	90.3771507718196	0.696258544921875	0.6961669921875	2.4139404296875E-07	1.68050561910604E-07	2883944.25	2.66333736362867E-05
1	250	90.4778587715654	0.686187744140625	0.686126708984375	2.30712890625E-07	1.58298277597169E-07	2973941.75	2.66571478277911E-05
1	251	90.5785667713111	0.676116943359375	0.676055908203125	2.20947265625E-07	1.49372695545935E-07	3059806.75	2.66798906523036E-05
1	252	90.6792747710568	0.666046142578125	0.66595458984375	2.1331787109375E-07	1.42060002872313E-07	3121888.5	2.67017567239236E-05
1	253	90.7799827708026	0.655975341796875	0.65594482421875	2.0721435546875E-07	1.35921183641585E-07	3165537.5	2.67229315795703E-05
1	254	90.8806907705483	0.645904541015625	0.645843505859375	2.02331542968751E-07	1.30674507659023E-07	3192006.25	2.67435552814277E-05
1	255	90.981398770294	0.635833740234375	0.635711669921875	1.99279785156251E-07	1.26684483348072E-07	3190046	2.67637769866269E-05
1	256	91.0821067700398	0.625762939453125	0.625732421875	1.95922851562499E-07	1.22595281482063E-07	3193769.5	2.67836767307017E-05
1	257	91.1828147697855	0.615692138671875	0.615692138671875	1.9378662109375E-07	1.1931290089251E-07	3177165.5	2.68032999883872E-05
1	258	91.2835227695313	0.605621337890625	0.605621337890625	1.9195556640625E-07	1.16252387272198E-07	3155008	2.68227249762276E-05
1	259	91.384230769277	0.595550537109375	0.595550537109375	1.904296875E-07	1.13410500546252E-07	3127403.75	2.68419789790642E-05
1	260	91.4849387690227	0.585479736328125	0.585418701171875	1.88293457031249E-07	1.10230509164921E-07	3109076.25	2.68610492639709E-05
1	261	91.5856467687685	0.575408935546875	0.575439453125	1.873779296875E-07	1.07824646988774E-07	3071010	2.68799667537678E-05
1	262	91.6863547685142	0.565338134765625	0.565338134765625	1.85241699218749E-07	1.04724193761285E-07	3051894.75	2.68987296294654E-05
1	263	91.7870627682599	0.555267333984375	0.555206298828125	1.8310546875E-07	1.01661314033663E-07	3032166.75	2.69172760454239E-05
1	264	91.8877707680057	0.545196533203125	0.545166015625	1.8157958984375E-07	9.89910162729757E-08	3002353	2.69356405624421E-05
1	265	91.9884787677514	0.535125732421875	0.535064697265625	1.79443359375001E-07	9.60138066830041E-08	2981802.75	2.69538195425412E-05
1	266	92.0891867674972	0.525054931640625	0.52508544921875	1.77917480468751E-07	9.34218746806437E-08	2951286.5	2.6971812985721E-05
1	267	92.1898947672429	0.514984130859375	0.51495361328125	1.7578125E-07	9.05191868127986E-08	2929514	2.69896227109712E-05
1	268	92.2906027669886	0.504913330078125	0.504913330078125	1.7364501953125E-07	8.76756871548423E-08	2907732.75	2.70072177954717E-05
1	269	92.3913107667344	0.494842529296875	0.494873046875	1.72119140625E-07	8.51771204679608E-08	2875177.5	2.70246291620424E-05
1	270	92.4920187664801	0.484771728515625	0.48480224609375	1.69982910156249E-07	8.24080998995669E-08	2852064.5	2.7041854991694E-05
1	271	92.5927267662258	0.474700927734375	0.4747314453125	1.6815185546875E-07	7.98269752522174E-08	2823230.5	2.70588825515006E-05
1	272	92.6934347659716	0.464630126953125	0.464630126953125	1.6632080078125E-07	7.72776544977205E-08	2793578	2.7075724574388E-05
1	273	92.7941427657173	0.454559326171875	0.45452880859375	1.63879394531249E-07	7.44879073977245E-08	2773556.75	2.70923501375364E-05
1	274	92.894850765463	0.444488525390625	0.44451904296875	1.61132812500001E-07	7.16266015388101E-08	2758712.25	2.71087155852001E-05
1	275	92.9955587652088	0.434417724609375	0.43438720703125	1.58081054687501E-07	6.86683847561653E-08	2747876.5	2.71247899945593E-05
1	276	93.0962667649545	0.424346923828125	0.424285888671875	1.56249999999999E-07	6.62946675333842E-08	2715429.75	2.71406170213595E-05
1	277	93.1969747647003	0.414276123046875	0.414306640625	1.53503417968751E-07	6.35974828355756E-08	2699006.25	2.71562148554949E-05
1	278	93.297682764446	0.404205322265625	0.4041748046875	1.50451660156251E-07	6.08087660225465E-08	2686409.75	2.71715198323363E-05
1	279	93.3983907641917	0.394134521484375	0.39410400390625	1.483154296875E-07	5.84517003687779E-08	2657201.75	2.71865646936931E-05
1	280	93.4990987639375	0.384063720703125	0.384033203125	1.4617919921875E-07	5.61376616303733E-08	2627140	2.72013930953108E-05
1	281	93.5998067636832	0.373992919921875	0.373931884765625	1.44042968749999E-07	5.38622586532256E-08	2595974.5	2.72160068561789E-05
1	282	93.7005147634289	0.363922119140625	0.363922119140625	1.4190673828125E-07	5.16430027630577E-08	2564516	2.72304059762973E-05
1	283	93.8012227631747	0.353851318359375	0.35382080078125	1.39770507812501E-07	4.94537140127704E-08	2531441	2.72445904556662E-05
1	284	93.9019307629204	0.343780517578125	0.34381103515625	1.37939453124999E-07	4.7425107396748E-08	2492478	2.72585730272112E-05
1	285	94.0026387626662	0.333709716796875	0.333740234375	1.36413574218749E-07	4.55266970789125E-08	2446532.5	2.72723882517312E-05
1	286	94.1033467624119	0.323638916015625	0.323638916015625	1.3427734375E-07	4.34573728114174E-08	2410227.25	2.72860179393319E-05
1	287	94.2040547621576	0.313568115234375	0.313629150390625	1.31835937499999E-07	4.1347590240548E-08	2378935.25	2.72994184342679E-05
1	288	94.3047627619034	0.303497314453125	0.303466796875	1.2969970703125E-07	3.93595520620238E-08	2339764.75	2.73125879175495E-05
1	289	94.4054707616491	0.293426513671875	0.293426513671875	1.26953125E-07	3.72514143975877E-08	2311298	2.73255118372617E-05
1	290	94.5061787613948	0.283355712890625	0.283294677734375	1.24511718750001E-07	3.52735050057618E-08	2275245.25	2.73381738224998E-05
1	291	94.6068867611406	0.273284912109375	0.2733154296875	1.21154785156249E-07	3.31134728526195E-08	2255919.5	2.73505447694333E-05
1	292	94.7075947608863	0.263214111328125	0.263153076171875	1.1871337890625E-07	3.12397894219885E-08	2216709.5	2.73626228590729E-05
1	293	94.808302760632	0.253143310546875	0.253143310546875	1.1474609375E-07	2.90472055297641E-08	2206117	2.73743771685986E-05
1	294	94.9090107603778	0.243072509765625	0.24310302734375	1.1138916015625E-07	2.70790412315591E-08	2182465.75	2.73857640422648E-05
1	295	95.0097187601235	0.233001708984375	0.232940673828125	1.0711669921875E-07	2.49518361528089E-08	2174644	2.73967671091668E-05
1	296	95.1104267598693	0.222930908203125	0.22296142578125	1.025390625E-07	2.28622560882741E-08	2174404.75	2.7407324523665E-05
1	297	95.211134759615	0.212860107421875	0.212890625	9.82666015624995E-08	2.09200372580653E-08	2166459.75	2.74174362857593E-05
1	298	95.3118427593607	0.202789306640625	0.2027587890625	9.24682617187506E-08	1.87487536607023E-08	2192739.25	2.742704054981E-05
1	299	95.4125507591065	0.192718505859375	0.1927490234375	8.60595703124994E-08	1.65878972779865E-08	2239716.5	2.74360299954424E-05
1	300	95.5132587588522	0.182647705078125	0.182647705078125	7.84301757812495E-08	1.43250913353654E-08	2328793.75	2.74443118541967E-05
1	301	95.6139667585979	0.172576904296875	0.172576904296875	6.92749023437495E-08	1.1955248346851E-08	2491189.25	2.74517497018678E-05
1	302	95.7146747583437	0.162506103515625	0.16253662109375	5.73730468750006E-08	9.32522148389126E-09	2832978.75	2.74581270787166E-05
1	303	95.8153827580894	0.152435302734375	0.15240478515625	4.24194335937503E-08	6.46492459566161E-09	3592805.75	2.74631529464386E-05
1	304	95.9160907578351	0.142364501953125	0.142425537109375	2.34985351562494E-08	3.34679151059447E-09	6061039	2.74664707831107E-05
1	305	96.0167987575809	0.132293701171875	0.13232421875	-2.74658203125028E-09	-3.63439334183369E-10	-48177776	2.74675167020177E-05
1	306	96.1175067573266	0.122222900390625	0.122283935546875	-3.72314453124994E-08	-4.55280746436415E-09	-3284426.25	2.7465503080748E-05
1	307	96.2182147570724	0.112152099609375	0.112213134765625	-8.42285156249997E-08	-9.45154532416836E-09	-1332246.5	2.74593876383733E-05
1	308	96.3189227568181	0.102081298828125	0.10211181640625	-1.4801025390625E-07	-1.51135957082715E-08	-689896.9375	2.74476933554979E-05
1	309	96.4196307565638	0.092010498046875	0.092071533203125	-2.34375000000001E-07	-2.15792645974489E-08	-392838.5625	2.7428437533672E-05
1	310	96.5203387563096	0.081939697265625	0.082000732421875	-3.4912109375E-07	-2.86281842676317E-08	-234877.625	2.73990572168259E-05
1	311	96.6210467560553	0.071868896484375	0.0718994140625	-4.98352050781251E-07	-3.58312206572009E-08	-144274.34375	2.73563837254187E-05
1	312	96.721754755801	0.061798095703125	0.061798095703125	-6.8359375E-07	-4.22447890002786E-08	-90401.7890625	2.72968682111241E-05
1	313	96.8224627555468	0.051727294921875	0.05181884765625	-9.014892578125E-07	-4.67141312299191E-08	-57481.3828125	2.72170527750859E-05
1	314	96.9231707552925	0.041656494140625	0.0417449951171875	-1.14166259765625E-06	-4.76586983211291E-08	-36565.08984375	2.71141707344214E-05
1	315	97.0238787550383	0.031585693359375	0.031695556640625	-1.38702392578125E-06	-4.39624940895555E-08	-22851.486328125	2.69868414761731E-05
1	316	97.124586754784	0.021514892578125	0.021624755859375	-1.60980224609375E-06	-3.48115776205304E-08	-13433.1748046875	2.68359399342444E-05
1	317	97.2252947545297	0.011444091796875	0.01151123046875	-1.7889404296875E-06	-2.05929051588782E-08	-6434.66455078125	2.66648003162118E-05
1	318	97.3260027542755	0.001373291015625	0.00144348144531251	-1.90948486328125E-06	-2.75630585022668E-09	-755.953369140625	2.64785685430979E-05
1	319	97.4267107540212	-0.008697509765625	-0.00859985351562501	-1.96685791015625E-06	1.69146883166604E-08	4372.3818359375	2.6283380066161E-05
1	320	97.5274187537669	-0.018768310546875	-0.018658447265625	-1.97052001953125E-06	3.67668420153677E-08	9468.794921875	2.60851174971322E-05
1	321	97.6281267535127	-0.028839111328125	-0.0286895751953125	-1.93511962890625E-06	5.55177592787004E-08	14825.7373046875	2.58884520007996E-05
1	322	97.7288347532584	-0.038909912109375	-0.0387481689453125	-1.8743896484375E-06	7.26291631281129E-08	20672.419921875	2.56966286542593E-05
1	323	97.8295427530041	-0.048980712890625	-0.0488525390625	-1.8023681640625E-06	8.8050263968853E-08	27104.640625	2.55114882747876E-05
1	324	97.9302507527499	-0.059051513671875	-0.059051513671875	-1.7266845703125E-06	1.01963337328925E-07	34199.36328125	2.53337875619764E-05
1	325	98.0309587524956	-0.069122314453125	-0.069091796875	-1.65313720703125E-06	1.14218217106554E-07	41794.3515625	2.51635992754018E-05
1	326	98.1316667522414	-0.079193115234375	-0.0791015625	-1.585693359375E-06	1.25430815955951E-07	49884.52734375	2.50005123234587E-05
1	327	98.2323747519871	-0.089263916015625	-0.08917236328125	-1.52374267578125E-06	1.35875737328206E-07	58521.93359375	2.48439391725697E-05
1	328	98.3330827517328	-0.099334716796875	-0.099212646484375	-1.4691162109375E-06	1.45754910363394E-07	67532.1953125	2.46932359004859E-05
1	329	98.4337907514786	-0.109405517578125	-0.109344482421875	-1.42059326171875E-06	1.55334035412125E-07	76971	2.45477276621386E-05
1	330	98.5344987512243	-0.119476318359375	-0.119384765625	-1.3787841796875E-06	1.6460582230593E-07	86586.984375	2.44067687162897E-05
1	331	98.63520675097	-0.129547119140625	-0.129425048828125	-1.34185791015625E-06	1.7367003124491E-07	96452.125	2.4269773348351E-05
1	332	98.7359147507158	-0.139617919921875	-0.1395263671875	-1.30950927734375E-06	1.8271106227985E-07	106548.59375	2.41362668020884E-05
1	333	98.8366227504615	-0.149688720703125	-0.149566650390625	-1.2823486328125E-06	1.91796587500903E-07	116634.9375	2.40057561313733E-05
1	334	98.9373307502073	-0.159759521484375	-0.159576416015625	-1.25762939453125E-06	2.00687992446547E-07	126886.6796875	2.38778575294418E-05
1	335	99.038038749953	-0.169830322265625	-0.169647216796875	-1.23748779296875E-06	2.09936345640926E-07	137090.015625	2.37522181123495E-05
1	336	99.1387467496987	-0.179901123046875	-0.179656982421875	-1.21978759765625E-06	2.1914335945894E-07	147285.46875	2.36284849961521E-05
1	337	99.2394547494445	-0.189971923828125	-0.1898193359375	-1.20574951171875E-06	2.28874569074833E-07	157428.5	2.3506348952651E-05
1	338	99.3401627491902	-0.200042724609375	-0.199951171875	-1.19384765625E-06	2.38711237443567E-07	167484.65625	2.33855207625311E-05
1	339	99.4408707489359	-0.189971923828125	-0.189788818359375	-1.0498046875E-06	1.99241171117137E-07	180784.890625	2.32725433306769E-05
2	340	99.5415787486817	-0.179901123046875	-0.179718017578125	-9.5184326171875E-07	1.71063376797065E-07	188810.53125	2.3171751308837E-05
2	341	99.6422867484274	-0.169830322265625	-0.169647216796875	-8.7310791015625E-07	1.48120321341594E-07	194302.703125	2.30798577831592E-05
2	342	99.7429947481731	-0.159759521484375	-0.15966796875	-8.06884765625E-07	1.28833647750071E-07	197882	2.29952638619579E-05
2	343	99.8437027479189	-0.149688720703125	-0.149505615234375	-7.4798583984375E-07	1.1182807924115E-07	199877.609375	2.29169709200505E-05
2	344	99.9444107476646	-0.139617919921875	-0.139495849609375	-6.96716308593751E-07	9.71890372625239E-08	200219.015625	2.28442240768345E-05
2	345	100.04511874741	-0.129547119140625	-0.129486083984375	-6.488037109375E-07	8.40110487843049E-08	199576.6875	2.27764721785206E-05
2	346	100.145826747156	-0.119476318359375	-0.119354248046875	-6.03637695312501E-07	7.20467170367556E-08	197724.984375	2.27134059969103E-05
2	347	100.246534746902	-0.109405517578125	-0.109283447265625	-5.6121826171875E-07	6.13318675846131E-08	194725.390625	2.26547508646036E-05
2	348	100.347242746648	-0.099334716796875	-0.099334716796875	-5.1849365234375E-07	5.15044220605887E-08	191583.28125	2.2600383090321E-05
2	349	100.447950746393	-0.089263916015625	-0.089202880859375	-4.74853515625E-07	4.23582982023163E-08	187853.484375	2.25503645197023E-05
2	350	100.548658746139	-0.079193115234375	-0.0791015625	-4.29382324218749E-07	3.39648131841841E-08	184221.75	2.25048315769527E-05
2	351	100.649366745885	-0.069122314453125	-0.06915283203125	-3.77502441406249E-07	2.61053614281082E-08	183185.125	2.24642026296351E-05
2	352	100.750074745631	-0.059051513671875	-0.058990478515625	-3.173828125E-07	1.8722564831819E-08	185865.390625	2.24292125494685E-05
2	353	100.850782745376	-0.048980712890625	-0.048846435546875	-2.44140625E-07	1.19253984465217E-08	200075.015625	2.24009363591904E-05
2	354	100.951490745122	-0.038909912109375	-0.0387664794921875	-1.5228271484375E-07	5.90346482809423E-09	254569.15625	2.23809747694759E-05
2	355	101.052198744868	-0.028839111328125	-0.0286865234375	-3.57055664062494E-08	1.02426855885795E-09	803418.8125	2.23715087486198E-05
2	356	101.152906744613	-0.018768310546875	-0.018646240234375	1.116943359375E-07	-2.082679362303E-09	-166939.890625	2.23753359023249E-05
2	357	101.253614744359	-0.008697509765625	-0.00861206054687499	2.94189453125E-07	-2.53357734791848E-09	-29273.861328125	2.23957740672631E-05
2	358	101.354322744105	0.001373291015625	0.001495361328125	5.11779785156249E-07	7.6529566017669E-10	2921.88427734375	2.24363575398456E-05
2	359	101.455030743851	0.011444091796875	0.0115753173828125	7.568359375E-07	8.76061534427208E-09	15294.35546875	2.25002368097194E-05
2	360	101.555738743596	0.021514892578125	0.0215789794921875	1.0150146484375E-06	2.1902978986077E-08	21259.771484375	2.25894564209739E-05
2	361	101.656446743342	0.031585693359375	0.031640625	1.2628173828125E-06	3.9956333353075E-08	25055.583984375	2.27041546168039E-05
2	362	101.757154743088	0.041656494140625	0.0417633056640625	1.47705078125E-06	6.1686520780313E-08	28274.79296875	2.28421176871052E-05
2	363	101.857862742834	0.051727294921875	0.05181884765625	1.6375732421875E-06	8.48571559686206E-08	31643.68359375	2.29989527724683E-05
2	364	101.958570742579	0.061798095703125	0.061859130859375	1.73614501953125E-06	1.07396424198214E-07	35630.1640625	2.31688318308443E-05
2	365	102.059278742325	0.071868896484375	0.07196044921875	1.776123046875E-06	1.27810608319123E-07	40515.46484375	2.33456885325722E-05
2	366	102.159986742071	0.081939697265625	0.08197021484375	1.77001953125E-06	1.45088876024602E-07	46310.34765625	2.35242514463607E-05
2	367	102.260694741817	0.092010498046875	0.092071533203125	1.73095703125E-06	1.59371865038338E-07	53191.11328125	2.37005406233948E-05
2	368	102.361402741562	0.102081298828125	0.10211181640625	1.6741943359375E-06	1.70955019029861E-07	60991.6171875	2.38720022025518E-05
2	369	102.462110741308	0.112152099609375	0.1121826171875	1.60888671875E-06	1.80489124090855E-07	69726.859375	2.40373192355037E-05
2	370	102.562818741054	0.122222900390625	0.12225341796875	1.5435791015625E-06	1.8870781559599E-07	79201.265625	2.41960588027723E-05
2	371	102.6635267408	0.132293701171875	0.132354736328125	1.480712890625E-06	1.95979353634357E-07	89385.8203125	2.43483427766478E-05
2	372	102.764234740545	0.142364501953125	0.14239501953125	1.42181396484375E-06	2.02459233378249E-07	100150.2421875	2.44944967562333E-05
2	373	102.864942740291	0.152435302734375	0.1524658203125	1.3690185546875E-06	2.08728522466117E-07	111368.7109375	2.4635026420583E-05
2	374	102.965650740037	0.162506103515625	0.162506103515625	1.32232666015625E-06	2.14886142657633E-07	122894.0703125	2.47705465881154E-05
2	375	103.066358739782	0.172576904296875	0.172576904296875	1.28021240234375E-06	2.20935092443142E-07	134803.34375	2.49015956796939E-05
2	376	103.167066739528	0.182647705078125	0.182708740234375	1.24298095703125E-06	2.27103484462532E-07	146992.390625	2.50286484515527E-05
2	377	103.267774739274	0.192718505859375	0.192779541015625	1.21002197265625E-06	2.33267485327815E-07	159319.046875	2.51521669270005E-05
2	378	103.36848273902	0.202789306640625	0.20281982421875	1.18133544921875E-06	2.39598250573181E-07	171686.90625	2.52725803875364E-05
2	379	103.469190738765	0.212860107421875	0.212860107421875	1.1553955078125E-06	2.45937599174795E-07	184231.390625	2.53902453550836E-05
2	380	103.569898738511	0.222930908203125	0.222930908203125	1.13250732421875E-06	2.52470897521562E-07	196847.203125	2.55054492299678E-05
2	381	103.670606738257	0.233001708984375	0.233001708984375	1.11236572265625E-06	2.59183110529193E-07	209465.03125	2.56184885074617E-05
2	382	103.771314738003	0.243072509765625	0.2430419921875	1.0943603515625E-06	2.65975501179128E-07	222085.90625	2.57296051131561E-05
2	383	103.872022737748	0.253143310546875	0.253143310546875	1.077880859375E-06	2.7285832970847E-07	234852.78125	2.58389864029596E-05
2	384	103.972730737494	0.263214111328125	0.263153076171875	1.063232421875E-06	2.79792885748975E-07	247502.875	2.59467997238971E-05
2	385	104.07343873724	0.273284912109375	0.273284912109375	1.04949951171875E-06	2.86812365857259E-07	260395.46875	2.60531851381529E-05
2	386	104.174146736986	0.283355712890625	0.283416748046875	1.03790283203125E-06	2.94159036684505E-07	273066.75	2.61582936218474E-05
2	387	104.274854736731	0.293426513671875	0.293426513671875	1.02691650390625E-06	3.01324519114132E-07	285735.5	2.62622652371647E-05
2	388	104.375562736477	0.303497314453125	0.303466796875	1.01654052734375E-06	3.08486306721534E-07	298528.96875	2.63651618297445E-05
2	389	104.476270736223	0.313568115234375	0.313629150390625	1.00830078125E-06	3.16232501518243E-07	311047.21875	2.64671216427814E-05
2	390	104.576978735969	0.323638916015625	0.3236083984375	1.0003662109375E-06	3.23726908391109E-07	323489.9375	2.65682647295762E-05
2	391	104.677686735714	0.333709716796875	0.333770751953125	9.930419921875E-07	3.31448376300614E-07	336109.40625	2.66686420218321E-05
2	392	104.77839473546	0.343780517578125	0.343780517578125	9.869384765625E-07	3.39290181727847E-07	348330.28125	2.67683408310404E-05
2	393	104.879102735206	0.353851318359375	0.353790283203125	9.81750488281249E-07	3.47333752870327E-07	360366.8125	2.68674721155548E-05
2	394	104.979810734951	0.363922119140625	0.363861083984375	9.765625E-07	3.55333071411224E-07	372593.78125	2.69660813501105E-05
2	395	105.080518734697	0.373992919921875	0.3740234375	9.72900390625001E-07	3.63887522780715E-07	384441.65625	2.70642449322622E-05
2	396	105.181226734443	0.384063720703125	0.384033203125	9.7015380859375E-07	3.72571264506405E-07	395847.75	2.71620847343002E-05
2	397	105.281934734189	0.394134521484375	0.394134521484375	9.6710205078125E-07	3.81168263174914E-07	407541.84375	2.72596334980335E-05
2	398	105.382642733934	0.404205322265625	0.404205322265625	9.64965820312499E-07	3.9004430618661E-07	418880.46875	2.73569221462822E-05
2	399	105.48335073368	0.414276123046875	0.414337158203125	9.6405029296875E-07	3.99441859144645E-07	429787.90625	2.74540543614421E-05
2	400	105.584058733426	0.424346923828125	0.42431640625	9.63134765625E-07	4.08673884066957E-07	440557.65625	2.75510956271319E-05
2	401	105.684766733172	0.434417724609375	0.434417724609375	9.625244140625E-07	4.18137659607964E-07	451331.65625	2.76480604952667E-05
2	402	105.785474732917	0.444488525390625	0.4444580078125	9.619140625E-07	4.27530380875396E-07	462055.875	2.77449635177618E-05
2	403	105.886182732663	0.454559326171875	0.454498291015625	9.6160888671875E-07	4.37049578749793E-07	472643.625	2.78418210655218E-05
2	404	105.986890732409	0.464630126953125	0.464599609375	9.6160888671875E-07	4.46763095851566E-07	483148.21875	2.79386622423772E-05
2	405	106.087598732155	0.474700927734375	0.47467041015625	9.619140625E-07	4.56592118780463E-07	493464.5	2.80355197901372E-05
2	406	106.1883067319	0.484771728515625	0.4847412109375	9.625244140625E-07	4.66575244217893E-07	503614.46875	2.81324228126323E-05
2	407	106.289014731646	0.494842529296875	0.49481201171875	9.63439941406249E-07	4.7672162395429E-07	513588.875	2.82294040516717E-05
2	408	106.389722731392	0.504913330078125	0.504913330078125	9.65270996093751E-07	4.87378144953254E-07	523079.375	2.83265217149165E-05
2	409	106.490430731138	0.514984130859375	0.51495361328125	9.6710205078125E-07	4.9801263912741E-07	532470.875	2.84238249150803E-05
2	410	106.591138730883	0.525054931640625	0.5250244140625	9.6954345703125E-07	5.09033952766913E-07	541517.1875	2.85213427559938E-05
2	411	106.691846730629	0.535125732421875	0.535064697265625	9.722900390625E-07	5.20238017998054E-07	550313.9375	2.8619120712392E-05
2	412	106.792554730375	0.545196533203125	0.545166015625	9.747314453125E-07	5.3139041256145E-07	559298.6875	2.87171606032643E-05
2	413	106.89326273012	0.555267333984375	0.555267333984375	9.77783203125E-07	5.42931047675665E-07	567883.875	2.88154787995154E-05
2	414	106.993970729866	0.565338134765625	0.565338134765625	9.814453125E-07	5.5484844097009E-07	576026.125	2.89141335088061E-05
2	415	107.094678729612	0.575408935546875	0.575347900390625	9.8541259765625E-07	5.66955066005903E-07	583864.9375	2.9013172024861E-05
2	416	107.195386729358	0.585479736328125	0.585418701171875	9.89990234375E-07	5.79558786739653E-07	591337.875	2.91126416414045E-05
2	417	107.296094729103	0.595550537109375	0.595489501953125	9.9517822265625E-07	5.92618164318992E-07	598374.75	2.92126023850869E-05
2	418	107.396802728849	0.605621337890625	0.60565185546875	1.0009765625E-06	6.06243304446252E-07	605061	2.93131179205375E-05
2	419	107.497510728595	0.615692138671875	0.615692138671875	1.007080078125E-06	6.20051309851988E-07	611363.625	2.94142319035018E-05
2	420	107.598218728341	0.625762939453125	0.62567138671875	1.014404296875E-06	6.34683715361462E-07	616787.0625	2.95160207315348E-05
2	421	107.698926728086	0.635833740234375	0.635833740234375	1.0223388671875E-06	6.50037577543117E-07	621940.3125	2.96185789920855E-05
2	422	107.799634727832	0.645904541015625	0.64581298828125	1.03179931640625E-06	6.66349421862833E-07	625909.5	2.97220140055288E-05
2	423	107.900342727578	0.655975341796875	0.65594482421875	1.0418701171875E-06	6.83409268731339E-07	629584.125	2.98264312732499E-05
2	424	108.001050727324	0.666046142578125	0.666015625	1.05316162109375E-06	7.01422038673627E-07	632396.4375	2.99319235637086E-05
2	425	108.101758727069	0.676116943359375	0.67608642578125	1.0650634765625E-06	7.20074922355707E-07	634785.125	3.00385854643537E-05
2	426	108.202466726815	0.686187744140625	0.686065673828125	1.07666015625E-06	7.38659593935154E-07	637216.5625	3.01464297081111E-05
2	427	108.303174726561	0.696258544921875	0.696197509765625	1.0870361328125E-06	7.56791848743887E-07	640454.8125	3.02553798974259E-05
2	428	108.403882726307	0.706329345703125	0.706298828125	1.097412109375E-06	7.75100886585278E-07	643604	3.03653760056477E-05
2	429	108.504590726052	0.716400146484375	0.716339111328125	1.104736328125E-06	7.91365778241016E-07	648425.4375	3.04762634186773E-05
2	430	108.605298725798	0.726470947265625	0.726348876953125	1.11083984375E-06	8.06857201496314E-07	653873.6875	3.05878274957649E-05
2	431	108.706006725544	0.736541748046875	0.73638916015625	1.11480712890625E-06	8.20931859379925E-07	660553	3.06998954329174E-05
2	432	108.806714725289	0.746612548828125	0.746490478515625	1.11785888671875E-06	8.34471052257868E-07	667785.9375	3.0812319891993E-05
2	433	108.907422725035	0.756683349609375	0.7568359375	1.12030029296875E-06	8.47883484311751E-07	675565.3125	3.09250208374579E-05
2	434	109.008130724781	0.766754150390625	0.76690673828125	1.12152099609375E-06	8.60102034039301E-07	683809.5	3.10379036818631E-05
2	435	109.108838724527	0.776824951171875	0.7769775390625	1.1236572265625E-06	8.73056364980584E-07	691472.0625	3.11509575112723E-05
2	436	109.209546724272	0.786895751953125	0.78704833984375	1.12548828125E-06	8.85813619788678E-07	699295.0625	3.12642114295159E-05
2	437	109.310254724018	0.796966552734375	0.79681396484375	1.12701416015625E-06	8.9802057345878E-07	707013.3125	3.13776363327634E-05
2	438	109.410962723764	0.807037353515625	0.80718994140625	1.129150390625E-06	9.11438860384806E-07	714864.875	3.14912431349512E-05
2	439	109.51167072351	0.817108154296875	0.81756591796875	1.1309814453125E-06	9.24651885725325E-07	722881.8125	3.16050463879947E-05
2	440	109.612378723255	0.827178955078125	0.82763671875	1.13372802734375E-06	9.38314940412965E-07	730013.5	3.17190861096606E-05
2	441	109.713086723001	0.837249755859375	0.83740234375	1.13616943359375E-06	9.51430934037489E-07	737040	3.18333841278218E-05
2	442	109.813794722747	0.847320556640625	0.84716796875	1.13922119140625E-06	9.65111667028395E-07	743637.875	3.19479586323723E-05
2	443	109.914502722493	0.857391357421875	0.8575439453125	1.14288330078125E-06	9.80072627498885E-07	750333.75	3.20628714689519E-05
2	444	110.015210722238	0.867462158203125	0.8673095703125	1.146240234375E-06	9.94145011645742E-07	756656.0625	3.21781371894758E-05
2	445	110.115918721984	0.877532958984375	0.8770751953125	1.1505126953125E-06	1.00908607691963E-06	762334.25	3.22937885357533E-05
2	446	110.21662672173	0.887603759765625	0.887451171875	1.15570068359375E-06	1.02562785286864E-06	767890.1875	3.24099164572544E-05
2	447	110.317334721476	0.897674560546875	0.8978271484375	1.160888671875E-06	1.04227729025297E-06	773396.5	3.2526564609725E-05
2	448	110.418042721221	0.907745361328125	0.90789794921875	1.16729736328125E-06	1.0597868822515E-06	777777.8125	3.26437984767836E-05
2	449	110.518750720967	0.917816162109375	0.91796875	1.17431640625E-06	1.07798575754714E-06	781704.8125	3.27617090079002E-05
2	450	110.619458720713	0.927886962890625	0.92803955078125	1.1822509765625E-06	1.0971756410072E-06	784976.8125	3.28803726006299E-05
2	451	110.720166720458	0.937957763671875	0.93841552734375	1.192626953125E-06	1.11917961476138E-06	786847.5625	3.29999566019978E-05
2	452	110.820874720204	0.948028564453125	0.9478759765625	1.20391845703125E-06	1.14116528493469E-06	787325.8125	3.31206319970079E-05
2	453	110.92158271995	0.958099365234375	0.9576416015625	1.21795654296875E-06	1.16636590519192E-06	786269.125	3.32425843225792E-05
2	454	111.022290719696	0.968170166015625	0.96832275390625	1.23504638671875E-06	1.19592357350484E-06	784037.5625	3.33661009790376E-05
2	455	111.122998719441	0.978240966796875	0.9783935546875	1.2548828125E-06	1.22776930311375E-06	779669.25	3.34914802806452E-05
2	456	111.223706719187	0.988311767578125	0.98846435546875	1.27838134765625E-06	1.26363431718346E-06	773215.5625	3.36190387315582E-05
2	457	111.324414718933	0.998382568359375	0.99853515625	1.30401611328125E-06	1.30210594306845E-06	765738.375	3.37490746460389E-05
2	458	111.425122718679	1.00845336914063	1.00830078125	1.33026123046875E-06	1.34130334572546E-06	757972.0625	3.38817189913243E-05
2	459	111.525830718424	1.01852416992188	1.01837158203125	1.35528564453125E-06	1.38018435791309E-06	751407.375	3.40169463015627E-05
2	460	111.62653871817	1.02859497070313	1.02874755859375	1.37725830078125E-06	1.41685109156242E-06	746953.25	3.41545419360045E-05
2	461	111.727246717916	1.03866577148438	1.0382080078125	1.39404296875E-06	1.44730654483283E-06	744746.125	3.4294087527087E-05
2	462	111.827954717662	1.04873657226563	1.04888916015625	1.4056396484375E-06	1.47436014685809E-06	746200.625	3.44350628438406E-05
2	463	111.928662717407	1.05880737304688	1.0589599609375	1.41204833984375E-06	1.49530262660846E-06	749946	3.45769440173171E-05
2	464	112.029370717153	1.06887817382813	1.0693359375	1.41387939453125E-06	1.51191193253908E-06	756313.4375	3.47192435583565E-05
2	465	112.130078716899	1.07894897460938	1.07879638671875	1.41357421875E-06	1.52495874772285E-06	763169.25	3.48616158589721E-05
2	466	112.230786716645	1.08901977539063	1.0894775390625	1.4117431640625E-06	1.53806240632548E-06	771725.0625	3.50038826582022E-05
2	467	112.33149471639	1.09909057617188	1.0986328125	1.40899658203125E-06	1.54796987317241E-06	779727.125	3.51459166267887E-05
2	468	112.432202716136	1.10916137695313	1.1090087890625	1.4068603515625E-06	1.56022042574477E-06	788286.375	3.52877068507951E-05
2	469	112.532910715882	1.11923217773438	1.119384765625	1.40472412109375E-06	1.57242675413727E-06	796871.625	3.54292824340519E-05
2	470	112.633618715627	1.12930297851563	1.129150390625	1.40380859375E-06	1.58511102199554E-06	804347.8125	3.55707015842199E-05
2	471	112.734326715373	1.13937377929688	1.13922119140625	1.4031982421875E-06	1.59855312631407E-06	811874.75	3.57120443368331E-05
2	472	112.835034715119	1.14944458007813	1.14959716796875	1.40289306640625E-06	1.6127619346662E-06	819447.4375	3.58533434337005E-05
2	473	112.935742714865	1.15951538085938	1.15875244140625	1.40472412109375E-06	1.62772755629703E-06	824896.8125	3.59947189281229E-05
2	474	113.03645071461	1.16958618164063	1.16912841796875	1.40655517578125E-06	1.64444361416827E-06	831199.8125	3.61362763214856E-05
2	475	113.137158714356	1.17965698242188	1.17950439453125	1.409912109375E-06	1.66299753345811E-06	836580.0625	3.62780992873013E-05
2	476	113.237866714102	1.18972778320313	1.18988037109375	1.41387939453125E-06	1.682347260612E-06	841571.375	3.64202860509977E-05
2	477	113.338574713848	1.19979858398438	1.199951171875	1.4190673828125E-06	1.70281145983608E-06	845591.4375	3.65629384759814E-05
2	478	113.439282713593	1.20986938476563	1.2103271484375	1.42425537109375E-06	1.72381487573148E-06	849796.5	3.67061111319344E-05
2	479	113.539990713339	1.21994018554688	1.21978759765625	1.431884765625E-06	1.74659521690046E-06	851875.5625	3.68499277101364E-05
2	480	113.640698713085	1.23001098632813	1.2298583984375	1.4385986328125E-06	1.76927255779447E-06	854900.3125	3.6994468246121E-05
2	481	113.741406712831	1.24008178710938	1.240234375	1.4471435546875E-06	1.79479718553921E-06	857022.375	3.71397763956338E-05
2	482	113.842114712576	1.25015258789063	1.25030517578125	1.45599365234375E-06	1.82043629592954E-06	858729.875	3.72859612980392E-05
2	483	113.942822712322	1.26022338867188	1.26007080078125	1.46575927734375E-06	1.84696045835153E-06	859671.0625	3.74330847989768E-05
2	484	114.043530712068	1.27029418945313	1.27044677734375	1.4764404296875E-06	1.87573891707871E-06	860479.5625	3.7581234209938E-05
2	485	114.144238711814	1.28036499023438	1.28021240234375	1.488037109375E-06	1.90500361441082E-06	860336.3125	3.77305077563506E-05
2	486	114.244946711559	1.29043579101563	1.290283203125	1.5008544921875E-06	1.93652726920845E-06	859699.125	3.78810109395999E-05
2	487	114.345654711305	1.30050659179688	1.3006591796875	1.51519775390625E-06	1.970755874936E-06	858408.875	3.80328820028808E-05
2	488	114.446362711051	1.31057739257813	1.31072998046875	1.52984619140625E-06	2.00521526494413E-06	856772.4375	3.81862118956633E-05
2	489	114.547070710796	1.32064819335938	1.3201904296875	1.5460205078125E-06	2.04104139811534E-06	853928.1875	3.83410952053964E-05
2	490	114.647778710542	1.33071899414063	1.33087158203125	1.56280517578125E-06	2.079892965412E-06	851591.5	3.84976374334656E-05
2	491	114.748486710288	1.34078979492188	1.34063720703125	1.58111572265625E-06	2.1197024580033E-06	847905.8125	3.86559440812562E-05
2	492	114.849194710034	1.35086059570313	1.3507080078125	1.60003662109375E-06	2.16118223761441E-06	844173.1875	3.88161279261112E-05
2	493	114.949902709779	1.36093139648438	1.36016845703125	1.6204833984375E-06	2.20413039642153E-06	839359.75	3.89782944694161E-05
2	494	115.050610709525	1.37100219726563	1.37115478515625	1.64276123046875E-06	2.25247981688881E-06	834664.75	3.91426110581961E-05
2	495	115.151318709271	1.38107299804688	1.3812255859375	1.66595458984375E-06	2.30105911214196E-06	829089.625	3.93092195736244E-05
2	496	115.252026709017	1.39114379882813	1.3909912109375	1.693115234375E-06	2.35510833590524E-06	821557.3125	3.94783601223025E-05
2	497	115.352734708762	1.40121459960938	1.40106201171875	1.72393798828125E-06	2.41534394262999E-06	812710.1875	3.96504256059416E-05
2	498	115.453442708508	1.41128540039063	1.41143798828125	1.75994873046875E-06	2.48405831371201E-06	801976.8125	3.98258525819983E-05
2	499	115.554150708254	1.42135620117188	1.42120361328125	1.8017578125E-06	2.56066459769499E-06	788787.25	4.00051976612303E-05
2	500	115.654858708	1.43142700195313	1.4312744140625	1.85211181640625E-06	2.65088010564796E-06	772779.75	4.01891848014202E-05
2	501	115.755566707745	1.44149780273438	1.44134521484375	1.91131591796875E-06	2.75486604550679E-06	754111.5	4.03786871174816E-05
2	502	115.856274707491	1.45156860351563	1.45172119140625	1.982421875E-06	2.87792363451445E-06	732296.875	4.0574752347311E-05
2	503	115.956982707237	1.46163940429688	1.4617919921875	2.0672607421875E-06	3.02190528600477E-06	707115.4375	4.07786719733849E-05
2	504	116.057690706982	1.47171020507813	1.47125244140625	2.16888427734375E-06	3.1909762583382E-06	678345.3125	4.09919775847811E-05
2	505	116.158398706728	1.48178100585938	1.48193359375	2.28851318359375E-06	3.39142434313544E-06	647553.0625	4.12164263252635E-05
2	506	116.259106706474	1.49185180664063	1.49169921875	2.42462158203125E-06	3.61680599780811E-06	615229.75	4.14537498727441E-05
2	507	116.35981470622	1.50192260742188	1.50177001953125	2.57476806640625E-06	3.86670944862999E-06	583264.25	4.17054907302372E-05
2	508	116.460522705965	1.49185180664063	1.49169921875	2.24273681640625E-06	3.34548872160667E-06	665124.5	4.19480711570941E-05
2	509	116.561230705711	1.48178100585938	1.48162841796875	1.9989013671875E-06	2.96162897939212E-06	741221.375	4.21616532548796E-05
2	510	116.661938705457	1.47171020507813	1.47216796875	1.80633544921875E-06	2.65922903963656E-06	815002.5625	4.23532619606704E-05
2	511	116.762646705203	1.46163940429688	1.46148681640625	1.6497802734375E-06	2.41113207266608E-06	885867.625	4.25272919528652E-05
2	512	116.863354704948	1.45156860351563	1.45172119140625	1.5203857421875E-06	2.2071760668041E-06	954837.4375	4.26869228249416E-05
2	513	116.964062704694	1.44149780273438	1.441650390625	1.4117431640625E-06	2.03523995878641E-06	1021184.625	4.28345665568486E-05
2	514	117.06477070444	1.43142700195313	1.43157958984375	1.3214111328125E-06	1.89170521025517E-06	1083371.875	4.29721912951209E-05
2	515	117.165478704186	1.42135620117188	1.4215087890625	1.24481201171875E-06	1.76951118646684E-06	1141946.625	4.31014123023488E-05
2	516	117.266186703931	1.41128540039063	1.41082763671875	1.180419921875E-06	1.66536892720615E-06	1195191.375	4.32235319749452E-05
2	517	117.366894703677	1.40121459960938	1.4013671875	1.12579345703125E-06	1.57764998220955E-06	1244781.75	4.33396598964464E-05
2	518	117.467602703423	1.39114379882813	1.3909912109375	1.0791015625E-06	1.50102061979851E-06	1289027.25	4.34506837336812E-05
2	519	117.568310703169	1.38107299804688	1.3812255859375	1.03973388671875E-06	1.4361070270752E-06	1328441.5	4.35573783761356E-05
2	520	117.669018702914	1.37100219726563	1.370849609375	1.0064697265625E-06	1.37971858293895E-06	1362037.625	4.36604095739312E-05
2	521	117.76972670266	1.36093139648438	1.36077880859375	9.77783203125E-07	1.33054663820076E-06	1391697.875	4.3760326661868E-05
2	522	117.870434702406	1.35086059570313	1.3507080078125	9.5245361328125E-07	1.28648673580756E-06	1418135.25	4.38575225416571E-05
2	523	117.971142702151	1.34078979492188	1.34063720703125	9.3048095703125E-07	1.24743735341326E-06	1440800.25	4.39523355453275E-05
2	524	118.071850701897	1.33071899414063	1.3311767578125	9.1064453125E-07	1.21222888083139E-06	1461796.25	4.40450421592686E-05
2	525	118.172558701643	1.32064819335938	1.32110595703125	8.9263916015625E-07	1.17927095288906E-06	1480000	4.41358461102936E-05
2	526	118.273266701389	1.31057739257813	1.3104248046875	8.75244140625001E-07	1.14694159947248E-06	1497210.625	4.42248638137244E-05
2	527	118.373974701134	1.30050659179688	1.3006591796875	8.59985351562501E-07	1.11854785700416E-06	1512420.125	4.43122407887131E-05
2	528	118.47468270088	1.29043579101563	1.29058837890625	8.4564208984375E-07	1.09137590698083E-06	1526163.875	4.43981261923909E-05
2	529	118.575390700626	1.28036499023438	1.28082275390625	8.3160400390625E-07	1.06513732589519E-06	1540183.5	4.44825818703976E-05
2	530	118.676098700372	1.27029418945313	1.27044677734375	8.19091796875E-07	1.04061246020137E-06	1551043.25	4.4565702410182E-05
2	531	118.776806700117	1.26022338867188	1.2603759765625	8.0596923828125E-07	1.01582418210455E-06	1563801.625	4.46475314674899E-05
2	532	118.877514699863	1.25015258789063	1.25	7.9345703125E-07	9.91821252682712E-07	1575384.75	4.47280690423213E-05
2	533	118.978222699609	1.24008178710938	1.24053955078125	7.8125E-07	9.69171537690272E-07	1587890.625	4.48073587904219E-05
2	534	119.078930699355	1.23001098632813	1.2298583984375	7.6934814453125E-07	9.46189231854078E-07	1598572.125	4.48854370915797E-05
2	535	119.1796386991	1.21994018554688	1.21978759765625	7.58056640625E-07	9.24668029256281E-07	1609098.25	4.49623512395192E-05
2	536	119.280346698846	1.20986938476563	1.20941162109375	7.464599609375E-07	9.0277734443589E-07	1620196.25	4.50381085101981E-05
2	537	119.381054698592	1.19979858398438	1.1993408203125	7.3577880859375E-07	8.82449512573658E-07	1630029.125	4.51127452834044E-05
2	538	119.481762698338	1.18972778320313	1.1895751953125	7.244873046875E-07	8.61832120335748E-07	1641954.625	4.51862761110533E-05
2	539	119.582470698083	1.17965698242188	1.1798095703125	7.1380615234375E-07	8.4215525930631E-07	1652843.125	4.52586973551661E-05
2	540	119.683178697829	1.16958618164063	1.16943359375	7.02819824218751E-07	8.21901096514921E-07	1663916.625	4.53300308436155E-05
2	541	119.783886697575	1.15951538085938	1.15936279296875	6.9244384765625E-07	8.02793636012211E-07	1674305.875	4.54002874903381E-05
2	542	119.88459469732	1.14944458007813	1.14959716796875	6.81457519531251E-07	7.83401617354684E-07	1686968.25	4.54694709333126E-05
2	543	119.985302697066	1.13937377929688	1.13922119140625	6.69250488281251E-07	7.62424349431967E-07	1702234.375	4.55374829471111E-05
2	544	120.086010696812	1.12930297851563	1.1297607421875	6.57958984375E-07	7.4333621569167E-07	1717068.625	4.56043126177974E-05
2	545	120.186718696558	1.11923217773438	1.11907958984375	6.4544677734375E-07	7.22306310763088E-07	1733806.125	4.56699453934561E-05
2	546	120.287426696303	1.10916137695313	1.10931396484375	6.3201904296875E-07	7.0110752403707E-07	1755190.875	4.57342721347231E-05
2	547	120.388134696049	1.09909057617188	1.0992431640625	6.1767578125E-07	6.78975879964128E-07	1779644.25	4.57971982541494E-05
2	548	120.488842695795	1.08901977539063	1.08917236328125	6.01806640625E-07	6.55471126265184E-07	1809837.75	4.58586036984343E-05
2	549	120.589550695541	1.07894897460938	1.07879638671875	5.8319091796875E-07	6.29144267350057E-07	1849816.875	4.59182738268282E-05
2	550	120.690258695286	1.06887817382813	1.0687255859375	5.62133789062499E-07	6.00766725256108E-07	1901194.375	4.59759467048571E-05
2	551	120.790966695032	1.05880737304688	1.05865478515625	5.3863525390625E-07	5.70228735341516E-07	1965439.25	4.60313749499619E-05
2	552	120.891674694778	1.04873657226563	1.04827880859375	5.11474609375E-07	5.36167988229863E-07	2049522.75	4.60842493339442E-05
2	553	120.992382694524	1.03866577148438	1.038818359375	4.82177734375E-07	5.00895055211004E-07	2154430.5	4.61342860944569E-05
2	554	121.093090694269	1.02859497070313	1.0284423828125	4.50439453125E-07	4.63251012661203E-07	2283198	4.61812451248989E-05
2	555	121.193798694015	1.01852416992188	1.01837158203125	4.20227050781249E-07	4.27947298931031E-07	2423384.25	4.62250864075031E-05
2	556	121.294506693761	1.00845336914063	1.00860595703125	3.91845703125E-07	3.95217909954226E-07	2573987.5	4.62659772892948E-05
2	557	121.395214693507	0.998382568359375	0.99853515625	3.6895751953125E-07	3.68417033769219E-07	2706369	4.63042888441123E-05
2	558	121.495922693252	0.988311767578125	0.98846435546875	3.5125732421875E-07	3.4720534358712E-07	2814074.75	4.63405522168614E-05
2	559	121.596630692998	0.978240966796875	0.97808837890625	3.39660644531251E-07	3.32218121457117E-07	2879604.75	4.63753458461724E-05
2	560	121.697338692744	0.968170166015625	0.9686279296875	3.3233642578125E-07	3.21910334832864E-07	2914600.75	4.64091826870572E-05
2	561	121.798046692489	0.958099365234375	0.95794677734375	3.28979492187501E-07	3.15144859541761E-07	2911873.75	4.64424811070785E-05
2	562	121.898754692235	0.948028564453125	0.94818115234375	3.27148437499999E-07	3.1019598623061E-07	2898321	4.64755212306045E-05
2	563	121.999462691981	0.937957763671875	0.9381103515625	3.265380859375E-07	3.06328757915253E-07	2872897.25	4.65084376628511E-05
2	564	122.100170691727	0.927886962890625	0.9283447265625	3.2623291015625E-07	3.02856591360978E-07	2845650.25	4.65413068013731E-05
2	565	122.200878691472	0.917816162109375	0.9185791015625	3.265380859375E-07	2.99951040005908E-07	2813084.25	4.65741759398952E-05
2	566	122.301586691218	0.907745361328125	0.908203125	3.265380859375E-07	2.9656288802471E-07	2781308.5	4.66070596303325E-05
2	567	122.402294690964	0.897674560546875	0.89813232421875	3.25927734375001E-07	2.9272621304699E-07	2755618.25	4.66399142169394E-05
2	568	122.50300269071	0.887603759765625	0.88775634765625	3.253173828125E-07	2.88802567638413E-07	2728893	4.66727069579065E-05
2	569	122.603710690455	0.877532958984375	0.87738037109375	3.2379150390625E-07	2.84088287116901E-07	2709708	4.67053941974882E-05
2	570	122.704418690201	0.867462158203125	0.8673095703125	3.216552734375E-07	2.78974709999602E-07	2696394.75	4.6737892262172E-05
2	571	122.805126689947	0.857391357421875	0.85784912109375	3.18603515625E-07	2.73313730758673E-07	2692529	4.67701320303604E-05
2	572	122.905834689693	0.847320556640625	0.84716796875	3.155517578125E-07	2.67325333425106E-07	2684719.75	4.68020662083291E-05
2	573	123.006542689438	0.837249755859375	0.83770751953125	3.11279296875E-07	2.60760998571641E-07	2691176.5	4.68336293124594E-05
2	574	123.107250689184	0.827178955078125	0.8270263671875	3.070068359375E-07	2.53902726399247E-07	2693837.25	4.68647631350905E-05
2	575	123.20795868893	0.817108154296875	0.81695556640625	3.0181884765625E-07	2.46572568585179E-07	2706774.75	4.68954203824978E-05
2	576	123.308666688676	0.807037353515625	0.806884765625	2.9632568359375E-07	2.39100671706183E-07	2722966	4.69255392090417E-05
2	577	123.409374688421	0.796966552734375	0.797119140625	2.8961181640625E-07	2.30855121685636E-07	2752371	4.69550432171673E-05
2	578	123.510082688167	0.786895751953125	0.7867431640625	2.8350830078125E-07	2.23048203906728E-07	2775027	4.69838996650651E-05
2	579	123.610790687913	0.776824951171875	0.7769775390625	2.764892578125E-07	2.1482594547706E-07	2810154.5	4.70120976387989E-05
2	580	123.711498687658	0.766754150390625	0.7672119140625	2.69165039062499E-07	2.06506626909686E-07	2850340	4.70395752927288E-05
2	581	123.812206687404	0.756683349609375	0.75714111328125	2.6092529296875E-07	1.97557255887659E-07	2901754.5	4.70662671432365E-05
2	582	123.91291468715	0.746612548828125	0.7464599609375	2.52380371093749E-07	1.88391851452252E-07	2957678.25	4.70921149826609E-05
2	583	124.013622686896	0.736541748046875	0.73651123046875	2.42919921875E-07	1.78913253989776E-07	3031909.5	4.71170533273835E-05
2	584	124.114330686641	0.726470947265625	0.726470947265625	2.32849121093751E-07	1.69158113294543E-07	3119921.5	4.7141013055807E-05
2	585	124.215038686387	0.716400146484375	0.716278076171875	2.21862792968749E-07	1.5891545501745E-07	3228473.25	4.716390685644E-05
2	586	124.315746686133	0.706329345703125	0.706207275390625	2.09960937500001E-07	1.48275930200725E-07	3363517.5	4.718565105577E-05
2	587	124.416454685879	0.696258544921875	0.696197509765625	1.97448730468749E-07	1.3746331717357E-07	3525966	4.72061656182632E-05
2	588	124.517162685624	0.686187744140625	0.6861572265625	1.8646240234375E-07	1.27942527683444E-07	3679869	4.72254978376441E-05
2	589	124.61787068537	0.676116943359375	0.676025390625	1.751708984375E-07	1.18419976047335E-07	3859233.5	4.72437095595524E-05
2	590	124.718578685116	0.666046142578125	0.665985107421875	1.666259765625E-07	1.10970411526523E-07	3996886.75	4.72609171993099E-05
2	591	124.819286684862	0.655975341796875	0.655975341796875	1.6021728515625E-07	1.05098585834185E-07	4094285.75	4.72773754154332E-05
2	592	124.919994684607	0.645904541015625	0.645782470703125	1.55029296875001E-07	1.00115201462359E-07	4165551.25	4.72932515549473E-05
2	593	125.020702684353	0.635833740234375	0.635772705078125	1.51672363281249E-07	9.64291402283379E-08	4191750.75	4.73086947749835E-05
2	594	125.121410684099	0.625762939453125	0.625732421875	1.4923095703125E-07	9.33786452606E-08	4193047	4.7323846956715E-05
2	595	125.222118683845	0.615692138671875	0.61566162109375	1.4801025390625E-07	9.1124228163153E-08	4159588	4.73388136015274E-05
2	596	125.32282668359	0.605621337890625	0.6055908203125	1.47399902343751E-07	8.92640272809331E-08	4108488.5	4.73536892968696E-05
2	597	125.423534683336	0.595550537109375	0.59552001953125	1.46484375E-07	8.72343761670891E-08	4065416.75	4.7368484956678E-05
2	598	125.524242683082	0.585479736328125	0.585357666015625	1.46484375E-07	8.57457465031075E-08	3996041.75	4.73832405987196E-05
2	599	125.624950682827	0.575408935546875	0.57537841796875	1.45874023437501E-07	8.39327682911062E-08	3944351.5	4.73979598609731E-05
2	600	125.725658682573	0.565338134765625	0.5653076171875	1.4495849609375E-07	8.19461405399124E-08	3899789.5	4.74126063636504E-05
2	601	125.826366682319	0.555267333984375	0.555206298828125	1.446533203125E-07	8.03124322601434E-08	3838185.75	4.74271873827092E-05
2	602	125.927074682065	0.545196533203125	0.545196533203125	1.44348144531251E-07	7.86981004807785E-08	3776955.75	4.74417392979376E-05
2	603	126.02778268181	0.535125732421875	0.535125732421875	1.44042968749999E-07	7.70810970607272E-08	3715042.25	4.74562621093355E-05
2	604	126.128490681556	0.525054931640625	0.5250244140625	1.434326171875E-07	7.53056212943193E-08	3660425.5	4.74707376270089E-05
2	605	126.229198681302	0.514984130859375	0.5150146484375	1.42822265625001E-07	7.35555545361422E-08	3605983	4.74851512990426E-05
2	606	126.329906681048	0.504913330078125	0.50482177734375	1.4190673828125E-07	7.16376149512143E-08	3557419.25	4.74994885735214E-05
2	607	126.430614680793	0.494842529296875	0.494873046875	1.41296386718751E-07	6.99237716617063E-08	3502376	4.75137494504452E-05
2	608	126.531322680539	0.484771728515625	0.484771728515625	1.39770507812501E-07	6.77567868478945E-08	3468340.75	4.75279011880048E-05
2	609	126.632030680285	0.474700927734375	0.474700927734375	1.3885498046875E-07	6.59145840131714E-08	3418681.5	4.75419328722637E-05
2	610	126.732738680031	0.464630126953125	0.464599609375	1.37939453124999E-07	6.40866133494455E-08	3368141.5	4.75558699690737E-05
2	611	126.833446679776	0.454559326171875	0.454559326171875	1.361083984375E-07	6.18693434262241E-08	3339686	4.7569668822689E-05
2	612	126.934154679522	0.444488525390625	0.444549560546875	1.34887695312499E-07	5.99642575593862E-08	3295701.5	4.75833148811944E-05
2	613	127.034862679268	0.434417724609375	0.43438720703125	1.33056640625E-07	5.77980969751479E-08	3264679.25	4.75968081445899E-05
2	614	127.135570679014	0.424346923828125	0.424346923828125	1.3153076171875E-07	5.58146702189788E-08	3226218.25	4.76101304229815E-05
2	615	127.236278678759	0.414276123046875	0.414306640625	1.30615234375001E-07	5.41147571198053E-08	3171962.5	4.76233290100936E-05
2	616	127.336986678505	0.404205322265625	0.4041748046875	1.28784179687499E-07	5.20513196988759E-08	3138388.5	4.76363929919899E-05
2	617	127.437694678251	0.394134521484375	0.394134521484375	1.27563476562501E-07	5.02771655419565E-08	3089713.25	4.76493005407974E-05
2	618	127.538402677996	0.384063720703125	0.384033203125	1.26037597656251E-07	4.84026188019016E-08	3046973.5	4.76620698464103E-05
2	619	127.639110677742	0.373992919921875	0.374053955078125	1.251220703125E-07	4.68024055066962E-08	2989512.25	4.76747154607438E-05
2	620	127.739818677488	0.363922119140625	0.363983154296875	1.239013671875E-07	4.50980088828601E-08	2937685	4.76872555736918E-05
2	621	127.840526677234	0.353851318359375	0.353851318359375	1.22985839843751E-07	4.35186997549408E-08	2877171.25	4.76996865472756E-05
2	622	127.941234676979	0.343780517578125	0.343780517578125	1.2176513671875E-07	4.18604813035017E-08	2823308.25	4.77120120194741E-05
2	623	128.041942676725	0.333709716796875	0.333709716796875	1.2054443359375E-07	4.02268476307199E-08	2768354.5	4.7724213800393E-05
2	624	128.142650676471	0.323638916015625	0.323577880859375	1.1871337890625E-07	3.84130203201494E-08	2725707	4.77362591482233E-05
2	625	128.243358676217	0.313568115234375	0.31353759765625	1.171875E-07	3.67426871150656E-08	2675521	4.77481407870073E-05
2	626	128.344066675962	0.303497314453125	0.30340576171875	1.15966796875E-07	3.51849926971681E-08	2616316	4.77598805446178E-05
2	627	128.444774675708	0.293426513671875	0.29339599609375	1.13830566406251E-07	3.33974341515386E-08	2577480	4.77714493172243E-05
2	628	128.545482675454	0.283355712890625	0.283355712890625	1.11999511718749E-07	3.17357020662712E-08	2529972.75	4.77828216389753E-05
2	629	128.6461906752	0.273284912109375	0.2733154296875	1.08947753906249E-07	2.97771016732895E-08	2508683.5	4.77939465781674E-05
2	630	128.746898674945	0.263214111328125	0.26318359375	1.0650634765625E-07	2.80307208555541E-08	2471060.25	4.78047950309701E-05
2	631	128.847606674691	0.253143310546875	0.25311279296875	1.0406494140625E-07	2.63401673805674E-08	2432258.25	4.78153997391928E-05
2	632	128.948314674437	0.243072509765625	0.243133544921875	1.007080078125E-07	2.44854945208317E-08	2414242.5	4.78257097711321E-05
2	633	129.049022674183	0.233001708984375	0.232940673828125	9.70458984375006E-08	2.26059366781328E-08	2400314.5	4.78356705571059E-05
2	634	129.149730673928	0.222930908203125	0.22296142578125	9.33837890624997E-08	2.08209822716299E-08	2387581.75	4.78452566312626E-05
2	635	129.250438673674	0.212860107421875	0.212890625	8.81958007812503E-08	1.87760580416807E-08	2413841	4.78544025099836E-05
2	636	129.35114667342	0.202789306640625	0.202850341796875	8.33129882812506E-08	1.69000671235153E-08	2434798.75	4.78630354336929E-05
2	637	129.451854673165	0.192718505859375	0.192779541015625	7.75146484375003E-08	1.49432377583025E-08	2487007.75	4.78711335745174E-05
2	638	129.552562672911	0.182647705078125	0.1826171875	7.01904296875E-08	1.28179795666483E-08	2601739	4.78785732411779E-05
2	639	129.653270672657	0.172576904296875	0.172576904296875	6.07299804687503E-08	1.04805923939466E-08	2841708.5	4.78851652587764E-05
2	640	129.753978672403	0.162506103515625	0.162445068359375	4.97436523437506E-08	8.08061084711653E-09	3265644.25	4.78907277283724E-05
2	641	129.854686672148	0.152435302734375	0.1524658203125	3.44848632812506E-08	5.25776311377513E-09	4421239	4.78949696116615E-05
2	642	129.955394671894	0.142364501953125	0.1424560546875	1.52587890625E-08	2.17370677013662E-09	9336001	4.78974725410808E-05
2	643	130.05610267164	0.132293701171875	0.13238525390625	-1.12915039062494E-08	-1.49482859423955E-09	-11724325	4.78976726299152E-05
2	644	130.156810671386	0.122222900390625	0.122283935546875	-4.60815429687497E-08	-5.6350324406651E-09	-2653642.5	4.78947840747423E-05
2	645	130.257518671131	0.112152099609375	0.1121826171875	-9.46044921875E-08	-1.06129789401166E-08	-1185806.5	4.78877009300049E-05
2	646	130.358226670877	0.102081298828125	0.10211181640625	-1.59606933593751E-07	-1.62977524809094E-08	-639770.5625	4.78748988825828E-05
2	647	130.458934670623	0.092010498046875	0.092041015625	-2.48107910156251E-07	-2.28361045628844E-08	-370971.71875	4.78543697681744E-05
2	648	130.559642670369	0.081939697265625	0.08197021484375	-3.65295410156249E-07	-2.99433402517479E-08	-224394.328125	4.78234833281022E-05
2	649	130.660350670114	0.071868896484375	0.071929931640625	-5.18188476562501E-07	-3.72732600339987E-08	-138810.359375	4.77789944852702E-05
2	650	130.76105866986	0.061798095703125	0.061859130859375	-7.0831298828125E-07	-4.38156249060739E-08	-87333.046875	4.7717236157041E-05
2	651	130.861766669606	0.051727294921875	0.051727294921875	-9.320068359375E-07	-4.8210189618203E-08	-55500.984375	4.76346394862048E-05
2	652	130.962474669352	0.041656494140625	0.0417327880859375	-1.17889404296875E-06	-4.91985332473632E-08	-35399.94921875	4.7528348659398E-05
2	653	131.063182669097	0.031585693359375	0.031671142578125	-1.42913818359375E-06	-4.5262439130056E-08	-22161.009765625	4.73970212624408E-05
2	654	131.163890668843	0.021514892578125	0.0215911865234375	-1.65771484375E-06	-3.57920306726101E-08	-13024.6689453125	4.72415886179078E-05
2	655	131.264598668589	0.011444091796875	0.0115203857421875	-1.84051513671875E-06	-2.12034443336506E-08	-6259.3271484375	4.70654376840685E-05
2	656	131.365306668334	0.001373291015625	0.00147094726562499	-1.962890625E-06	-2.88730861441877E-09	-749.378173828125	4.68739199277479E-05
2	657	131.46601466808	-0.008697509765625	-0.0085723876953125	-2.0220947265625E-06	1.73341785369985E-08	4239.3603515625	4.66732599306852E-05
2	658	131.566722667826	-0.018768310546875	-0.018621826171875	-2.02606201171875E-06	3.77289772757194E-08	9191.1435546875	4.6469420340145E-05
2	659	131.667430667572	-0.028839111328125	-0.0287078857421875	-1.9891357421875E-06	5.71038789587419E-08	14432.341796875	4.62672396679409E-05
2	660	131.768138667317	-0.038909912109375	-0.0387481689453125	-1.9281005859375E-06	7.47103641174363E-08	20096.548828125	4.60699920949992E-05
2	661	131.868846667063	-0.048980712890625	-0.048846435546875	-1.8536376953125E-06	9.05435868503446E-08	26351.6640625	4.58795657323208E-05
2	662	131.969554666809	-0.059051513671875	-0.05902099609375	-1.7767333984375E-06	1.04864575689589E-07	33218.82421875	4.56967609352432E-05
2	663	132.070262666555	-0.069122314453125	-0.06903076171875	-1.7022705078125E-06	1.17509024732954E-07	40552.171875	4.55215777037665E-05
2	664	132.1709706663	-0.079193115234375	-0.07916259765625	-1.6326904296875E-06	1.29248022062711E-07	48485.98046875	4.535365224001E-05
2	665	132.271678666046	-0.089263916015625	-0.0892333984375	-1.57012939453125E-06	1.40107985657778E-07	56831.875	4.51923770015128E-05
2	666	132.372386665792	-0.099334716796875	-0.099273681640625	-1.51519775390625E-06	1.50419253941436E-07	65518.6328125	4.50370171165559E-05
2	667	132.473094665538	-0.109405517578125	-0.1092529296875	-1.4666748046875E-06	1.60238514013145E-07	74490.21875	4.48868668172508E-05
2	668	132.573802665283	-0.119476318359375	-0.119384765625	-1.424560546875E-06	1.70070819649482E-07	83804.625	4.47412821813487E-05
2	669	132.674510665029	-0.129547119140625	-0.129425048828125	-1.38916015625E-06	1.79792124299638E-07	93167.8359375	4.45996010967065E-05
2	670	132.775218664775	-0.139617919921875	-0.139495849609375	-1.35711669921875E-06	1.89312132192754E-07	102788.40625	4.44613142462913E-05
2	671	132.875926664521	-0.149688720703125	-0.149627685546875	-1.33056640625E-06	1.99089569719035E-07	112454.125	4.43259777966887E-05
2	672	132.976634664266	-0.159759521484375	-0.15960693359375	-1.30828857421875E-06	2.08811925972441E-07	121996.734375	4.41931006207597E-05
2	673	133.077342664012	-0.169830322265625	-0.169708251953125	-1.28936767578125E-06	2.18816339270234E-07	131621.296875	4.40623007307295E-05
2	674	133.178050663758	-0.179901123046875	-0.179779052734375	-1.2738037109375E-06	2.2900321994257E-07	141135.59375	4.39332325186115E-05
2	675	133.278758663503	-0.189971923828125	-0.189849853515625	-1.26129150390625E-06	2.39455999917482E-07	150520.203125	4.38055831182282E-05
2	676	133.379466663249	-0.200042724609375	-0.199920654296875	-1.25274658203125E-06	2.50449915029094E-07	159585.875	4.36789887316991E-05
2	677	133.480174662995	-0.189971923828125	-0.1898193359375	-1.10260009765625E-06	2.09294810815663E-07	172156.109375	4.35603869846091E-05
