Potential - Start -0.2 V, Upper Vertex 1.5 V, Lower Vertex -0.2 V, Stop -0.19 V; Scan - # end cross 5, Rate 0.1 Vps, Step 0.01 V 
Scan	Index	Time (s)	Potential applied (V)	WE(1).Potential (V)	WE(1).Current (A)	WE(1).Power (W)	WE(1).Resistance (Ω)	WE(1).Charge (C)
1	1	65.561566834473	-0.189971923828125	-0.1898193359375	-1.8280029296875E-07	3.46990312038997E-08	1038397.3125	0
1	2	65.6622748342187	-0.179901123046875	-0.179779052734375	-1.52587890625E-07	2.74321063642446E-08	1178200	-1.68881371109819E-08
1	3	65.7629828339644	-0.169830322265625	-0.16973876953125	-1.28784179687499E-07	2.18596678536187E-08	1318009.5	-3.10563450511836E-08
1	4	65.8636908337102	-0.159759521484375	-0.159698486328125	-1.080322265625E-07	1.72525833619375E-08	1478248.625	-4.2981000092368E-08
1	5	65.9643988334559	-0.149688720703125	-0.149566650390625	-8.97216796875003E-08	1.34193713918762E-08	1667006.75	-5.29386987579983E-08
1	6	66.0651068332016	-0.139617919921875	-0.139495849609375	-7.35473632812497E-08	1.02595514306358E-08	1896680.5	-6.11599517696959E-08
1	7	66.1658148329474	-0.129547119140625	-0.12945556640625	-5.82885742187497E-08	7.54578000083939E-09	2220942.5	-6.77984175467827E-08
1	8	66.2665228326931	-0.119476318359375	-0.119384765625	-4.39453125000003E-08	5.24640109134111E-09	2716666.75	-7.29462996673647E-08
1	9	66.3672308324388	-0.109405517578125	-0.10931396484375	-2.899169921875E-08	3.16919734899557E-09	3770526.5	-7.66189671708162E-08
1	10	66.4679388321846	-0.099334716796875	-0.099273681640625	-1.40380859374997E-08	1.39361244766434E-09	7071739.5	-7.87856890838157E-08
1	11	66.5686468319303	-0.089263916015625	-0.089202880859375	1.83105468749972E-09	-1.63335345249038E-10	-48716668	-7.9400365393667E-08
1	12	66.6693548316761	-0.079193115234375	-0.079193115234375	1.95312500000003E-08	-1.54674051344728E-09	-4054687.5	-7.83246889568545E-08
1	13	66.7700628314218	-0.069122314453125	-0.06903076171875	4.05883789062506E-08	-2.8018467546076E-09	-1700751.875	-7.52974216311486E-08
1	14	66.8707708311675	-0.059051513671875	-0.05902099609375	6.59179687499997E-08	-3.8905438870529E-09	-895370.375	-6.99344013810332E-08
1	15	66.9714788309133	-0.048980712890625	-0.0488250732421875	9.82666015624995E-08	-4.79787365392781E-09	-496863.375	-6.16670519093532E-08
1	16	67.072186830659	-0.038909912109375	-0.0387542724609375	1.41296386718751E-07	-5.47583844934252E-09	-274276.46875	-4.96041003827941E-08
1	17	67.1728948304047	-0.028839111328125	-0.028680419921875	1.995849609375E-07	-5.72418024091803E-09	-143700.296875	-3.24393596429218E-08
1	18	67.2736028301505	-0.018768310546875	-0.01864013671875	2.777099609375E-07	-5.17655118770222E-09	-67120.8828125	-8.40565306248209E-09
1	19	67.3743108298962	-0.008697509765625	-0.0085906982421875	3.83911132812501E-07	-3.29806471022209E-09	-22376.7890625	2.49096139270932E-08
1	20	67.475018829642	0.001373291015625	0.00148925781250001	5.2520751953125E-07	7.82169329305304E-10	2835.56079101563	7.06873706235456E-08
1	21	67.5757268293877	0.011444091796875	0.011529541015625	7.0770263671875E-07	8.15948641985642E-09	16291.5048828125	1.32769329752591E-07
1	22	67.6764348291334	0.021514892578125	0.021636962890625	9.320068359375E-07	2.0165796144056E-08	23215.45703125	2.15335262510052E-07
1	23	67.7771428288792	0.031585693359375	0.0316741943359375	1.192626953125E-06	3.77754965086297E-08	26558.34375	3.22319067436183E-07
1	24	67.8778508286249	0.041656494140625	0.04173583984375	1.4752197265625E-06	6.15695299188701E-08	28291.26953125	4.56655811831297E-07
1	25	67.9785588283706	0.051727294921875	0.051788330078125	1.7529296875E-06	9.07812989225931E-08	29543.873046875	6.19206048213528E-07
1	26	68.0792668281164	0.061798095703125	0.06182861328125	1.99798583984375E-06	1.23532686302497E-07	30945.47265625	8.08079619218915E-07
1	27	68.1799748278621	0.071868896484375	0.0718994140625	2.186279296875E-06	1.5719220414212E-07	32886.65625	1.01877412816975E-06
1	28	68.2806828276078	0.081939697265625	0.08203125	2.3046875E-06	1.89056393651299E-07	35593.21875	1.24491225506063E-06
1	29	68.3813908273536	0.092010498046875	0.092041015625	2.35321044921875E-06	2.16591885759954E-07	39112.95703125	1.47945604567212E-06
1	30	68.4820988270993	0.102081298828125	0.102020263671875	2.34344482421875E-06	2.3907884383334E-07	43534.31640625	1.71595138453995E-06
1	31	68.5828068268451	0.112152099609375	0.112152099609375	2.29339599609375E-06	2.57209165965833E-07	48902.1953125	1.94943481801602E-06
1	32	68.6835148265908	0.122222900390625	0.122283935546875	2.22015380859375E-06	2.7148911385666E-07	55079.04296875	2.17671026803146E-06
1	33	68.7842228263365	0.132293701171875	0.13232421875	2.1356201171875E-06	2.82594243117273E-07	61960.5625	2.39604082707956E-06
1	34	68.8849308260823	0.142364501953125	0.142364501953125	2.0489501953125E-06	2.91697773491251E-07	69481.6796875	2.60675074059691E-06
1	35	68.985638825828	0.152435302734375	0.152435302734375	1.96563720703125E-06	2.99632517908321E-07	77550.0703125	2.8089011721022E-06
1	36	69.0863468255737	0.162506103515625	0.16253662109375	1.88873291015625E-06	3.06988255260876E-07	86055.90625	3.00298415822908E-06
1	37	69.1870548253195	0.172576904296875	0.172515869140625	1.81793212890625E-06	3.13622138037317E-07	94896.7578125	3.18962952405855E-06
1	38	69.2877628250652	0.182647705078125	0.18267822265625	1.75445556640625E-06	3.20500816997082E-07	104122.4609375	3.36951347890135E-06
1	39	69.388470824811	0.192718505859375	0.1927490234375	1.697998046875E-06	3.27287438040003E-07	113515.4609375	3.54335838892439E-06
1	40	69.4891788245567	0.202789306640625	0.202850341796875	1.6473388671875E-06	3.34163246407115E-07	123138.1953125	3.71180954061856E-06
1	41	69.5898868243024	0.212860107421875	0.212921142578125	1.60247802734375E-06	3.41201428000204E-07	132869.9375	3.87545060220873E-06
1	42	69.6905948240482	0.222930908203125	0.22296142578125	1.5625E-06	3.48377227510355E-07	142695.3125	4.03481999455835E-06
1	43	69.7913028237939	0.233001708984375	0.2330322265625	1.52557373046875E-06	3.55507836502511E-07	152750.5625	4.19031675846782E-06
1	44	69.8920108235396	0.243072509765625	0.24310302734375	1.49383544921875E-06	3.63155891136557E-07	162737.5	4.34235607826849E-06
1	45	69.9927188232854	0.253143310546875	0.25311279296875	1.4642333984375E-06	3.70616191958106E-07	172863.703125	4.49130675406195E-06
1	46	70.0934268230311	0.263214111328125	0.263214111328125	1.43829345703125E-06	3.78579130710932E-07	183004.453125	4.63746073364746E-06
1	47	70.1941348227768	0.273284912109375	0.2733154296875	1.41448974609375E-06	3.86601868740399E-07	193225.46875	4.78110951007693E-06
1	48	70.2948428225226	0.283355712890625	0.283355712890625	1.39251708984375E-06	3.94577682527597E-07	203484.546875	4.92245362693211E-06
1	49	70.3955508222683	0.293426513671875	0.293365478515625	1.37237548828125E-06	4.02607582827841E-07	213764.734375	5.06167725689011E-06
1	50	70.4962588220141	0.303497314453125	0.303466796875	1.35406494140625E-06	4.10913742143748E-07	224115.390625	5.19896411788068E-06
1	51	70.5969668217598	0.313568115234375	0.3135986328125	1.337890625E-06	4.19560649334016E-07	234397.8125	5.33451520823292E-06
1	52	70.6976748215055	0.323638916015625	0.32366943359375	1.32293701171875E-06	4.28194283585981E-07	244659.75	5.4684983297193E-06
1	53	70.7983828212513	0.333709716796875	0.333740234375	1.30859375E-06	4.3673037453118E-07	255037.328125	5.6010062507994E-06
1	54	70.899090820997	0.343780517578125	0.34375	1.29638671875E-06	4.45632934997775E-07	265160.09375	5.73217766941525E-06
1	55	70.9997988207427	0.353851318359375	0.353851318359375	1.2847900390625E-06	4.54624625945144E-07	275415.6875	5.86215037401416E-06
1	56	71.1005068204885	0.363922119140625	0.36395263671875	1.27410888671875E-06	4.63715281284749E-07	285652.6875	5.99100121689844E-06
1	57	71.2012148202342	0.373992919921875	0.37396240234375	1.2652587890625E-06	4.73159218472574E-07	295562	6.11886844126275E-06
1	58	71.3019228199799	0.384063720703125	0.384002685546875	1.25640869140625E-06	4.82464258766413E-07	305635.1875	6.24584436081932E-06
1	59	71.4026308197257	0.394134521484375	0.3941650390625	1.25E-06	4.92706305976753E-07	315332.03125	6.37205221210024E-06
1	60	71.5033388194714	0.404205322265625	0.404205322265625	1.24359130859375E-06	5.02666239299288E-07	325030.65625	6.49761432214291E-06
1	61	71.6040468192172	0.414276123046875	0.414306640625	1.23809814453125E-06	5.12952283315826E-07	334631.5	6.62257752992446E-06
1	62	71.7047548189629	0.424346923828125	0.42431640625	1.23321533203125E-06	5.2327351340864E-07	344073.25	6.74701777825248E-06
1	63	71.8054628187086	0.434417724609375	0.434417724609375	1.2298583984375E-06	5.34272317054274E-07	353225.8125	6.8710432969965E-06
1	64	71.9061708184544	0.444488525390625	0.444427490234375	1.22711181640625E-06	5.45362183856923E-07	362173.625	6.99476186127868E-06
1	65	72.0068788182001	0.454559326171875	0.45452880859375	1.22406005859375E-06	5.56370537196926E-07	371328.84375	7.11818802301423E-06
1	66	72.1075868179458	0.464630126953125	0.464569091796875	1.2225341796875E-06	5.67951587981952E-07	380005	7.24138362784288E-06
1	67	72.2082948176916	0.474700927734375	0.474700927734375	1.22100830078125E-06	5.79613754325692E-07	388777.8125	7.36442598281428E-06
1	68	72.3090028174373	0.484771728515625	0.48468017578125	1.22039794921875E-06	5.91502725910686E-07	397149.28125	7.48736056266353E-06
1	69	72.4097108171831	0.494842529296875	0.494842529296875	1.22039794921875E-06	6.03904823037738E-07	405476.375	7.61026421969291E-06
1	70	72.5104188169288	0.504913330078125	0.5048828125	1.22039794921875E-06	6.16157933563954E-07	413703.40625	7.73316787672229E-06
1	71	72.6111268166745	0.514984130859375	0.51495361328125	1.221923828125E-06	6.29234079951857E-07	421428.59375	7.85614884080132E-06
1	72	72.7118348164203	0.525054931640625	0.5250244140625	1.2237548828125E-06	6.42501220227132E-07	429027.4375	7.97929897089489E-06
1	73	72.812542816166	0.535125732421875	0.535064697265625	1.22650146484375E-06	6.56257611808542E-07	436252.8125	8.102679203148E-06
1	74	72.9132508159117	0.545196533203125	0.545196533203125	1.23016357421875E-06	6.70680890380027E-07	443190.28125	8.22638139652554E-06
1	75	73.0139588156575	0.555267333984375	0.555267333984375	1.23565673828125E-06	6.86119790316297E-07	449370.25	8.35054561321158E-06
1	76	73.1146668154032	0.565338134765625	0.5653076171875	1.24237060546875E-06	7.0232152893368E-07	455023.34375	8.47532464831602E-06
1	77	73.2153748151489	0.575408935546875	0.575439453125	1.25091552734375E-06	7.19826118711353E-07	460014.65625	8.60087129694875E-06
1	78	73.3160828148947	0.585479736328125	0.585418701171875	1.2615966796875E-06	7.38562221158645E-07	464030.03125	8.72738655743888E-06
1	79	73.4167908146404	0.595550537109375	0.595489501953125	1.2762451171875E-06	7.59990541610023E-07	466594.96875	8.85517692950089E-06
1	80	73.5174988143862	0.605621337890625	0.605621337890625	1.295166015625E-06	7.84380119966954E-07	467601.34375	8.98465714271879E-06
1	81	73.6182068141319	0.615692138671875	0.615631103515625	1.3201904296875E-06	8.1275032925987E-07	466319.90625	9.11635106604081E-06
1	82	73.7189148138776	0.625762939453125	0.62567138671875	1.3543701171875E-06	8.47390595026809E-07	461964.875	9.25102631299524E-06
1	83	73.8196228136234	0.635833740234375	0.6357421875	1.40167236328125E-06	8.9110221779265E-07	453559.78125	9.38980338105466E-06
1	84	73.9203308133691	0.645904541015625	0.6458740234375	1.46697998046875E-06	9.47484238622565E-07	440274.625	9.53425205807434E-06
1	85	74.0210388131148	0.655975341796875	0.655853271484375	1.5557861328125E-06	1.02036733551358E-06	421557.5	9.68646054388955E-06
1	86	74.1217468128606	0.666046142578125	0.665985107421875	1.6748046875E-06	1.11539486624679E-06	397649.4375	9.84913367574336E-06
1	87	74.2224548126063	0.676116943359375	0.676055908203125	1.82525634765625E-06	1.23397524021129E-06	370389.59375	1.00253755590529E-05
1	88	74.3231628123521	0.686187744140625	0.68609619140625	2.00469970703125E-06	1.3754167866864E-06	342243.90625	1.02182293630904E-05
1	89	74.4238708120978	0.696258544921875	0.6961669921875	2.20428466796875E-06	1.53455016516091E-06	315824.46875	1.04301680039498E-05
1	90	74.5245788118435	0.706329345703125	0.706268310546875	2.40875244140625E-06	1.70122552844987E-06	293209.1875	1.06624529507826E-05
1	91	74.6252868115893	0.716400146484375	0.71630859375	2.59552001953125E-06	1.85919316209038E-06	275978.84375	1.09144384623505E-05
1	92	74.725994811335	0.726470947265625	0.726409912109375	2.7471923828125E-06	1.99558780877851E-06	264419	1.11834651761455E-05
1	93	74.8267028110807	0.736541748046875	0.7364501953125	2.85003662109375E-06	2.09890981750505E-06	258400.265625	1.14653075797833E-05
1	94	74.9274108108265	0.746612548828125	0.746429443359375	2.90252685546875E-06	2.16653143070289E-06	257165.390625	1.17549725473509E-05
1	95	75.0281188105722	0.756683349609375	0.75714111328125	2.90985107421875E-06	2.20316792365338E-06	260199.265625	1.20476488518761E-05
1	96	75.1288268103179	0.766754150390625	0.76690673828125	2.8851318359375E-06	2.21262712329917E-06	265813.40625	1.23394493130036E-05
1	97	75.2295348100637	0.776824951171875	0.77728271484375	2.840576171875E-06	2.20793072003289E-06	273635.59375	1.26277618619497E-05
1	98	75.3302428098094	0.786895751953125	0.78704833984375	2.78656005859375E-06	2.19315734284464E-06	282444.4375	1.29111103888135E-05
1	99	75.4309508095552	0.796966552734375	0.797119140625	2.73193359375E-06	2.17767660615209E-06	291778.375	1.31889892145409E-05
1	100	75.5316588093009	0.807037353515625	0.80718994140625	2.68096923828125E-06	2.16405123865115E-06	301081.40625	1.3461550224747E-05
1	101	75.6323668090466	0.817108154296875	0.8172607421875	2.637939453125E-06	2.15588420360291E-06	309810.28125	1.37293782245251E-05
1	102	75.7330748087924	0.827178955078125	0.82733154296875	2.606201171875E-06	2.15619252230681E-06	317447.3125	1.39934418257326E-05
1	103	75.8337828085381	0.837249755859375	0.83709716796875	2.58453369140625E-06	2.16350576920377E-06	323887.125	1.42548160511069E-05
1	104	75.9344908082838	0.847320556640625	0.8477783203125	2.5738525390625E-06	2.18205627788848E-06	329381.09375	1.45145613714703E-05
1	105	76.0351988080296	0.857391357421875	0.8575439453125	2.57354736328125E-06	2.20693004848727E-06	333214.75	1.47737537190551E-05
1	106	76.1359068077753	0.867462158203125	0.8673095703125	2.5811767578125E-06	2.23867914428411E-06	336013.25	1.50333144119941E-05
1	107	76.2366148075211	0.877532958984375	0.87738037109375	2.5927734375E-06	2.27484838433156E-06	338394.53125	1.52938446262851E-05
1	108	76.3373228072668	0.887603759765625	0.88714599609375	2.60284423828125E-06	2.30910291065811E-06	340837.15625	1.55554644152289E-05
1	109	76.4380308070125	0.897674560546875	0.89813232421875	2.60894775390625E-06	2.34318008551782E-06	344250.8125	1.58178991114255E-05
1	110	76.5387388067583	0.907745361328125	0.908203125	2.60833740234375E-06	2.3689001409366E-06	348192.34375	1.60806102940114E-05
1	111	76.639446806504	0.917816162109375	0.91796875	2.6031494140625E-06	2.38960979004332E-06	352637.75	1.63430286193034E-05
1	112	76.7401548062497	0.927886962890625	0.92803955078125	2.59246826171875E-06	2.40591316469363E-06	357975.28125	1.66046484082472E-05
1	113	76.8408628059955	0.937957763671875	0.93780517578125	2.58056640625E-06	2.42006854023202E-06	363410.59375	1.68651313288137E-05
1	114	76.9415708057412	0.948028564453125	0.9478759765625	2.56927490234375E-06	2.43535373556369E-06	368927.4375	1.71244464581832E-05
1	115	77.0422788054869	0.958099365234375	0.95794677734375	2.56134033203125E-06	2.45362775785907E-06	374002.15625	1.738279388519E-05
1	116	77.1429868052327	0.968170166015625	0.968017578125	2.5604248046875E-06	2.47853608925652E-06	378069.15625	1.7640695659793E-05
1	117	77.2436948049784	0.978240966796875	0.97808837890625	2.568359375E-06	2.51208234658407E-06	380822.25	1.78989503183402E-05
1	118	77.3444028047242	0.988311767578125	0.98785400390625	2.58758544921875E-06	2.55615668720566E-06	381766.71875	1.81585728569189E-05
1	119	77.4451108044699	0.998382568359375	0.99853515625	2.61993408203125E-06	2.61609625340498E-06	381129.875	1.84207929123659E-05
1	120	77.5458188042156	1.00845336914063	1.0089111328125	2.666015625E-06	2.6897726002062E-06	378434.09375	1.86869601748185E-05
1	121	77.6465268039614	1.01852416992188	1.0186767578125	2.72552490234375E-06	2.77642880064377E-06	373754.34375	1.89584461622871E-05
1	122	77.7472348037071	1.02859497070313	1.02874755859375	2.79296875E-06	2.87325974568375E-06	368334.8125	1.92363240785198E-05
1	123	77.8479428034528	1.03866577148438	1.038818359375	2.861328125E-06	2.97240012514521E-06	363054.625	1.95210413949098E-05
1	124	77.9486508031986	1.04873657226563	1.048583984375	2.921142578125E-06	3.06306333186512E-06	358963.65625	1.98122124857036E-05
1	125	78.0493588029443	1.05880737304688	1.0589599609375	2.96600341796875E-06	3.14087878905411E-06	357032.625	2.01086531887995E-05
1	126	78.15006680269	1.06887817382813	1.0693359375	2.99041748046875E-06	3.19776086143975E-06	357587.5	2.04085827135714E-05
1	127	78.2507748024358	1.07894897460938	1.0791015625	2.9949951171875E-06	3.23190374729165E-06	360301.625	2.07099728868343E-05
1	128	78.3514828021815	1.08901977539063	1.0894775390625	2.98309326171875E-06	3.25001315104601E-06	365217.375	2.10109919862589E-05
1	129	78.4521908019273	1.09909057617188	1.09893798828125	2.95989990234375E-06	3.25274640999851E-06	371275.40625	2.1310246665962E-05
1	130	78.552898801673	1.10916137695313	1.10931396484375	2.92938232421875E-06	3.24960456055123E-06	378685.3125	2.16067946894327E-05
1	131	78.6536068014187	1.11923217773438	1.1187744140625	2.89642333984375E-06	3.24044412991498E-06	386260.6875	2.19001485675108E-05
1	132	78.7543148011645	1.12930297851563	1.1297607421875	2.86285400390625E-06	3.23434005622403E-06	394627.4375	2.21901500481181E-05
1	133	78.8550228009102	1.13937377929688	1.13922119140625	2.83172607421875E-06	3.22596224577865E-06	402306.28125	2.24768955376931E-05
1	134	78.9557308006559	1.14944458007813	1.1492919921875	2.802734375E-06	3.22116011375329E-06	410060.96875	2.27606124099111E-05
1	135	79.0564388004017	1.15951538085938	1.15966796875	2.77618408203125E-06	3.219451627956E-06	417720.15625	2.30415334954159E-05
1	136	79.1571468001474	1.16958618164063	1.1700439453125	2.752685546875E-06	3.22076311931596E-06	425055.4375	2.33199352805968E-05
1	137	79.2578547998932	1.17965698242188	1.17950439453125	2.7325439453125E-06	3.22304754263314E-06	431650.6875	2.35961379075889E-05
1	138	79.3585627996389	1.18972778320313	1.18988037109375	2.71453857421875E-06	3.22997630064492E-06	438336.125	2.38704196817707E-05
1	139	79.4592707993846	1.19979858398438	1.19964599609375	2.69927978515625E-06	3.23818017022859E-06	444431.875	2.41430279857013E-05
1	140	79.5599787991304	1.20986938476563	1.20941162109375	2.68646240234375E-06	3.24903862747306E-06	450187.46875	2.4414221115876E-05
1	141	79.6606867988761	1.21994018554688	1.2200927734375	2.67608642578125E-06	3.26507347381266E-06	455924.3125	2.46842464548536E-05
1	142	79.7613947986218	1.23001098632813	1.23016357421875	2.6678466796875E-06	3.28188752973801E-06	461107.34375	2.49533350142883E-05
1	143	79.8621027983676	1.24008178710938	1.240234375	2.66143798828125E-06	3.3008068385243E-06	466001.59375	2.52216868830146E-05
1	144	79.9628107981133	1.25015258789063	1.25030517578125	2.657470703125E-06	3.32264926328207E-06	470486.9375	2.54895148827927E-05
1	145	80.063518797859	1.26022338867188	1.259765625	2.655029296875E-06	3.34471451424179E-06	474482.78125	2.57570209214464E-05
1	146	80.1642267976048	1.27029418945313	1.26983642578125	2.65411376953125E-06	3.37029041475034E-06	478440.84375	2.60243559750961E-05
1	147	80.2649347973505	1.28036499023438	1.280517578125	2.655029296875E-06	3.39981147590152E-06	482298.875	2.62916928477352E-05
1	148	80.3656427970963	1.29043579101563	1.290283203125	2.657470703125E-06	3.42888961313292E-06	485530.5625	2.65591988863889E-05
1	149	80.466350796842	1.30050659179688	1.3006591796875	2.662353515625E-06	3.46281444763008E-06	488537.40625	2.68270723609021E-05
1	150	80.5670587965877	1.31057739257813	1.31103515625	2.66876220703125E-06	3.49884089700936E-06	491252.15625	2.7095516998088E-05
1	151	80.6677667963335	1.32064819335938	1.32080078125	2.67608642578125E-06	3.53457676283142E-06	493556.875	2.73646510322578E-05
1	152	80.7684747960792	1.33071899414063	1.33056640625	2.6849365234375E-06	3.57248609361704E-06	495567.21875	2.76345999736805E-05
1	153	80.8691827958249	1.34078979492188	1.34124755859375	2.69622802734375E-06	3.61630918632727E-06	497453.3125	2.79055620922009E-05
1	154	80.9698907955707	1.35086059570313	1.35040283203125	2.708740234375E-06	3.65789037459763E-06	498535.40625	2.81777247437276E-05
1	155	81.0705987953164	1.36093139648438	1.36077880859375	2.72216796875E-06	3.70426846529881E-06	499887.90625	2.84511916106567E-05
1	156	81.1713067950622	1.37100219726563	1.370849609375	2.7362060546875E-06	3.75092690774181E-06	501003.8125	2.87260427285219E-05
1	157	81.2720147948079	1.38107299804688	1.3812255859375	2.75177001953125E-06	3.80081496587081E-06	501940.8125	2.9002385417698E-05
1	158	81.3727227945536	1.39114379882813	1.39129638671875	2.76763916015625E-06	3.8506059354404E-06	502701.53125	2.92803088086657E-05
1	159	81.4734307942994	1.40121459960938	1.4007568359375	2.78472900390625E-06	3.9007281884551E-06	503013.71875	2.95598929369589E-05
1	160	81.5741387940451	1.41128540039063	1.4117431640625	2.80242919921875E-06	3.95631013816455E-06	503756.9375	2.98412287520478E-05
1	161	81.6748467937908	1.42135620117188	1.4215087890625	2.82073974609375E-06	4.00970611735829E-06	503948.96875	3.01243780995719E-05
1	162	81.7755547935366	1.43142700195313	1.43157958984375	2.84088134765625E-06	4.06694744015113E-06	503920.9375	3.04094628518214E-05
1	163	81.8762627932823	1.44149780273438	1.441650390625	2.8619384765625E-06	4.12591452914057E-06	503732.15625	3.06966248899698E-05
1	164	81.976970793028	1.45156860351563	1.45172119140625	2.88543701171875E-06	4.18885019826121E-06	503120.0625	3.0986026104074E-05
1	165	82.0776787927738	1.46163940429688	1.4617919921875	2.91412353515625E-06	4.2598426261975E-06	501623.1875	3.12780575768556E-05
1	166	82.1783867925195	1.47171020507813	1.47186279296875	2.94921875E-06	4.34084540756885E-06	499068.71875	3.1573301384924E-05
1	167	82.2790947922653	1.48178100585938	1.4813232421875	2.99652099609375E-06	4.43881617684383E-06	494347.71875	3.18726924888324E-05
1	168	82.379802792011	1.49185180664063	1.4923095703125	3.05999755859375E-06	4.56646330349031E-06	487683.28125	3.21776606142521E-05
1	169	82.4805107917567	1.50192260742188	1.50238037109375	3.1427001953125E-06	4.72153078590054E-06	478054	3.24899920087773E-05
1	170	82.5812187915025	1.49185180664063	1.49169921875	2.88909912109375E-06	4.30966701969737E-06	516319.875	3.2793715945445E-05
1	171	82.6819267912482	1.48178100585938	1.48193359375	2.7093505859375E-06	4.01507759306696E-06	546970.0625	3.30756229232065E-05
1	172	82.7826347909939	1.47171020507813	1.47186279296875	2.57080078125E-06	3.78386584998225E-06	572530.875	3.33414973283652E-05
1	173	82.8833427907397	1.46163940429688	1.46148681640625	2.4615478515625E-06	3.59751970790967E-06	593726.75	3.35948971041944E-05
1	174	82.9840507904854	1.45156860351563	1.4520263671875	2.37213134765625E-06	3.44439717991918E-06	612118.875	3.38382924383041E-05
1	175	83.0847587902311	1.44149780273438	1.44134521484375	2.29949951171875E-06	3.31437263412226E-06	626808.1875	3.40735277859494E-05
1	176	83.1854667899769	1.43142700195313	1.43096923828125	2.23968505859375E-06	3.2049204037321E-06	638915.375	3.43020947184414E-05
1	177	83.2861747897226	1.42135620117188	1.4215087890625	2.18841552734375E-06	3.11085182147508E-06	649560.75	3.4525066439528E-05
1	178	83.3868827894684	1.41128540039063	1.4111328125	2.14508056640625E-06	3.02699345411384E-06	657846.0625	3.47432760463562E-05
1	179	83.4875907892141	1.40121459960938	1.40167236328125	2.10723876953125E-06	2.95365839519945E-06	665170.1875	3.49573965650052E-05
1	180	83.5882987889598	1.39114379882813	1.39129638671875	2.07427978515625E-06	2.88593787445279E-06	670737.0625	3.51679518644232E-05
1	181	83.6890067887056	1.38107299804688	1.38092041015625	2.044677734375E-06	2.82353721559048E-06	675373.125	3.53753603121731E-05
1	182	83.7897147884513	1.37100219726563	1.37054443359375	2.01751708984375E-06	2.76509672403336E-06	679322.3125	3.55799056706019E-05
1	183	83.890422788197	1.36093139648438	1.36077880859375	1.99371337890625E-06	2.71300291387888E-06	682534.8125	3.57818898919504E-05
1	184	83.9911307879428	1.35086059570313	1.35009765625	1.97113037109375E-06	2.66121855929669E-06	684935.75	3.5981534892926E-05
1	185	84.0918387876885	1.34078979492188	1.3409423828125	1.9500732421875E-06	2.61493596553919E-06	687636.9375	3.61789825547021E-05
1	186	84.1925467874343	1.33071899414063	1.33026123046875	1.93023681640625E-06	2.5677190933493E-06	689170	3.63743711204734E-05
1	187	84.29325478718	1.32064819335938	1.32080078125	1.91192626953125E-06	2.5252734303649E-06	690822.0625	3.65678388334345E-05
1	188	84.3939627869257	1.31057739257813	1.3104248046875	1.89422607421875E-06	2.48224068855052E-06	691799.625	3.67594948329497E-05
1	189	84.4946707866715	1.30050659179688	1.3006591796875	1.87744140625E-06	2.44191141973715E-06	692782.875	3.69494118785951E-05
1	190	84.5953787864172	1.29043579101563	1.29058837890625	1.861572265625E-06	2.40252347794012E-06	693278.75	3.71376881957985E-05
1	191	84.6960867861629	1.28036499023438	1.280517578125	1.846923828125E-06	2.36501841754944E-06	693324.5625	3.73244256479666E-05
1	192	84.7967947859087	1.27029418945313	1.2701416015625	1.832275390625E-06	2.32724914894789E-06	693204.5625	3.75096860807389E-05
1	193	84.8975027856544	1.26022338867188	1.2603759765625	1.8182373046875E-06	2.29166244025691E-06	693185.625	3.76935058739036E-05
1	194	84.9982107854001	1.25015258789063	1.25030517578125	1.8048095703125E-06	2.25656253860507E-06	692763	3.78759395971429E-05
1	195	85.0989187851459	1.24008178710938	1.240234375	1.7926025390625E-06	2.22324729293177E-06	691862.5	3.80570854758844E-05
1	196	85.1996267848916	1.23001098632813	1.2298583984375	1.77978515625E-06	2.18888362724101E-06	691015.125	3.82369689759798E-05
1	197	85.3003347846374	1.21994018554688	1.2200927734375	1.76788330078125E-06	2.15698173633427E-06	690143.25	3.84156082873233E-05
1	198	85.4010427843831	1.20986938476563	1.209716796875	1.7559814453125E-06	2.12424015444412E-06	688912.0625	3.85930470656604E-05
1	199	85.5017507841288	1.19979858398438	1.19964599609375	1.74407958984375E-06	2.09227800951339E-06	687839.0625	3.87692889489699E-05
1	200	85.6024587838746	1.18972778320313	1.18927001953125	1.73126220703125E-06	2.05893820748315E-06	686938.125	3.89442866435274E-05
1	201	85.7031667836203	1.17965698242188	1.1798095703125	1.71875E-06	2.0277975636418E-06	686434.6875	3.91180110455025E-05
1	202	85.803874783366	1.16958618164063	1.16943359375	1.705322265625E-06	1.9942610833823E-06	685755.1875	3.9290425775107E-05
1	203	85.9045827831118	1.15951538085938	1.15966796875	1.69097900390625E-06	1.96097403204476E-06	685796.8125	3.94614435208496E-05
1	204	86.0052907828575	1.14944458007813	1.14959716796875	1.67449951171875E-06	1.92499987861083E-06	686531.8125	3.96309078496415E-05
1	205	86.1059987826033	1.13937377929688	1.1395263671875	1.65557861328125E-06	1.88657543276349E-06	688294.9375	3.9798589568818E-05
1	206	86.206706782349	1.12930297851563	1.129150390625	1.634521484375E-06	1.84562054528215E-06	690814.0625	3.99642594857141E-05
1	207	86.3074147820947	1.11923217773438	1.11968994140625	1.60736083984375E-06	1.79974574621156E-06	696601.5	4.0127502870746E-05
1	208	86.4081227818405	1.10916137695313	1.1090087890625	1.57440185546875E-06	1.7460254184698E-06	704400.0625	4.02877158194315E-05
1	209	86.5088307815862	1.09909057617188	1.0992431640625	1.531982421875E-06	1.68402118561062E-06	717529.875	4.04441343562212E-05
1	210	86.6095387813319	1.08901977539063	1.0888671875	1.47796630859375E-06	1.60930903803091E-06	736733.4375	4.05956998292822E-05
1	211	86.7102467810777	1.07894897460938	1.0791015625	1.4117431640625E-06	1.52341419834556E-06	764375.3125	4.07412080676295E-05
1	212	86.8109547808234	1.06887817382813	1.0687255859375	1.3323974609375E-06	1.42396720548277E-06	802107.1875	4.08793857786804E-05
1	213	86.9116627805691	1.05880737304688	1.05926513671875	1.24114990234375E-06	1.31470676478784E-06	853454.625	4.10089742217679E-05
1	214	87.0123707803149	1.04873657226563	1.04827880859375	1.14471435546875E-06	1.19997980618791E-06	915755.8125	4.11291111959144E-05
1	215	87.1130787800606	1.03866577148438	1.03912353515625	1.0504150390625E-06	1.09151096694404E-06	989250.5	4.12396439060103E-05
1	216	87.2137867798064	1.02859497070313	1.02935791015625	9.68322753906251E-07	9.96750713966321E-07	1063031.875	4.13412963098381E-05
1	217	87.3144947795521	1.01852416992188	1.0186767578125	9.05761718750001E-07	9.22678395909315E-07	1124663.125	4.1435665480094E-05
1	218	87.4152027792978	1.00845336914063	1.0089111328125	8.65478515625E-07	8.73190913353028E-07	1165726.375	4.15248541685287E-05
1	219	87.5159107790436	0.998382568359375	0.99822998046875	8.465576171875E-07	8.45059162202233E-07	1179163.625	4.16110597143415E-05
1	220	87.6166187787893	0.988311767578125	0.98846435546875	8.4197998046875E-07	8.32267176065216E-07	1173976.125	4.16960865550209E-05
1	221	87.717326778535	0.978240966796875	0.97869873046875	8.4564208984375E-07	8.27628866773011E-07	1157343.875	4.17810661019757E-05
1	222	87.8180347782808	0.968170166015625	0.9686279296875	8.53271484375E-07	8.26502571271703E-07	1135193.125	4.18666131736245E-05
1	223	87.9187427780265	0.958099365234375	0.958251953125	8.6090087890625E-07	8.2495989772724E-07	1113080.5	4.19529278588016E-05
1	224	88.0194507777722	0.948028564453125	0.94818115234375	8.6639404296875E-07	8.2149847457913E-07	1094399.5	4.20399046561215E-05
1	225	88.120158777518	0.937957763671875	0.9381103515625	8.67919921875E-07	8.14204611288005E-07	1080872.125	4.21272343373857E-05
1	226	88.2208667772637	0.927886962890625	0.92803955078125	8.624267578125E-07	8.0036613780976E-07	1076079.25	4.22143639298156E-05
1	227	88.3215747770095	0.917816162109375	0.91827392578125	8.48388671875E-07	7.79053152655251E-07	1082374.125	4.23005076299887E-05
1	228	88.4222827767552	0.907745361328125	0.908203125	8.282470703125E-07	7.52216521959781E-07	1096536.5	4.23849342041649E-05
1	229	88.5229907765009	0.897674560546875	0.89752197265625	8.00170898437499E-07	7.18170952040964E-07	1121662.875	4.24669306084979E-05
1	230	88.6236987762467	0.887603759765625	0.8880615234375	7.6751708984375E-07	6.8160238697601E-07	1157057.75	4.2545871110633E-05
1	231	88.7244067759924	0.877532958984375	0.877685546875	7.33337402343751E-07	6.43639623376657E-07	1196837.25	4.26214464823715E-05
1	232	88.8251147757381	0.867462158203125	0.86761474609375	7.0159912109375E-07	6.08717755312682E-07	1236624.625	4.26937003794592E-05
1	233	88.9258227754839	0.857391357421875	0.85784912109375	6.7626953125E-07	5.80137225369981E-07	1268501.875	4.27630802732892E-05
1	234	89.0265307752296	0.847320556640625	0.8477783203125	6.57958984375E-07	5.57803389256151E-07	1288497.25	4.28302664658986E-05
1	235	89.1272387749754	0.837249755859375	0.83740234375	6.45751953125E-07	5.40754172106972E-07	1296786.5	4.28959137934726E-05
1	236	89.2279467747211	0.827178955078125	0.82733154296875	6.3751220703125E-07	5.27433940078481E-07	1297750.125	4.29605279350653E-05
1	237	89.3286547744668	0.817108154296875	0.8172607421875	6.304931640625E-07	5.15277292834071E-07	1296224.625	4.30243781011086E-05
1	238	89.4293627742126	0.807037353515625	0.8074951171875	6.1920166015625E-07	5.00002329317795E-07	1304090.625	4.30873042205349E-05
1	239	89.5300707739583	0.796966552734375	0.79681396484375	6.0150146484375E-07	4.79284722132434E-07	1324708.375	4.31487715104595E-05
1	240	89.630778773704	0.786895751953125	0.78704833984375	5.7098388671875E-07	4.49391933443621E-07	1378407.25	4.32078122685198E-05
1	241	89.7314867734498	0.776824951171875	0.7769775390625	5.23681640625E-07	4.0688888702789E-07	1483683	4.32629349234048E-05
1	242	89.8321947731955	0.766754150390625	0.76690673828125	4.52880859375E-07	3.47317381965695E-07	1693396.25	4.33121058449615E-05
1	243	89.9329027729412	0.756683349609375	0.7568359375	3.5369873046875E-07	2.6769188821163E-07	2139775.75	4.33527202403639E-05
1	244	90.033610772687	0.746612548828125	0.746490478515625	2.215576171875E-07	1.65390645179286E-07	3369283.75	4.33816894656047E-05
1	245	90.1343187724327	0.736541748046875	0.736480712890625	5.55419921874995E-08	4.09056077899095E-08	13259890	4.33956411143299E-05
1	246	90.2350267721785	0.726470947265625	0.726409912109375	-1.38244628906251E-07	-1.00422269611045E-07	-5254525.5	4.33914756285958E-05
1	247	90.3357347719242	0.716400146484375	0.716339111328125	-3.4759521484375E-07	-2.48996030904891E-07	-2060842.875	4.33670138590969E-05
1	248	90.4364427716699	0.706329345703125	0.706329345703125	-5.5206298828125E-07	-3.89938293210434E-07	-1279436.125	4.33217101090122E-05
1	249	90.5371507714157	0.696258544921875	0.696197509765625	-7.31201171875E-07	-5.09060441800102E-07	-952128.5625	4.32570923294406E-05
1	250	90.6378587711614	0.686187744140625	0.68609619140625	-8.6700439453125E-07	-5.94848415857996E-07	-791341.125	4.3176616600249E-05
1	251	90.7385667709071	0.676116943359375	0.676025390625	-9.50927734375E-07	-6.42851262000477E-07	-710911.4375	4.30850777775049E-05
1	252	90.8392747706529	0.666046142578125	0.666046142578125	-9.832763671875E-07	-6.54907410080341E-07	-677374.3125	4.29876818088815E-05
1	253	90.9399827703986	0.655975341796875	0.655914306640625	-9.7381591796875E-07	-6.38739777514274E-07	-673550.625	4.2889136238955E-05
1	254	91.0406907701444	0.645904541015625	0.645843505859375	-9.326171875E-07	-6.02324746523664E-07	-692506.5625	4.27931372541934E-05
1	255	91.1413987698901	0.635833740234375	0.63580322265625	-8.72802734375E-07	-5.5493080708402E-07	-728461.5625	4.2702227801783E-05
1	256	91.2421067696358	0.625762939453125	0.625701904296875	-8.026123046875E-07	-5.02196030538471E-07	-779581.75	4.26178630732466E-05
1	257	91.3428147693816	0.615692138671875	0.61566162109375	-7.3089599609375E-07	-4.49984611350374E-07	-842338.25	4.2540646973066E-05
1	258	91.4435227691273	0.605621337890625	0.605621337890625	-6.60095214843751E-07	-3.99767742464974E-07	-917475.6875	4.24706049670931E-05
1	259	91.544230768873	0.595550537109375	0.595550537109375	-5.9234619140625E-07	-3.52772076439578E-07	-1005409.625	4.24075406044722E-05
1	260	91.6449387686188	0.585479736328125	0.585479736328125	-5.2978515625E-07	-3.10178478457601E-07	-1105126.75	4.23510355176404E-05
1	261	91.7456467683645	0.575408935546875	0.575408935546875	-4.718017578125E-07	-2.71478938884684E-07	-1219599	4.23006022174377E-05
1	262	91.8463547681102	0.565338134765625	0.565338134765625	-4.1778564453125E-07	-2.36190146551962E-07	-1353177.5	4.2255807784386E-05
1	263	91.947062767856	0.555267333984375	0.555267333984375	-3.6651611328125E-07	-2.03514417762563E-07	-1514987.5	4.22163138864562E-05
1	264	92.0477707676017	0.545196533203125	0.545166015625	-3.16162109375E-07	-1.72360827832563E-07	-1724324.375	4.2181938624708E-05
1	265	92.1484787673475	0.535125732421875	0.535125732421875	-2.667236328125E-07	-1.42730669949742E-07	-2006293	4.21525874116924E-05
1	266	92.2491867670932	0.525054931640625	0.525054931640625	-2.18505859375E-07	-1.14727576772111E-07	-2402933	4.21281547460239E-05
1	267	92.3498947668389	0.514984130859375	0.514923095703125	-1.7364501953125E-07	-8.94138310059134E-08	-2965377.75	4.2108407797059E-05
1	268	92.4506027665847	0.504913330078125	0.50494384765625	-1.35498046875E-07	-6.84188989907852E-08	-3726576.75	4.20928408857435E-05
1	269	92.5513107663304	0.494842529296875	0.4947509765625	-1.02844238281249E-07	-5.08822850520119E-08	-4810683	4.20808391936589E-05
1	270	92.6520187660761	0.484771728515625	0.484832763671875	-7.41577148437506E-08	-3.59540877070685E-08	-6537860.5	4.20719261455815E-05
1	271	92.7527267658219	0.474700927734375	0.474700927734375	-4.97436523437506E-08	-2.36133566033914E-08	-9542945	4.20656870119274E-05
1	272	92.8534347655676	0.464630126953125	0.464599609375	-2.77709960937497E-08	-1.29023938200135E-08	-16729670	4.20617870986462E-05
1	273	92.9541427653133	0.454559326171875	0.454559326171875	-7.62939453125E-09	-3.46801209971659E-09	-59580004	4.20600044890307E-05
1	274	93.0548507650591	0.444488525390625	0.44451904296875	1.068115234375E-08	4.74797534621985E-09	41617144	4.20601572841406E-05
1	275	93.1555587648048	0.434417724609375	0.434478759765625	2.71606445312503E-08	1.18007230653916E-08	15996630	4.20620635850355E-05
1	276	93.2562667645506	0.424346923828125	0.42431640625	4.21142578125006E-08	1.78697696640029E-08	10075363	4.20655487687327E-05
1	277	93.3569747642963	0.414276123046875	0.414276123046875	5.55419921874995E-08	2.30097221276537E-08	7458791	4.20704673160799E-05
1	278	93.457682764042	0.404205322265625	0.404205322265625	6.83593750000003E-08	2.76312235314435E-08	5912946.5	4.2076706449734E-05
1	279	93.5583907637878	0.394134521484375	0.3941650390625	8.05664062500003E-08	3.17564605722964E-08	4892424.5	4.20842043240555E-05
1	280	93.6590987635335	0.384063720703125	0.384063720703125	9.1552734375E-08	3.51620847993672E-08	4195000	4.20928736275528E-05
1	281	93.7598067632792	0.373992919921875	0.37396240234375	1.01318359374999E-07	3.78892544006248E-08	3690964	4.21025833929889E-05
1	282	93.860514763025	0.363922119140625	0.363922119140625	1.11083984375E-07	4.04259203889978E-08	3276099	4.21132790506817E-05
1	283	93.9612227627707	0.353851318359375	0.3538818359375	1.19628906249999E-07	4.2334498573382E-08	2958163.25	4.21248987549916E-05
1	284	94.0619307625165	0.343780517578125	0.343780517578125	1.27563476562501E-07	4.38538343416894E-08	2694976.25	4.21373442804907E-05
1	285	94.1626387622622	0.333709716796875	0.333740234375	1.35192871093751E-07	4.51192967432235E-08	2468623.25	4.2150575609412E-05
1	286	94.2633467620079	0.323638916015625	0.323638916015625	1.416015625E-07	4.58277753523362E-08	2285560.25	4.2164512706222E-05
1	287	94.3640547617537	0.313568115234375	0.313629150390625	1.483154296875E-07	4.65160390206165E-08	2114609.25	4.21791119151749E-05
1	288	94.4647627614994	0.303497314453125	0.303466796875	1.53503417968751E-07	4.65831888618595E-08	1976938.5	4.21943077526521E-05
1	289	94.5654707612451	0.293426513671875	0.293426513671875	1.58081054687501E-07	4.63851712595442E-08	1856177.625	4.22099983552471E-05
1	290	94.6661787609909	0.283355712890625	0.28338623046875	1.62353515624999E-07	4.60087505871343E-08	1745488.75	4.22261327912565E-05
1	291	94.7668867607366	0.273284912109375	0.27325439453125	1.66015625E-07	4.53644979359069E-08	1645955.875	4.22426674049348E-05
1	292	94.8675947604823	0.263214111328125	0.26318359375	1.6937255859375E-07	4.45760761635938E-08	1553873.875	4.22595549025573E-05
1	293	94.9683027602281	0.253143310546875	0.253143310546875	1.72119140625E-07	4.35708074064678E-08	1470744.75	4.22767516283784E-05
1	294	95.0690107599738	0.243072509765625	0.24310302734375	1.7364501953125E-07	4.22136317013155E-08	1400000	4.22941629949491E-05
1	295	95.1697187597196	0.233001708984375	0.233001708984375	1.74865722656251E-07	4.07440126082292E-08	1332460.75	4.23117126047146E-05
1	296	95.2704267594653	0.222930908203125	0.222930908203125	1.751708984375E-07	3.90510059844473E-08	1272648.125	4.23293386120349E-05
1	297	95.371134759211	0.212860107421875	0.212890625	1.739501953125E-07	3.70323647302939E-08	1223859.75	4.23469173256308E-05
1	298	95.4718427589568	0.202789306640625	0.20281982421875	1.71508789062499E-07	3.47853834625766E-08	1182562.25	4.23643105023075E-05
1	299	95.5725507587025	0.192718505859375	0.1927490234375	1.6754150390625E-07	3.22934603502745E-08	1150455.375	4.23813835368492E-05
1	300	95.6732587584482	0.182647705078125	0.182647705078125	1.6021728515625E-07	2.92633188792024E-08	1140000	4.23978890466969E-05
1	301	95.773966758194	0.172576904296875	0.172515869140625	1.50146484374999E-07	2.59026506910232E-08	1148983.75	4.24135178036522E-05
1	302	95.8746747579397	0.162506103515625	0.16259765625	1.3427734375E-07	2.18331805967864E-08	1210909.125	4.24278368882369E-05
1	303	95.9753827576855	0.152435302734375	0.1524658203125	1.116943359375E-07	1.70295688661781E-08	1365027.375	4.24402242060751E-05
1	304	96.0760907574312	0.142364501953125	0.14239501953125	7.9345703125E-08	1.12984333000554E-08	1794615.375	4.2449843022041E-05
1	305	96.1767987571769	0.132293701171875	0.13238525390625	3.32641601562503E-08	4.40368408405334E-09	3979816.75	4.24555146310013E-05
1	306	96.2775067569227	0.122222900390625	0.122283935546875	-3.35693359375E-08	-4.10499056968661E-09	-3642727.25	4.24555000790861E-05
1	307	96.3782147566684	0.112152099609375	0.112213134765625	-1.25732421874999E-07	-1.41088278837742E-08	-892475.8125	4.24474783358164E-05
1	308	96.4789227564141	0.102081298828125	0.102142333984375	-2.49633789062501E-07	-2.54981777914054E-08	-409168.71875	4.24285753979348E-05
1	309	96.5796307561599	0.092010498046875	0.092041015625	-4.1351318359375E-07	-3.80601719029983E-08	-222583.03125	4.23951823904645E-05
1	310	96.6803387559056	0.081939697265625	0.08203125	-6.2103271484375E-07	-5.09440880591683E-08	-132088.453125	4.23430901719257E-05
1	311	96.7810467556513	0.071868896484375	0.071929931640625	-8.697509765625E-07	-6.25611278337601E-08	-82701.7578125	4.22680241172202E-05
1	312	96.8817547553971	0.061798095703125	0.061859130859375	-1.14715576171875E-06	-7.09620593397631E-08	-53923.9140625	4.21664626628626E-05
1	313	96.9824627551428	0.051727294921875	0.0517578125	-1.43310546875E-06	-7.41744017318524E-08	-36115.84375	4.20365395257249E-05
1	314	97.0831707548886	0.041656494140625	0.041766357421875	-1.69830322265625E-06	-7.09319394331942E-08	-24592.9921875	4.18788586102892E-05
1	315	97.1838787546343	0.031585693359375	0.0316680908203125	-1.91558837890625E-06	-6.06630266020147E-08	-16531.78125	4.16968832723796E-05
1	316	97.28458675438	0.021514892578125	0.0216033935546875	-2.0660400390625E-06	-4.46334773585022E-08	-10456.42578125	4.14963942603208E-05
1	317	97.3852947541258	0.011444091796875	0.01153564453125	-2.14080810546875E-06	-2.46956002314391E-08	-5388.45361328125	4.12845620303415E-05
1	318	97.4860027538715	0.001373291015625	0.0014678955078125	-2.149658203125E-06	-3.15547366014357E-09	-682.8505859375	4.10685206588823E-05
1	319	97.5867107536172	-0.008697509765625	-0.0086029052734375	-2.109375E-06	1.81467516569001E-08	4078.41430664063	4.08540618082043E-05
1	320	97.687418753363	-0.018768310546875	-0.018634033203125	-2.03765869140625E-06	3.79697944197233E-08	9144.826171875	4.06452418246772E-05
1	321	97.7881267531087	-0.028839111328125	-0.0286773681640625	-1.95098876953125E-06	5.5949222144136E-08	14698.890625	4.04443962906953E-05
1	322	97.8888347528545	-0.038909912109375	-0.0387725830078125	-1.8585205078125E-06	7.20596418091191E-08	20862.068359375	4.0252572944155E-05
1	323	97.9895427526002	-0.048980712890625	-0.048828125	-1.768798828125E-06	8.63671303363844E-08	27605.244140625	4.00699245801661E-05
1	324	98.0902507523459	-0.059051513671875	-0.058990478515625	-1.6851806640625E-06	9.94096112094667E-08	35005.43359375	3.98960000893567E-05
1	325	98.1909587520917	-0.069122314453125	-0.069061279296875	-1.607666015625E-06	1.11027468108205E-07	42957.48046875	3.97301919292659E-05
1	326	98.2916667518374	-0.079193115234375	-0.07916259765625	-1.5386962890625E-06	1.21807190112122E-07	51447.83984375	3.95717615901958E-05
1	327	98.3923747515831	-0.089263916015625	-0.08917236328125	-1.47796630859375E-06	1.31793740365538E-07	60334.50390625	3.94198614230845E-05
1	328	98.4930827513289	-0.099334716796875	-0.099273681640625	-1.4239501953125E-06	1.41360771976906E-07	69717.1015625	3.92737383663189E-05
1	329	98.5937907510746	-0.109405517578125	-0.109283447265625	-1.37725830078125E-06	1.50511539231957E-07	79348.546875	3.91326866520103E-05
1	330	98.6944987508203	-0.119476318359375	-0.119354248046875	-1.33636474609375E-06	1.59500800123169E-07	89312.6328125	3.89960441680159E-05
1	331	98.7952067505661	-0.129547119140625	-0.12945556640625	-1.30035400390625E-06	1.68338047501493E-07	99554.1015625	3.88632724934723E-05
1	332	98.8959147503118	-0.139617919921875	-0.13946533203125	-1.268310546875E-06	1.76885336600208E-07	109961.5078125	3.87339314329438E-05
1	333	98.9966227500576	-0.149688720703125	-0.14959716796875	-1.24053955078125E-06	1.8558120018497E-07	120590.40625	3.86076026188675E-05
1	334	99.0973307498033	-0.159759521484375	-0.159637451171875	-1.21612548828125E-06	1.94139175846431E-07	131267.25	3.84838967875112E-05
1	335	99.198038749549	-0.169830322265625	-0.169708251953125	-1.19537353515625E-06	2.02864754328402E-07	141970.890625	3.83624683308881E-05
1	336	99.2987467492948	-0.179901123046875	-0.17974853515625	-1.1767578125E-06	2.11520486459449E-07	152748.96875	3.82430225727148E-05
1	337	99.3994547490405	-0.189971923828125	-0.189788818359375	-1.16058349609375E-06	2.20265761186056E-07	163528.796875	3.81253303203266E-05
1	338	99.5001627487862	-0.200042724609375	-0.1998291015625	-1.148681640625E-06	2.29540006557727E-07	173963.875	3.80090459657367E-05
1	339	99.600870748532	-0.189971923828125	-0.1898193359375	-1.00799560546875E-06	1.91337051091978E-07	188313.65625	3.79004486603662E-05
2	340	99.7015787482777	-0.179901123046875	-0.1796875	-9.11560058593749E-07	1.63795945695711E-07	197120.859375	3.78037948394194E-05
2	341	99.8022867480234	-0.169830322265625	-0.169677734375	-8.349609375E-07	1.41674277642778E-07	203216.375	3.77158503397368E-05
2	342	99.9029947477692	-0.159759521484375	-0.15960693359375	-7.7056884765625E-07	1.2298812634981E-07	207128.71875	3.76350035367068E-05
2	343	100.003702747515	-0.149688720703125	-0.149566650390625	-7.13500976562501E-07	1.06715951631031E-07	209623.609375	3.75602758140303E-05
2	344	100.104410747261	-0.139617919921875	-0.139556884765625	-6.62841796874999E-07	9.25041376831359E-08	210543.28125	3.74909723177552E-05
2	345	100.205118747006	-0.129547119140625	-0.12945556640625	-6.170654296875E-07	7.98825539050085E-08	209792.28125	3.74265218852088E-05
2	346	100.305826746752	-0.119476318359375	-0.119354248046875	-5.74951171875E-07	6.86228673885125E-08	207590.234375	3.73664988728706E-05
2	347	100.406534746498	-0.109405517578125	-0.10931396484375	-5.34973144531251E-07	5.84800332603663E-08	204335.421875	3.73106086044572E-05
2	348	100.507242746244	-0.099334716796875	-0.0992431640625	-4.96520996093749E-07	4.92763163606469E-08	199877.0625	3.72586691810284E-05
2	349	100.607950745989	-0.089263916015625	-0.0892333984375	-4.58679199218751E-07	4.09295033421131E-08	194544.25	3.72105714632198E-05
2	350	100.708658745735	-0.079193115234375	-0.079132080078125	-4.1961669921875E-07	3.32051435236735E-08	188581.8125	3.71663481928408E-05
2	351	100.809366745481	-0.069122314453125	-0.06903076171875	-3.7872314453125E-07	2.61435477710847E-08	182272.359375	3.71261485270225E-05
2	352	100.910074745227	-0.059051513671875	-0.05902099609375	-3.3294677734375E-07	1.96508498362391E-08	177268.5625	3.70903107977938E-05
2	353	101.010782744972	-0.048980712890625	-0.048809814453125	-2.789306640625E-07	1.36145539286758E-08	174989.0625	3.70595007552765E-05
2	354	101.111490744718	-0.038909912109375	-0.0387847900390625	-2.13012695312501E-07	8.26165269529611E-09	182077.375	3.7034729757579E-05
2	355	101.212198744464	-0.028839111328125	-0.0287078857421875	-1.312255859375E-07	3.76720876715808E-09	218767.46875	3.70173947885633E-05
2	356	101.312906744209	-0.018768310546875	-0.01865234375	-2.56347656250003E-08	4.78148465266059E-10	727619.0625	3.70094967365731E-05
2	357	101.413614743955	-0.008697509765625	-0.0085906982421875	1.11999511718749E-07	-9.62154023120831E-10	-76703	3.70138477592263E-05
2	358	101.514322743701	0.001373291015625	0.0014984130859375	2.8717041015625E-07	4.3029985130616E-10	5217.853515625	3.70339475921355E-05
2	359	101.615030743447	0.011444091796875	0.011517333984375	5.0537109375E-07	5.82052717135184E-09	22789.85546875	3.70738525816705E-05
2	360	101.715738743192	0.021514892578125	0.02161865234375	7.6416015625E-07	1.65201132773518E-08	28290.736328125	3.71377791452687E-05
2	361	101.816446742938	0.031585693359375	0.0316650390625	1.053466796875E-06	3.33580665312638E-08	30057.9375	3.72293034160975E-05
2	362	101.917154742684	0.041656494140625	0.0417388916015625	1.35467529296875E-06	5.65426425680471E-08	30810.9921875	3.73505645256955E-05
2	363	102.01786274243	0.051727294921875	0.051788330078125	1.6375732421875E-06	8.48071834980146E-08	31625.046875	3.750123505597E-05
2	364	102.118570742175	0.061798095703125	0.0618896484375	1.87469482421875E-06	1.16024203578036E-07	33013.1875	3.7678091757698E-05
2	365	102.219278741921	0.071868896484375	0.07183837890625	2.0452880859375E-06	1.4693017647005E-07	35123.84375	3.78754775738344E-05
2	366	102.319986741667	0.081939697265625	0.082000732421875	2.1417236328125E-06	1.75622901110728E-07	38287.26171875	3.80863129976206E-05
2	367	102.420694741413	0.092010498046875	0.09210205078125	2.17071533203125E-06	1.99927328026206E-07	42429.35546875	3.83034603146371E-05
2	368	102.521402741158	0.102081298828125	0.102142333984375	2.14752197265625E-06	2.19352898511715E-07	47562.8828125	3.85209023079369E-05
2	369	102.622110740904	0.112152099609375	0.1121826171875	2.0904541015625E-06	2.34512597785397E-07	53664.234375	3.87342988688033E-05
2	370	102.72281874065	0.122222900390625	0.122283935546875	2.01446533203125E-06	2.46336753662035E-07	60702.92578125	3.89409979106858E-05
2	371	102.823526740396	0.132293701171875	0.132354736328125	1.93145751953125E-06	2.55637559121169E-07	68525.8359375	3.91396933991928E-05
2	372	102.924234740141	0.142364501953125	0.14239501953125	1.84906005859375E-06	2.63296925595569E-07	77009.40625	3.93300579162315E-05
2	373	103.024942739887	0.152435302734375	0.152435302734375	1.771240234375E-06	2.69999532065412E-07	86061.34375	3.9512353396276E-05
2	374	103.125650739633	0.162506103515625	0.162567138671875	1.69952392578125E-06	2.76286726830222E-07	95654.5234375	3.96871182601899E-05
2	375	103.226358739378	0.172576904296875	0.17254638671875	1.63604736328125E-06	2.8229405302227E-07	105465.40625	3.98550801037345E-05
2	376	103.327066739124	0.182647705078125	0.182647705078125	1.57867431640625E-06	2.88341226450939E-07	115696.890625	4.00169519707561E-05
2	377	103.42777473887	0.192718505859375	0.1927490234375	1.52862548828125E-06	2.94641068876444E-07	126093.03125	4.01734178012703E-05
2	378	103.528482738616	0.202789306640625	0.202850341796875	1.48406982421875E-06	3.01044053685473E-07	136685.171875	4.03251178795472E-05
2	379	103.629190738361	0.212860107421875	0.212890625	1.44439697265625E-06	3.07498567053699E-07	147390.65625	4.04725797125138E-05
2	380	103.729898738107	0.222930908203125	0.22296142578125	1.41021728515625E-06	3.14424056568896E-07	158104.3125	4.06163198931608E-05
2	381	103.830606737853	0.233001708984375	0.2330322265625	1.3787841796875E-06	3.21301143912933E-07	169012.84375	4.0756756789051E-05
2	382	103.931314737599	0.243072509765625	0.243072509765625	1.351318359375E-06	3.28468331645126E-07	179878.046875	4.08942287322134E-05
2	383	104.032022737344	0.253143310546875	0.253143310546875	1.32720947265625E-06	3.35974192466892E-07	190733.5	4.10291031585075E-05
2	384	104.13273073709	0.263214111328125	0.26324462890625	1.30462646484375E-06	3.43435885952204E-07	201777.796875	4.11616274504922E-05
2	385	104.233438736836	0.273284912109375	0.273284912109375	1.28509521484375E-06	3.51197144254911E-07	212657.328125	4.12920308008324E-05
2	386	104.334146736582	0.283355712890625	0.28338623046875	1.26739501953125E-06	3.59162271479363E-07	223597.40625	4.1420560592087E-05
2	387	104.434854736327	0.293426513671875	0.293426513671875	1.25152587890625E-06	3.67230882147851E-07	234455.015625	4.15473950852174E-05
2	388	104.535562736073	0.303497314453125	0.303466796875	1.2371826171875E-06	3.75443846678536E-07	245288.609375	4.16727125411853E-05
2	389	104.636270735819	0.313568115234375	0.31365966796875	1.224365234375E-06	3.84033967293362E-07	256181.46875	4.17966621171217E-05
2	390	104.736978735565	0.323638916015625	0.323638916015625	1.212158203125E-06	3.92301558349573E-07	266993.96875	4.19193493144121E-05
2	391	104.83768673531	0.333709716796875	0.333709716796875	1.202392578125E-06	4.01250076720316E-07	277538.0625	4.20409342041239E-05
2	392	104.938394735056	0.343780517578125	0.343719482421875	1.192626953125E-06	4.09929100442241E-07	288203.6875	4.2161533201579E-05
2	393	105.039102734802	0.353851318359375	0.353851318359375	1.18499755859375E-06	4.19312925714621E-07	298609.34375	4.22812554461416E-05
2	394	105.139810734547	0.363922119140625	0.36395263671875	1.1773681640625E-06	4.28506240268689E-07	309123.90625	4.24002100771759E-05
2	395	105.240518734293	0.373992919921875	0.3740234375	1.17156982421875E-06	4.38194575735906E-07	319249.8125	4.2518488044152E-05
2	396	105.341226734039	0.384063720703125	0.384124755859375	1.1663818359375E-06	4.48036132638663E-07	329330.1875	4.26362130383495E-05
2	397	105.441934733785	0.394134521484375	0.39410400390625	1.16180419921875E-06	4.5787169256073E-07	339217.21875	4.27534469054081E-05
2	398	105.54264273353	0.404205322265625	0.40423583984375	1.158447265625E-06	4.68285918486799E-07	348946.25	4.28702805947978E-05
2	399	105.643350733276	0.414276123046875	0.414276123046875	1.15570068359375E-06	4.78779156765086E-07	358463.1875	4.2986805055989E-05
2	400	105.744058733022	0.424346923828125	0.424285888671875	1.1541748046875E-06	4.89700084926881E-07	367609.71875	4.31031185144093E-05
2	401	105.844766732768	0.434417724609375	0.43438720703125	1.15264892578125E-06	5.00695932714734E-07	376859.9375	4.32192755397409E-05
2	402	105.945474732513	0.444488525390625	0.44451904296875	1.15203857421875E-06	5.12103042638046E-07	385854.3125	4.33353270636871E-05
2	403	106.046182732259	0.454559326171875	0.454559326171875	1.15234375E-06	5.23808580510376E-07	394465.03125	4.34513603977393E-05
2	404	106.146890732005	0.464630126953125	0.464630126953125	1.15234375E-06	5.35413619218161E-07	403204.4375	4.35674119216856E-05
2	405	106.247598731751	0.474700927734375	0.474639892578125	1.153564453125E-06	5.47527690741845E-07	411455.03125	4.36835216532927E-05
2	406	106.348306731496	0.484771728515625	0.484832763671875	1.15478515625E-06	5.598776624538E-07	419846.75	4.37997587141581E-05
2	407	106.449014731242	0.494842529296875	0.494842529296875	1.15692138671875E-06	5.724938887397E-07	427723.5625	4.39161631220486E-05
2	408	106.549722730988	0.504913330078125	0.50494384765625	1.1602783203125E-06	5.85875397973723E-07	435192	4.40328403783496E-05
2	409	106.650430730734	0.514984130859375	0.514984130859375	1.16455078125E-06	5.99725183292321E-07	442216.96875	4.41499068983831E-05
2	410	106.751138730479	0.525054931640625	0.525054931640625	1.16912841796875E-06	6.13856627751375E-07	449099.46875	4.42674172518309E-05
2	411	106.851846730225	0.535125732421875	0.53515625	1.17462158203125E-06	6.28606017016864E-07	455598.875	4.4385433284333E-05
2	412	106.952554729971	0.545196533203125	0.545196533203125	1.181640625E-06	6.44226361146139E-07	461389.46875	4.45040823251475E-05
2	413	107.053262729716	0.555267333984375	0.55523681640625	1.18988037109375E-06	6.60665364193846E-07	466632.5	4.46234953415114E-05
2	414	107.153970729462	0.565338134765625	0.56536865234375	1.2005615234375E-06	6.78759874972457E-07	470920.1875	4.47438651463017E-05
2	415	107.254678729208	0.575408935546875	0.575408935546875	1.21337890625E-06	6.981890123825E-07	474220.34375	4.48654172942042E-05
2	416	107.355386728954	0.585479736328125	0.58538818359375	1.229248046875E-06	7.195872626653E-07	476216.5	4.49884137196932E-05
2	417	107.456094728699	0.595550537109375	0.5955810546875	1.25E-06	7.44476324143761E-07	476464.84375	4.51132509624586E-05
2	418	107.556802728445	0.605621337890625	0.605499267578125	1.27655029296875E-06	7.72950272676098E-07	474324.65625	4.52404747193214E-05
2	419	107.657510728191	0.615692138671875	0.615692138671875	1.3116455078125E-06	8.07569847438572E-07	469404.375	4.53708016721066E-05
2	420	107.758218727937	0.625762939453125	0.625701904296875	1.358642578125E-06	8.50105209337926E-07	460534.625	4.55052613688167E-05
2	421	107.858926727682	0.635833740234375	0.635772705078125	1.4215087890625E-06	9.03756472325767E-07	447252.0625	4.56452507933136E-05
2	422	107.959634727428	0.645904541015625	0.6458740234375	1.50482177734375E-06	9.71925260273565E-07	429203	4.57926034869161E-05
2	423	108.060342727174	0.655975341796875	0.655975341796875	1.6156005859375E-06	1.05979415820912E-06	406025.6875	4.59497277915943E-05
2	424	108.16105072692	0.666046142578125	0.665985107421875	1.75567626953125E-06	1.16925423299108E-06	379332.53125	4.61194867966697E-05
2	425	108.261758726665	0.676116943359375	0.676055908203125	1.925048828125E-06	1.30144053400727E-06	351188.96875	4.63048272649758E-05
2	426	108.362466726411	0.686187744140625	0.6861572265625	2.11700439453125E-06	1.4525978713209E-06	324117.03125	4.65083612652961E-05
2	427	108.463174726157	0.696258544921875	0.696197509765625	2.31903076171875E-06	1.61450338964642E-06	300210.5625	4.67317331640515E-05
2	428	108.563882725903	0.706329345703125	0.706268310546875	2.51556396484375E-06	1.77666311174107E-06	280759.4375	4.69751721539069E-05
2	429	108.664590725648	0.716400146484375	0.716339111328125	2.6873779296875E-06	1.92507400242903E-06	266556.90625	4.72371611976996E-05
2	430	108.765298725394	0.726470947265625	0.726348876953125	2.8173828125E-06	2.04640264200862E-06	257809.8125	4.75143497169483E-05
2	431	108.86600672514	0.736541748046875	0.736419677734375	2.89947509765625E-06	2.13523048842035E-06	253983.796875	4.78022157039959E-05
2	432	108.966714724885	0.746612548828125	0.746551513671875	2.935791015625E-06	2.19171920434746E-06	254293.140625	4.80960443383083E-05
2	433	109.067422724631	0.756683349609375	0.7568359375	2.93426513671875E-06	2.22075732381199E-06	257930.328125	4.83916264784057E-05
2	434	109.168130724377	0.766754150390625	0.76690673828125	2.9071044921875E-06	2.22947778638627E-06	263804.34375	4.86857607029378E-05
2	435	109.268838724123	0.776824951171875	0.77667236328125	2.86590576171875E-06	2.22586982090434E-06	271004.15625	4.89764570374973E-05
2	436	109.369546723868	0.786895751953125	0.78704833984375	2.81890869140625E-06	2.21861728277872E-06	279203.21875	4.92627077619545E-05
2	437	109.470254723614	0.796966552734375	0.79681396484375	2.7734375E-06	2.20991364585643E-06	287301.9375	4.95443055115175E-05
2	438	109.57096272336	0.807037353515625	0.80718994140625	2.73284912109375E-06	2.20592824007326E-06	295365.71875	4.98215704283211E-05
2	439	109.671670723106	0.817108154296875	0.816650390625	2.69805908203125E-06	2.20337096834555E-06	302680.6875	5.00950372952502E-05
2	440	109.772378722851	0.827178955078125	0.82763671875	2.67120361328125E-06	2.21078607864911E-06	309836.65625	5.03654009662569E-05
2	441	109.873086722597	0.837249755859375	0.83740234375	2.6513671875E-06	2.2202609670785E-06	315837.9375	5.06334145029541E-05
2	442	109.973794722343	0.847320556640625	0.84716796875	2.63885498046875E-06	2.23555343836779E-06	321036.1875	5.08997982251458E-05
2	443	110.074502722089	0.857391357421875	0.8575439453125	2.6324462890625E-06	2.25743838200287E-06	325759.34375	5.116522879689E-05
2	444	110.175210721834	0.867462158203125	0.86700439453125	2.62908935546875E-06	2.27943201025482E-06	329773.65625	5.14301682414953E-05
2	445	110.27591872158	0.877532958984375	0.877685546875	2.62725830078125E-06	2.30590649152873E-06	334069	5.16948457516264E-05
2	446	110.376626721326	0.887603759765625	0.88836669921875	2.6251220703125E-06	2.33207106248301E-06	338409.65625	5.19593231729232E-05
2	447	110.477334721072	0.897674560546875	0.8978271484375	2.620849609375E-06	2.35306993090489E-06	342571.03125	5.22234804520849E-05
2	448	110.578042720817	0.907745361328125	0.90789794921875	2.6141357421875E-06	2.37336826103274E-06	347303.3125	5.24870811204892E-05
2	449	110.678750720563	0.917816162109375	0.9173583984375	2.6055908203125E-06	2.39026053350244E-06	352073.09375	5.27499178133439E-05
2	450	110.779458720309	0.927886962890625	0.92803955078125	2.59674072265625E-06	2.40987810684601E-06	357386.3125	5.30118741153274E-05
2	451	110.880166720054	0.937957763671875	0.9381103515625	2.58819580078125E-06	2.42801320382569E-06	362457.28125	5.32729573023971E-05
2	452	110.9808747198	0.948028564453125	0.9478759765625	2.5836181640625E-06	2.44894954448682E-06	366879.28125	5.3533378377324E-05
2	453	111.081582719546	0.958099365234375	0.95794677734375	2.58331298828125E-06	2.4746761937422E-06	370821.0625	5.37935557076707E-05
2	454	111.182290719292	0.968170166015625	0.968017578125	2.591552734375E-06	2.50866855822096E-06	373528.03125	5.40541295777075E-05
2	455	111.282998719037	0.978240966796875	0.9783935546875	2.60894775390625E-06	2.55257759818051E-06	375014.625	5.43159949302208E-05
2	456	111.383706718783	0.988311767578125	0.98876953125	2.63824462890625E-06	2.60861588685657E-06	374783.125	5.45802140550222E-05
2	457	111.484414718529	0.998382568359375	0.99853515625	2.68035888671875E-06	2.67643258666794E-06	372537.84375	5.48480238649063E-05
2	458	111.585122718275	1.00845336914063	1.00860595703125	2.73468017578125E-06	2.75821457762504E-06	368820.46875	5.51206940144766E-05
2	459	111.68583071802	1.01852416992188	1.0186767578125	2.79876708984375E-06	2.85103897113004E-06	363973.375	5.53993268113118E-05
2	460	111.786538717766	1.02859497070313	1.02874755859375	2.86651611328125E-06	2.94892151941895E-06	358884.28125	5.56845952814911E-05
2	461	111.887246717512	1.03866577148438	1.0382080078125	2.930908203125E-06	3.04289233099553E-06	354227.40625	5.59765176149085E-05
2	462	111.987954717258	1.04873657226563	1.04827880859375	2.98309326171875E-06	3.1271133593691E-06	351406.65625	5.62743116461206E-05
2	463	112.088662717003	1.05880737304688	1.05865478515625	3.0181884765625E-06	3.19521950586932E-06	350758.34375	5.65765003557317E-05
2	464	112.189370716749	1.06887817382813	1.06842041015625	3.03375244140625E-06	3.24132292917056E-06	352177.84375	5.68812392884865E-05
2	465	112.290078716495	1.07894897460938	1.0791015625	3.03070068359375E-06	3.27043380821124E-06	356056.8125	5.71866112295538E-05
2	466	112.390786716241	1.08901977539063	1.0888671875	3.01361083984375E-06	3.28142186845071E-06	361316.46875	5.74909645365551E-05
2	467	112.491494715986	1.09909057617188	1.09893798828125	2.98675537109375E-06	3.28225883095001E-06	367937.0625	5.77931059524417E-05
2	468	112.592202715732	1.10916137695313	1.1090087890625	2.9547119140625E-06	3.27680140799202E-06	375335.6875	5.80922824156005E-05
2	469	112.692910715478	1.11923217773438	1.119384765625	2.92083740234375E-06	3.2695406844141E-06	383241.0625	5.83881410420872E-05
2	470	112.793618715223	1.12930297851563	1.129150390625	2.886962890625E-06	3.25981523019436E-06	391120.5	5.86805872444529E-05
2	471	112.894326714969	1.13937377929688	1.138916015625	2.85430908203125E-06	3.25081828123075E-06	399016.375	5.89696828683373E-05
2	472	112.995034714715	1.14944458007813	1.1492919921875	2.82440185546875E-06	3.2460623060615E-06	406915.21875	5.92556280025747E-05
2	473	113.095742714461	1.15951538085938	1.15936279296875	2.79693603515625E-06	3.2426632969873E-06	414511.75	5.95386845816392E-05
2	474	113.196450714206	1.16958618164063	1.16973876953125	2.77099609375E-06	3.24134134643828E-06	422136.59375	5.98190526943654E-05
2	475	113.297158713952	1.17965698242188	1.18011474609375	2.7484130859375E-06	3.24344273394672E-06	429380.4375	6.0096979723312E-05
2	476	113.397866713698	1.18972778320313	1.18988037109375	2.72796630859375E-06	3.24595339407097E-06	436178.5625	6.03727348789107E-05
2	477	113.498574713444	1.19979858398438	1.199951171875	2.70904541015625E-06	3.25072210216604E-06	442942.46875	6.06465109740384E-05
2	478	113.599282713189	1.20986938476563	1.2091064453125	2.6922607421875E-06	3.2552297852817E-06	449104.5	6.09184899076354E-05
2	479	113.699990712935	1.21994018554688	1.219482421875	2.6776123046875E-06	3.26530107486178E-06	455436.53125	6.11888826824725E-05
2	480	113.800698712681	1.23001098632813	1.2298583984375	2.664794921875E-06	3.27732050209306E-06	461520.84375	6.14578966633417E-05
2	481	113.901406712427	1.24008178710938	1.2408447265625	2.65380859375E-06	3.29296426571091E-06	467571.3125	6.17257101112045E-05
2	482	114.002114712172	1.25015258789063	1.25	2.64404296875E-06	3.30505372403422E-06	472760.84375	6.1992475821171E-05
2	483	114.102822711918	1.26022338867188	1.26068115234375	2.63641357421875E-06	3.3236767649214E-06	478180.375	6.22583684162237E-05
2	484	114.203530711664	1.27029418945313	1.2701416015625	2.63092041015625E-06	3.3416413316445E-06	482774.625	6.25235988991335E-05
2	485	114.30423871141	1.28036499023438	1.28021240234375	2.626953125E-06	3.36305788550817E-06	487337.375	6.27883564447984E-05
2	486	114.404946711155	1.29043579101563	1.290283203125	2.62542724609375E-06	3.38754466611135E-06	491456.46875	6.30528302281164E-05
2	487	114.505654710901	1.30050659179688	1.3006591796875	2.62451171875E-06	3.41359509548056E-06	495581.40625	6.33171875961125E-05
2	488	114.606362710647	1.31057739257813	1.31103515625	2.62603759765625E-06	3.44282739206392E-06	499244.65625	6.35815740679391E-05
2	489	114.707070710392	1.32064819335938	1.3201904296875	2.62969970703125E-06	3.47170430359256E-06	502030.90625	6.38462224742398E-05
2	490	114.807778710138	1.33071899414063	1.3299560546875	2.6361083984375E-06	3.50590812558949E-06	504514.9375	6.41113729216158E-05
2	491	114.908486709884	1.34078979492188	1.3409423828125	2.6434326171875E-06	3.54469057128881E-06	507273.1875	6.43772218609229E-05
2	492	115.00919470963	1.35086059570313	1.3507080078125	2.65350341796875E-06	3.58410807166365E-06	509028.1875	6.46439439151436E-05
2	493	115.109902709375	1.36093139648438	1.361083984375	2.6654052734375E-06	3.6278402149037E-06	510648.0625	6.49117719149217E-05
2	494	115.210610709121	1.37100219726563	1.370849609375	2.67852783203125E-06	3.67185884897481E-06	511792.1875	6.5180858655367E-05
2	495	115.311318708867	1.38107299804688	1.38092041015625	2.69287109375E-06	3.7186405279499E-06	512806	6.54513351037167E-05
2	496	115.412026708613	1.39114379882813	1.39129638671875	2.708740234375E-06	3.76866023543698E-06	513632.28125	6.57233249512501E-05
2	497	115.512734708358	1.40121459960938	1.40106201171875	2.72613525390625E-06	3.81948439098778E-06	513937.125	6.59969955449924E-05
2	498	115.613442708104	1.41128540039063	1.41143798828125	2.74566650390625E-06	3.87533782486571E-06	514060.25	6.62725215079263E-05
2	499	115.71415070785	1.42135620117188	1.42120361328125	2.76641845703125E-06	3.93164373235777E-06	513734.15625	6.65500774630345E-05
2	500	115.814858707596	1.43142700195313	1.43157958984375	2.789306640625E-06	3.99311420551385E-06	513238.53125	6.68298307573423E-05
2	501	115.915566707341	1.44149780273438	1.4410400390625	2.8131103515625E-06	4.05380478696316E-06	512258.625	6.71119341859594E-05
2	502	116.016274707087	1.45156860351563	1.451416015625	2.83935546875E-06	4.12108602176886E-06	511178	6.7396555095911E-05
2	503	116.116982706833	1.46163940429688	1.46148681640625	2.86712646484375E-06	4.19026719100657E-06	509739.25	6.76838972140104E-05
2	504	116.217690706579	1.47171020507813	1.4715576171875	2.89947509765625E-06	4.2667443267419E-06	507525.53125	6.79742734064348E-05
2	505	116.318398706324	1.48178100585938	1.48162841796875	2.9376220703125E-06	4.352464202384E-06	504363.1875	6.82681929902174E-05
2	506	116.41910670607	1.49185180664063	1.49200439453125	2.98614501953125E-06	4.45534124082769E-06	499642.34375	6.85664781485684E-05
2	507	116.519814705816	1.50192260742188	1.5020751953125	3.05084228515625E-06	4.5825945562683E-06	492347.71875	6.8870467657689E-05
2	508	116.620522705561	1.49185180664063	1.49200439453125	2.81341552734375E-06	4.19762818637537E-06	530317.8125	6.9165755121503E-05
2	509	116.721230705307	1.48178100585938	1.48193359375	2.647705078125E-06	3.92372294300003E-06	559704.9375	6.94407426635735E-05
2	510	116.821938705053	1.47171020507813	1.47186279296875	2.52197265625E-06	3.71199780602183E-06	583615.6875	6.97010545991361E-05
2	511	116.922646704799	1.46163940429688	1.46148681640625	2.421875E-06	3.53953851117694E-06	603452.625	6.99500014889054E-05
2	512	117.023354704544	1.45156860351563	1.451416015625	2.34130859375E-06	3.39821281158947E-06	619916.5625	7.01898461556993E-05
2	513	117.12406270429	1.44149780273438	1.441650390625	2.2747802734375E-06	3.27943780575879E-06	633753.6875	7.0422283897642E-05
2	514	117.224770704036	1.43142700195313	1.431884765625	2.2186279296875E-06	3.17681951855775E-06	645392	7.06485443515703E-05
2	515	117.325478703782	1.42135620117188	1.42181396484375	2.17041015625E-06	3.0859196158417E-06	655090	7.08695515641011E-05
2	516	117.426186703527	1.41128540039063	1.4111328125	2.1282958984375E-06	3.00330816571659E-06	663034.125	7.10860040271655E-05
2	517	117.526894703273	1.40121459960938	1.40106201171875	2.09136962890625E-06	2.93013863483793E-06	669925.5625	7.12984838173725E-05
2	518	117.627602703019	1.39114379882813	1.3909912109375	2.05810546875E-06	2.86280646832893E-06	675860.0625	7.1507427492179E-05
2	519	117.728310702765	1.38107299804688	1.38092041015625	2.02728271484375E-06	2.79951586890093E-06	681168.1875	7.17131406418048E-05
2	520	117.82901870251	1.37100219726563	1.37115478515625	1.99920654296875E-06	2.74122157861711E-06	685849.5	7.19158924766816E-05
2	521	117.929726702256	1.36093139648438	1.36077880859375	1.97265625E-06	2.68434882855217E-06	689820.5625	7.21158939995803E-05
2	522	118.030434702002	1.35086059570313	1.35101318359375	1.9488525390625E-06	2.63292554336658E-06	693235.1875	7.23133562132716E-05
2	523	118.131142701748	1.34078979492188	1.34063720703125	1.92626953125E-06	2.58242857853475E-06	695975.9375	7.25084828445688E-05
2	524	118.231850701493	1.33071899414063	1.33056640625	1.90521240234375E-06	2.53501161751046E-06	698382.1875	7.27014121366665E-05
2	525	118.332558701239	1.32064819335938	1.32080078125	1.88446044921875E-06	2.48899686994264E-06	700890.6875	7.28922386770137E-05
2	526	118.433266700985	1.31057739257813	1.3104248046875	1.86553955078125E-06	2.44464922616316E-06	702437.4375	7.3081064329017E-05
2	527	118.53397470073	1.30050659179688	1.3006591796875	1.84661865234375E-06	2.40182134803035E-06	704346.4375	7.32679909560829E-05
2	528	118.634682700476	1.29043579101563	1.29058837890625	1.82830810546875E-06	2.35959328165336E-06	705892.1875	7.34530331101269E-05
2	529	118.735390700222	1.28036499023438	1.28082275390625	1.8115234375E-06	2.32024035540235E-06	707041.8125	7.36363144824281E-05
2	530	118.836098699968	1.27029418945313	1.2701416015625	1.7950439453125E-06	2.2799599719292E-06	707582.5	7.38179223844782E-05
2	531	118.936806699713	1.26022338867188	1.26007080078125	1.7791748046875E-06	2.24188624997623E-06	708233.25	7.3997893196065E-05
2	532	119.037514699459	1.25015258789063	1.25	1.76483154296875E-06	2.20603942580055E-06	708282.9375	7.41763506084681E-05
2	533	119.138222699205	1.24008178710938	1.23992919921875	1.75018310546875E-06	2.17010301639675E-06	708456.875	7.43533455533907E-05
2	534	119.238930698951	1.23001098632813	1.23016357421875	1.73553466796875E-06	2.13499151868746E-06	708809.5625	7.45288634789176E-05
2	535	119.339638698696	1.21994018554688	1.2200927734375	1.72119140625E-06	2.1000130345783E-06	708865.3125	7.47029262129217E-05
2	536	119.440346698442	1.20986938476563	1.21002197265625	1.70684814453125E-06	2.0653237697843E-06	708921.875	7.48755410313606E-05
2	537	119.541054698188	1.19979858398438	1.19964599609375	1.693115234375E-06	2.03113881980244E-06	708543.625	7.50467443140224E-05
2	538	119.641762697934	1.18972778320313	1.1895751953125	1.6796875E-06	1.99811461243371E-06	708212.25	7.52165797166526E-05
2	539	119.742470697679	1.17965698242188	1.17919921875	1.6656494140625E-06	1.96413247977034E-06	707951.625	7.53850254113786E-05
2	540	119.843178697425	1.16958618164063	1.16912841796875	1.65069580078125E-06	1.92987522495969E-06	708264.0625	7.55520231905393E-05
2	541	119.943886697171	1.15951538085938	1.15966796875	1.63543701171875E-06	1.89656395832571E-06	709087.5	7.57174930186011E-05
2	542	120.044594696917	1.14944458007813	1.1492919921875	1.61865234375E-06	1.86030410986859E-06	710030.1875	7.58813475840725E-05
2	543	120.145302696662	1.13937377929688	1.1395263671875	1.5985107421875E-06	1.82154508365784E-06	712867.5	7.60433467803523E-05
2	544	120.246010696408	1.12930297851563	1.129150390625	1.57684326171875E-06	1.78049322130391E-06	716082.8125	7.6203235948924E-05
2	545	120.346718696154	1.11923217773438	1.11907958984375	1.5509033203125E-06	1.73558430560661E-06	721566.3125	7.63607313274406E-05
2	546	120.447426695899	1.10916137695313	1.109619140625	1.5185546875E-06	1.68501730968273E-06	730707.4375	7.65152872190811E-05
2	547	120.548134695645	1.09909057617188	1.09954833984375	1.47918701171875E-06	1.6264375517494E-06	743346.4375	7.66662342357449E-05
2	548	120.648842695391	1.08901977539063	1.0888671875	1.4300537109375E-06	1.55713848926098E-06	761417	7.68127283663489E-05
2	549	120.749550695137	1.07894897460938	1.07879638671875	1.36932373046875E-06	1.4772215308767E-06	787831.5	7.69536854932085E-05
2	550	120.850258694882	1.06887817382813	1.0687255859375	1.29547119140625E-06	1.3845032071913E-06	824970.5625	7.70878687035292E-05
2	551	120.950966694628	1.05880737304688	1.05865478515625	1.209716796875E-06	1.28067244986596E-06	875126.1875	7.7214019256644E-05
2	552	121.051674694374	1.04873657226563	1.04888916015625	1.1151123046875E-06	1.16962917218189E-06	940613.0625	7.73310821386985E-05
2	553	121.15238269412	1.03866577148438	1.038818359375	1.0205078125E-06	1.06012214473594E-06	1017942.6875	7.74386207922362E-05
2	554	121.253090693865	1.02859497070313	1.0284423828125	9.3231201171875E-07	9.58829218689061E-07	1103109.625	7.75369553593919E-05
2	555	121.353798693611	1.01852416992188	1.01837158203125	8.6090087890625E-07	8.76716967468383E-07	1182913.875	7.76272499933839E-05
2	556	121.454506693357	1.00845336914063	1.00830078125	8.1024169921875E-07	8.16967315131478E-07	1244444.5	7.77113964431919E-05
2	557	121.555214693103	0.998382568359375	0.99853515625	7.8125E-07	7.8010555171204E-07	1278125	7.77915338403545E-05
2	558	121.655922692848	0.988311767578125	0.98876953125	7.6873779296875E-07	7.60104512664839E-07	1286224.75	7.78695830376819E-05
2	559	121.756630692594	0.978240966796875	0.97869873046875	7.672119140625E-07	7.50869276089361E-07	1275656.375	7.79469264671206E-05
2	560	121.85733869234	0.968170166015625	0.968017578125	7.72705078124999E-07	7.47992089600302E-07	1252764.625	7.8024466347415E-05
2	561	121.958046692086	0.958099365234375	0.95855712890625	7.80029296875E-07	7.47702642911463E-07	1228873.25	7.8102653787937E-05
2	562	122.058754691831	0.948028564453125	0.9478759765625	7.8643798828125E-07	7.45445674965595E-07	1205277.5	7.81815251684748E-05
2	563	122.159462691577	0.937957763671875	0.9381103515625	7.904052734375E-07	7.41487326649803E-07	1186872.625	7.82609276939183E-05
2	564	122.260170691323	0.927886962890625	0.92803955078125	7.891845703125E-07	7.32394425995153E-07	1175947.5	7.83404684625566E-05
2	565	122.360878691068	0.917816162109375	0.91796875	7.82165527343751E-07	7.18003491329E-07	1173624.75	7.84195945016108E-05
2	566	122.461586690814	0.907745361328125	0.908203125	7.68432617187501E-07	6.97892858170235E-07	1181890.5	7.84976728027686E-05
2	567	122.56229469056	0.897674560546875	0.89752197265625	7.476806640625E-07	6.71059808610153E-07	1200408.25	7.85740121500567E-05
2	568	122.663002690306	0.887603759765625	0.88775634765625	7.2296142578125E-07	6.41813585389173E-07	1227944.25	7.86480668466538E-05
2	569	122.763710690051	0.877532958984375	0.877685546875	6.93664550781251E-07	6.08819334502186E-07	1265288.125	7.87194003351033E-05
2	570	122.864418689797	0.867462158203125	0.86761474609375	6.65283203125E-07	5.77209505081555E-07	1304128.375	7.87878234405071E-05
2	571	122.965126689543	0.857391357421875	0.8575439453125	6.3934326171875E-07	5.48264893041051E-07	1341288.875	7.88535180618055E-05
2	572	123.065834689289	0.847320556640625	0.8477783203125	6.1798095703125E-07	5.23910841820907E-07	1371851.875	7.89168334449641E-05
2	573	123.166542689034	0.837249755859375	0.8380126953125	6.011962890625E-07	5.03810099417024E-07	1393908.625	7.8978220699355E-05
2	574	123.26725068878	0.827178955078125	0.82733154296875	5.8746337890625E-07	4.86026976886933E-07	1408311.75	7.90380727266893E-05
2	575	123.367958688526	0.817108154296875	0.8172607421875	5.74340820312499E-07	4.69386179702269E-07	1422954.375	7.90965787018649E-05
2	576	123.468666688272	0.807037353515625	0.806884765625	5.59387207031251E-07	4.51361017894669E-07	1442444	7.91536658653058E-05
2	577	123.569374688017	0.796966552734375	0.79681396484375	5.38330078125E-07	4.28948936814777E-07	1480158.75	7.92089413153008E-05
2	578	123.670082687763	0.786895751953125	0.7867431640625	5.078125E-07	3.99518000904209E-07	1549278.875	7.92616192484275E-05
2	579	123.770790687509	0.776824951171875	0.777587890625	4.62951660156249E-07	3.59985591558143E-07	1679630.875	7.93104991316795E-05
2	580	123.871498687255	0.766754150390625	0.76690673828125	3.9794921875E-07	3.05189928440086E-07	1927147.25	7.93538492871448E-05
2	581	123.972206687	0.756683349609375	0.7568359375	3.07312011718749E-07	2.32584767445587E-07	2462760.75	7.93893632362597E-05
2	582	124.072914686746	0.746612548828125	0.746551513671875	1.8585205078125E-07	1.38748120548371E-07	4016913	7.94141960795969E-05
2	583	124.173622686492	0.736541748046875	0.736480712890625	3.02124023437503E-08	2.22508518277209E-08	24376768	7.94250736362301E-05
2	584	124.274330686237	0.726470947265625	0.72637939453125	-1.54724121093749E-07	-1.1238841324257E-07	-4694674.5	7.94188017607667E-05
2	585	124.375038685983	0.716400146484375	0.71630859375	-3.59191894531249E-07	-2.57292242622498E-07	-1994222.625	7.93929284554906E-05
2	586	124.475746685729	0.706329345703125	0.706329345703125	-5.6610107421875E-07	-3.9985377497942E-07	-1247709	7.93463332229294E-05
2	587	124.576454685475	0.696258544921875	0.696197509765625	-7.550048828125E-07	-5.25632515291363E-07	-922109.9375	7.92798091424629E-05
2	588	124.67716268522	0.686187744140625	0.68609619140625	-9.04541015625E-07	-6.20602122580749E-07	-758502.0625	7.9196244769264E-05
2	589	124.777870684966	0.676116943359375	0.67608642578125	-1.00616455078125E-06	-6.8025417476747E-07	-671944.1875	7.91000347817317E-05
2	590	124.878578684712	0.666046142578125	0.665985107421875	-1.0540771484375E-06	-7.01999624652672E-07	-631818.25	7.89962941780686E-05
2	591	124.979286684458	0.655975341796875	0.6558837890625	-1.0565185546875E-06	-6.92953335601487E-07	-620797.25	7.88900142651983E-05
2	592	125.079994684203	0.645904541015625	0.645843505859375	-1.02447509765625E-06	-6.61650574329542E-07	-630414.0625	7.87852331995964E-05
2	593	125.180702683949	0.635833740234375	0.635772705078125	-9.686279296875E-07	-6.15827161709603E-07	-656364.25	7.86848686402664E-05
2	594	125.281410683695	0.625762939453125	0.625732421875	-9.0057373046875E-07	-5.63518142371322E-07	-694815.3125	7.85907468525693E-05
2	595	125.382118683441	0.615692138671875	0.615631103515625	-8.270263671875E-07	-5.09143148974545E-07	-744391.1875	7.85037555033341E-05
2	596	125.482826683186	0.605621337890625	0.605621337890625	-7.537841796875E-07	-4.56507763146874E-07	-803441.3125	7.84241565270349E-05
2	597	125.583534682932	0.595550537109375	0.595458984375	-6.8389892578125E-07	-4.07233756050118E-07	-870682.75	7.83517607487738E-05
2	598	125.684242682678	0.585479736328125	0.585479736328125	-6.182861328125E-07	-3.61993983233333E-07	-946939.8125	7.82861898187548E-05
2	599	125.784950682424	0.575408935546875	0.575347900390625	-5.5755615234375E-07	-3.20788757335322E-07	-1031910.3125	7.82269853516482E-05
2	600	125.885658682169	0.565338134765625	0.5653076171875	-5.01098632812499E-07	-2.83274857793003E-07	-1128136.5	7.81736744102091E-05
2	601	125.986366681915	0.555267333984375	0.555267333984375	-4.4891357421875E-07	-2.4926703190431E-07	-1236913.625	7.81258422648534E-05
2	602	126.087074681661	0.545196533203125	0.545166015625	-3.99169921875001E-07	-2.17613873587652E-07	-1365749.25	7.80831323936582E-05
2	603	126.187782681406	0.535125732421875	0.53509521484375	-3.497314453125E-07	-1.87139619356458E-07	-1530017.5	7.80454283813015E-05
2	604	126.288490681152	0.525054931640625	0.5250244140625	-3.0181884765625E-07	-1.58462256649727E-07	-1739535	7.80126138124615E-05
2	605	126.389198680898	0.514984130859375	0.51495361328125	-2.5360107421875E-07	-1.30592781033556E-07	-2030565.75	7.79846523073502E-05
2	606	126.489906680644	0.504913330078125	0.5048828125	-2.117919921875E-07	-1.06930130527871E-07	-2383861.75	7.79612164478749E-05
2	607	126.590614680389	0.494842529296875	0.49481201171875	-1.76086425781249E-07	-8.71296705895475E-08	-2810052.25	7.79416805016808E-05
2	608	126.691322680135	0.484771728515625	0.48480224609375	-1.45263671875E-07	-7.04241500670832E-08	-3337395	7.79254987719469E-05
2	609	126.792030679881	0.474700927734375	0.47467041015625	-1.1749267578125E-07	-5.57702968251306E-08	-4040000	7.79122710810043E-05
2	610	126.892738679627	0.464630126953125	0.464630126953125	-9.27734375000003E-08	-4.31053308602714E-08	-5008224	7.79016845626757E-05
2	611	126.993446679372	0.454559326171875	0.45458984375	-7.14111328125003E-08	-3.24627755787787E-08	-6365812.5	7.78934190748259E-05
2	612	127.094154679118	0.444488525390625	0.44451904296875	-5.12695312500006E-08	-2.27902834382121E-08	-8670238	7.78872417868115E-05
2	613	127.194862678864	0.434417724609375	0.434417724609375	-3.35693359375E-08	-1.45831142717157E-08	-12940909	7.78829635237344E-05
2	614	127.29557067861	0.424346923828125	0.424346923828125	-1.70898437499997E-08	-7.25202209395093E-09	-24830360	7.78804169385694E-05
2	615	127.396278678355	0.414276123046875	0.41424560546875	-1.52587890625E-09	-6.32088603680359E-10	-271480000	7.78794783400372E-05
2	616	127.496986678101	0.404205322265625	0.40423583984375	1.25122070312497E-08	5.05788211313529E-09	32307318	7.78800313128158E-05
2	617	127.597694677847	0.394134521484375	0.3941650390625	2.65502929687494E-08	1.04651967092195E-08	14845977	7.78819958213717E-05
2	618	127.698402677593	0.384063720703125	0.38409423828125	3.84521484374997E-08	1.47692480467754E-08	9988889	7.78852700022981E-05
2	619	127.799110677338	0.373992919921875	0.37396240234375	5.035400390625E-08	1.88305033788083E-08	7426666.5	7.78897447162308E-05
2	620	127.899818677084	0.363922119140625	0.363922119140625	6.19506835937506E-08	2.2545222577719E-08	5874384.5	7.7895398135297E-05
2	621	128.00052667683	0.353851318359375	0.353851318359375	7.171630859375E-08	2.53769094626932E-08	4934042.5	7.79021283960901E-05
2	622	128.101234676575	0.343780517578125	0.343780517578125	8.02612304687506E-08	2.75922467096734E-08	4283270	7.79097827035002E-05
2	623	128.201942676321	0.333709716796875	0.333740234375	8.88061523437497E-08	2.96381870157347E-08	3758075.5	7.79182955739088E-05
2	624	128.302650676067	0.323638916015625	0.32366943359375	9.67407226562494E-08	3.13120125383648E-08	3345741.5	7.79276379034854E-05
2	625	128.403358675813	0.313568115234375	0.3135986328125	1.0406494140625E-07	3.2634623892136E-08	3013489.75	7.79377514845692E-05
2	626	128.504066675558	0.303497314453125	0.303497314453125	1.1016845703125E-07	3.34358318809791E-08	2754847.75	7.79485344537534E-05
2	627	128.604774675304	0.293426513671875	0.29339599609375	1.16577148437499E-07	3.42032677735915E-08	2516754	7.79599577072076E-05
2	628	128.70548267505	0.283355712890625	0.28338623046875	1.2176513671875E-07	3.45065629403507E-08	2327318.25	7.79719557613134E-05
2	629	128.806190674796	0.273284912109375	0.27325439453125	1.26037597656251E-07	3.44403261465231E-08	2168038.75	7.79844340286218E-05
2	630	128.906898674541	0.263214111328125	0.26324462890625	1.30310058593749E-07	3.43034223249106E-08	2020140.5	7.79973415774293E-05
2	631	129.007606674287	0.253143310546875	0.25311279296875	1.33361816406249E-07	3.37555796647848E-08	1897940.625	7.80106202000752E-05
2	632	129.108314674033	0.243072509765625	0.243072509765625	1.36718750000001E-07	3.32325704732739E-08	1777901.75	7.80242189648561E-05
2	633	129.209022673779	0.233001708984375	0.233001708984375	1.385498046875E-07	3.22823403564598E-08	1681718	7.80380796641111E-05
2	634	129.309730673524	0.222930908203125	0.22296142578125	1.39770507812501E-07	3.116343094689E-08	1595196.5	7.80520931584761E-05
2	635	129.41043867327	0.212860107421875	0.212921142578125	1.4007568359375E-07	2.98250739660944E-08	1520043.625	7.80661866883747E-05
2	636	129.511146673016	0.202789306640625	0.202850341796875	1.38244628906251E-07	2.80429706123186E-08	1467328.875	7.80802001827396E-05
2	637	129.611854672762	0.192718505859375	0.192779541015625	1.3458251953125E-07	2.59447574535443E-08	1432426.25	7.80939371907152E-05
2	638	129.712562672507	0.182647705078125	0.18267822265625	1.2847900390625E-07	2.34703154688987E-08	1421852.75	7.81071867095307E-05
2	639	129.813270672253	0.172576904296875	0.172607421875	1.1932373046875E-07	2.05961612209649E-08	1446547.375	7.8119664976839E-05
2	640	129.913978671999	0.162506103515625	0.16259765625	1.0498046875E-07	1.70695777512719E-08	1548837.25	7.81309572630562E-05
2	641	130.014686671744	0.152435302734375	0.152496337890625	8.30078124999995E-08	1.26583872273045E-08	1837132.375	7.81404232839122E-05
2	642	130.11539467149	0.142364501953125	0.14239501953125	5.21850585937497E-08	7.43089234589434E-09	2728655	7.81472335802391E-05
2	643	130.216102671236	0.132293701171875	0.132293701171875	6.40869140624972E-09	8.47829473293871E-10	20642858	7.81501803430729E-05
2	644	130.316810670982	0.122222900390625	0.12225341796875	-5.79833984375E-08	-7.08866831899968E-09	-2108421.25	7.81475828262046E-05
2	645	130.417518670727	0.112152099609375	0.112152099609375	-1.4801025390625E-07	-1.6599660312977E-08	-757732	7.81372073106468E-05
2	646	130.518226670473	0.102081298828125	0.1021728515625	-2.7008056640625E-07	-2.75949005867915E-08	-378305.09375	7.81161579652689E-05
2	647	130.618934670219	0.092010498046875	0.092071533203125	-4.32434082031249E-07	-3.98148678470989E-08	-212914.625	7.80807822593488E-05
2	648	130.719642669965	0.081939697265625	0.082061767578125	-6.3751220703125E-07	-5.23153786957664E-08	-128721.8828125	7.80269110691734E-05
2	649	130.82035066971	0.071868896484375	0.071868896484375	-8.85925292968751E-07	-6.36704697853929E-08	-81122.9765625	7.79501933720894E-05
2	650	130.921058669456	0.061798095703125	0.061859130859375	-1.1639404296875E-06	-7.20003399123925E-08	-53146.3046875	7.78469766373746E-05
2	651	131.021766669202	0.051727294921875	0.051788330078125	-1.4520263671875E-06	-7.51980238078431E-08	-35666.24609375	7.77152527007274E-05
2	652	131.122474668948	0.041656494140625	0.0417388916015625	-1.72119140625E-06	-7.1840617010821E-08	-24250	7.755547267152E-05
2	653	131.223182668693	0.031585693359375	0.031689453125	-1.9451904296875E-06	-6.16420194887723E-08	-16291.18359375	7.73708525230177E-05
2	654	131.323890668439	0.021514892578125	0.021630859375	-2.09991455078125E-06	-4.54229578394916E-08	-10300.828125	7.71671620896086E-05
2	655	131.424598668185	0.011444091796875	0.0115509033203125	-2.18109130859375E-06	-2.51935752260124E-08	-5295.92822265625	7.69515972933732E-05
2	656	131.525306667931	0.001373291015625	0.00147705078125	-2.19451904296875E-06	-3.24141624652441E-09	-673.063537597656	7.67312667449005E-05
2	657	131.626014667676	-0.008697509765625	-0.00860595703125	-2.15667724609375E-06	1.85602715419009E-08	3990.37768554688	7.65121731092222E-05
2	658	131.726722667422	-0.018768310546875	-0.0186187744140625	-2.0855712890625E-06	3.88307768162122E-08	8927.421875	7.62985582696274E-05
2	659	131.827430667168	-0.028839111328125	-0.02869873046875	-1.99859619140625E-06	5.73571732331857E-08	14359.4443359375	7.60929033276625E-05
2	660	131.928138666913	-0.038909912109375	-0.0387664794921875	-1.90643310546875E-06	7.39057028908974E-08	20334.560546875	7.58962705731392E-05
2	661	132.028846666659	-0.048980712890625	-0.048834228515625	-1.8157958984375E-06	8.86729836224731E-08	26894.1171875	7.57088346290402E-05
2	662	132.129554666405	-0.059051513671875	-0.0589599609375	-1.7315673828125E-06	1.02093139275894E-07	34050.0546875	7.55302171455696E-05
2	663	132.230262666151	-0.069122314453125	-0.069061279296875	-1.6546630859375E-06	1.14273149165456E-07	41737.3671875	7.53597050788812E-05
2	664	132.330970665896	-0.079193115234375	-0.07904052734375	-1.585693359375E-06	1.25334040035341E-07	49846.03515625	7.51965417293832E-05
2	665	132.431678665642	-0.089263916015625	-0.08917236328125	-1.52557373046875E-06	1.36039005838029E-07	58451.69140625	7.50398758100346E-05
2	666	132.532386665388	-0.099334716796875	-0.0992431640625	-1.47216796875E-06	1.46102607345711E-07	67412.9375	7.48889287933707E-05
2	667	132.633094665134	-0.109405517578125	-0.109283447265625	-1.42578125E-06	1.5581427703637E-07	76648.1171875	7.47430021874607E-05
2	668	132.733802664879	-0.119476318359375	-0.119384765625	-1.385498046875E-06	1.65407357144431E-07	86167.40625	7.46014411561191E-05
2	669	132.834510664625	-0.129547119140625	-0.129486083984375	-1.35040283203125E-06	1.74858371337905E-07	95887.0078125	7.44636781746522E-05
2	670	132.935218664371	-0.139617919921875	-0.139495849609375	-1.31988525390625E-06	1.84118505330844E-07	105687.8671875	7.4329218477942E-05
2	671	133.035926664117	-0.149688720703125	-0.149627685546875	-1.29425048828125E-06	1.9365569414731E-07	115609.53125	7.41975891287439E-05
2	672	133.136634663862	-0.159759521484375	-0.15960693359375	-1.27227783203125E-06	2.03064359993732E-07	125449.75	7.40683535696007E-05
2	673	133.237342663608	-0.169830322265625	-0.169708251953125	-1.25335693359375E-06	2.12705003832525E-07	135402.96875	7.39411771064624E-05
2	674	133.338050663354	-0.179901123046875	-0.179718017578125	-1.23809814453125E-06	2.22508532488064E-07	145156.53125	7.38157250452787E-05
2	675	133.4387586631	-0.189971923828125	-0.18975830078125	-1.2249755859375E-06	2.32449281156732E-07	154907.828125	7.36916990717873E-05
2	676	133.539466662845	-0.200042724609375	-0.199859619140625	-1.21551513671875E-06	2.42932401306462E-07	164423.796875	7.35688081476837E-05
2	677	133.640174662591	-0.189971923828125	-0.1898193359375	-1.065673828125E-06	2.02285491468501E-07	178121.421875	7.34539426048286E-05
