Potential - Start -0.2 V, Upper Vertex 1.5 V, Lower Vertex -0.2 V, Stop -0.19 V; Scan - # end cross 5, Rate 0.1 Vps, Step 0.01 V 
Scan	Index	Time (s)	Potential applied (V)	WE(1).Potential (V)	WE(1).Current (A)	WE(1).Power (W)	WE(1).Resistance (Ω)	WE(1).Charge (C)
1	1	68.1756048278731	-0.189971923828125	-0.18988037109375	-1.690673828125E-07	3.21025765970262E-08	1123104.75	0
1	2	68.2763128276189	-0.179901123046875	-0.17974853515625	-1.36718750000001E-07	2.45749962601849E-08	1314732.125	-1.53975552308339E-08
1	3	68.3770208273646	-0.169830322265625	-0.169708251953125	-1.10473632812499E-07	1.87482864788535E-08	1536187.875	-2.78446794510501E-08
1	4	68.4777288271104	-0.159759521484375	-0.15960693359375	-8.91113281249995E-08	1.42227856159138E-08	1791096	-3.78945799184294E-08
1	5	68.5784368268561	-0.149688720703125	-0.149566650390625	-6.866455078125E-08	1.02699262427564E-08	2178222.25	-4.58392257485229E-08
1	6	68.6791448266018	-0.139617919921875	-0.139495849609375	-4.8828125E-08	6.8113203965936E-09	2856875	-5.17554532564191E-08
1	7	68.7798528263476	-0.129547119140625	-0.12945556640625	-2.96020507812494E-08	3.83215015276051E-09	4373196	-5.5704724388761E-08
1	8	68.8805608260933	-0.119476318359375	-0.119384765625	-8.85009765625028E-09	1.05656683402344E-09	13489655	-5.76409462382799E-08
1	9	68.981268825839	-0.109405517578125	-0.109283447265625	1.40380859374997E-08	-1.53413037828898E-09	-7784783	-5.73797080960503E-08
1	10	69.0819768255848	-0.099334716796875	-0.099212646484375	4.08935546875003E-08	-4.05715772089366E-09	-2426119.5	-5.46136824652876E-08
1	11	69.1826848253305	-0.089263916015625	-0.089141845703125	7.41577148437506E-08	-6.61055521433696E-09	-1202057.625	-4.88203895088191E-08
1	12	69.2833928250762	-0.079193115234375	-0.07916259765625	1.171875E-07	-9.27686638618752E-09	-675520.875	-3.91853944847753E-08
1	13	69.384100824822	-0.069122314453125	-0.069061279296875	1.7425537109375E-07	-1.20342980025612E-08	-396322.25	-2.4510079299489E-08
1	14	69.4848088245677	-0.059051513671875	-0.0589599609375	2.49328613281249E-07	-1.4700404449286E-08	-236474.921875	-3.18093351658888E-09
1	15	69.5855168243135	-0.048980712890625	-0.04881591796875	3.47900390625E-07	-1.69830762786205E-08	-140315.796875	2.68919340129514E-08
1	16	69.6862248240592	-0.038909912109375	-0.0387786865234375	4.73937988281251E-07	-1.83786905694205E-08	-81822.28125	6.8274779607691E-08
1	17	69.7869328238049	-0.028839111328125	-0.0287200927734375	6.3018798828125E-07	-1.80990564757622E-08	-45573.8515625	1.23871942037113E-07
1	18	69.8876408235507	-0.018768310546875	-0.018658447265625	8.135986328125E-07	-1.51804879777728E-08	-22933.234375	1.96572372601622E-07
1	19	69.9883488232964	-0.008697509765625	-0.008587646484375	1.016845703125E-06	-8.73231087439308E-09	-8445.3779296875	2.88742569409806E-07
1	20	70.0890568230421	0.001373291015625	0.00146484375	1.224365234375E-06	1.79350367890407E-09	1196.41076660156	4.01596480514854E-07
1	21	70.1897648227879	0.011444091796875	0.011566162109375	1.41510009765625E-06	1.63672773112467E-08	8173.38818359375	5.34504124516388E-07
1	22	70.2904728225336	0.021514892578125	0.0216461181640625	1.57135009765625E-06	3.40136274701308E-08	13775.4912109375	6.84883843860007E-07
1	23	70.3911808222794	0.031585693359375	0.0316619873046875	1.678466796875E-06	5.31435944139957E-08	18863.63671875	8.48525132823852E-07
1	24	70.4918888220251	0.041656494140625	0.0417083740234375	1.73370361328125E-06	7.23099518040726E-08	24057.384765625	1.02034152860142E-06
1	25	70.5925968217708	0.051727294921875	0.0517578125	1.74285888671875E-06	9.02065622199189E-08	29697.076171875	1.19540038667765E-06
1	26	70.6933048215166	0.061798095703125	0.06182861328125	1.7169189453125E-06	1.06154715240336E-07	36011.37890625	1.36961398311541E-06
1	27	70.7940128212623	0.071868896484375	0.071868896484375	1.669921875E-06	1.20015442917065E-07	43037.28125	1.54015503994742E-06
1	28	70.894720821008	0.081939697265625	0.08203125	1.612548828125E-06	1.3227939632543E-07	50870.5546875	1.7054404679584E-06
1	29	70.9954288207538	0.092010498046875	0.092071533203125	1.551513671875E-06	1.42850240081316E-07	59343.0390625	1.8647637034519E-06
1	30	71.0961368204995	0.102081298828125	0.10211181640625	1.49200439453125E-06	1.52351276483387E-07	68439.359375	2.01801708499261E-06
1	31	71.1968448202452	0.112152099609375	0.112213134765625	1.435546875E-06	1.61087214678446E-07	78167.515625	2.16543094211374E-06
1	32	71.297552819991	0.122222900390625	0.12225341796875	1.3848876953125E-06	1.69307256214779E-07	88276.7734375	2.30745104090602E-06
1	33	71.3982608197367	0.132293701171875	0.13232421875	1.339111328125E-06	1.77196866957274E-07	98814.9453125	2.44461534748552E-06
1	34	71.4989688194825	0.142364501953125	0.14239501953125	1.298828125E-06	1.84946657100227E-07	109633.4609375	2.57744613918476E-06
1	35	71.5996768192282	0.152435302734375	0.1524658203125	1.26373291015625E-06	1.92676068877518E-07	120647.1875	2.70648138211982E-06
1	36	71.7003848189739	0.162506103515625	0.16253662109375	1.23291015625E-06	2.00393046156933E-07	131831.6875	2.83219719676708E-06
1	37	71.8010928187197	0.172576904296875	0.172576904296875	1.20513916015625E-06	2.07979184096985E-07	143200.8125	2.95496283797547E-06
1	38	71.9018008184654	0.182647705078125	0.18267822265625	1.18011474609375E-06	2.15581266616027E-07	154797	3.0750697987969E-06
1	39	72.0025088182111	0.192718505859375	0.192779541015625	1.158447265625E-06	2.23324931880597E-07	166412.015625	3.19282594318793E-06
1	40	72.1032168179569	0.202789306640625	0.2027587890625	1.1383056640625E-06	2.30801461498231E-07	178123.328125	3.30847660734435E-06
1	41	72.2039248177026	0.212860107421875	0.212860107421875	1.12030029296875E-06	2.38467237068107E-07	190002.734375	3.42220641869062E-06
1	42	72.3046328174484	0.222930908203125	0.2230224609375	1.10443115234375E-06	2.46312936269533E-07	201934.234375	3.53423047272372E-06
1	43	72.4053408171941	0.233001708984375	0.2330322265625	1.090087890625E-06	2.54025593449114E-07	213773.8125	3.64473339686811E-06
1	44	72.5060488169398	0.243072509765625	0.243133544921875	1.07818603515625E-06	2.62143174722951E-07	225502.421875	3.75391459783714E-06
1	45	72.6067568166856	0.253143310546875	0.253173828125	1.065673828125E-06	2.69800722207947E-07	237571.59375	3.86186638934305E-06
1	46	72.7074648164313	0.263214111328125	0.263214111328125	1.05438232421875E-06	2.77528300784979E-07	249638.203125	3.9686196942057E-06
1	47	72.808172816177	0.273284912109375	0.273284912109375	1.0443115234375E-06	2.85394577304032E-07	261689.078125	4.0742975215835E-06
1	48	72.9088808159228	0.283355712890625	0.28338623046875	1.03515625E-06	2.93349017965738E-07	273761.8125	4.17900673710392E-06
1	49	73.0095888156685	0.293426513671875	0.293426513671875	1.02691650390625E-06	3.01324519114132E-07	285735.5	4.28284056397388E-06
1	50	73.1102968154142	0.303497314453125	0.303497314453125	1.0198974609375E-06	3.09536147824474E-07	297576.3125	4.38590586782084E-06
1	51	73.21100481516	0.313568115234375	0.3135986328125	1.01348876953125E-06	3.17828664719855E-07	309424.875	4.48829496235703E-06
1	52	73.3117128149057	0.323638916015625	0.32366943359375	1.00860595703125E-06	3.26454937749077E-07	320907.71875	4.59011562270462E-06
1	53	73.4124208146515	0.333709716796875	0.333740234375	1.00372314453125E-06	3.34982786398541E-07	332502.28125	4.69144424641854E-06
1	54	73.5131288143972	0.343780517578125	0.343780517578125	9.991455078125E-07	3.43486760812084E-07	344074.53125	4.79229674965609E-06
1	55	73.6138368141429	0.353851318359375	0.35382080078125	9.9609375E-07	3.52438689787959E-07	355208.34375	4.89276499138214E-06
1	56	73.7145448138887	0.363922119140625	0.363922119140625	9.94262695312501E-07	3.61834167961206E-07	366022.09375	4.99298766953871E-06
1	57	73.8152528136344	0.373992919921875	0.37396240234375	9.92431640625E-07	3.71132131249396E-07	376814.28125	5.09302526552347E-06
1	58	73.9159608133801	0.384063720703125	0.384063720703125	9.918212890625E-07	3.80922557496888E-07	387230.78125	5.19294053447084E-06
1	59	74.0166688131259	0.394134521484375	0.3941650390625	9.918212890625E-07	3.90941266914524E-07	397415.40625	5.29282488059835E-06
1	60	74.1173768128716	0.404205322265625	0.404205322265625	9.9212646484375E-07	4.01022759888292E-07	407413.125	5.39272468813579E-06
1	61	74.2180848126173	0.414276123046875	0.414276123046875	9.92431640625E-07	4.11140717915259E-07	417435.4375	5.49265496374574E-06
1	62	74.3187928123631	0.424346923828125	0.42437744140625	9.930419921875E-07	4.21424630303591E-07	427350.9375	5.59263162358548E-06
1	63	74.4195008121088	0.434417724609375	0.43438720703125	9.930419921875E-07	4.31364753694652E-07	437430.84375	5.69263875149773E-06
1	64	74.5202088118546	0.444488525390625	0.444488525390625	9.94262695312501E-07	4.41938340145498E-07	447053.40625	5.7927077250497E-06
1	65	74.6209168116003	0.454559326171875	0.45452880859375	9.95483398437499E-07	4.52475859447077E-07	456591.09375	5.89289902563905E-06
1	66	74.721624811346	0.464630126953125	0.464630126953125	9.9761962890625E-07	4.63524145288829E-07	465738.75	5.99325994699029E-06
1	67	74.8223328110918	0.474700927734375	0.4747314453125	9.99755859375E-07	4.74615518442079E-07	474847.40625	6.0938359638385E-06
1	68	74.9230408108375	0.484771728515625	0.484771728515625	1.00189208984375E-06	4.85688985918387E-07	483856.21875	6.19462662143633E-06
1	69	75.0237488105832	0.494842529296875	0.494842529296875	1.0040283203125E-06	4.96835866670153E-07	492857.15625	6.29563282927847E-06
1	70	75.124456810329	0.504913330078125	0.5048828125	1.00555419921875E-06	5.07686991113587E-07	502094.09375	6.39682320979773E-06
1	71	75.2251648100747	0.514984130859375	0.5150146484375	1.00860595703125E-06	5.19446871294349E-07	510620.25	6.49824460197124E-06
1	72	75.3258728098205	0.525054931640625	0.525054931640625	1.0113525390625E-06	5.31015643900901E-07	519161.125	6.59995748719666E-06
1	73	75.4265808095662	0.535125732421875	0.535125732421875	1.0150146484375E-06	5.43160467714188E-07	527209.875	6.70199324304122E-06
1	74	75.5272888093119	0.545196533203125	0.545196533203125	1.0186767578125E-06	5.55379017441737E-07	535200.75	6.80439779898734E-06
1	75	75.6279968090577	0.555267333984375	0.55523681640625	1.02294921875E-06	5.67979043353262E-07	542780.4375	6.90720162310754E-06
1	76	75.7287048088034	0.565338134765625	0.5653076171875	1.026611328125E-06	5.80351240841992E-07	550653.9375	7.01040517014917E-06
1	77	75.8294128085491	0.575408935546875	0.57537841796875	1.03118896484375E-06	5.93323875364149E-07	557975.75	7.11402344677481E-06
1	78	75.9301208082949	0.585479736328125	0.585479736328125	1.0357666015625E-06	6.06420314852585E-07	565262.25	7.2181032919616E-06
1	79	76.0308288080406	0.595550537109375	0.5955810546875	1.04095458984375E-06	6.19972809090541E-07	572148.9375	7.32267426428734E-06
1	80	76.1315368077863	0.605621337890625	0.605560302734375	1.04705810546875E-06	6.34056789294846E-07	578344.5625	7.42781412554905E-06
1	81	76.2322448075321	0.615692138671875	0.615631103515625	1.05316162109375E-06	6.48358991384157E-07	584555.25	7.53356880522915E-06
1	82	76.3329528072778	0.625762939453125	0.625732421875	1.05987548828125E-06	6.63198420625122E-07	590383	7.63996831665281E-06
1	83	76.4336608070236	0.635833740234375	0.6358642578125	1.06597900390625E-06	6.77817922678514E-07	596507.3125	7.74701402406208E-06
1	84	76.5343688067693	0.645904541015625	0.6458740234375	1.07208251953125E-06	6.92430205617711E-07	602448.0625	7.85467364039505E-06
1	85	76.635076806515	0.655975341796875	0.655914306640625	1.0772705078125E-06	7.06597120370134E-07	608866.875	7.96290260041133E-06
1	86	76.7357848062608	0.666046142578125	0.666015625	1.08306884765625E-06	7.21340768450318E-07	614933.8125	8.07168362371158E-06
1	87	76.8364928060065	0.676116943359375	0.676055908203125	1.0882568359375E-06	7.35722437639197E-07	621228.3125	8.18101852928521E-06
1	88	76.9372008057522	0.686187744140625	0.6861572265625	1.09405517578125E-06	7.50693857298756E-07	627168.75	8.29090731713222E-06
1	89	77.037908805498	0.696258544921875	0.696136474609375	1.099853515625E-06	7.65648167089239E-07	632935.625	8.40137909108307E-06
1	90	77.1386168052437	0.706329345703125	0.706268310546875	1.10595703125E-06	7.81102414748602E-07	638603.75	8.51245022204239E-06
1	91	77.2393248049895	0.716400146484375	0.716339111328125	1.112060546875E-06	7.96612482645287E-07	644154.75	8.6241361714201E-06
1	92	77.3400328047352	0.726470947265625	0.726409912109375	1.1175537109375E-06	8.11802067346434E-07	650000	8.73640692589106E-06
1	93	77.4407408044809	0.736541748046875	0.7364501953125	1.1248779296875E-06	8.28416602871584E-07	654693.4375	8.84932160261087E-06
1	94	77.5414488042267	0.746612548828125	0.74658203125	1.13372802734375E-06	8.46420959987881E-07	658519.5	8.96305209607817E-06
1	95	77.6421568039724	0.756683349609375	0.7568359375	1.143798828125E-06	8.65668084770732E-07	661686.25	9.07773392100353E-06
1	96	77.7428648037181	0.766754150390625	0.76690673828125	1.15692138671875E-06	8.87250791947736E-07	662885.8125	9.19358444662066E-06
1	97	77.8435728034639	0.776824951171875	0.77667236328125	1.17218017578125E-06	9.10399933218287E-07	662587.875	9.31086469790898E-06
1	98	77.9442808032096	0.786895751953125	0.7867431640625	1.18927001953125E-06	9.35650007249933E-07	661534.5625	9.42977294471348E-06
1	99	78.0449888029553	0.796966552734375	0.797119140625	1.20880126953125E-06	9.6355859113828E-07	659429.4375	9.55052564677317E-06
1	100	78.1456968027011	0.807037353515625	0.80718994140625	1.23046875E-06	9.9322198821028E-07	656002	9.6733519967529E-06
1	101	78.2464048024468	0.817108154296875	0.8172607421875	1.2542724609375E-06	1.02506760413235E-06	651581.5	9.7984693638864E-06
1	102	78.3471128021926	0.827178955078125	0.82763671875	1.27685546875E-06	1.05677247574931E-06	648183.5625	9.92592140391935E-06
1	103	78.4478208019383	0.837249755859375	0.83740234375	1.29852294921875E-06	1.08738606741099E-06	644888.375	1.00556017059716E-05
1	104	78.548528801684	0.847320556640625	0.84747314453125	1.31744384765625E-06	1.11649819700688E-06	643270.8125	1.01873265521135E-05
1	105	78.6492368014298	0.857391357421875	0.8575439453125	1.33209228515625E-06	1.14232761916355E-06	643757.1875	1.03207412394113E-05
1	106	78.7499448011755	0.867462158203125	0.8673095703125	1.3433837890625E-06	1.1651295608317E-06	645615.6875	1.04554619611008E-05
1	107	78.8506528009212	0.877532958984375	0.877685546875	1.35040283203125E-06	1.18522905268037E-06	649943.5	1.05911049104179E-05
1	108	78.951360800667	0.887603759765625	0.88836669921875	1.35589599609375E-06	1.20453285035182E-06	655187.9375	1.07273781395634E-05
1	109	79.0520688004127	0.897674560546875	0.89752197265625	1.3592529296875E-06	1.21995935842278E-06	660305.375	1.0864096111618E-05
1	110	79.1527768001584	0.907745361328125	0.9075927734375	1.36260986328125E-06	1.23669485674327E-06	666069.4375	1.10011533251964E-05
1	111	79.2534847999042	0.917816162109375	0.91766357421875	1.36688232421875E-06	1.25433814446296E-06	671355.1875	1.11385943455389E-05
1	112	79.3541927996499	0.927886962890625	0.927734375	1.37176513671875E-06	1.27263353988383E-06	676307.0625	1.12764955702005E-05
1	113	79.4549007993957	0.937957763671875	0.9381103515625	1.37664794921875E-06	1.29144768834522E-06	681445.375	1.14148897409905E-05
1	114	79.5556087991414	0.948028564453125	0.948486328125	1.3818359375E-06	1.31065246478101E-06	686395.8125	1.15537905003293E-05
1	115	79.6563167988871	0.958099365234375	0.95794677734375	1.38763427734375E-06	1.32927971208119E-06	690345.3125	1.16932442324469E-05
1	116	79.7570247986329	0.968170166015625	0.9686279296875	1.39495849609375E-06	1.35119569222297E-06	694377.625	1.18333591672126E-05
1	117	79.8577327983786	0.978240966796875	0.9783935546875	1.40411376953125E-06	1.37377583087073E-06	696805.0625	1.19743035611464E-05
1	118	79.9584407981243	0.988311767578125	0.9881591796875	1.4141845703125E-06	1.39743940508197E-06	698748.375	1.21162156574428E-05
1	119	80.0591487978701	0.998382568359375	0.99853515625	1.42486572265625E-06	1.42277849590755E-06	700792.5	1.22591736726463E-05
1	120	80.1598567976158	1.00845336914063	1.0089111328125	1.43524169921875E-06	1.4480312984233E-06	702955.5625	1.24031912491773E-05
1	121	80.2605647973616	1.01852416992188	1.01837158203125	1.444091796875E-06	1.47062200994696E-06	705198.6875	1.25481774375658E-05
1	122	80.3612727971073	1.02859497070313	1.0284423828125	1.451416015625E-06	1.49269772009575E-06	708578.625	1.26939776237123E-05
1	123	80.461980796853	1.03866577148438	1.03851318359375	1.4581298828125E-06	1.51428707795276E-06	712222.6875	1.28404844872421E-05
1	124	80.5626887965988	1.04873657226563	1.048583984375	1.4642333984375E-06	1.53537166625028E-06	716131.75	1.29876370920101E-05
1	125	80.6633967963445	1.05880737304688	1.05865478515625	1.4703369140625E-06	1.55657915001939E-06	720008.3125	1.31354045151966E-05
1	126	80.7641047960902	1.06887817382813	1.06842041015625	1.47613525390625E-06	1.57713304815843E-06	723795.75	1.32837712953915E-05
1	127	80.864812795836	1.07894897460938	1.0784912109375	1.48193359375E-06	1.59825231094146E-06	727759.5	1.34327219711849E-05
1	128	80.9655207955817	1.08901977539063	1.0888671875	1.48681640625E-06	1.61894558914355E-06	732348.125	1.35822101583472E-05
1	129	81.0662287953274	1.09909057617188	1.09954833984375	1.49261474609375E-06	1.64120206136431E-06	736659.1875	1.37322367663728E-05
1	130	81.1669367950732	1.10916137695313	1.1090087890625	1.49810791015625E-06	1.66141478530335E-06	740273	1.38828318085871E-05
1	131	81.2676447948189	1.11923217773438	1.119384765625	1.5032958984375E-06	1.68276642398268E-06	744620.4375	1.40339643621701E-05
1	132	81.3683527945647	1.12930297851563	1.12945556640625	1.5093994140625E-06	1.70479950156732E-06	748281.5	1.41856653499417E-05
1	133	81.4690607943104	1.13937377929688	1.138916015625	1.51580810546875E-06	1.72637805917475E-06	751359	1.43379966175416E-05
1	134	81.5697687940561	1.14944458007813	1.14959716796875	1.5234375E-06	1.75133948232542E-06	754607.375	1.44910354720196E-05
1	135	81.6704767938019	1.15951538085938	1.15936279296875	1.5301513671875E-06	1.77400045231479E-06	757678.5625	1.4644795555796E-05
1	136	81.7711847935476	1.16958618164063	1.16943359375	1.536865234375E-06	1.79726180249418E-06	760921.375	1.47992323036306E-05
1	137	81.8718927932933	1.17965698242188	1.17950439453125	1.54327392578125E-06	1.82029839379538E-06	764287.125	1.49543293446186E-05
1	138	81.9726007930391	1.18972778320313	1.18896484375	1.5496826171875E-06	1.84251814516756E-06	767231.25	1.51100721268449E-05
1	139	82.0733087927848	1.19979858398438	1.199951171875	1.55670166015625E-06	1.86796592061E-06	770829.3125	1.52664906636346E-05
1	140	82.1740167925306	1.20986938476563	1.209716796875	1.5643310546875E-06	1.89239744941005E-06	773312.5625	1.54236477101222E-05
1	141	82.2747247922763	1.21994018554688	1.21978759765625	1.57318115234375E-06	1.91894673662318E-06	775363.75	1.55816342157777E-05
1	142	82.375432792022	1.23001098632813	1.23046875	1.58203125E-06	1.94663994079747E-06	777777.75	1.5740512026241E-05
1	143	82.4761407917678	1.24008178710938	1.2396240234375	1.5911865234375E-06	1.97247300093295E-06	779056.4375	1.59002956934273E-05
1	144	82.5768487915135	1.25015258789063	1.25	1.5997314453125E-06	1.99966416403186E-06	781381.1875	1.60609706654213E-05
1	145	82.6775567912592	1.26022338867188	1.26068115234375	1.60980224609375E-06	2.02944738703081E-06	783128	1.62225842359476E-05
1	146	82.778264791005	1.27029418945313	1.2701416015625	1.61956787109375E-06	2.05708033718111E-06	784247.25	1.6385194612667E-05
1	147	82.8789727907507	1.28036499023438	1.28021240234375	1.63055419921875E-06	2.08745564123092E-06	785139.4375	1.65488527272828E-05
1	148	82.9796807904964	1.29043579101563	1.290283203125	1.64215087890625E-06	2.11883980227867E-06	785727.5625	1.67136458912864E-05
1	149	83.0803887902422	1.30050659179688	1.3006591796875	1.65435791015625E-06	2.15175577977789E-06	786201.8125	1.6879637769307E-05
1	150	83.1810967899879	1.31057739257813	1.31072998046875	1.66656494140625E-06	2.18441664401325E-06	786486	1.70468592841644E-05
1	151	83.2818047897337	1.32064819335938	1.32080078125	1.67755126953125E-06	2.21571099245921E-06	787338.5625	1.72152504092082E-05
1	152	83.3825127894794	1.33071899414063	1.33087158203125	1.68853759765625E-06	2.24722657549137E-06	788180.0625	1.738474566082E-05
1	153	83.4832207892251	1.34078979492188	1.34063720703125	1.69891357421875E-06	2.2776266632718E-06	789114.4375	1.75553177541588E-05
1	154	83.5839287889709	1.35086059570313	1.35101318359375	1.70867919921875E-06	2.30844807447284E-06	790676.9375	1.77269030245952E-05
1	155	83.6846367887166	1.36093139648438	1.361083984375	1.7193603515625E-06	2.34019375966454E-06	791622.3125	1.78995196620235E-05
1	156	83.7853447884623	1.37100219726563	1.37115478515625	1.7291259765625E-06	2.37089943766478E-06	792975.625	1.80731640284648E-05
1	157	83.8860527882081	1.38107299804688	1.3812255859375	1.7376708984375E-06	2.4001153633435E-06	794871.8125	1.82477306225337E-05
1	158	83.9867607879538	1.39114379882813	1.3909912109375	1.74560546875E-06	2.42812188844255E-06	796853.125	1.842312849476E-05
1	159	84.0874687876995	1.40121459960938	1.40106201171875	1.75201416015625E-06	2.45468049797637E-06	799686.5	1.85992466867901E-05
1	160	84.1881767874453	1.41128540039063	1.41143798828125	1.75689697265625E-06	2.47975117417809E-06	803369.8125	1.87759342225036E-05
1	161	84.288884787191	1.42135620117188	1.4208984375	1.761474609375E-06	2.50287644121272E-06	806652.8125	1.89530983334407E-05
1	162	84.3895927869368	1.43142700195313	1.4312744140625	1.76666259765625E-06	2.5285789888585E-06	810157.25	1.91307553905062E-05
1	163	84.4903007866825	1.44149780273438	1.44195556640625	1.77154541015625E-06	2.55448981079098E-06	813953.5	1.93089181266259E-05
1	164	84.5910087864282	1.45156860351563	1.451416015625	1.77764892578125E-06	2.58010800280317E-06	816480.6875	1.94876338355243E-05
1	165	84.691716786174	1.46163940429688	1.46148681640625	1.78466796875E-06	2.60826868725417E-06	818912.5	1.96670098375762E-05
1	166	84.7924247859197	1.47171020507813	1.47186279296875	1.7919921875E-06	2.63756669482973E-06	821355.5625	1.98471097974107E-05
1	167	84.8931327856654	1.48178100585938	1.48223876953125	1.80023193359375E-06	2.66837355411553E-06	823359.9375	2.00279919226887E-05
1	168	84.9938407854112	1.49185180664063	1.49200439453125	1.81060791015625E-06	2.70143482339336E-06	824035.0625	2.02098126464989E-05
1	169	85.0945487851569	1.50192260742188	1.5020751953125	1.8231201171875E-06	2.73846353593399E-06	823903.5625	2.03927847906016E-05
1	170	85.1952567849027	1.49185180664063	1.49169921875	1.6693115234375E-06	2.49011054620496E-06	893601.5	2.0568642867147E-05
1	171	85.2959647846484	1.48178100585938	1.48162841796875	1.56219482421875E-06	2.31459216593066E-06	948427.4375	2.07313623832306E-05
1	172	85.3966727843941	1.47171020507813	1.4715576171875	1.47735595703125E-06	2.17401429836173E-06	996075.25	2.08844157896237E-05
1	173	85.4973807841399	1.46163940429688	1.46148681640625	1.40777587890625E-06	2.05744572667754E-06	1038153.125	2.10296948353061E-05
1	174	85.5980887838856	1.45156860351563	1.4520263671875	1.34765625E-06	1.95683219317289E-06	1077445.75	2.11684418900404E-05
1	175	85.6987967836313	1.44149780273438	1.44134521484375	1.2957763671875E-06	1.86766101251123E-06	1112341.125	2.13015482586343E-05
1	176	85.7995047833771	1.43142700195313	1.4306640625	1.24908447265625E-06	1.78702021003119E-06	1145370.125	2.14296924241353E-05
1	177	85.9002127831228	1.42135620117188	1.4215087890625	1.20880126953125E-06	1.71832152773277E-06	1175965.75	2.15534564631525E-05
1	178	86.0009207828685	1.41128540039063	1.4111328125	1.17218017578125E-06	1.65410187946691E-06	1203853.125	2.16733496927191E-05
1	179	86.1016287826143	1.40121459960938	1.40106201171875	1.13922119140625E-06	1.59611943217897E-06	1229842	2.17897377297049E-05
1	180	86.20233678236	1.39114379882813	1.3909912109375	1.1090087890625E-06	1.54262136220495E-06	1254265.375	2.1902944354224E-05
1	181	86.3030447821058	1.38107299804688	1.3812255859375	1.08001708984375E-06	1.4917472981324E-06	1278892.375	2.20131714741001E-05
1	182	86.4037527818515	1.37100219726563	1.370849609375	1.05316162109375E-06	1.44372609156562E-06	1301651.75	2.21205846173689E-05
1	183	86.5044607815972	1.36093139648438	1.361083984375	1.0272216796875E-06	1.39813494115515E-06	1325014.875	2.22253402171191E-05
1	184	86.605168781343	1.35086059570313	1.35040283203125	1.00372314453125E-06	1.3554305269281E-06	1345393.75	2.23276074393652E-05
1	185	86.7058767810887	1.34078979492188	1.34063720703125	9.814453125E-07	1.31576200601558E-06	1365982.625	2.24275681830477E-05
1	186	86.8065847808344	1.33071899414063	1.33087158203125	9.613037109375E-07	1.27937175875559E-06	1384444.375	2.25253934331704E-05
1	187	86.9072927805802	1.32064819335938	1.32049560546875	9.4268798828125E-07	1.24481528018805E-06	1400777	2.26212669076631E-05
1	188	87.0080007803259	1.31057739257813	1.31103515625	9.25292968749999E-07	1.21309165024286E-06	1416886.5	2.27153268497204E-05
1	189	87.1087087800717	1.30050659179688	1.3006591796875	9.08203125E-07	1.18126274628594E-06	1432123.625	2.28076514758868E-05
1	190	87.2094167798174	1.29043579101563	1.2908935546875	8.91723632812499E-07	1.15112027287978E-06	1447638.625	2.28982844419079E-05
1	191	87.3101247795631	1.28036499023438	1.28021240234375	8.770751953125E-07	1.12284249098593E-06	1459638.125	2.29873494390631E-05
1	192	87.4108327793089	1.27029418945313	1.2701416015625	8.6334228515625E-07	1.09656696167804E-06	1471191.25	2.30749865295365E-05
1	193	87.5115407790546	1.26022338867188	1.26007080078125	8.4991455078125E-07	1.07095252133149E-06	1482585.25	2.31612557399785E-05
1	194	87.6122487788003	1.25015258789063	1.25	8.392333984375E-07	1.04904177078424E-06	1489454.5	2.32463116844883E-05
1	195	87.7129567785461	1.24008178710938	1.240234375	8.282470703125E-07	1.02722049177828E-06	1497420.875	2.3330276235356E-05
1	196	87.8136647782918	1.23001098632813	1.2298583984375	8.1787109375E-07	1.00586555618065E-06	1503731.375	2.34131657634862E-05
1	197	87.9143727780375	1.21994018554688	1.21978759765625	8.0718994140625E-07	9.84600205811148E-07	1511153.125	2.34949930018047E-05
1	198	88.0150807777833	1.20986938476563	1.21002197265625	7.9620361328125E-07	9.6342387223558E-07	1519739.375	2.35757306654705E-05
1	199	88.115788777529	1.19979858398438	1.19964599609375	7.8582763671875E-07	9.42714962093305E-07	1526602	2.36553914874094E-05
1	200	88.2164967772748	1.18972778320313	1.18927001953125	7.7667236328125E-07	9.23673098895961E-07	1531237.75	2.37340700550703E-05
1	201	88.3172047770205	1.17965698242188	1.17950439453125	7.66906738281251E-07	9.04569844806247E-07	1538002.375	2.38117954722838E-05
1	202	88.4179127767662	1.16958618164063	1.1700439453125	7.568359375E-07	8.85531278527196E-07	1545967.875	2.38885222643148E-05
1	203	88.518620776512	1.15951538085938	1.15936279296875	7.476806640625E-07	8.66833147483703E-07	1550612.25	2.39642813539831E-05
1	204	88.6193287762577	1.14944458007813	1.1492919921875	7.373046875E-07	8.47378373691754E-07	1558774.875	2.40390563703841E-05
1	205	88.7200367760034	1.13937377929688	1.13983154296875	7.2662353515625E-07	8.28228394311736E-07	1568668.625	2.41127709159628E-05
1	206	88.8207447757492	1.12930297851563	1.12884521484375	7.16552734375001E-07	8.08877132385533E-07	1575383.25	2.41854395426344E-05
1	207	88.9214527754949	1.11923217773438	1.1187744140625	7.0526123046875E-07	7.89028149483784E-07	1586326.375	2.42570331465686E-05
1	208	89.0221607752406	1.10916137695313	1.1090087890625	6.95190429687501E-07	7.70972292229999E-07	1595259	2.43275517277652E-05
1	209	89.1228687749864	1.09909057617188	1.09893798828125	6.8511962890625E-07	7.52903986267484E-07	1604008.875	2.43970571318641E-05
1	210	89.2235767747321	1.08901977539063	1.0888671875	6.744384765625E-07	7.34373941213562E-07	1614479.625	2.44655147980666E-05
1	211	89.3242847744779	1.07894897460938	1.0784912109375	6.6375732421875E-07	7.1585640171179E-07	1624827.625	2.45328992605209E-05
1	212	89.4249927742236	1.06887817382813	1.0687255859375	6.5185546875E-07	6.96654581133771E-07	1639513.25	2.45991450356087E-05
1	213	89.5257007739693	1.05880737304688	1.05865478515625	6.39953613281249E-07	6.77489936151687E-07	1654268	2.46641939156689E-05
1	214	89.6264087737151	1.04873657226563	1.04888916015625	6.2774658203125E-07	6.58436533740314E-07	1670880	2.47280277108075E-05
1	215	89.7271167734608	1.03866577148438	1.03851318359375	6.15234375E-07	6.38928952412243E-07	1687996.125	2.47906154982047E-05
1	216	89.8278247732065	1.02859497070313	1.02813720703125	6.0302734375E-07	6.19994864337059E-07	1704959.5	2.48519609158393E-05
1	217	89.9285327729523	1.01852416992188	1.01837158203125	5.89904785156251E-07	6.00742225742579E-07	1726332.25	2.49120294029126E-05
1	218	90.029240772698	1.00845336914063	1.00860595703125	5.77392578124999E-07	5.82361565193423E-07	1746828.875	2.49708082264988E-05
1	219	90.1299487724438	0.998382568359375	0.99822998046875	5.6427001953125E-07	5.63271214559791E-07	1769064.375	2.5028293748619E-05
1	220	90.2306567721895	0.988311767578125	0.98846435546875	5.511474609375E-07	5.44789600098738E-07	1793466.375	2.50844605034217E-05
1	221	90.3313647719352	0.978240966796875	0.97808837890625	5.39550781250001E-07	5.27728332144761E-07	1812783	2.5139381250483E-05
1	222	90.432072771681	0.968170166015625	0.968017578125	5.28869628906251E-07	5.11955079218751E-07	1830352	2.51931815000717E-05
1	223	90.5327807714267	0.958099365234375	0.958251953125	5.19714355468751E-07	4.98017243444338E-07	1843805.125	2.52459813054884E-05
1	224	90.6334887711724	0.948028564453125	0.948486328125	5.11474609375E-07	4.85126633975597E-07	1854415.375	2.5297906177002E-05
1	225	90.7341967709182	0.937957763671875	0.93780517578125	5.04150390624999E-07	4.72794823735967E-07	1860169.625	2.53490470640827E-05
1	226	90.8349047706639	0.927886962890625	0.92803955078125	4.9560546875E-07	4.5994144670658E-07	1872537.125	2.53993875958258E-05
1	227	90.9356127704096	0.917816162109375	0.9173583984375	4.86145019531251E-07	4.45969192242046E-07	1887005.75	2.5448822270846E-05
1	228	91.0363207701554	0.907745361328125	0.90728759765625	4.7607421875E-07	4.31936229006169E-07	1905769.25	2.54972746915882E-05
1	229	91.1370287699011	0.897674560546875	0.897216796875	4.64782714843751E-07	4.17010852515887E-07	1930400.5	2.55446502706036E-05
1	230	91.2377367696469	0.887603759765625	0.88836669921875	4.52270507812499E-07	4.01782045855725E-07	1964237.625	2.5590827135602E-05
1	231	91.3384447693926	0.877532958984375	0.87799072265625	4.376220703125E-07	3.84228087568772E-07	2006276.25	2.56356379395584E-05
1	232	91.4391527691383	0.867462158203125	0.86761474609375	4.21142578125E-07	3.65389496437274E-07	2060145	2.56788789556595E-05
1	233	91.5398607688841	0.857391357421875	0.85784912109375	4.02221679687501E-07	3.45045521044085E-07	2132777	2.57203391811345E-05
1	234	91.6405687686298	0.847320556640625	0.84716796875	3.8116455078125E-07	3.22910381100883E-07	2222578.25	2.57597857853398E-05
1	235	91.7412767683755	0.837249755859375	0.83740234375	3.59191894531249E-07	3.00788116192052E-07	2331351	2.57970659731654E-05
1	236	91.8419847681213	0.827178955078125	0.82763671875	3.37829589843749E-07	2.79600186559037E-07	2449864.5	2.58321633737069E-05
1	237	91.942692767867	0.817108154296875	0.81695556640625	3.18603515625E-07	2.60284906516972E-07	2564176.5	2.58652180491481E-05
1	238	92.0434007676128	0.807037353515625	0.80657958984375	3.03039550781251E-07	2.44425507389678E-07	2661631.5	2.58965192188043E-05
1	239	92.1441087673585	0.796966552734375	0.79742431640625	2.92358398437501E-07	2.33133675919817E-07	2727557.5	2.59264998021536E-05
1	240	92.2448167671042	0.786895751953125	0.7867431640625	2.8564453125E-07	2.24728864850476E-07	2754273.75	2.59556054515997E-05
1	241	92.34552476685	0.776824951171875	0.7769775390625	2.81372070312499E-07	2.18619760516958E-07	2761388.5	2.59841563092778E-05
1	242	92.4462327665957	0.766754150390625	0.76690673828125	2.79541015625E-07	2.14381884688919E-07	2743449.75	2.6012401576736E-05
1	243	92.5469407663414	0.756683349609375	0.75714111328125	2.7801513671875E-07	2.10496693853202E-07	2723381	2.60404758591903E-05
1	244	92.6476487660872	0.746612548828125	0.74652099609375	2.77099609375001E-07	2.06860676144061E-07	2694052.75	2.60684282693546E-05
1	245	92.7483567658329	0.736541748046875	0.7364501953125	2.7587890625E-07	2.03171069301789E-07	2669469	2.60962733591441E-05
1	246	92.8490647655786	0.726470947265625	0.72637939453125	2.75573730468751E-07	2.00171072606281E-07	2635880.5	2.61240402323892E-05
1	247	92.9497727653244	0.716400146484375	0.716339111328125	2.75573730468751E-07	1.97404233404086E-07	2599446.5	2.61517943727085E-05
1	248	93.0504807650701	0.706329345703125	0.706268310546875	2.7435302734375E-07	1.93766851452892E-07	2574304.75	2.61794848483987E-05
1	249	93.1511887648159	0.696258544921875	0.696197509765625	2.7191162109375E-07	1.89304174114113E-07	2560381.75	2.62069916061591E-05
1	250	93.2518967645616	0.686187744140625	0.686126708984375	2.6885986328125E-07	1.84471929287611E-07	2551986.5	2.62342218775302E-05
1	251	93.3526047643073	0.676116943359375	0.676055908203125	2.655029296875E-07	1.79494833218996E-07	2546321.75	2.62611283687875E-05
1	252	93.4533127640531	0.666046142578125	0.665985107421875	2.62451171875E-07	1.74788553408689E-07	2537558.25	2.62877128989203E-05
1	253	93.5540207637988	0.655975341796875	0.655914306640625	2.58483886718749E-07	1.69543270089889E-07	2537544.25	2.63139445451088E-05
1	254	93.6547287635445	0.645904541015625	0.64581298828125	2.55432128906249E-07	1.64961392101759E-07	2528315.5	2.63398214883637E-05
1	255	93.7554367632903	0.635833740234375	0.635833740234375	2.5177001953125E-07	1.60083871492134E-07	2525454.5	2.63653619185789E-05
1	256	93.856144763036	0.625762939453125	0.625762939453125	2.484130859375E-07	1.55447693828137E-07	2519042	2.63905476458604E-05
1	257	93.9568527627818	0.615692138671875	0.61566162109375	2.45361328125E-07	1.51059552422339E-07	2509204	2.64154114120174E-05
1	258	94.0575607625275	0.605621337890625	0.6055908203125	2.423095703125E-07	1.46740447348748E-07	2499244.25	2.64399677689653E-05
1	259	94.1582687622732	0.595550537109375	0.59552001953125	2.398681640625E-07	1.4284630367456E-07	2482697	2.64642476395238E-05
1	260	94.258976762019	0.585479736328125	0.585479736328125	2.38037109375E-07	1.3936589482455E-07	2459615.5	2.64883110503433E-05
1	261	94.3596847617647	0.575408935546875	0.575408935546875	2.3681640625E-07	1.36266280037489E-07	2429768	2.65122216660529E-05
1	262	94.4603927615104	0.565338134765625	0.565277099609375	2.35595703124999E-07	1.33176854433259E-07	2399352.5	2.65360104094725E-05
1	263	94.5611007612562	0.555267333984375	0.55523681640625	2.349853515625E-07	1.30472514570101E-07	2362857.25	2.65597063844325E-05
1	264	94.6618087610019	0.545196533203125	0.545196533203125	2.33154296875E-07	1.27114915926541E-07	2338350.75	2.65832786681131E-05
1	265	94.7625167607476	0.535125732421875	0.53509521484375	2.3162841796875E-07	1.23943252106073E-07	2310145	2.66066817857791E-05
1	266	94.8632247604934	0.525054931640625	0.524993896484375	2.29492187499999E-07	1.2048199948822E-07	2287633	2.66299011855153E-05
1	267	94.9639327602391	0.514984130859375	0.514923095703125	2.276611328125E-07	1.17227976659251E-07	2261796.25	2.66529204964172E-05
1	268	95.0646407599849	0.504913330078125	0.50494384765625	2.25830078125E-07	1.14031507791879E-07	2235946	2.66757560893893E-05
1	269	95.1653487597306	0.494842529296875	0.494842529296875	2.24609375E-07	1.11146263748196E-07	2203125	2.66984370682621E-05
1	270	95.2660567594763	0.484771728515625	0.48480224609375	2.22167968750001E-07	1.07707528229639E-07	2182142.75	2.67209343292052E-05
1	271	95.3667647592221	0.474700927734375	0.4747314453125	2.197265625E-07	1.04311105530996E-07	2160555.5	2.67431860265788E-05
1	272	95.4674727589678	0.464630126953125	0.464630126953125	2.17285156249999E-07	1.00957223025944E-07	2138342.75	2.67651903413935E-05
1	273	95.5681807587135	0.454559326171875	0.454620361328125	2.14233398437499E-07	9.73948601767916E-08	2122079.75	2.67869199888082E-05
1	274	95.6688887584593	0.444488525390625	0.44451904296875	2.11181640624999E-07	9.38742559242201E-08	2104913.5	2.68083404080244E-05
1	275	95.769596758205	0.434417724609375	0.43438720703125	2.0751953125E-07	9.01438212963512E-08	2093235.375	2.68294243142009E-05
1	276	95.8703047579507	0.424346923828125	0.42437744140625	2.044677734375E-07	8.67715073127329E-08	2075522.5	2.68501698883483E-05
1	277	95.9710127576965	0.414276123046875	0.414276123046875	2.0172119140625E-07	8.3568274078516E-08	2053706.5	2.68706226052018E-05
1	278	96.0717207574422	0.404205322265625	0.4041748046875	1.9866943359375E-07	8.02971769076066E-08	2034408.625	2.68907842837507E-05
1	279	96.172428757188	0.394134521484375	0.394134521484375	1.953125E-07	7.69793970789578E-08	2017968.75	2.69106221821858E-05
1	280	96.2731367569337	0.384063720703125	0.38409423828125	1.91345214843749E-07	7.34945899694139E-08	2007336.625	2.69300926447613E-05
1	281	96.3738447566794	0.373992919921875	0.373992919921875	1.8768310546875E-07	7.01921507584302E-08	1992683	2.69491774815833E-05
1	282	96.4745527564252	0.363922119140625	0.36395263671875	1.8463134765625E-07	6.71970639132269E-08	1971239.625	2.69679258053657E-05
1	283	96.5752607561709	0.353851318359375	0.3538818359375	1.82495117187501E-07	6.45817053168685E-08	1939130.5	2.69864121946739E-05
1	284	96.6759687559166	0.343780517578125	0.34381103515625	1.8035888671875E-07	6.20093771885877E-08	1906260.625	2.70046821242431E-05
1	285	96.7766767556624	0.333709716796875	0.333709716796875	1.79138183593749E-07	5.97801559365507E-08	1862862	2.70227847067872E-05
1	286	96.8773847554081	0.323638916015625	0.323699951171875	1.7730712890625E-07	5.73943097492702E-08	1825645.5	2.7040732675232E-05
1	287	96.9780927551539	0.313568115234375	0.31353759765625	1.751708984375E-07	5.49226619739329E-08	1789895.5	2.70584823738318E-05
1	288	97.0788007548996	0.303497314453125	0.303497314453125	1.7242431640625E-07	5.23303143040721E-08	1760177.125	2.70759846898727E-05
1	289	97.1795087546453	0.293426513671875	0.293365478515625	1.69982910156249E-07	4.98671184345767E-08	1725852.75	2.70932268904289E-05
1	290	97.2802167543911	0.283355712890625	0.283355712890625	1.66931152343749E-07	4.73008938683961E-08	1697440.625	2.71101907856064E-05
1	291	97.3809247541368	0.273284912109375	0.27325439453125	1.64184570312501E-07	4.48641550576667E-08	1664312.25	2.71268636424793E-05
1	292	97.4816327538825	0.263214111328125	0.263153076171875	1.60827636718749E-07	4.2322287896468E-08	1636242.875	2.71432309091324E-05
1	293	97.5823407536283	0.253143310546875	0.25311279296875	1.58081054687501E-07	4.0012334778794E-08	1601158.375	2.71592889475869E-05
1	294	97.683048753374	0.243072509765625	0.243072509765625	1.5411376953125E-07	3.74608184472436E-08	1577227.75	2.71750086540123E-05
1	295	97.7837567531197	0.233001708984375	0.233062744140625	1.48925781250001E-07	3.47090498564739E-08	1564959	2.71902681561187E-05
1	296	97.8844647528655	0.222930908203125	0.222991943359375	1.4312744140625E-07	3.19162651862825E-08	1557995.75	2.72049746854464E-05
1	297	97.9851727526112	0.212860107421875	0.212921142578125	1.373291015625E-07	2.92402670964975E-08	1550444.5	2.72190955001861E-05
1	298	98.085880752357	0.202789306640625	0.20281982421875	1.312255859375E-07	2.66151474193066E-08	1545581.5	2.72326196864014E-05
1	299	98.1865887521027	0.192718505859375	0.192779541015625	1.25732421874999E-07	2.42386359872171E-08	1533252.5	2.72455581580289E-05
1	300	98.2872967518484	0.182647705078125	0.1826171875	1.19628906249999E-07	2.18462954393317E-08	1526530.625	2.72579127340578E-05
1	301	98.3880047515942	0.172576904296875	0.172607421875	1.1260986328125E-07	1.94372979933632E-08	1532791.375	2.72696070169332E-05
1	302	98.4887127513399	0.162506103515625	0.162506103515625	1.04675292968751E-07	1.70103735541716E-08	1552478.25	2.72805482381955E-05
1	303	98.5894207510856	0.152435302734375	0.152496337890625	9.49096679687497E-08	1.4473376275248E-08	1606752.5	2.72905981546501E-05
1	304	98.6901287508314	0.142364501953125	0.1424560546875	8.45336914062495E-08	1.20423360172595E-08	1685198.625	2.72996330750175E-05
1	305	98.7908367505771	0.132293701171875	0.13238525390625	7.171630859375E-08	9.49418144102765E-09	1845957.5	2.73075020231772E-05
1	306	98.8915447503229	0.122222900390625	0.122314453125	5.67626953124997E-08	6.94289781222324E-09	2154838.75	2.73139703494962E-05
1	307	98.9922527500686	0.112152099609375	0.112213134765625	3.78417968750003E-08	4.24634682971714E-09	2965322.5	2.73187342827441E-05
1	308	99.0929607498143	0.102081298828125	0.10211181640625	1.25122070312497E-08	1.27764410162712E-09	8160976	2.73212699539727E-05
1	309	99.1936687495601	0.092010498046875	0.09197998046875	-2.22778320312506E-08	-2.04911443368871E-09	-4128767.25	2.73207788268337E-05
1	310	99.2943767493058	0.081939697265625	0.08197021484375	-6.89697265624997E-08	-5.6534630310523E-09	-1188495.625	2.73161840596003E-05
1	311	99.3950847490515	0.071868896484375	0.071929931640625	-1.3275146484375E-07	-9.54880352566079E-09	-541839.0625	2.73060268227709E-05
1	312	99.4957927487973	0.061798095703125	0.0618896484375	-2.1942138671875E-07	-1.35799123057723E-08	-282058.4375	2.72882934950758E-05
1	313	99.596500748543	0.051727294921875	0.0517578125	-3.3233642578125E-07	-1.72010050647486E-08	-155739.21875	2.7260510250926E-05
1	314	99.6972087482887	0.041656494140625	0.041741943359375	-4.7576904296875E-07	-1.98595255795908E-08	-87735.734375	2.72198176389793E-05
1	315	99.7979167480345	0.031585693359375	0.0316986083984375	-6.50939941406251E-07	-2.063388748752E-08	-48696.671875	2.71630833594827E-05
1	316	99.8986247477802	0.021514892578125	0.0216217041015625	-8.526611328125E-07	-1.84359869592754E-08	-25357.91015625	2.70873715635389E-05
1	317	99.999332747526	0.011444091796875	0.0115142822265625	-1.06781005859375E-06	-1.22950654102283E-08	-10783.0810546875	2.69906686298782E-05
1	318	100.100040747272	0.001373291015625	0.00144348144531251	-1.27899169921875E-06	-1.84620074783481E-09	-1128.60888671875	2.68724979832768E-05
1	319	100.200748747017	-0.008697509765625	-0.00859680175781249	-1.46453857421875E-06	1.2590347431285E-08	5869.9736328125	2.67343493760563E-05
1	320	100.301456746763	-0.018768310546875	-0.0186614990234375	-1.60614013671875E-06	2.99729840946839E-08	11618.8486328125	2.65797280007973E-05
1	321	100.402164746509	-0.028839111328125	-0.0287200927734375	-1.69464111328125E-06	4.86702447233256E-08	16947.595703125	2.64135214820271E-05
1	322	100.502872746255	-0.038909912109375	-0.0387451171875	-1.72943115234375E-06	6.70070079422658E-08	22403.388671875	2.62411049334332E-05
1	323	100.603580746	-0.048980712890625	-0.048834228515625	-1.7205810546875E-06	8.40232488030779E-08	28382.404296875	2.6067384169437E-05
1	324	100.704288745746	-0.059051513671875	-0.058990478515625	-1.68212890625E-06	9.92295881019345E-08	35068.94140625	2.589604446257E-05
1	325	100.804996745492	-0.069122314453125	-0.06903076171875	-1.62628173828125E-06	1.12263464302487E-07	42446.98828125	2.57294523180462E-05
1	326	100.905704745238	-0.079193115234375	-0.079132080078125	-1.563720703125E-06	1.23740463209288E-07	50605	2.55688228207873E-05
1	327	101.006412744983	-0.089263916015625	-0.08917236328125	-1.5008544921875E-06	1.33834731741445E-07	59414.3984375	2.54145088547375E-05
1	328	101.107120744729	-0.099334716796875	-0.0992431640625	-1.44073486328125E-06	1.42983083151194E-07	68883.7109375	2.52663885476068E-05
1	329	101.207828744475	-0.109405517578125	-0.109344482421875	-1.38580322265625E-06	1.51529931713412E-07	78903.328125	2.51240599027369E-05
1	330	101.308536744221	-0.119476318359375	-0.119384765625	-1.33575439453125E-06	1.59468726224077E-07	89376.28125	2.49870190600632E-05
1	331	101.409244743966	-0.129547119140625	-0.129486083984375	-1.2921142578125E-06	1.67310815868404E-07	100212.5703125	2.48546948569128E-05
1	332	101.509952743712	-0.139617919921875	-0.139495849609375	-1.25518798828125E-06	1.75093504140023E-07	111135.4296875	2.47264288191218E-05
1	333	101.610660743458	-0.149688720703125	-0.149566650390625	-1.22406005859375E-06	1.83078554982785E-07	122188.984375	2.46015879383776E-05
1	334	101.711368743203	-0.159759521484375	-0.15966796875	-1.19781494140625E-06	1.91252667036679E-07	133299.375	2.44796374317957E-05
1	335	101.812076742949	-0.169830322265625	-0.169647216796875	-1.1761474609375E-06	1.99530134636916E-07	144239.75	2.43600989051629E-05
1	336	101.912784742695	-0.179901123046875	-0.179656982421875	-1.15814208984375E-06	2.08068300366904E-07	155125.171875	2.42425576288952E-05
1	337	102.013492742441	-0.189971923828125	-0.189849853515625	-1.14349365234375E-06	2.17092093635074E-07	166026.15625	2.41266625380376E-05
1	338	102.114200742186	-0.200042724609375	-0.199859619140625	-1.13250732421875E-06	2.26342493192533E-07	176475.34375	2.40120552916778E-05
1	339	102.214908741932	-0.189971923828125	-0.1898193359375	-9.716796875E-07	1.84443592843309E-07	195351.75	2.39061009779107E-05
2	340	102.315616741678	-0.179901123046875	-0.17974853515625	-8.636474609375E-07	1.55239362698012E-07	208127.21875	2.38136854022741E-05
2	341	102.416324741424	-0.169830322265625	-0.169708251953125	-7.80029296875E-07	1.32377408590401E-07	217566.515625	2.37309195654234E-05
2	342	102.517032741169	-0.159759521484375	-0.159637451171875	-7.0953369140625E-07	1.13268143309142E-07	224989.265625	2.36559153563576E-05
2	343	102.617740740915	-0.149688720703125	-0.14959716796875	-6.4697265625E-07	9.67852713529282E-08	231226.421875	2.35876086662756E-05
2	344	102.718448740661	-0.139617919921875	-0.139495849609375	-5.91430664062501E-07	8.25021189143627E-08	235861.71875	2.35252500715433E-05
2	345	102.819156740407	-0.129547119140625	-0.12945556640625	-5.401611328125E-07	6.99268625226068E-08	239661.015625	2.34682702284772E-05
2	346	102.919864740152	-0.119476318359375	-0.119415283203125	-4.901123046875E-07	5.85269006592171E-08	243648.8125	2.34163926506881E-05
2	347	103.020572739898	-0.109405517578125	-0.10931396484375	-4.40673828125E-07	4.81718025469036E-08	248060.9375	2.33695227507269E-05
2	348	103.121280739644	-0.099334716796875	-0.099273681640625	-3.89709472656249E-07	3.86878937774782E-08	254737.671875	2.33277096413076E-05
2	349	103.22198873939	-0.089263916015625	-0.089141845703125	-3.33251953124999E-07	2.97066922172462E-08	267490.84375	2.32913062063744E-05
2	350	103.322696739135	-0.079193115234375	-0.079071044921875	-2.685546875E-07	2.12349000605627E-08	294431.8125	2.32610018429114E-05
2	351	103.423404738881	-0.069122314453125	-0.069061279296875	-1.8951416015625E-07	1.30880897231123E-08	364412.25	2.32379370572744E-05
2	352	103.524112738627	-0.059051513671875	-0.0589599609375	-9.24682617187506E-08	5.45192513357051E-09	637623.75	2.32237380259903E-05
2	353	103.624820738372	-0.048980712890625	-0.0488372802734375	2.96020507812494E-08	-1.4456836838761E-09	-1649793.875	2.32205729844281E-05
2	354	103.725528738118	-0.038909912109375	-0.038763427734375	1.7852783203125E-07	-6.92035007077152E-09	-217128.203125	2.3231052182382E-05
2	355	103.826236737864	-0.028839111328125	-0.0287353515625	3.5858154296875E-07	-1.03039656806914E-08	-80136.171875	2.32580987358233E-05
2	356	103.92694473761	-0.018768310546875	-0.018646240234375	5.6488037109375E-07	-1.05328945565475E-08	-33009.1875	2.33045975619461E-05
2	357	104.027652737355	-0.008697509765625	-0.0086029052734375	7.88269042968751E-07	-6.78140343879363E-09	-10913.6669921875	2.33727350860136E-05
2	358	104.128360737101	0.001373291015625	0.0014801025390625	1.0125732421875E-06	1.49871215437969E-09	1461.72399902344	2.34634135267697E-05
2	359	104.229068736847	0.011444091796875	0.011541748046875	1.2176513671875E-06	1.4053824770599E-08	9478.697265625	2.35757142945658E-05
2	360	104.329776736593	0.021514892578125	0.0215911865234375	1.3848876953125E-06	2.99013684923466E-08	15590.568359375	2.37067633861443E-05
2	361	104.430484736338	0.031585693359375	0.031671142578125	1.49871826171875E-06	4.74661199234561E-08	21132.154296875	2.38519642152824E-05
2	362	104.531192736084	0.041656494140625	0.0417449951171875	1.5594482421875E-06	6.50991580641858E-08	26769.08203125	2.40059562202077E-05
2	363	104.63190073583	0.051727294921875	0.051788330078125	1.5704345703125E-06	8.13301781477094E-08	32977.0703125	2.41635571001098E-05
2	364	104.732608735576	0.061798095703125	0.0618896484375	1.546630859375E-06	9.57204377982634E-08	40015.78515625	2.43205140577629E-05
2	365	104.833316735321	0.071868896484375	0.0718994140625	1.50054931640625E-06	1.07888610045848E-07	47915.3984375	2.44739512709202E-05
2	366	104.934024735067	0.081939697265625	0.0819091796875	1.44500732421875E-06	1.18359366751974E-07	56684.265625	2.46222716668854E-05
2	367	105.034732734813	0.092010498046875	0.092071533203125	1.38580322265625E-06	1.27593025922579E-07	66439.109375	2.47648149525048E-05
2	368	105.135440734559	0.102081298828125	0.10211181640625	1.329345703125E-06	1.35741899498498E-07	76813.59375	2.49015338340541E-05
2	369	105.236148734304	0.112152099609375	0.112213134765625	1.275634765625E-06	1.43142969477594E-07	87966.5078125	2.50327047979226E-05
2	370	105.33685673405	0.122222900390625	0.12225341796875	1.2274169921875E-06	1.50055925018933E-07	99602.1875	2.51587443926837E-05
2	371	105.437564733796	0.132293701171875	0.13232421875	1.18438720703125E-06	1.56723118038826E-07	111723.78125	2.52801874012221E-05
2	372	105.538272733541	0.142364501953125	0.14239501953125	1.1468505859375E-06	1.63305799105729E-07	124161.796875	2.53975740633905E-05
2	373	105.638980733287	0.152435302734375	0.152435302734375	1.11419677734375E-06	1.69842920172414E-07	136811.84375	2.55114282481372E-05
2	374	105.739688733033	0.162506103515625	0.16253662109375	1.08612060546875E-06	1.76534371121306E-07	149648.78125	2.56222228927072E-05
2	375	105.840396732779	0.172576904296875	0.172576904296875	1.06170654296875E-06	1.83226021022165E-07	162546.71875	2.57303745456738E-05
2	376	105.941104732524	0.182647705078125	0.18267822265625	1.0406494140625E-06	1.90103989439194E-07	175542.515625	2.58362360909814E-05
2	377	106.04181273227	0.192718505859375	0.19268798828125	1.0211181640625E-06	1.96757198978048E-07	188702.9375	2.59400549111888E-05
2	378	106.142520732016	0.202789306640625	0.20281982421875	1.00372314453125E-06	2.03574941792795E-07	202067.5	2.60420129052363E-05
2	379	106.243228731762	0.212860107421875	0.21282958984375	9.8876953125E-07	2.10439424108699E-07	215246.90625	2.61423429037677E-05
2	380	106.343936731507	0.222930908203125	0.22296142578125	9.7503662109375E-07	2.17395566437517E-07	228669.796875	2.62412286247127E-05
2	381	106.444644731253	0.233001708984375	0.233001708984375	9.625244140625E-07	2.24269825821466E-07	242073.5625	2.63387919403613E-05
2	382	106.545352730999	0.243072509765625	0.243072509765625	9.521484375E-07	2.31441106279817E-07	255288.46875	2.64352038357174E-05
2	383	106.646060730745	0.253143310546875	0.253173828125	9.4207763671875E-07	2.38509414884902E-07	268739.875	2.65305861830711E-05
2	384	106.74676873049	0.263214111328125	0.26324462890625	9.33227539062501E-07	2.45667138187855E-07	282079.8125	2.66250153799774E-05
2	385	106.847476730236	0.273284912109375	0.27325439453125	9.24072265625001E-07	2.52506794140572E-07	295706.75	2.67185369011713E-05
2	386	106.948184729982	0.283355712890625	0.2833251953125	9.1522216796875E-07	2.5930549441E-07	309569.875	2.68111525656423E-05
2	387	107.048892729728	0.293426513671875	0.293365478515625	9.08203125E-07	2.6643544970284E-07	323017.46875	2.6902969693765E-05
2	388	107.149600729473	0.303497314453125	0.303497314453125	9.02099609375E-07	2.73784792170773E-07	336434.375	2.69941265287343E-05
2	389	107.250308729219	0.313568115234375	0.3135986328125	8.97216796875E-07	2.8136594210082E-07	349523.8125	2.70847285719356E-05
2	390	107.351016728965	0.323638916015625	0.3236083984375	8.92333984375E-07	2.88766756284531E-07	362653.90625	2.71748394879978E-05
2	391	107.45172472871	0.333709716796875	0.333770751953125	8.892822265625E-07	2.96816381251119E-07	375326.03125	2.72645520453807E-05
2	392	107.552432728456	0.343780517578125	0.34381103515625	8.85925292968751E-07	3.04590884070421E-07	388081.3125	2.73539408226497E-05
2	393	107.653140728202	0.353851318359375	0.35382080078125	8.837890625E-07	3.12702951532629E-07	400345.3125	2.74430531135295E-05
2	394	107.753848727948	0.363922119140625	0.363983154296875	8.819580078125E-07	3.21017836313331E-07	412698.96875	2.75319653155748E-05
2	395	107.854556727693	0.373992919921875	0.374053955078125	8.81042480468749E-07	3.2955742312879E-07	424558.375	2.76207392744254E-05
2	396	107.955264727439	0.384063720703125	0.384033203125	8.81347656250001E-07	3.38466776383939E-07	435734.0625	2.77094823104562E-05
2	397	108.055972727185	0.394134521484375	0.394134521484375	8.819580078125E-07	3.47610097151119E-07	446885.8125	2.77982708212221E-05
2	398	108.156680726931	0.404205322265625	0.4041748046875	8.831787109375E-07	3.56958565816967E-07	457636.5	2.7887153919437E-05
2	399	108.257388726676	0.414276123046875	0.414215087890625	8.8470458984375E-07	3.66457982181601E-07	468195.9375	2.79761734418571E-05
2	400	108.358096726422	0.424346923828125	0.42437744140625	8.8531494140625E-07	3.75707685407178E-07	479351.9375	2.8065300284652E-05
2	401	108.458804726168	0.434417724609375	0.434417724609375	8.8623046875E-07	3.84994223168178E-07	490185.96875	2.81545053439913E-05
2	402	108.559512725914	0.444488525390625	0.444549560546875	8.87451171875001E-07	3.94516035839843E-07	500928.46875	2.82438177237054E-05
2	403	108.660220725659	0.454559326171875	0.45458984375	8.88977050781251E-07	4.04119930408342E-07	511362.875	2.83332683466142E-05
2	404	108.760928725405	0.464630126953125	0.464599609375	8.9141845703125E-07	4.14152651728728E-07	521191.375	2.8422917239368E-05
2	405	108.861636725151	0.474700927734375	0.474700927734375	8.9385986328125E-07	4.24316112912493E-07	531068.625	2.85128135146806E-05
2	406	108.962344724897	0.484771728515625	0.484649658203125	8.96606445312501E-07	4.34539998650507E-07	540537.8125	2.86029699054779E-05
2	407	109.063052724642	0.494842529296875	0.494842529296875	8.984375E-07	4.44585054992785E-07	550781.25	2.86933591269189E-05
2	408	109.163760724388	0.504913330078125	0.504852294921875	9.0057373046875E-07	4.54656685633381E-07	560589.625	2.87839447992155E-05
2	409	109.264468724134	0.514984130859375	0.5150146484375	9.0362548828125E-07	4.6538033871002E-07	569942.625	2.88747942249756E-05
2	410	109.365176723879	0.525054931640625	0.52508544921875	9.0606689453125E-07	4.75762533369561E-07	579521.75	2.89659201371251E-05
2	411	109.465884723625	0.535125732421875	0.535064697265625	9.0972900390625E-07	4.86763838125626E-07	588158.375	2.90573516394943E-05
2	412	109.566592723371	0.545196533203125	0.545135498046875	9.136962890625E-07	4.98088297717914E-07	596626.5625	2.91491687676171E-05
2	413	109.667300723117	0.555267333984375	0.55517578125	9.1888427734375E-07	5.10142285747861E-07	604184.6875	2.9241446100059E-05
2	414	109.768008722862	0.565338134765625	0.5653076171875	9.2315673828125E-07	5.21867548286536E-07	612363.625	2.93342000077246E-05
2	415	109.868716722608	0.575408935546875	0.575347900390625	9.28344726562499E-07	5.34121170403523E-07	619756.75	2.94274304906139E-05
2	416	109.969424722354	0.585479736328125	0.58544921875	9.33227539062501E-07	5.4635734159092E-07	627338.125	2.95211684715468E-05
2	417	110.0701327221	0.595550537109375	0.59552001953125	9.3902587890625E-07	5.59208729100646E-07	634189.125	2.96154448733432E-05
2	418	110.170840721845	0.605621337890625	0.6055908203125	9.4573974609375E-07	5.72731266856863E-07	640335.625	2.97103506454732E-05
2	419	110.271548721591	0.615692138671875	0.61566162109375	9.53369140625E-07	5.86952808134811E-07	645774.6875	2.9805976737407E-05
2	420	110.372256721337	0.625762939453125	0.625762939453125	9.6160888671875E-07	6.01739202465978E-07	650745.8125	2.99024050036678E-05
2	421	110.472964721083	0.635833740234375	0.635833740234375	9.69848632812501E-07	6.16662475749763E-07	655601	2.99996609101072E-05
2	422	110.573672720828	0.645904541015625	0.645843505859375	9.7808837890625E-07	6.31691989383398E-07	660312.0625	3.0097748094704E-05
2	423	110.674380720574	0.655975341796875	0.655853271484375	9.857177734375E-07	6.46486228106369E-07	665356.0625	3.01966319966596E-05
2	424	110.77508872032	0.666046142578125	0.66595458984375	9.9365234375E-07	6.61727312945004E-07	670208.875	3.02963017020375E-05
2	425	110.875796720066	0.676116943359375	0.676055908203125	1.00067138671875E-06	6.7650978508027E-07	675602.375	3.03967244690284E-05
2	426	110.976504719811	0.686187744140625	0.686126708984375	1.00830078125E-06	6.91822037879319E-07	680478.25	3.04978839267278E-05
2	427	111.077212719557	0.696258544921875	0.6961669921875	1.0162353515625E-06	7.07469439475972E-07	685045.125	3.05998291878495E-05
2	428	111.177920719303	0.706329345703125	0.70623779296875	1.02386474609375E-06	7.23091943655163E-07	689776.5	3.07025547954254E-05
2	429	111.278628719048	0.716400146484375	0.716339111328125	1.03240966796875E-06	7.39555389372981E-07	693851.625	3.0806095310254E-05
2	430	111.379336718794	0.726470947265625	0.7264404296875	1.0394287109375E-06	7.55082965042675E-07	698884.375	3.0910421628505E-05
2	431	111.48004471854	0.736541748046875	0.73651123046875	1.04736328125E-06	7.71394809362391E-07	703205.125	3.1015501008369E-05
2	432	111.580752718286	0.746612548828125	0.746490478515625	1.0552978515625E-06	7.87769806720462E-07	707374.1875	3.11213771055918E-05
2	433	111.681460718031	0.756683349609375	0.75714111328125	1.0650634765625E-06	8.0640330679671E-07	710888.3125	3.12281445076223E-05
2	434	111.782168717777	0.766754150390625	0.76690673828125	1.0760498046875E-06	8.2522984712341E-07	712705.625	3.13359596475493E-05
2	435	111.882876717523	0.776824951171875	0.7769775390625	1.08856201171875E-06	8.45788179049123E-07	713765.125	3.14449571305886E-05
2	436	111.983584717269	0.786895751953125	0.78704833984375	1.1029052734375E-06	8.68039705892443E-07	713613.75	3.15553043037653E-05
2	437	112.084292717014	0.796966552734375	0.79742431640625	1.1175537109375E-06	8.91164461336302E-07	713544.5625	3.16671139444225E-05
2	438	112.18500071676	0.807037353515625	0.8074951171875	1.13250732421875E-06	9.14494137305155E-07	713015.3125	3.17804151563905E-05
2	439	112.285708716506	0.817108154296875	0.81695556640625	1.14837646484375E-06	9.38172547648719E-07	711400.5	3.18952661473304E-05
2	440	112.386416716252	0.827178955078125	0.82733154296875	1.1639404296875E-06	9.62964577411185E-07	710802.3125	3.20116996590514E-05
2	441	112.487124715997	0.837249755859375	0.8380126953125	1.17828369140625E-06	9.87416683528863E-07	711214.6875	3.21296392939985E-05
2	442	112.587832715743	0.847320556640625	0.84686279296875	1.19140625E-06	1.008957610793E-06	710809.4375	3.22489649988711E-05
2	443	112.688540715489	0.857391357421875	0.85723876953125	1.202392578125E-06	1.03073750779004E-06	712944.1875	3.23695021506865E-05
2	444	112.789248715235	0.867462158203125	0.86700439453125	1.2103271484375E-06	1.04935895706149E-06	716338.875	3.24909924529493E-05
2	445	112.88995671498	0.877532958984375	0.87738037109375	1.21551513671875E-06	1.06646905351226E-06	721817.75	3.26131412293762E-05
2	446	112.990664714726	0.887603759765625	0.887451171875	1.21978759765625E-06	1.08250196717563E-06	727545.6875	3.27357702190056E-05
2	447	113.091372714472	0.897674560546875	0.89752197265625	1.22283935546875E-06	1.09752511434635E-06	733965.625	3.28587666444946E-05
2	448	113.192080714217	0.907745361328125	0.90850830078125	1.2261962890625E-06	1.11400947844231E-06	740915.9375	3.29820832121186E-05
2	449	113.292788713963	0.917816162109375	0.91827392578125	1.23016357421875E-06	1.12962709408748E-06	746464.9375	3.31057708535809E-05
2	450	113.393496713709	0.927886962890625	0.9283447265625	1.2347412109375E-06	1.14626539016172E-06	751853.75	3.32298914145213E-05
2	451	113.494204713455	0.937957763671875	0.938720703125	1.23992919921875E-06	1.16394710403256E-06	757076.0625	3.33544994646218E-05
2	452	113.5949127132	0.948028564453125	0.948486328125	1.24542236328125E-06	1.18126604320423E-06	761578.0625	3.34796459355857E-05
2	453	113.695620712946	0.958099365234375	0.95855712890625	1.251220703125E-06	1.1993664656984E-06	766097.625	3.36053635692224E-05
2	454	113.796328712692	0.968170166015625	0.96832275390625	1.25762939453125E-06	1.21779112305376E-06	769958.75	3.37316923832987E-05
2	455	113.897036712438	0.978240966796875	0.977783203125	1.26434326171875E-06	1.23625363812607E-06	773352.625	3.38586833095178E-05
2	456	113.997744712183	0.988311767578125	0.98876953125	1.27166748046875E-06	1.25738597489544E-06	777537.8125	3.39863836416043E-05
2	457	114.098452711929	0.998382568359375	0.99822998046875	1.2786865234375E-06	1.27642317693244E-06	780668.3125	3.41148042934947E-05
2	458	114.199160711675	1.00845336914063	1.0089111328125	1.285400390625E-06	1.29685474803409E-06	784900.3125	3.42439161613584E-05
2	459	114.299868711421	1.01852416992188	1.01898193359375	1.29058837890625E-06	1.31508613776532E-06	789548.375	3.43736282957252E-05
2	460	114.400576711166	1.02859497070313	1.02874755859375	1.29425048828125E-06	1.3314569287104E-06	794859.75	3.45037842635065E-05
2	461	114.501284710912	1.03866577148438	1.038818359375	1.29638671875E-06	1.3467102917275E-06	801318.25	3.46342312695924E-05
2	462	114.601992710658	1.04873657226563	1.04888916015625	1.29791259765625E-06	1.36136645778606E-06	808135.4375	3.47648674505763E-05
2	463	114.702700710404	1.05880737304688	1.05926513671875	1.29974365234375E-06	1.37677318434726E-06	814980.0625	3.48956673406065E-05
2	464	114.803408710149	1.06887817382813	1.0693359375	1.30096435546875E-06	1.39116787067906E-06	821956.375	3.50266236637253E-05
2	465	114.904116709895	1.07894897460938	1.07879638671875	1.3031005859375E-06	1.40578015361825E-06	827868.875	3.51577509718481E-05
2	466	115.004824709641	1.08901977539063	1.0888671875	1.3055419921875E-06	1.42156181937025E-06	834034.5625	3.5289103834657E-05
2	467	115.105532709386	1.09909057617188	1.09893798828125	1.30767822265625E-06	1.43705722166487E-06	840373.4375	3.54206895281095E-05
2	468	115.206240709132	1.10916137695313	1.109619140625	1.309814453125E-06	1.45339504342701E-06	847157.5625	3.55524935002904E-05
2	469	115.306948708878	1.11923217773438	1.11907958984375	1.3116455078125E-06	1.46783577292808E-06	853187.5	3.5684493923327E-05
2	470	115.407656708624	1.12930297851563	1.12945556640625	1.31378173828125E-06	1.4838580000287E-06	859698.0625	3.58166944351979E-05
2	471	115.508364708369	1.13937377929688	1.1395263671875	1.317138671875E-06	1.5009142089184E-06	865152.9375	3.59491714334581E-05
2	472	115.609072708115	1.14944458007813	1.14959716796875	1.32080078125E-06	1.51838878537092E-06	870378.9375	3.60820013156626E-05
2	473	115.709780707861	1.15951538085938	1.15966796875	1.32415771484375E-06	1.53558323745528E-06	875777.875	3.62151877197903E-05
2	474	115.810488707607	1.16958618164063	1.16943359375	1.3275146484375E-06	1.55244015331846E-06	880919.5625	3.63487088179681E-05
2	475	115.911196707352	1.17965698242188	1.17950439453125	1.33087158203125E-06	1.56976886955817E-06	886264.625	3.64825682481751E-05
2	476	116.011904707098	1.18972778320313	1.18988037109375	1.33453369140625E-06	1.58793534410506E-06	891607.625	3.66167842003051E-05
2	477	116.112612706844	1.19979858398438	1.19903564453125	1.3385009765625E-06	1.60491038059263E-06	895804.8125	3.67513821402099E-05
2	478	116.21332070659	1.20986938476563	1.20941162109375	1.34185791015625E-06	1.62285857641109E-06	901296.3125	3.68863475159742E-05
2	479	116.314028706335	1.21994018554688	1.21978759765625	1.34674072265625E-06	1.64273751579458E-06	905733.125	3.70217312593013E-05
2	480	116.414736706081	1.23001098632813	1.2298583984375	1.35223388671875E-06	1.66305619586637E-06	909501.25	3.71576352335978E-05
2	481	116.515444705827	1.24008178710938	1.24053955078125	1.358642578125E-06	1.68544977441343E-06	913072.8125	3.72941358364187E-05
2	482	116.616152705573	1.25015258789063	1.24969482421875	1.365966796875E-06	1.70704163338087E-06	914879.375	3.74313312931918E-05
2	483	116.716860705318	1.26022338867188	1.26007080078125	1.373291015625E-06	1.73044384155219E-06	917555.625	3.75692652596626E-05
2	484	116.817568705064	1.27029418945313	1.26983642578125	1.3812255859375E-06	1.7539304053571E-06	919354.875	3.77079668396618E-05
2	485	116.91827670481	1.28036499023438	1.28021240234375	1.390380859375E-06	1.77998276740254E-06	920763.875	3.78475269826595E-05
2	486	117.018984704555	1.29043579101563	1.29119873046875	1.40045166015625E-06	1.80826134510426E-06	921987.375	3.79880584659986E-05
2	487	117.119692704301	1.30050659179688	1.3006591796875	1.4117431640625E-06	1.83619670224289E-06	921314.3125	3.81296631530859E-05
2	488	117.220400704047	1.31057739257813	1.31072998046875	1.424560546875E-06	1.86721422323899E-06	920094.25	3.82724829250947E-05
2	489	117.321108703793	1.32064819335938	1.32049560546875	1.43707275390625E-06	1.89764818969707E-06	918878.8125	3.8416575989686E-05
2	490	117.421816703538	1.33071899414063	1.33026123046875	1.4508056640625E-06	1.92995048564626E-06	916912.125	3.8561993278563E-05
2	491	117.522524703284	1.34078979492188	1.34063720703125	1.4642333984375E-06	1.96300584320852E-06	915589.8125	3.87087748094928E-05
2	492	117.62323270303	1.35086059570313	1.3507080078125	1.478271484375E-06	1.99671308109828E-06	913707.6875	3.8856942410348E-05
2	493	117.723940702776	1.36093139648438	1.361083984375	1.4923095703125E-06	2.0311586013122E-06	912065.5	3.90065251849592E-05
2	494	117.824648702521	1.37100219726563	1.37115478515625	1.507568359375E-06	2.06710956263123E-06	909514.1875	3.91575777030084E-05
2	495	117.925356702267	1.38107299804688	1.3812255859375	1.522216796875E-06	2.10252460419724E-06	907377.75	3.93101399822626E-05
2	496	118.026064702013	1.39114379882813	1.39068603515625	1.53656005859375E-06	2.1368725811044E-06	905064.5625	3.94641610910185E-05
2	497	118.126772701759	1.40121459960938	1.4007568359375	1.55059814453125E-06	2.1720109089074E-06	903365.5	3.96196119254455E-05
2	498	118.227480701504	1.41128540039063	1.41082763671875	1.56280517578125E-06	2.20484866986226E-06	902753.4375	3.97763869841583E-05
2	499	118.32818870125	1.42135620117188	1.4215087890625	1.573486328125E-06	2.23672464017E-06	903413.5	3.99343116441742E-05
2	500	118.428896700996	1.43142700195313	1.431884765625	1.58416748046875E-06	2.26834526984021E-06	903872.125	4.00933095079381E-05
2	501	118.529604700742	1.44149780273438	1.44134521484375	1.59393310546875E-06	2.29740794566169E-06	904269.5625	4.02533405576833E-05
2	502	118.630312700487	1.45156860351563	1.451416015625	1.60369873046875E-06	2.32763409258041E-06	905042.8125	4.04143538617063E-05
2	503	118.731020700233	1.46163940429688	1.4617919921875	1.61407470703125E-06	2.35944139603816E-06	905653.25	4.05763821618166E-05
2	504	118.831728699979	1.47171020507813	1.47216796875	1.62506103515625E-06	2.39236283050559E-06	905915.5	4.07394873036537E-05
2	505	118.932436699724	1.48178100585938	1.48223876953125	1.636962890625E-06	2.42636974689958E-06	905481.0625	4.09037420467939E-05
2	506	119.03314469947	1.49185180664063	1.49200439453125	1.64947509765625E-06	2.46102399614756E-06	904532.875	4.10692264267709E-05
2	507	119.133852699216	1.50192260742188	1.50177001953125	1.66412353515625E-06	2.49913068728347E-06	902439.0625	4.12360786867794E-05
2	508	119.234560698962	1.49185180664063	1.49169921875	1.52862548828125E-06	2.28024941861804E-06	975843.5	4.13968482462224E-05
2	509	119.335268698707	1.48178100585938	1.48193359375	1.43310546875E-06	2.1237672171992E-06	1034071.5625	4.15459835494403E-05
2	510	119.435976698453	1.47171020507813	1.47186279296875	1.35955810546875E-06	2.00108297576662E-06	1082603.875	4.16866059822496E-05
2	511	119.536684698199	1.46163940429688	1.461181640625	1.29913330078125E-06	1.89826971563889E-06	1124735.75	4.18204799643718E-05
2	512	119.637392697945	1.45156860351563	1.45172119140625	1.24755859375E-06	1.8111071540261E-06	1163649.75	4.19487150793429E-05
2	513	119.73810069769	1.44149780273438	1.44134521484375	1.202392578125E-06	1.73306284523278E-06	1198731	4.20720825786702E-05
2	514	119.838808697436	1.43142700195313	1.431884765625	1.16180419921875E-06	1.66356971931236E-06	1232466.5	4.21911281591747E-05
2	515	119.939516697182	1.42135620117188	1.4215087890625	1.12548828125E-06	1.59989133408089E-06	1263015.25	4.23063029302284E-05
2	516	120.040224696928	1.41128540039063	1.4111328125	1.09283447265625E-06	1.54213444147899E-06	1291259.5	4.24180034315214E-05
2	517	120.140932696673	1.40121459960938	1.40106201171875	1.06353759765625E-06	1.49008201333345E-06	1317360.25	4.25265861849766E-05
2	518	120.241640696419	1.39114379882813	1.39129638671875	1.036376953125E-06	1.44190744322259E-06	1342461.75	4.26323240390047E-05
2	519	120.342348696165	1.38107299804688	1.38092041015625	1.01043701171875E-06	1.3953331290395E-06	1366656.625	4.27353916165885E-05
2	520	120.443056695911	1.37100219726563	1.370849609375	9.86633300781251E-07	1.35252582822432E-06	1389421.625	4.28359489887953E-05
2	521	120.543764695656	1.36093139648438	1.361083984375	9.6405029296875E-07	1.31215335841262E-06	1411839.25	4.29341744165868E-05
2	522	120.644472695402	1.35086059570313	1.3507080078125	9.417724609375E-07	1.27205953504017E-06	1434219.125	4.3030140659539E-05
2	523	120.745180695148	1.34078979492188	1.34002685546875	9.2041015625E-07	1.2333742915871E-06	1455901.875	4.31239095632918E-05
2	524	120.845888694893	1.33071899414063	1.33056640625	9.0087890625E-07	1.19867922876438E-06	1476964.75	4.32156193710398E-05
2	525	120.946596694639	1.32064819335938	1.32049560546875	8.831787109375E-07	1.16623357371282E-06	1495162.375	4.33054519817233E-05
2	526	121.047304694385	1.31057739257813	1.31011962890625	8.6669921875E-07	1.13547969249339E-06	1511619.75	4.33935674664099E-05
2	527	121.148012694131	1.30050659179688	1.30035400390625	8.50830078125001E-07	1.10638029582333E-06	1528335.75	4.34800494986121E-05
2	528	121.248720693876	1.29043579101563	1.28997802734375	8.35571289062501E-07	1.07786854641745E-06	1543827.625	4.35649671999272E-05
2	529	121.349428693622	1.28036499023438	1.2799072265625	8.20312500000001E-07	1.04992386695812E-06	1560267.875	4.36483496741857E-05
2	530	121.450136693368	1.27029418945313	1.2701416015625	8.06274414062499E-07	1.02408262137033E-06	1575321.75	4.37302551290486E-05
2	531	121.550844693114	1.26022338867188	1.26007080078125	7.92846679687501E-07	9.99042981675302E-07	1589299.5	4.3810774513986E-05
2	532	121.651552692859	1.25015258789063	1.25030517578125	7.8125E-07	9.76800947682932E-07	1600390.625	4.38900387962349E-05
2	533	121.752260692605	1.24008178710938	1.2396240234375	7.69958496093751E-07	9.54459096647042E-07	1609988.125	4.39681462012231E-05
2	534	121.852968692351	1.23001098632813	1.2298583984375	7.5958251953125E-07	9.34178956413234E-07	1619124.125	4.40451658505481E-05
2	535	121.953676692097	1.21994018554688	1.2200927734375	7.4920654296875E-07	9.14101519811084E-07	1628513.25	4.41211377619766E-05
2	536	122.054384691842	1.20986938476563	1.209716796875	7.3822021484375E-07	8.93037395144347E-07	1638693.75	4.4196036469657E-05
2	537	122.155092691588	1.19979858398438	1.19964599609375	7.2784423828125E-07	8.7315538621624E-07	1648218	4.42698583356105E-05
2	538	122.255800691334	1.18972778320313	1.18988037109375	7.16552734375001E-07	8.52612060953106E-07	1660562.125	4.43425888079219E-05
2	539	122.35650869108	1.17965698242188	1.1798095703125	7.0648193359375E-07	8.33514093301346E-07	1669978.5	4.44142460764851E-05
2	540	122.457216690825	1.16958618164063	1.16943359375	6.97021484375E-07	8.15120301922434E-07	1677758.375	4.44849174527917E-05
2	541	122.557924690571	1.15951538085938	1.15966796875	6.8695068359375E-07	7.96634708422062E-07	1688138.625	4.45546065748204E-05
2	542	122.658632690317	1.14944458007813	1.14959716796875	6.76574707031249E-07	7.77788386585598E-07	1699143	4.46232661488466E-05
2	543	122.759340690062	1.13937377929688	1.1395263671875	6.6558837890625E-07	7.58455485083687E-07	1712058.75	4.46908488811459E-05
2	544	122.860048689808	1.12930297851563	1.129150390625	6.54296875E-07	7.38799542432389E-07	1725746.375	4.47573111159727E-05
2	545	122.960756689554	1.11923217773438	1.119384765625	6.4239501953125E-07	7.19087154266163E-07	1742517.875	4.48226055596024E-05
2	546	123.0614646893	1.10916137695313	1.10931396484375	6.30798339843749E-07	6.99753343269549E-07	1758587.5	4.48867140221409E-05
2	547	123.162172689045	1.09909057617188	1.0992431640625	6.195068359375E-07	6.8098864858257E-07	1774384.375	4.49496728833765E-05
2	548	123.262880688791	1.08901977539063	1.0894775390625	6.0760498046875E-07	6.61971967019781E-07	1793068.75	4.50114639534149E-05
2	549	123.363588688537	1.07894897460938	1.0791015625	5.95703124999999E-07	6.4282414768968E-07	1811475.5	4.5072054490447E-05
2	550	123.464296688283	1.06887817382813	1.0687255859375	5.83801269531251E-07	6.23923313014529E-07	1830632.625	4.51314444944728E-05
2	551	123.565004688028	1.05880737304688	1.05865478515625	5.71289062499999E-07	6.0479788999146E-07	1853098.375	4.51896084996406E-05
2	552	123.665712687774	1.04873657226563	1.04827880859375	5.572509765625E-07	5.84154406624293E-07	1881161	4.52464373665862E-05
2	553	123.76642068752	1.03866577148438	1.038818359375	5.43823242187499E-07	5.64933543500956E-07	1910213.375	4.53018801636063E-05
2	554	123.867128687266	1.02859497070313	1.0284423828125	5.2978515625E-07	5.44853492101538E-07	1941244.25	4.53559405286796E-05
2	555	123.967836687011	1.01852416992188	1.0186767578125	5.157470703125E-07	5.25379505234014E-07	1975148	4.54085857199971E-05
2	556	124.068544686757	1.00845336914063	1.00830078125	5.01708984375E-07	5.0587357236509E-07	2009732.375	4.54598193755373E-05
2	557	124.169252686503	0.998382568359375	0.99853515625	4.8736572265625E-07	4.86651799747051E-07	2048841.75	4.55096233054064E-05
2	558	124.269960686249	0.988311767578125	0.9881591796875	4.7271728515625E-07	4.67119889435708E-07	2090381	4.55579684057739E-05
2	559	124.370668685994	0.978240966796875	0.97808837890625	4.59899902343749E-07	4.49822749715167E-07	2126742	4.56049274362158E-05
2	560	124.47137668574	0.968170166015625	0.968017578125	4.4708251953125E-07	4.32783707537965E-07	2165187.75	4.565059862216E-05
2	561	124.572084685486	0.958099365234375	0.958251953125	4.351806640625E-07	4.17012699927E-07	2201963.5	4.56950256193522E-05
2	562	124.672792685231	0.948028564453125	0.94818115234375	4.25109863281251E-07	4.0308114535037E-07	2230438	4.57383430330083E-05
2	563	124.773500684977	0.937957763671875	0.9381103515625	4.15649414062499E-07	3.89924991850421E-07	2256975.25	4.57806781923864E-05
2	564	124.874208684723	0.927886962890625	0.92803955078125	4.06494140624999E-07	3.77242628246677E-07	2283033	4.58220783912111E-05
2	565	124.974916684469	0.917816162109375	0.91827392578125	3.97338867187499E-07	3.64865911706147E-07	2311060	4.58625545434188E-05
2	566	125.075624684214	0.907745361328125	0.90728759765625	3.8726806640625E-07	3.51363496520207E-07	2342789.75	4.59020629932638E-05
2	567	125.17633268396	0.897674560546875	0.8978271484375	3.753662109375E-07	3.37013972284694E-07	2391870	4.59404618595727E-05
2	568	125.277040683706	0.887603759765625	0.887451171875	3.631591796875E-07	3.22286012988116E-07	2443697.5	4.59776492789388E-05
2	569	125.377748683452	0.877532958984375	0.877685546875	3.50036621093749E-07	3.07222052242651E-07	2507410.75	4.60135634057224E-05
2	570	125.478456683197	0.867462158203125	0.86700439453125	3.3599853515625E-07	2.91312204581118E-07	2580381.5	4.60481096524745E-05
2	571	125.579164682943	0.857391357421875	0.8575439453125	3.204345703125E-07	2.74786714271613E-07	2676190.5	4.6081160689937E-05
2	572	125.679872682689	0.847320556640625	0.84747314453125	3.03955078125E-07	2.57593740116135E-07	2788152.75	4.61126037407666E-05
2	573	125.780580682435	0.837249755859375	0.83740234375	2.8564453125E-07	2.39199380303035E-07	2931624	4.61422896478325E-05
2	574	125.88128868218	0.827178955078125	0.82733154296875	2.67333984375E-07	2.21173834802357E-07	3094749	4.6170134737622E-05
2	575	125.981996681926	0.817108154296875	0.81756591796875	2.50244140625E-07	2.0459107474835E-07	3267073.25	4.6196197217796E-05
2	576	126.082704681672	0.807037353515625	0.806884765625	2.34375000000001E-07	1.89113606552382E-07	3442708.5	4.6220600779634E-05
2	577	126.183412681418	0.796966552734375	0.797119140625	2.20642089843751E-07	1.7587802858543E-07	3612725	4.6243512770161E-05
2	578	126.284120681163	0.786895751953125	0.787353515625	2.105712890625E-07	1.65794048712087E-07	3739130.5	4.62652242276818E-05
2	579	126.384828680909	0.776824951171875	0.77728271484375	2.0172119140625E-07	1.56794399686078E-07	3853252.5	4.62859861727338E-05
2	580	126.485536680655	0.766754150390625	0.76629638671875	1.953125E-07	1.49667258142472E-07	3923437.5	4.63059768662788E-05
2	581	126.5862446804	0.756683349609375	0.75653076171875	1.8951416015625E-07	1.43373284799964E-07	3991948.5	4.63253563793842E-05
2	582	126.686952680146	0.746612548828125	0.74652099609375	1.84020996093751E-07	1.37375536723994E-07	4056716.5	4.63441647298168E-05
2	583	126.787660679892	0.736541748046875	0.736419677734375	1.788330078125E-07	1.31696140215354E-07	4117918.25	4.63624346593861E-05
2	584	126.888368679638	0.726470947265625	0.7264404296875	1.7547607421875E-07	1.27472915778526E-07	4139826	4.6380275307456E-05
2	585	126.989076679383	0.716400146484375	0.716339111328125	1.7242431640625E-07	1.23514269034786E-07	4154513.5	4.6397795813391E-05
2	586	127.089784679129	0.706329345703125	0.70623779296875	1.69982910156249E-07	1.20048355256586E-07	4154757.5	4.64150361949578E-05
2	587	127.190492678875	0.696258544921875	0.696197509765625	1.6754150390625E-07	1.16641977854215E-07	4155373.5	4.64320328319445E-05
2	588	127.291200678621	0.686187744140625	0.686187744140625	1.6510009765625E-07	1.13289658543181E-07	4156192.5	4.64487820863724E-05
2	589	127.391908678366	0.676116943359375	0.676116943359375	1.61132812500001E-07	1.08944618659734E-07	4196023	4.64652111986652E-05
2	590	127.492616678112	0.666046142578125	0.665985107421875	1.57470703125E-07	1.04873137729555E-07	4229264	4.64812510472257E-05
2	591	127.593324677858	0.655975341796875	0.65594482421875	1.5380859375E-07	1.00889948839722E-07	4264683	4.64969270979054E-05
2	592	127.694032677604	0.645904541015625	0.645843505859375	1.50451660156251E-07	9.71682254657935E-08	4292698	4.65122466266621E-05
2	593	127.794740677349	0.635833740234375	0.635711669921875	1.4801025390625E-07	9.40918383207645E-08	4295052	4.65272751171142E-05
2	594	127.895448677095	0.625762939453125	0.625732421875	1.45263671875E-07	9.08961865775382E-08	4307563	4.6542045311071E-05
2	595	127.996156676841	0.615692138671875	0.615631103515625	1.4312744140625E-07	8.81137012243016E-08	4301279.5	4.65565644844901E-05
2	596	128.096864676587	0.605621337890625	0.6055908203125	1.4007568359375E-07	8.48285495180789E-08	4323311.5	4.65708253614139E-05
2	597	128.197572676332	0.595550537109375	0.595489501953125	1.38244628906251E-07	8.23232255697803E-08	4307505.5	4.65848388557788E-05
2	598	128.298280676078	0.585479736328125	0.585479736328125	1.36413574218749E-07	7.98673838176001E-08	4291946.5	4.65986704512034E-05
2	599	128.398988675824	0.575408935546875	0.575408935546875	1.35192871093751E-07	7.7791177943709E-08	4256208	4.66123456135392E-05
2	600	128.499696675569	0.565338134765625	0.565277099609375	1.34887695312499E-07	7.62489165140323E-08	4190724.25	4.66259480162989E-05
2	601	128.600404675315	0.555267333984375	0.555267333984375	1.34887695312499E-07	7.48987218912589E-08	4116516.25	4.66395322291646E-05
2	602	128.701112675061	0.545196533203125	0.545166015625	1.35498046875E-07	7.38689251988944E-08	4023423.5	4.66531455458608E-05
2	603	128.801820674807	0.535125732421875	0.53509521484375	1.35498046875E-07	7.25043562965766E-08	3949099.25	4.66667916043662E-05
2	604	128.902528674552	0.525054931640625	0.525054931640625	1.35192871093751E-07	7.09836811552123E-08	3883747.5	4.66804231109563E-05
2	605	129.003236674298	0.514984130859375	0.514984130859375	1.3427734375E-07	6.91507011651993E-08	3835227.25	4.6693989133928E-05
2	606	129.103944674044	0.504913330078125	0.504913330078125	1.33666992187501E-07	6.74902409514289E-08	3777397.5	4.67074823973235E-05
2	607	129.20465267379	0.494842529296875	0.494873046875	1.3275146484375E-07	6.56951257838045E-08	3727816	4.6720899263164E-05
2	608	129.305360673535	0.484771728515625	0.4847412109375	1.31835937499999E-07	6.39063060248191E-08	3676852	4.67342215415556E-05
2	609	129.406068673281	0.474700927734375	0.4747314453125	1.3153076171875E-07	6.24417850758618E-08	3609281	4.67474819743074E-05
2	610	129.506776673027	0.464630126953125	0.464630126953125	1.30310058593749E-07	6.0545978897153E-08	3565573.75	4.67606660095043E-05
2	611	129.607484672773	0.454559326171875	0.454559326171875	1.2847900390625E-07	5.84013299942399E-08	3538004.75	4.67736972495914E-05
2	612	129.708192672518	0.444488525390625	0.4444580078125	1.25732421874999E-07	5.58827792929151E-08	3534951.75	4.67864992970135E-05
2	613	129.808900672264	0.434417724609375	0.434417724609375	1.23291015625E-07	5.35598019268946E-08	3523514.75	4.67990394099616E-05
2	614	129.90960867201	0.424346923828125	0.42431640625	1.21154785156249E-07	5.14079623314956E-08	3502267	4.68113466922659E-05
2	615	130.010316671756	0.414276123046875	0.41424560546875	1.1871337890625E-07	4.91764922117E-08	3489460.25	4.68234247819055E-05
2	616	130.111024671501	0.404205322265625	0.4041748046875	1.16577148437499E-07	4.71175454208606E-08	3467015.75	4.68352736788802E-05
2	617	130.211732671247	0.394134521484375	0.3941650390625	1.13525390624999E-07	4.47477397358398E-08	3472043	4.68468606413808E-05
2	618	130.312440670993	0.384063720703125	0.38409423828125	1.11083984375E-07	4.2666719934914E-08	3457692.25	4.6858171117492E-05
2	619	130.413148670738	0.373992919921875	0.3740234375	1.08642578125E-07	4.06348696913028E-08	3442696.75	4.68692342110444E-05
2	620	130.513856670484	0.363922119140625	0.36395263671875	1.05895996093749E-07	3.85411240699796E-08	3436887.75	4.68800353701226E-05
2	621	130.61456467023	0.353851318359375	0.3538818359375	1.03759765625E-07	3.67186956395926E-08	3410588.5	4.68905927846208E-05
2	622	130.715272669976	0.343780517578125	0.34381103515625	1.0223388671875E-07	3.51491387107217E-08	3362985.25	4.69009646621998E-05
2	623	130.815980669721	0.333709716796875	0.333709716796875	1.01623535156251E-07	3.3912762376076E-08	3283783.75	4.69112310383935E-05
2	624	130.916688669467	0.323638916015625	0.32366943359375	1.0040283203125E-07	3.24973257193051E-08	3223708.25	4.69214028271381E-05
2	625	131.017396669213	0.313568115234375	0.313568115234375	9.94873046874997E-08	3.11960448584614E-08	3151840.5	4.69314691144973E-05
2	626	131.118104668959	0.303497314453125	0.303466796875	9.85717773437506E-08	2.99132594250295E-08	3078637.75	4.69414444523863E-05
2	627	131.218812668704	0.293426513671875	0.293426513671875	9.613037109375E-08	2.82072001311917E-08	3052381	4.69512451672927E-05
2	628	131.31952066845	0.283355712890625	0.283294677734375	9.46044921875E-08	2.68009472392805E-08	2994516.25	4.69608494313434E-05
2	629	131.420228668196	0.273284912109375	0.27325439453125	9.18579101562497E-08	2.51005758400424E-08	2974751	4.69702390546445E-05
2	630	131.520936667942	0.263214111328125	0.26324462890625	8.97216796875003E-08	2.36187513991126E-08	2934013.5	4.69793849333655E-05
2	631	131.621644667687	0.253143310546875	0.253143310546875	8.81958007812503E-08	2.23261764631388E-08	2870242.25	4.69883416371886E-05
2	632	131.722352667433	0.243072509765625	0.24310302734375	8.51440429687503E-08	2.06987724737928E-08	2855197.25	4.69970691483468E-05
2	633	131.823060667179	0.233001708984375	0.2330322265625	8.14819335937494E-08	1.89879152401318E-08	2859925.25	4.70054619654547E-05
2	634	131.923768666925	0.222930908203125	0.222991943359375	7.75146484375003E-08	1.72851422064468E-08	2876771.75	4.70134655188303E-05
2	635	132.02447666667	0.212860107421875	0.212860107421875	7.20214843749997E-08	1.53305013128602E-08	2955508.5	4.7020996134961E-05
2	636	132.125184666416	0.202789306640625	0.20281982421875	6.68334960937503E-08	1.35551569968584E-08	3034703.25	4.70279883302283E-05
2	637	132.225892666162	0.192718505859375	0.192718505859375	6.103515625E-08	1.17626033357965E-08	3157500.25	4.70344275527168E-05
2	638	132.326600665907	0.182647705078125	0.182708740234375	5.4931640625E-08	1.00364907495987E-08	3326111.25	4.70402665087022E-05
2	639	132.427308665653	0.172576904296875	0.172576904296875	4.85229492187503E-08	8.3739406520067E-09	3556603.75	4.70454760943539E-05
2	640	132.528016665399	0.162506103515625	0.162567138671875	4.08935546875003E-08	6.64794796989554E-09	3975373.25	4.70499799121171E-05
2	641	132.628724665145	0.152435302734375	0.152496337890625	3.23486328124997E-08	4.93304774806802E-09	4714151.5	4.70536651846487E-05
2	642	132.72943266489	0.142364501953125	0.1424560546875	2.10571289062503E-08	2.99971536499299E-09	6765218	4.7056357288966E-05
2	643	132.830140664636	0.132293701171875	0.132354736328125	8.54492187500056E-09	1.13096088050213E-09	15489285	4.70578452222981E-05
2	644	132.930848664382	0.122222900390625	0.1221923828125	-6.71386718749945E-09	-8.20383372346356E-10	-18200002	4.7057939809747E-05
2	645	133.031556664128	0.112152099609375	0.112213134765625	-2.65502929687494E-08	-2.97929148018738E-09	-4226437	4.7056262701517E-05
2	646	133.132264663873	0.102081298828125	0.10211181640625	-5.18798828125E-08	-5.29754862199638E-09	-1968235.375	4.70523154945113E-05
2	647	133.232972663619	0.092010498046875	0.092041015625	-8.51440429687503E-08	-7.83674369841947E-09	-1081003.625	4.70454142487142E-05
2	648	133.333680663365	0.081939697265625	0.082000732421875	-1.312255859375E-07	-1.07605933052923E-08	-624883.75	4.7034518502187E-05
2	649	133.434388663111	0.071868896484375	0.071929931640625	-1.94396972656249E-07	-1.39829596790264E-08	-370015.71875	4.70181221317034E-05
2	650	133.535096662856	0.061798095703125	0.06182861328125	-2.79846191406249E-07	-1.73025007654815E-08	-220937.859375	4.69942424388137E-05
2	651	133.635804662602	0.051727294921875	0.05181884765625	-3.924560546875E-07	-2.03366212758738E-08	-132037.328125	4.69603910460137E-05
2	652	133.736512662348	0.041656494140625	0.0417633056640625	-5.35888671875E-07	-2.23804814680761E-08	-77932.8046875	4.69136430183426E-05
2	653	133.837220662094	0.031585693359375	0.0316497802734375	-7.10449218750001E-07	-2.24855618569109E-08	-44548.96875	4.68508842459414E-05
2	654	133.937928661839	0.021514892578125	0.0215972900390625	-9.1064453125E-07	-1.96674552199738E-08	-23716.48828125	4.67692589154467E-05
2	655	134.038636661585	0.011444091796875	0.0115234375	-1.12518310546875E-06	-1.2965976736723E-08	-10241.388671875	4.66667443106417E-05
2	656	134.139344661331	0.001373291015625	0.0014373779296875	-1.33514404296875E-06	-1.91910642932669E-09	-1076.57141113281	4.6542856580345E-05
2	657	134.240052661076	-0.008697509765625	-0.00859375	-1.52008056640625E-06	1.30631923056512E-08	5653.4833984375	4.63990872958675E-05
2	658	134.340760660822	-0.018768310546875	-0.0186553955078125	-1.66259765625E-06	3.10164161021476E-08	11220.6318359375	4.62388270534575E-05
2	659	134.441468660568	-0.028839111328125	-0.0286956787109375	-1.75201416015625E-06	5.02752328657152E-08	16378.6796875	4.60668852610979E-05
2	660	134.542176660314	-0.038909912109375	-0.0387725830078125	-1.788330078125E-06	6.93381707606022E-08	21680.888671875	4.58886170235928E-05
2	661	134.642884660059	-0.048980712890625	-0.0488311767578125	-1.781005859375E-06	8.69686118676327E-08	27417.751953125	4.57088863186073E-05
2	662	134.743592659805	-0.059051513671875	-0.059051513671875	-1.74407958984375E-06	1.02990540540304E-07	33858.26953125	4.55313820566516E-05
2	663	134.844300659551	-0.069122314453125	-0.069091796875	-1.6888427734375E-06	1.16685178852549E-07	40910.734375	4.53585234936327E-05
2	664	134.945008659297	-0.079193115234375	-0.0791015625	-1.62750244140625E-06	1.28737980276128E-07	48603.0390625	4.51915293524507E-05
2	665	135.045716659042	-0.089263916015625	-0.08917236328125	-1.5655517578125E-06	1.39603955062739E-07	56959.0625	4.50307488790713E-05
2	666	135.146424658788	-0.099334716796875	-0.099273681640625	-1.50726318359375E-06	1.49631560475427E-07	65863.5390625	4.48760183644481E-05
2	667	135.247132658534	-0.109405517578125	-0.109283447265625	-1.453857421875E-06	1.58882542677929E-07	75167.9296875	4.47269158030394E-05
2	668	135.34784065828	-0.119476318359375	-0.119384765625	-1.40716552734375E-06	1.6799413060653E-07	84840.6015625	4.45828518422786E-05
2	669	135.448548658025	-0.129547119140625	-0.129425048828125	-1.36505126953125E-06	1.76671832718966E-07	94813.3203125	4.44432589574717E-05
2	670	135.549256657771	-0.139617919921875	-0.1395263671875	-1.329345703125E-06	1.85478768344183E-07	104958.6796875	4.430758417584E-05
2	671	135.649964657517	-0.149688720703125	-0.1495361328125	-1.300048828125E-06	1.94404265130288E-07	115023.4765625	4.41751835751347E-05
2	672	135.750672657262	-0.159759521484375	-0.159576416015625	-1.27532958984375E-06	2.03512513508031E-07	125125.6328125	4.40455041825771E-05
2	673	135.851380657008	-0.169830322265625	-0.169677734375	-1.256103515625E-06	2.13132793192017E-07	135082.609375	4.39180366811343E-05
2	674	135.952088656754	-0.179901123046875	-0.179840087890625	-1.24114990234375E-06	2.23208502347916E-07	144897.953125	4.37922899436671E-05
2	675	136.0527966565	-0.189971923828125	-0.189849853515625	-1.23016357421875E-06	2.33546373351601E-07	154328.953125	4.36678492405917E-05
2	676	136.153504656245	-0.200042724609375	-0.19989013671875	-1.22222900390625E-06	2.44311536334862E-07	163545.5625	4.35443616879638E-05
2	677	136.254212655991	-0.189971923828125	-0.1898193359375	-1.05194091796875E-06	1.99678723333818E-07	180446.765625	4.3429849029053E-05
