Potential - Start -0.2 V, Upper Vertex 1.5 V, Lower Vertex -0.2 V, Stop -0.19 V; Scan - # end cross 5, Rate 0.1 Vps, Step 0.01 V 
Scan	Index	Time (s)	Potential applied (V)	WE(1).Potential (V)	WE(1).Current (A)	WE(1).Power (W)	WE(1).Resistance (Ω)	WE(1).Charge (C)
1	1	65.9905688333898	-0.189971923828125	-0.18988037109375	-2.25830078125E-07	4.28806998797882E-08	840810.8125	0
1	2	66.0912768331356	-0.179901123046875	-0.17974853515625	-1.92871093749999E-07	3.46682966778644E-08	931962.0625	-2.10832791225357E-08
1	3	66.1919848328813	-0.169830322265625	-0.169677734375	-1.666259765625E-07	2.82727157241425E-08	1018315.0625	-3.91853944847753E-08
1	4	66.292692832627	-0.159759521484375	-0.15972900390625	-1.44042968749999E-07	2.30078409657608E-08	1108898.25	-5.48288170421074E-08
1	5	66.3934008323728	-0.149688720703125	-0.149566650390625	-1.24206542968749E-07	1.85771558136594E-08	1204177	-6.8336255765189E-08
1	6	66.4941088321185	-0.139617919921875	-0.1395263671875	-1.0498046875E-07	1.46475427342807E-08	1329069.75	-7.98767345600027E-08
1	7	66.5948168318643	-0.129547119140625	-0.12945556640625	-8.75854492187494E-08	1.13384235334024E-08	1478048.75	-8.9573198636117E-08
1	8	66.69552483161	-0.119476318359375	-0.119384765625	-6.98852539062503E-08	8.34323454768082E-09	1708297	-9.75024789795498E-08
1	9	66.7962328313557	-0.109405517578125	-0.10931396484375	-5.06591796874997E-08	5.53775558742586E-09	2157831.5	-1.03572375564909E-07
1	10	66.8969408311015	-0.099334716796875	-0.099273681640625	-3.0517578125E-08	3.02959213271947E-09	3253000.25	-1.07659950288053E-07
1	11	66.9976488308472	-0.089263916015625	-0.089111328125	-7.62939453125E-09	6.79865441721716E-10	11680001	-1.0958079599277E-07
1	12	67.0983568305929	-0.079193115234375	-0.0791015625	1.983642578125E-08	-1.56909230053515E-09	-3987692.25	-1.08966126788346E-07
1	13	67.1990648303387	-0.069122314453125	-0.069061279296875	5.40161132812494E-08	-3.73042174928173E-09	-1278531.125	-1.05247359272198E-07
1	14	67.2997728300844	-0.059051513671875	-0.058990478515625	9.765625E-08	-5.76078873493202E-09	-604062.5	-9.76100480443165E-08
1	15	67.4004808298301	-0.048980712890625	-0.0488525390625	1.56555175781251E-07	-7.64811769471407E-09	-312046.78125	-8.48094856564785E-08
1	16	67.5011888295759	-0.038909912109375	-0.0387481689453125	2.34069824218749E-07	-9.06977604131498E-09	-165541.0625	-6.51399503226457E-08
1	17	67.6018968293216	-0.028839111328125	-0.0287445068359375	3.37829589843749E-07	-9.71074509692471E-09	-85085.8203125	-3.63425307625675E-08
1	18	67.7026048290674	-0.018768310546875	-0.0186676025390625	4.74853515625E-07	-8.86437678815355E-09	-39312.34375	4.57931381703247E-09
1	19	67.8033128288131	-0.008697509765625	-0.0086029052734375	6.48193359375E-07	-5.57634605158341E-09	-13272.1279296875	6.11292136909469E-08
1	20	67.9040208285588	0.001373291015625	0.00144348144531251	8.6090087890625E-07	1.24269439183422E-09	1676.71044921875	1.37118149723392E-07
1	21	68.0047288283046	0.011444091796875	0.0115386962890625	1.103515625E-06	1.27331318822144E-08	10456.3056640625	2.36034367162574E-07
1	22	68.1054368280503	0.021514892578125	0.02161865234375	1.3604736328125E-06	2.94116055954419E-08	15890.53515625	3.60106071184418E-07
1	23	68.206144827796	0.031585693359375	0.0316680908203125	1.60980224609375E-06	5.09793594005714E-08	19672.037109375	5.09671338022599E-07
1	24	68.3068528275418	0.041656494140625	0.04173583984375	1.82586669921875E-06	7.62040741619785E-08	22858.09765625	6.82671043250593E-07
1	25	68.4075608272875	0.051727294921875	0.051788330078125	1.98638916015625E-06	1.02871780427449E-07	26071.59375	8.7463337195004E-07
1	26	68.5082688270332	0.061798095703125	0.061859130859375	2.08251953125E-06	1.28822847500487E-07	29703.984375	1.07951916561433E-06
1	27	68.608976826779	0.071868896484375	0.071929931640625	2.11822509765625E-06	1.52363782035536E-07	33957.64453125	1.29104341795028E-06
1	28	68.7096848265247	0.081939697265625	0.082000732421875	2.1051025390625E-06	1.7261994855744E-07	38953.3203125	1.50370487972395E-06
1	29	68.8103928262705	0.092010498046875	0.09210205078125	2.05841064453125E-06	1.89583843734908E-07	44744.25390625	1.71335443610587E-06
1	30	68.9111008260162	0.102081298828125	0.1021728515625	1.99310302734375E-06	2.0364102226722E-07	51263.20703125	1.91736444321577E-06
1	31	69.0118088257619	0.112152099609375	0.1121826171875	1.9189453125E-06	2.15272308423664E-07	58460.55859375	2.1143516732991E-06
1	32	69.1125168255077	0.122222900390625	0.122283935546875	1.84356689453125E-06	2.25438597567518E-07	66330.078125	2.30380919674644E-06
1	33	69.2132248252534	0.132293701171875	0.13232421875	1.77093505859375E-06	2.34337591109579E-07	74719.9765625	2.48581386586011E-06
1	34	69.3139328249991	0.142364501953125	0.14239501953125	1.7041015625E-06	2.42655573856609E-07	83560.1796875	2.66079587163404E-06
1	35	69.4146408247449	0.152435302734375	0.152435302734375	1.64306640625E-06	2.50461312134576E-07	92774.890625	2.82933910966676E-06
1	36	69.5153488244906	0.162506103515625	0.162567138671875	1.588134765625E-06	2.58178516787666E-07	102363.5703125	2.99204293696675E-06
1	37	69.6160568242364	0.172576904296875	0.172576904296875	1.539306640625E-06	2.65648765207516E-07	112113.40625	3.14952217195241E-06
1	38	69.7167648239821	0.182647705078125	0.1826171875	1.4959716796875E-06	2.7319015316607E-07	122072.625	3.3023604828486E-06
1	39	69.8174728237278	0.192718505859375	0.1927490234375	1.4569091796875E-06	2.80817801012745E-07	132299.96875	3.45104990628897E-06
1	40	69.9181808234736	0.202789306640625	0.202850341796875	1.4227294921875E-06	2.88601171405389E-07	142578.296875	3.59605132871366E-06
1	41	70.0188888232193	0.212860107421875	0.21282958984375	1.39129638671875E-06	2.96109021746815E-07	152972.15625	3.73774878426048E-06
1	42	70.119596822965	0.222930908203125	0.222900390625	1.363525390625E-06	3.03930335121549E-07	163473.59375	3.87646514354856E-06
1	43	70.2203048227108	0.233001708984375	0.233001708984375	1.3385009765625E-06	3.11873009195551E-07	174076.609375	4.01252282244968E-06
1	44	70.3210128224565	0.243072509765625	0.2430419921875	1.31591796875E-06	3.1982332870939E-07	184693.875	4.14618352806428E-06
1	45	70.4217208222022	0.253143310546875	0.253082275390625	1.2957763671875E-06	3.27938010968865E-07	195313.25	4.27769282396184E-06
1	46	70.522428821948	0.263214111328125	0.26324462890625	1.2774658203125E-06	3.36286007041053E-07	206067.84375	4.40726580563933E-06
1	47	70.6231368216937	0.273284912109375	0.27325439453125	1.259765625E-06	3.44236468663439E-07	216908.921875	4.53502570962883E-06
1	48	70.7238448214395	0.283355712890625	0.283355712890625	1.24481201171875E-06	3.5272458376312E-07	227629.328125	4.66114079245017E-06
1	49	70.8245528211852	0.293426513671875	0.29345703125	1.2310791015625E-06	3.61268803317216E-07	238373.828125	4.78581205243245E-06
1	50	70.9252608209309	0.303497314453125	0.303375244140625	1.21795654296875E-06	3.69497854535439E-07	249085.4375	4.90913089379319E-06
1	51	71.0259688206767	0.313568115234375	0.3135986328125	1.207275390625E-06	3.78599878558816E-07	259757.34375	5.031251021137E-06
1	52	71.1266768204224	0.323638916015625	0.323699951171875	1.197509765625E-06	3.87633832588108E-07	270310.90625	5.15234160047839E-06
1	53	71.2273848201681	0.333709716796875	0.333709716796875	1.187744140625E-06	3.96361770071962E-07	280960.9375	5.27244856129983E-06
1	54	71.3280928199139	0.343780517578125	0.343780517578125	1.1798095703125E-06	4.0559552871855E-07	291386.46875	5.39166421731352E-06
1	55	71.4288008196596	0.353851318359375	0.35382080078125	1.1724853515625E-06	4.14849694152508E-07	301769.90625	5.51011180505157E-06
1	56	71.5295088194054	0.363922119140625	0.363922119140625	1.1663818359375E-06	4.24472148097266E-07	312009.4375	5.62788318347884E-06
1	57	71.6302168191511	0.373992919921875	0.374053955078125	1.1614990234375E-06	4.34463288456755E-07	322044.15625	5.74510113438009E-06
1	58	71.7309248188968	0.384063720703125	0.384033203125	1.15631103515625E-06	4.44061811322172E-07	332119.3125	5.8618120419851E-06
1	59	71.8316328186426	0.394134521484375	0.394134521484375	1.15234375E-06	4.54178461950505E-07	342028.59375	5.97806229052367E-06
1	60	71.9323408183883	0.404205322265625	0.40423583984375	1.1492919921875E-06	4.64585014015029E-07	351725.96875	6.09395874562324E-06
1	61	72.033048818134	0.414276123046875	0.41424560546875	1.1474609375E-06	4.75330637073057E-07	361010.65625	6.20960963715333E-06
1	62	72.1337568178798	0.424346923828125	0.424407958984375	1.1456298828125E-06	4.86214446482336E-07	370458.1875	6.32507590125897E-06
1	63	72.2344648176255	0.434417724609375	0.43438720703125	1.14501953125E-06	4.97381847708311E-07	379371	6.44041892883251E-06
1	64	72.3351728173712	0.444488525390625	0.44451904296875	1.1444091796875E-06	5.08711650581972E-07	388426.6875	6.55570102026104E-06
1	65	72.435880817117	0.454559326171875	0.45458984375	1.14471435546875E-06	5.20375522228278E-07	397120.78125	6.67096765027964E-06
1	66	72.5365888168627	0.464630126953125	0.464599609375	1.14593505859375E-06	5.32400974861957E-07	405432.78125	6.78631067785318E-06
1	67	72.6372968166085	0.474700927734375	0.474639892578125	1.14654541015625E-06	5.4419621164925E-07	413973.90625	6.90174647388631E-06
1	68	72.7380048163542	0.484771728515625	0.484771728515625	1.1492919921875E-06	5.57144232971041E-07	421800.34375	7.01735098118661E-06
1	69	72.8387128160999	0.494842529296875	0.494781494140625	1.15203857421875E-06	5.70007330225053E-07	429483.46875	7.1332324296236E-06
1	70	72.9394208158457	0.504913330078125	0.5048828125	1.15570068359375E-06	5.83493374506361E-07	436862.96875	7.24943629393238E-06
1	71	73.0401288155914	0.514984130859375	0.5150146484375	1.1602783203125E-06	5.97560301685007E-07	443871.65625	7.36605488782516E-06
1	72	73.1408368153371	0.525054931640625	0.525054931640625	1.165771484375E-06	6.12094027019339E-07	450392.6875	7.48318097976153E-06
1	73	73.2415448150829	0.535125732421875	0.535125732421875	1.173095703125E-06	6.27753706794465E-07	456165.4375	7.60095235818881E-06
1	74	73.3422528148286	0.545196533203125	0.545196533203125	1.18133544921875E-06	6.44059980459133E-07	461508.6875	7.71950726630166E-06
1	75	73.4429608145743	0.555267333984375	0.55517578125	1.19293212890625E-06	6.62287050090526E-07	465387.5625	7.83906125434441E-06
1	76	73.5436688143201	0.565338134765625	0.565277099609375	1.2066650390625E-06	6.82100107951555E-07	468462.3125	7.95989035395905E-06
1	77	73.6443768140658	0.575408935546875	0.575347900390625	1.22467041015625E-06	7.04611579749326E-07	469798.15625	8.08231743576471E-06
1	78	73.7450848138116	0.585479736328125	0.58551025390625	1.24755859375E-06	7.30458339148754E-07	469324.875	8.20680452306988E-06
1	79	73.8457928135573	0.595550537109375	0.595550537109375	1.27960205078125E-06	7.62067656978616E-07	465418.59375	8.33405738376314E-06
1	80	73.946500813303	0.605621337890625	0.6055908203125	1.3226318359375E-06	8.00973680270545E-07	457868.03125	8.46509010443697E-06
1	81	74.0472088130488	0.615692138671875	0.615692138671875	1.38275146484375E-06	8.51349170716276E-07	445265.96875	8.60131694935262E-06
1	82	74.1479168127945	0.625762939453125	0.625701904296875	1.46728515625E-06	9.1808306024177E-07	426435.125	8.74482793733478E-06
1	83	74.2486248125402	0.635833740234375	0.6357421875	1.58172607421875E-06	1.00556997040258E-06	401929.40625	8.89835700945696E-06
1	84	74.349332812286	0.645904541015625	0.645904541015625	1.7327880859375E-06	1.11921565348894E-06	372754.5	9.06525656318991E-06
1	85	74.4500408120317	0.655975341796875	0.655914306640625	1.92230224609375E-06	1.26086547425075E-06	341212.90625	9.24930463952478E-06
1	86	74.5507488117775	0.666046142578125	0.666015625	2.1466064453125E-06	1.42967348892853E-06	310264.4375	9.45419105846668E-06
1	87	74.6514568115232	0.676116943359375	0.67608642578125	2.3919677734375E-06	1.61717684932228E-06	282648.65625	9.68272615864407E-06
1	88	74.7521648112689	0.686187744140625	0.68609619140625	2.640380859375E-06	1.8115553075404E-06	259847.4375	9.93612502497854E-06
1	89	74.8528728110147	0.696258544921875	0.6961669921875	2.86590576171875E-06	1.9951489775849E-06	242913.421875	1.02133881227928E-05
1	90	74.9535808107604	0.706329345703125	0.706268310546875	3.04779052734375E-06	2.15255772673117E-06	231731.265625	1.0511166692595E-05
1	91	75.0542888105061	0.716400146484375	0.71630859375	3.17047119140625E-06	2.27103555516805E-06	225931.28125	1.08242811620585E-05
1	92	75.1549968102519	0.726470947265625	0.726348876953125	3.23272705078125E-06	2.34808771892858E-06	224686.109375	1.11467079477734E-05
1	93	75.2557048099976	0.736541748046875	0.7364501953125	3.24310302734375E-06	2.38838379118533E-06	227081.953125	1.14727918116841E-05
1	94	75.3564128097433	0.746612548828125	0.746551513671875	3.21685791015625E-06	2.40155009123555E-06	232074.765625	1.1798076229752E-05
1	95	75.4571208094891	0.756683349609375	0.7568359375	3.16925048828125E-06	2.39860264628078E-06	238805.96875	1.21196426334791E-05
1	96	75.5578288092348	0.766754150390625	0.76690673828125	3.11492919921875E-06	2.38886013903539E-06	246203.59375	1.24360758491093E-05
1	97	75.6585368089806	0.776824951171875	0.77728271484375	3.06396484375E-06	2.38156690102187E-06	253685.25	1.27472085296176E-05
1	98	75.7592448087263	0.786895751953125	0.78704833984375	3.026123046875E-06	2.38170514421654E-06	260084.703125	1.30538683151826E-05
1	99	75.859952808472	0.796966552734375	0.797119140625	3.00628662109375E-06	2.39636847254587E-06	265150.75	1.33576240841649E-05
1	100	75.9606608082178	0.807037353515625	0.80718994140625	3.0096435546875E-06	2.42935402638977E-06	268201.1875	1.36605503939791E-05
1	101	76.0613688079635	0.817108154296875	0.81756591796875	3.0377197265625E-06	2.48353603637952E-06	269138.0625	1.39650592245744E-05
1	102	76.1620768077092	0.827178955078125	0.82763671875	3.09295654296875E-06	2.559844233474E-06	267587.59375	1.42737635542289E-05
1	103	76.262784807455	0.837249755859375	0.83770751953125	3.1695556640625E-06	2.65516064246185E-06	264298.09375	1.45891062857118E-05
1	104	76.3634928072007	0.847320556640625	0.84747314453125	3.2586669921875E-06	2.76163268608798E-06	260067.421875	1.49127927215886E-05
1	105	76.4642008069465	0.857391357421875	0.85784912109375	3.34930419921875E-06	2.87319744529668E-06	256127.578125	1.52455304487376E-05
1	106	76.5649088066922	0.867462158203125	0.8673095703125	3.428955078125E-06	2.97396559290064E-06	252936.984375	1.55868438014295E-05
1	107	76.6656168064379	0.877532958984375	0.87738037109375	3.486328125E-06	3.05883577311761E-06	251663.171875	1.59350547619397E-05
1	108	76.7663248061837	0.887603759765625	0.88775634765625	3.51715087890625E-06	3.12237307298346E-06	252407.8125	1.62877076945733E-05
1	109	76.8670328059294	0.897674560546875	0.8978271484375	3.525390625E-06	3.16519140142191E-06	254674.515625	1.66423287737416E-05
1	110	76.9677408056751	0.907745361328125	0.90789794921875	3.516845703125E-06	3.19293690154154E-06	258156.890625	1.69969334820053E-05
1	111	77.0684488054209	0.917816162109375	0.91827392578125	3.5003662109375E-06	3.21429502037063E-06	262336.53125	1.73502776306123E-05
1	112	77.1691568051666	0.927886962890625	0.927734375	3.486328125E-06	3.23438644045382E-06	266106.4375	1.77020865521627E-05
1	113	77.2698648049123	0.937957763671875	0.93780517578125	3.485107421875E-06	3.2683517474652E-06	269089.3125	1.80531260411954E-05
1	114	77.3705728046581	0.948028564453125	0.94818115234375	3.50341796875E-06	3.32187482854351E-06	270644.59375	1.84050259122159E-05
1	115	77.4712808044038	0.958099365234375	0.9576416015625	3.55194091796875E-06	3.40148631039483E-06	269610.8125	1.87602909136331E-05
1	116	77.5719888041496	0.968170166015625	0.96771240234375	3.63800048828125E-06	3.52053802998853E-06	266001.1875	1.91223334695678E-05
1	117	77.6726968038953	0.978240966796875	0.97808837890625	3.76922607421875E-06	3.68663609151554E-06	259493.171875	1.94953172467649E-05
1	118	77.773404803641	0.988311767578125	0.98846435546875	3.944091796875E-06	3.89859405913739E-06	250619.015625	1.98837133211782E-05
1	119	77.8741128033868	0.998382568359375	0.99853515625	4.15618896484375E-06	4.15010072174482E-06	240252.59375	2.02915944100823E-05
1	120	77.9748208031325	1.00845336914063	1.0089111328125	4.3896484375E-06	4.42876535089454E-06	229838.703125	2.07219127332792E-05
1	121	78.0755288028782	1.01852416992188	1.01898193359375	4.62158203125E-06	4.70930854135077E-06	220483.375	2.11756632779725E-05
1	122	78.176236802624	1.02859497070313	1.0284423828125	4.822998046875E-06	4.96017582918284E-06	213237.15625	2.16512362385402E-05
1	123	78.2769448023697	1.03866577148438	1.038818359375	4.974365234375E-06	5.16746194989537E-06	208834.359375	2.21445716306334E-05
1	124	78.3776528021154	1.04873657226563	1.04888916015625	5.059814453125E-06	5.30718443769729E-06	207297.96875	2.26498341362458E-05
1	125	78.4783608018612	1.05880737304688	1.05926513671875	5.084228515625E-06	5.38554559170734E-06	208343.34375	2.31606263696449E-05
1	126	78.5790688016069	1.06887817382813	1.0693359375	5.0506591796875E-06	5.40085147804348E-06	211722.046875	2.36709583987249E-05
1	127	78.6797768013527	1.07894897460938	1.07879638671875	4.9835205078125E-06	5.37620371687808E-06	216472.765625	2.41762190853478E-05
1	128	78.7804848010984	1.08901977539063	1.08856201171875	4.8907470703125E-06	5.32388139617979E-06	222575.828125	2.46734289248707E-05
1	129	78.8811928008441	1.09909057617188	1.0992431640625	4.7906494140625E-06	5.26608846485033E-06	229455.984375	2.51609253609786E-05
1	130	78.9819008005899	1.10916137695313	1.1090087890625	4.69024658203125E-06	5.20152434546617E-06	236450	2.56383264058968E-05
1	131	79.0826088003356	1.11923217773438	1.119384765625	4.593505859375E-06	5.14190014655469E-06	243688.546875	2.61058012256399E-05
1	132	79.1833168000813	1.12930297851563	1.129150390625	4.503173828125E-06	5.08476068716845E-06	250745.453125	2.6563855499262E-05
1	133	79.2840247998271	1.13937377929688	1.1395263671875	4.42047119140625E-06	5.03724368172698E-06	257783.90625	2.70131968136411E-05
1	134	79.3847327995728	1.14944458007813	1.14959716796875	4.34600830078125E-06	4.99615862281644E-06	264517.9375	2.74546237051254E-05
1	135	79.4854407993186	1.15951538085938	1.15936279296875	4.27947998046875E-06	4.96147004014347E-06	270912.0625	2.78889510809677E-05
1	136	79.5861487990643	1.16958618164063	1.16943359375	4.2193603515625E-06	4.93426159664523E-06	277159	2.83169010799611E-05
1	137	79.68685679881	1.17965698242188	1.1798095703125	4.16595458984375E-06	4.91503305966035E-06	283202.6875	2.87391358142486E-05
1	138	79.7875647985558	1.18972778320313	1.1895751953125	4.1180419921875E-06	4.89872036268935E-06	288869.125	2.91562682832591E-05
1	139	79.8882727983015	1.19979858398438	1.20025634765625	4.07440185546875E-06	4.89032663608668E-06	294584.6875	2.95687914331211E-05
1	140	79.9889807980472	1.20986938476563	1.209716796875	4.03594970703125E-06	4.88235582452035E-06	299735.34375	2.99771800200688E-05
1	141	80.089688797793	1.21994018554688	1.22039794921875	4.00177001953125E-06	4.88375189888757E-06	304964.5625	3.03819106193259E-05
1	142	80.1903967975387	1.23001098632813	1.2298583984375	3.970947265625E-06	4.88370278617367E-06	309714.125	3.07833688566461E-05
1	143	80.2911047972844	1.24008178710938	1.240234375	3.94287109375E-06	4.89008425574866E-06	314551.09375	3.11818621412385E-05
1	144	80.3918127970302	1.25015258789063	1.25	3.91754150390625E-06	4.89692683913745E-06	319077.65625	3.15776633215137E-05
1	145	80.4925207967759	1.26022338867188	1.26007080078125	3.89556884765625E-06	4.90869206259958E-06	323462.625	3.1971085263649E-05
1	146	80.5932287965217	1.27029418945313	1.27044677734375	3.875732421875E-06	4.9239120016864E-06	327795.25	3.2362400816055E-05
1	147	80.6939367962674	1.28036499023438	1.28021240234375	3.85894775390625E-06	4.9402729018766E-06	331751.6875	3.27518755511846E-05
1	148	80.7946447960131	1.29043579101563	1.29058837890625	3.843994140625E-06	4.96101392855053E-06	335741.53125	3.31397495756391E-05
1	149	80.8953527957589	1.30050659179688	1.3006591796875	3.83087158203125E-06	4.98265808346332E-06	339520.46875	3.35262084263377E-05
1	150	80.9960607955046	1.31057739257813	1.31103515625	3.8201904296875E-06	5.00840360473376E-06	343185.84375	3.39114703820087E-05
1	151	81.0967687952503	1.32064819335938	1.3201904296875	3.81134033203125E-06	5.03169485455146E-06	346384.8125	3.4295746445423E-05
1	152	81.1974767949961	1.33071899414063	1.33056640625	3.80462646484375E-06	5.06230799146579E-06	349723.28125	3.46792439813726E-05
1	153	81.2981847947418	1.34078979492188	1.3409423828125	3.800048828125E-06	5.09564642925397E-06	352875.0625	3.50621667166706E-05
1	154	81.3988927944876	1.35086059570313	1.3507080078125	3.797607421875E-06	5.12945871378179E-06	355673.40625	3.54447402060032E-05
1	155	81.4996007942333	1.36093139648438	1.36077880859375	3.79791259765625E-06	5.1681190598174E-06	358296.5	3.58272045559715E-05
1	156	81.600308793979	1.37100219726563	1.370849609375	3.8006591796875E-06	5.21013180332375E-06	360687.34375	3.62098253390286E-05
1	157	81.7010167937248	1.38107299804688	1.38092041015625	3.8055419921875E-06	5.25515042681945E-06	362870.90625	3.65928281098604E-05
1	158	81.8017247934705	1.39114379882813	1.39129638671875	3.814697265625E-06	5.30737452208996E-06	364720	3.69765366485808E-05
1	159	81.9024327932162	1.40121459960938	1.4007568359375	3.8275146484375E-06	5.36141760676401E-06	365970.3125	3.73613511328585E-05
1	160	82.003140792962	1.41128540039063	1.4117431640625	3.84613037109375E-06	5.42974839845556E-06	367055.46875	3.77477517758962E-05
1	161	82.1038487927077	1.42135620117188	1.42181396484375	3.870849609375E-06	5.50362801732263E-06	367313.15625	3.81363315682393E-05
1	162	82.2045567924534	1.43142700195313	1.4312744140625	3.9044189453125E-06	5.58829469810007E-06	366578.09375	3.85278472094797E-05
1	163	82.3052647921992	1.44149780273438	1.44134521484375	3.9471435546875E-06	5.68919631405151E-06	365161.59375	3.89232045563404E-05
1	164	82.4059727919449	1.45156860351563	1.45172119140625	4.0045166015625E-06	5.81344147576601E-06	362520.96875	3.93236041418277E-05
1	165	82.5066807916907	1.46163940429688	1.4617919921875	4.0789794921875E-06	5.96261952523491E-06	358371.96875	3.97306394006591E-05
1	166	82.6073887914364	1.47171020507813	1.47186279296875	4.17083740234375E-06	6.1389000620693E-06	352893.84375	4.01460492867045E-05
1	167	82.7080967911821	1.48178100585938	1.48193359375	4.2816162109375E-06	6.3450706875301E-06	346115.5	4.05716637033038E-05
1	168	82.8088047909279	1.49185180664063	1.49200439453125	4.410400390625E-06	6.58033695799531E-06	338292.28125	4.10093416576274E-05
1	169	82.9095127906736	1.50192260742188	1.50177001953125	4.5550537109375E-06	6.84064298184239E-06	329693.15625	4.14607893617358E-05
1	170	83.0102207904193	1.49185180664063	1.49200439453125	4.18426513671875E-06	6.24294170847861E-06	356575.03125	4.1900850192178E-05
1	171	83.1109287901651	1.48178100585938	1.4813232421875	3.91204833984375E-06	5.79500783715048E-06	378656.6875	4.23085293732584E-05
1	172	83.2116367899108	1.47171020507813	1.4715576171875	3.697509765625E-06	5.44109889233368E-06	397986.125	4.26917031290941E-05
1	173	83.3123447896565	1.46163940429688	1.46209716796875	3.5223388671875E-06	5.15000147061073E-06	415092.71875	4.30552499892656E-05
1	174	83.4130527894023	1.45156860351563	1.451416015625	3.377685546875E-06	4.90242700834642E-06	429707.28125	4.34026951552369E-05
1	175	83.513760789148	1.44149780273438	1.44195556640625	3.25531005859375E-06	4.69401265945635E-06	442954.90625	4.37366907135583E-05
1	176	83.6144687888938	1.43142700195313	1.4312744140625	3.1524658203125E-06	4.51204368800973E-06	454017.4375	4.40593503299169E-05
1	177	83.7151767886395	1.42135620117188	1.4215087890625	3.0645751953125E-06	4.35632045991952E-06	463851.84375	4.4372402044246E-05
1	178	83.8158847883852	1.41128540039063	1.41143798828125	2.9888916015625E-06	4.21863524024957E-06	472227.90625	4.46772173745558E-05
1	179	83.916592788131	1.40121459960938	1.4007568359375	2.92327880859375E-06	4.09480253438232E-06	479173.1875	4.49749204562977E-05
1	180	84.0173007878767	1.39114379882813	1.39129638671875	2.86651611328125E-06	3.98817337554647E-06	485361.4375	4.52664608019404E-05
1	181	84.1180087876224	1.38107299804688	1.380615234375	2.81646728515625E-06	3.88845774068614E-06	490193.96875	4.55526205769274E-05
1	182	84.2187167873682	1.37100219726563	1.370849609375	2.77252197265625E-06	3.80071037398011E-06	494441.40625	4.58340473414864E-05
1	183	84.3194247871139	1.36093139648438	1.361083984375	2.733154296875E-06	3.72005229110073E-06	497990.21875	4.61112795164809E-05
1	184	84.4201327868597	1.35086059570313	1.351318359375	2.69775390625E-06	3.64552442988497E-06	500904.96875	4.63847500213888E-05
1	185	84.5208407866054	1.34078979492188	1.34063720703125	2.666015625E-06	3.57415956386831E-06	502861.75	4.66548372060061E-05
1	186	84.6215487863511	1.33071899414063	1.33087158203125	2.63763427734375E-06	3.5103523714497E-06	504570.1875	4.69218975922558E-05
1	187	84.7222567860969	1.32064819335938	1.32049560546875	2.6104736328125E-06	3.44711884281423E-06	505845.25	4.7186160372803E-05
1	188	84.8229647858426	1.31057739257813	1.31011962890625	2.58544921875E-06	3.38724771609122E-06	506728.03125	4.74477965326514E-05
1	189	84.9236727855883	1.30050659179688	1.300048828125	2.56195068359375E-06	3.33066100210999E-06	507444.90625	4.77069879707415E-05
1	190	85.0243807853341	1.29043579101563	1.2908935546875	2.5396728515625E-06	3.27844713865488E-06	508291.28125	4.79638729302678E-05
1	191	85.1250887850798	1.28036499023438	1.280517578125	2.51861572265625E-06	3.22513164974225E-06	508421.1875	4.82185787404887E-05
1	192	85.2257967848255	1.27029418945313	1.2701416015625	2.49847412109375E-06	3.17341573463636E-06	508366.9375	4.84712109027896E-05
1	193	85.3265047845713	1.26022338867188	1.26007080078125	2.479248046875E-06	3.12402789859334E-06	508247.1875	4.87218567286618E-05
1	194	85.427212784317	1.25015258789063	1.25	2.46002197265625E-06	3.07502750729327E-06	508125.53125	4.89705707877874E-05
1	195	85.5279207840628	1.24008178710938	1.2396240234375	2.44232177734375E-06	3.02756075143407E-06	507559.65625	4.92174222017638E-05
1	196	85.6286287838085	1.23001098632813	1.23016357421875	2.42462158203125E-06	2.98268105325405E-06	507363.15625	4.94624910061248E-05
1	197	85.7293367835542	1.21994018554688	1.2200927734375	2.40753173828125E-06	2.93741186396801E-06	506781.625	4.97058099426795E-05
1	198	85.8300447833	1.20986938476563	1.20941162109375	2.3907470703125E-06	2.89139734377386E-06	505871.84375	4.99474226671737E-05
1	199	85.9307527830457	1.19979858398438	1.19964599609375	2.374267578125E-06	2.84828047369956E-06	505269.9375	5.01873619214166E-05
1	200	86.0314607827914	1.18972778320313	1.18927001953125	2.35748291015625E-06	2.8036836283718E-06	504466.03125	5.04256240674295E-05
1	201	86.1321687825372	1.17965698242188	1.1798095703125	2.34039306640625E-06	2.76121795650397E-06	504107.46875	5.06621800013818E-05
1	202	86.2328767822829	1.16958618164063	1.1700439453125	2.32208251953125E-06	2.71693852482713E-06	503876.96875	5.08969533257186E-05
1	203	86.3335847820287	1.15951538085938	1.15997314453125	2.30224609375E-06	2.67054360847396E-06	503844.125	5.11298094352242E-05
1	204	86.4342927817744	1.14944458007813	1.14959716796875	2.2808837890625E-06	2.62209755419462E-06	504013.90625	5.13605882588308E-05
1	205	86.5350007815201	1.13937377929688	1.1395263671875	2.255859375E-06	2.57061105912726E-06	505140.71875	5.15890315000433E-05
1	206	86.6357087812659	1.12930297851563	1.12945556640625	2.22564697265625E-06	2.51376945925585E-06	507472.90625	5.18146916874684E-05
1	207	86.7364167810116	1.11923217773438	1.119384765625	2.188720703125E-06	2.45002047449816E-06	511433.375	5.20369721925817E-05
1	208	86.8371247807573	1.10916137695313	1.10931396484375	2.1405029296875E-06	2.37448966800002E-06	518249.25	5.22549671586603E-05
1	209	86.9378327805031	1.09909057617188	1.09893798828125	2.07794189453125E-06	2.28352928388631E-06	528858.875	5.24673814652488E-05
1	210	87.0385407802488	1.08901977539063	1.0888671875	1.995849609375E-06	2.17321507989254E-06	545565.75	5.26725125382654E-05
1	211	87.1392487799945	1.07894897460938	1.07879638671875	1.8865966796875E-06	2.03525360120693E-06	571821.4375	5.28680102434009E-05
1	212	87.2399567797403	1.06887817382813	1.0687255859375	1.74407958984375E-06	1.8639424297362E-06	612773.4375	5.30508295923937E-05
1	213	87.340664779486	1.05880737304688	1.0589599609375	1.56158447265625E-06	1.65365543125517E-06	678131.75	5.32172816747334E-05
1	214	87.4413727792318	1.04873657226563	1.048583984375	1.33697509765625E-06	1.40193060360616E-06	784295.875	5.33632373844739E-05
1	215	87.5420807789775	1.03866577148438	1.038818359375	1.07635498046875E-06	1.11813722014631E-06	965126.25	5.34847567905672E-05
1	216	87.6427887787232	1.02859497070313	1.02874755859375	7.9010009765625E-07	8.12813539141644E-07	1302047.125	5.35787403350696E-05
1	217	87.743496778469	1.01852416992188	1.0186767578125	5.0201416015625E-07	5.11390112478693E-07	2029179.5	5.36438055860344E-05
1	218	87.8442047782147	1.00845336914063	1.00830078125	2.362060546875E-07	2.38166748545154E-07	4268734	5.36809784534853E-05
1	219	87.9449127779604	0.998382568359375	0.99853515625	1.92260742187506E-08	1.91979108166151E-08	51936512	5.36938387085684E-05
1	220	88.0456207777062	0.988311767578125	0.98876953125	-1.3427734375E-07	-1.32769343963446E-07	-7363636.5	5.36880470463075E-05
1	221	88.1463287774519	0.978240966796875	0.9783935546875	-2.20336914062499E-07	-2.15576221762603E-07	-4440443	5.36701882083435E-05
1	222	88.2470367771976	0.968170166015625	0.96832275390625	-2.46582031250001E-07	-2.3877097987679E-07	-3926980.25	5.3646679589292E-05
1	223	88.3477447769434	0.958099365234375	0.95855712890625	-2.27966308593749E-07	-2.18518721339933E-07	-4204819.5	5.36227817065082E-05
1	224	88.4484527766891	0.948028564453125	0.9478759765625	-1.7974853515625E-07	-1.70379308883639E-07	-5273345	5.36022525920998E-05
1	225	88.5491607764349	0.937957763671875	0.9381103515625	-1.16577148437499E-07	-1.09362225941823E-07	-8047120.5	5.35873332410119E-05
1	226	88.6498687761806	0.927886962890625	0.92803955078125	-5.27954101562506E-08	-4.89962275196376E-08	-17578036	5.35788021807093E-05
1	227	88.7505767759263	0.917816162109375	0.91796875	1.52587890625E-09	1.40070910426005E-09	601600000	5.35762228537351E-05
1	228	88.8512847756721	0.907745361328125	0.90789794921875	3.204345703125E-08	2.90921882140083E-08	28333334	5.35779108759016E-05
1	229	88.9519927754178	0.897674560546875	0.897216796875	2.99072265625006E-08	2.68332662756166E-08	30000000	5.35810322617181E-05
1	230	89.0527007751635	0.887603759765625	0.88775634765625	-5.49316406250056E-09	-4.87659113090899E-09	-161611104	5.35822618985549E-05
1	231	89.1534087749093	0.877532958984375	0.877685546875	-7.26318359375006E-08	-6.37479118381634E-08	-12084034	5.35783256054856E-05
1	232	89.254116774655	0.867462158203125	0.86761474609375	-1.62658691406251E-07	-1.41125084951454E-07	-5333958.5	5.35664803464897E-05
1	233	89.3548247744008	0.857391357421875	0.8575439453125	-2.655029296875E-07	-2.27680430953114E-07	-3229885	5.35449180461001E-05
1	234	89.4555327741465	0.847320556640625	0.84716796875	-3.6590576171875E-07	-3.09983619217746E-07	-2315262.75	5.35131257493049E-05
1	235	89.5562407738922	0.837249755859375	0.83770751953125	-4.4891357421875E-07	-3.76058267193002E-07	-1866077.5	5.34720966243185E-05
1	236	89.656948773638	0.827178955078125	0.82733154296875	-5.0506591796875E-07	-4.1785693838392E-07	-1638066.625	5.34240607521497E-05
1	237	89.7576567733837	0.817108154296875	0.81695556640625	-5.31921386718751E-07	-4.34556142181464E-07	-1535857.75	5.33718412043527E-05
1	238	89.8583647731294	0.807037353515625	0.80718994140625	-5.316162109375E-07	-4.29115232236654E-07	-1518369.75	5.33182901563123E-05
1	239	89.9590727728752	0.796966552734375	0.797119140625	-5.133056640625E-07	-4.09165778592069E-07	-1552913.125	5.32656740688253E-05
1	240	90.0597807726209	0.786895751953125	0.78704833984375	-4.85839843749999E-07	-3.8237945432229E-07	-1619974.875	5.32153608219232E-05
1	241	90.1604887723666	0.776824951171875	0.77728271484375	-4.58679199218751E-07	-3.56523401023878E-07	-1694610.875	5.31678015249781E-05
1	242	90.2611967721124	0.766754150390625	0.7666015625	-4.40368652343751E-07	-3.37587295007324E-07	-1740817.75	5.31225305167027E-05
1	243	90.3619047718581	0.756683349609375	0.7574462890625	-4.4097900390625E-07	-3.34017897785088E-07	-1717647.125	5.3078150813235E-05
1	244	90.4626127716039	0.746612548828125	0.746551513671875	-4.67834472656251E-07	-3.49262535337402E-07	-1595760	5.30323886778206E-05
1	245	90.5633207713496	0.736541748046875	0.7364501953125	-5.322265625E-07	-3.91958337786491E-07	-1383715.75	5.29820317751728E-05
1	246	90.6640287710953	0.726470947265625	0.7264404296875	-6.39953613281249E-07	-4.64888188389523E-07	-1135145.5	5.29230092070065E-05
1	247	90.7647367708411	0.716400146484375	0.716400146484375	-7.9315185546875E-07	-5.68214090890251E-07	-903232	5.28508462593891E-05
1	248	90.8654447705868	0.706329345703125	0.70623779296875	-9.86328124999999E-07	-6.96582219461561E-07	-716027.25	5.27612428413704E-05
1	249	90.9661527703325	0.696258544921875	0.69622802734375	-1.20452880859375E-06	-8.38626704080525E-07	-578008.625	5.26509247720242E-05
1	250	91.0668607700783	0.686187744140625	0.68609619140625	-1.42364501953125E-06	-9.76757405624085E-07	-481929.25	5.25185860169586E-05
1	251	91.167568769824	0.676116943359375	0.67596435546875	-1.6180419921875E-06	-1.09373877421604E-06	-417766.875	5.23654234712012E-05
1	252	91.2682767695698	0.666046142578125	0.665985107421875	-1.763916015625E-06	-1.17474178296106E-06	-377560.5625	5.21951296832412E-05
1	253	91.3689847693155	0.655975341796875	0.65594482421875	-1.84906005859375E-06	-1.21288132959307E-06	-354745	5.20132016390562E-05
1	254	91.4696927690612	0.645904541015625	0.645843505859375	-1.87103271484375E-06	-1.20839422379504E-06	-345180.25	5.18258784723002E-05
1	255	91.570400768807	0.635833740234375	0.635772705078125	-1.842041015625E-06	-1.17111937925074E-06	-345145.78125	5.16389118274674E-05
1	256	91.6711087685527	0.625762939453125	0.625732421875	-1.77581787109375E-06	-1.11118674794852E-06	-352362.96875	5.14567364007235E-05
1	257	91.7718167682984	0.615692138671875	0.615692138671875	-1.68792724609375E-06	-1.03924355698837E-06	-364762.25	5.12823244207539E-05
1	258	91.8725247680442	0.605621337890625	0.60565185546875	-1.59027099609375E-06	-9.63150569077698E-07	-380848.21875	5.11172547703609E-05
1	259	91.9732327677899	0.595550537109375	0.595550537109375	-1.4910888671875E-06	-8.88018746536545E-07	-399406.46875	5.09620949742384E-05
1	260	92.0739407675356	0.585479736328125	0.58544921875	-1.396484375E-06	-8.17570651179267E-07	-419230.78125	5.08166922372766E-05
1	261	92.1746487672814	0.575408935546875	0.575347900390625	-1.3067626953125E-06	-7.51843174384703E-07	-440284.9375	5.06805736222304E-05
1	262	92.2753567670271	0.565338134765625	0.56536865234375	-1.22528076171875E-06	-6.92735284246737E-07	-461419.6875	5.05530770169571E-05
1	263	92.3760647667729	0.555267333984375	0.5552978515625	-1.15020751953125E-06	-6.38707717826037E-07	-482780.59375	5.04334602737799E-05
1	264	92.4767727665186	0.545196533203125	0.545166015625	-1.082763671875E-06	-5.90285935686552E-07	-503494.9375	5.03210212627891E-05
1	265	92.5774807662643	0.535125732421875	0.535125732421875	-1.02142333984375E-06	-5.46589888017479E-07	-523902.03125	5.02150687680114E-05
1	266	92.6781887660101	0.525054931640625	0.525054931640625	-9.66491699218749E-07	-5.07461265897291E-07	-543258.625	5.01149697811343E-05
1	267	92.7788967657558	0.514984130859375	0.514984130859375	-9.16748046875E-07	-4.72110684768268E-07	-561751	5.00201385875698E-05
1	268	92.8796047655015	0.504913330078125	0.50494384765625	-8.70666503906251E-07	-4.39637688032235E-07	-579950.9375	4.99301349918824E-05
1	269	92.9803127652473	0.494842529296875	0.494842529296875	-8.2855224609375E-07	-4.10002883199923E-07	-597237.5625	4.98445733683184E-05
1	270	93.081020764993	0.484771728515625	0.4847412109375	-7.9010009765625E-07	-3.82994073788723E-07	-613518.75	4.97630680911243E-05
1	271	93.1817287647388	0.474700927734375	0.4747314453125	-7.54699707031251E-07	-3.58279663714711E-07	-629033.5625	4.96852808282711E-05
1	272	93.2824367644845	0.464630126953125	0.46466064453125	-7.220458984375E-07	-3.3550628586454E-07	-643533.4375	4.96109205414541E-05
1	273	93.3831447642302	0.454559326171875	0.45458984375	-6.91833496093749E-07	-3.14500454123845E-07	-657079.875	4.95397252961993E-05
1	274	93.483852763976	0.444488525390625	0.444549560546875	-6.6375732421875E-07	-2.95073022016368E-07	-669747.125	4.94714658998419E-05
1	275	93.5845607637217	0.434417724609375	0.4344482421875	-6.378173828125E-07	-2.7709864980352E-07	-681148.3125	4.94059277116321E-05
1	276	93.6852687634674	0.424346923828125	0.424346923828125	-6.1370849609375E-07	-2.60425309761558E-07	-691447.0625	4.93429070047569E-05
1	277	93.7859767632132	0.414276123046875	0.414306640625	-5.9112548828125E-07	-2.44907198521105E-07	-700877.6875	4.92822400701698E-05
1	278	93.8866847629589	0.404205322265625	0.404205322265625	-5.70068359375001E-07	-2.30424646474603E-07	-709047.125	4.92237704747822E-05
1	279	93.9873927627046	0.394134521484375	0.394195556640625	-5.499267578125E-07	-2.16778687445185E-07	-716814.625	4.91673745273147E-05
1	280	94.0881007624504	0.384063720703125	0.384063720703125	-5.30395507812501E-07	-2.0370566744532E-07	-724108.1875	4.91129758302122E-05
1	281	94.1888087621961	0.373992919921875	0.37396240234375	-5.11779785156249E-07	-1.91386391179549E-07	-730709.625	4.90604979859199E-05
1	282	94.2895167619419	0.363922119140625	0.363922119140625	-4.9407958984375E-07	-1.79806491473755E-07	-736565.8125	4.90098464069888E-05
1	283	94.3902247616876	0.353851318359375	0.3538818359375	-4.77294921875E-07	-1.68905998521041E-07	-741432.25	4.89609337819275E-05
1	284	94.4909327614333	0.343780517578125	0.34381103515625	-4.608154296875E-07	-1.5843342282551E-07	-746092.75	4.89136982650962E-05
1	285	94.5916407611791	0.333709716796875	0.333770751953125	-4.4525146484375E-07	-1.48611917438757E-07	-749623.0625	4.88680743728764E-05
1	286	94.6923487609248	0.323638916015625	0.32366943359375	-4.29382324218749E-07	-1.3897792427997E-07	-753802.4375	4.88240330014378E-05
1	287	94.7930567606705	0.313568115234375	0.313568115234375	-4.1473388671875E-07	-1.30047325797022E-07	-756070.6875	4.87815268570557E-05
1	288	94.8937647604163	0.303497314453125	0.303466796875	-4.00695800781251E-07	-1.21597864222167E-07	-757349.5625	4.87404686282389E-05
1	289	94.994472760162	0.293426513671875	0.293487548828125	-3.86657714843749E-07	-1.13479224239654E-07	-759037.0625	4.87008219351992E-05
1	290	95.0951807599077	0.283355712890625	0.283355712890625	-3.7261962890625E-07	-1.05583893628136E-07	-760442.3125	4.86625867779367E-05
1	291	95.1958887596535	0.273284912109375	0.2733154296875	-3.59191894531249E-07	-9.81726842042008E-08	-760917.625	4.86257376905996E-05
1	292	95.2965967593992	0.263214111328125	0.263214111328125	-3.466796875E-07	-9.12509818817853E-08	-759242.9375	4.85901946376543E-05
1	293	95.397304759145	0.253143310546875	0.253143310546875	-3.3447265625E-07	-8.46695158429611E-08	-756843.0625	4.85558957734611E-05
1	294	95.4980127588907	0.243072509765625	0.243133544921875	-3.2196044921875E-07	-7.82793847520225E-08	-755165.875	4.85228410980199E-05
1	295	95.5987207586364	0.233001708984375	0.2330322265625	-3.10363769531249E-07	-7.23247595146859E-08	-750835.8125	4.84910015075002E-05
1	296	95.6994287583822	0.222930908203125	0.222991943359375	-2.99072265625E-07	-6.66907098434422E-08	-745612.25	4.84603151562624E-05
1	297	95.8001367581279	0.212860107421875	0.21282958984375	-2.886962890625E-07	-6.14431101553237E-08	-737209.375	4.84307165606879E-05
1	298	95.9008447578736	0.202789306640625	0.202911376953125	-2.789306640625E-07	-5.65982034572698E-08	-727461.75	4.84021365991794E-05
1	299	96.0015527576194	0.192718505859375	0.192718505859375	-2.7130126953125E-07	-5.22847756201372E-08	-710348.6875	4.83744297525845E-05
1	300	96.1022607573651	0.182647705078125	0.18267822265625	-2.655029296875E-07	-4.85016045104203E-08	-688045.9375	4.83473995700479E-05
1	301	96.2029687571109	0.172576904296875	0.172576904296875	-2.6275634765625E-07	-4.53456756588366E-08	-656794.4375	4.83207986690104E-05
1	302	96.3036767568566	0.162506103515625	0.1624755859375	-2.6275634765625E-07	-4.26914894546826E-08	-618350.75	4.82943360111676E-05
1	303	96.4043847566023	0.152435302734375	0.152496337890625	-2.667236328125E-07	-4.06743758674111E-08	-571739.1875	4.82676769024692E-05
1	304	96.5050927563481	0.142364501953125	0.142486572265625	-2.7618408203125E-07	-3.93525212416534E-08	-515911.625	4.8240337491734E-05
1	305	96.6058007560938	0.132293701171875	0.132354736328125	-2.9266357421875E-07	-3.87354113229321E-08	-452241.9375	4.82116956845857E-05
1	306	96.7065087558395	0.122222900390625	0.12225341796875	-3.18603515625E-07	-3.89503682640679E-08	-383716.5	4.81809147458989E-05
1	307	96.8072167555853	0.112152099609375	0.112152099609375	-3.57666015624999E-07	-4.01129938154554E-08	-313566.5625	4.81468632642645E-05
1	308	96.907924755331	0.102081298828125	0.102081298828125	-4.150390625E-07	-4.23677235517061E-08	-245955.890625	4.81079550809227E-05
1	309	97.0086327550767	0.092010498046875	0.09210205078125	-4.962158203125E-07	-4.57024960098806E-08	-185608.859375	4.80620692542288E-05
1	310	97.1093407548225	0.081939697265625	0.08203125	-6.0699462890625E-07	-4.97925256581766E-08	-135143.296875	4.80065173178446E-05
1	311	97.2100487545682	0.071868896484375	0.071990966796875	-7.54699707031251E-07	-5.43315579193404E-08	-95390.21875	4.79379486932885E-05
1	312	97.310756754314	0.061798095703125	0.06182861328125	-9.4024658203125E-07	-5.81341410565983E-08	-65757.875	4.78526017104741E-05
1	313	97.4114647540597	0.051727294921875	0.051788330078125	-1.16241455078125E-06	-6.01995040483416E-08	-44552.37890625	4.77467256132513E-05
1	314	97.5121727538054	0.041656494140625	0.0417633056640625	-1.409912109375E-06	-5.88825912473112E-08	-29621.212890625	4.76171990158036E-05
1	315	97.6128807535512	0.031585693359375	0.031671142578125	-1.66259765625E-06	-5.26563681546577E-08	-19049.193359375	4.74624866910744E-05
1	316	97.7135887532969	0.021514892578125	0.02159423828125	-1.89361572265625E-06	-4.08911873250872E-08	-11403.7060546875	4.7283414460253E-05
1	317	97.8142967530426	0.011444091796875	0.01151123046875	-2.0806884765625E-06	-2.39512836230915E-08	-5532.4150390625	4.70832928840537E-05
1	318	97.9150047527884	0.001373291015625	0.001507568359375	-2.2064208984375E-06	-3.32633010025063E-09	-683.264221191406	4.68674224975985E-05
1	319	98.0157127525341	-0.008697509765625	-0.00858459472656251	-2.26776123046875E-06	1.94678086984368E-08	3785.4931640625	4.66421297460329E-05
1	320	98.1164207522799	-0.018768310546875	-0.018634033203125	-2.27447509765625E-06	4.23826413964434E-08	8192.673828125	4.64134063804522E-05
1	321	98.2171287520256	-0.028839111328125	-0.0287109375	-2.2393798828125E-06	6.42946957896129E-08	12820.931640625	4.61861163785215E-05
1	322	98.3178367517713	-0.038909912109375	-0.0387603759765625	-2.17926025390625E-06	8.44689438395108E-08	17786.0234375	4.59636212326586E-05
1	323	98.4185447515171	-0.048980712890625	-0.0488616943359375	-2.10662841796875E-06	1.02933434220631E-07	23194.26171875	4.57478090538643E-05
1	324	98.5192527512628	-0.059051513671875	-0.0589599609375	-2.0306396484375E-06	1.19726422553867E-07	29035.16796875	4.55394801974762E-05
1	325	98.6199607510085	-0.069122314453125	-0.06903076171875	-1.95709228515625E-06	1.35099568865371E-07	35272.1015625	4.53386819572188E-05
1	326	98.7206687507543	-0.079193115234375	-0.079132080078125	-1.8890380859375E-06	1.49483511791004E-07	41890.1484375	4.51450141554233E-05
1	327	98.8213767505	-0.089263916015625	-0.08917236328125	-1.82708740234375E-06	1.62925687163806E-07	48805.75	4.49578947154805E-05
1	328	98.9220847502457	-0.099334716796875	-0.0992431640625	-1.7730712890625E-06	1.75965197968253E-07	55972.4609375	4.47766105935443E-05
1	329	99.0227927499915	-0.109405517578125	-0.10931396484375	-1.72576904296875E-06	1.88650659538325E-07	63342.17578125	4.46004305558745E-05
1	330	99.1235007497372	-0.119476318359375	-0.119384765625	-1.6851806640625E-06	2.01184903403373E-07	70843.8984375	4.44286743004341E-05
1	331	99.224208749483	-0.129547119140625	-0.12945556640625	-1.65008544921875E-06	2.13612750599168E-07	78453.859375	4.42607306467835E-05
1	332	99.3249167492287	-0.139617919921875	-0.139495849609375	-1.62078857421875E-06	2.26093277433392E-07	86066.65625	4.409602843225E-05
1	333	99.4256247489744	-0.149688720703125	-0.1495361328125	-1.59637451171875E-06	2.38715671230239E-07	93672.34375	4.3934032873949E-05
1	334	99.5263327487202	-0.159759521484375	-0.15966796875	-1.575927734375E-06	2.51625181135751E-07	101316.8046875	4.37742965004873E-05
1	335	99.6270407484659	-0.169830322265625	-0.169647216796875	-1.5594482421875E-06	2.64556035745045E-07	108786.6953125	4.36164154962171E-05
1	336	99.7277487482116	-0.179901123046875	-0.17974853515625	-1.546630859375E-06	2.78004620213324E-07	116219.4140625	4.34600115113426E-05
1	337	99.8284567479574	-0.189971923828125	-0.18988037109375	-1.5380859375E-06	2.92052334316395E-07	123452.3828125	4.3304684368195E-05
1	338	99.9291647477031	-0.200042724609375	-0.199920654296875	-1.5325927734375E-06	3.06396941596176E-07	130446.046875	4.3150062992936E-05
1	339	100.029872747449	-0.189971923828125	-0.1898193359375	-1.3671875E-06	2.5951860038731E-07	138839.296875	4.30040490755346E-05
2	340	100.130580747195	-0.179901123046875	-0.17974853515625	-1.24847412109375E-06	2.24411380145284E-07	143974.578125	4.28723396908026E-05
2	341	100.23128874694	-0.169830322265625	-0.169708251953125	-1.15203857421875E-06	1.95510438061319E-07	147311.265625	4.27514642069582E-05
2	342	100.331996746686	-0.159759521484375	-0.159698486328125	-1.07025146484375E-06	1.70917530795123E-07	149215.859375	4.26395636168309E-05
2	343	100.432704746432	-0.149688720703125	-0.1495361328125	-9.9761962890625E-07	1.49180181097108E-07	149892.9375	4.25354373874143E-05
2	344	100.533412746178	-0.139617919921875	-0.13946533203125	-9.32922363281249E-07	1.30110322515975E-07	149492.96875	4.243822695571E-05
2	345	100.634120745923	-0.129547119140625	-0.12939453125	-8.73718261718751E-07	1.13054362316234E-07	148096.40625	4.23472556576598E-05
2	346	100.734828745669	-0.119476318359375	-0.11944580078125	-8.18481445312499E-07	9.77641647637029E-08	145935.875	4.22620469180401E-05
2	347	100.835536745415	-0.109405517578125	-0.109344482421875	-7.6507568359375E-07	8.36568005979643E-08	142919.828125	4.21823060605675E-05
2	348	100.93624474516	-0.099334716796875	-0.099273681640625	-7.13500976562501E-07	7.08318665942897E-08	139136.015625	4.21078548242804E-05
2	349	101.036952744906	-0.089263916015625	-0.08917236328125	-6.622314453125E-07	5.90527378108163E-08	134654.390625	4.20385804318357E-05
2	350	101.137660744652	-0.079193115234375	-0.07916259765625	-6.072998046875E-07	4.80754280829387E-08	130351.7578125	4.19746575062163E-05
2	351	101.238368744398	-0.069122314453125	-0.06903076171875	-5.48400878906249E-07	3.78565303549294E-08	125876.4609375	4.19164607592393E-05
2	352	101.339076744143	-0.059051513671875	-0.058929443359375	-4.79736328125E-07	2.82705965304331E-08	122837.1484375	4.18646923208144E-05
2	353	101.439784743889	-0.048980712890625	-0.0488128662109375	-3.97644042968751E-07	1.9410146379073E-08	122755.1796875	4.1820512706181E-05
2	354	101.540492743635	-0.038909912109375	-0.0387939453125	-2.9632568359375E-07	1.14956417718304E-08	130916.578125	4.17855662817601E-05
2	355	101.641200743381	-0.028839111328125	-0.0287109375	-1.6937255859375E-07	4.86284479350729E-09	169513.515625	4.17621158703696E-05
2	356	101.741908743126	-0.018768310546875	-0.01864013671875	-9.46044921874972E-09	1.76344064350964E-10	1970322.5	4.1753111872822E-05
2	357	101.842616742872	-0.008697509765625	-0.00859680175781249	1.87072753906251E-07	-1.60822732908628E-09	-45954.328125	4.17620576627087E-05
2	358	101.943324742618	0.001373291015625	0.0014801025390625	4.2083740234375E-07	6.22882467826713E-10	3517.04150390625	4.17926676163916E-05
2	359	102.044032742364	0.011444091796875	0.0115386962890625	6.84814453125E-07	7.9018658283303E-09	16849.376953125	4.18483396060765E-05
2	360	102.144740742109	0.021514892578125	0.021600341796875	9.6038818359375E-07	2.07447126143734E-08	22491.259765625	4.19311836594716E-05
2	361	102.245448741855	0.031585693359375	0.0316986083984375	1.224365234375E-06	3.88106720095038E-08	25889.830078125	4.20411925006192E-05
2	362	102.346156741601	0.041656494140625	0.041766357421875	1.45233154296875E-06	6.06585928153436E-08	28758.142578125	4.21759759774432E-05
2	363	102.446864741347	0.051727294921875	0.05181884765625	1.62200927734375E-06	8.40506473309688E-08	31947.3203125	4.23307828896213E-05
2	364	102.547572741092	0.061798095703125	0.06182861328125	1.72576904296875E-06	1.06701904201145E-07	35826.703125	4.24993559136055E-05
2	365	102.648280740838	0.071868896484375	0.071868896484375	1.76849365234375E-06	1.27099681890286E-07	40638.484375	4.26753067586105E-05
2	366	102.748988740584	0.081939697265625	0.08203125	1.7620849609375E-06	1.44546035585336E-07	46553.515625	4.28530838689767E-05
2	367	102.849696740329	0.092010498046875	0.092071533203125	1.72149658203125E-06	1.58500824909424E-07	53483.42578125	4.30284962931182E-05
2	368	102.950404740075	0.102081298828125	0.10211181640625	1.66290283203125E-06	1.69802035543398E-07	61405.76171875	4.31989137723576E-05
2	369	103.051112739821	0.112152099609375	0.1121826171875	1.595458984375E-06	1.78982759280188E-07	70313.6953125	4.33629866165575E-05
2	370	103.151820739567	0.122222900390625	0.122283935546875	1.52740478515625E-06	1.86777057820109E-07	80059.9453125	4.35202346125152E-05
2	371	103.252528739312	0.132293701171875	0.13232421875	1.46240234375E-06	1.9351124080913E-07	90484.140625	4.36707850894891E-05
2	372	103.353236739058	0.142364501953125	0.142425537109375	1.40228271484375E-06	1.99720858518049E-07	101566.921875	4.38150309491903E-05
2	373	103.453944738804	0.152435302734375	0.152435302734375	1.34765625E-06	2.05430382038685E-07	113111.421875	4.39535033365246E-05
2	374	103.55465273855	0.162506103515625	0.16259765625	1.2994384765625E-06	2.11285637874425E-07	125129.1796875	4.40867952420376E-05
2	375	103.655360738295	0.172576904296875	0.172576904296875	1.2567138671875E-06	2.16879783465629E-07	137323.9375	4.42155069322325E-05
2	376	103.756068738041	0.182647705078125	0.182647705078125	1.219482421875E-06	2.22735664578977E-07	149774.765625	4.43401950178668E-05
2	377	103.856776737787	0.192718505859375	0.192779541015625	1.1865234375E-06	2.28737434326831E-07	162474.28125	4.44613469881006E-05
2	378	103.957484737533	0.202789306640625	0.20281982421875	1.1578369140625E-06	2.34832270962215E-07	175171.328125	4.45793921244331E-05
2	379	104.058192737278	0.212860107421875	0.212890625	1.13250732421875E-06	2.41100195808031E-07	187981.671875	4.46947196905967E-05
2	380	104.158900737024	0.222930908203125	0.222991943359375	1.10992431640625E-06	2.47504175376889E-07	200907.359375	4.48076352768112E-05
2	381	104.25960873677	0.233001708984375	0.233001708984375	1.090087890625E-06	2.53992340049081E-07	213745.8125	4.49184153694659E-05
2	382	104.360316736516	0.243072509765625	0.2430419921875	1.0723876953125E-06	2.60635232507411E-07	226636.3125	4.50273073511198E-05
2	383	104.461024736261	0.253143310546875	0.253204345703125	1.05621337890625E-06	2.67437826551031E-07	239728.40625	4.51344894827344E-05
2	384	104.561732736007	0.263214111328125	0.26324462890625	1.04248046875E-06	2.74427378599285E-07	252517.5625	4.52401654911228E-05
2	385	104.662440735753	0.273284912109375	0.2733154296875	1.03057861328125E-06	2.81673038671215E-07	265205.8125	4.53445536550134E-05
2	386	104.763148735498	0.283355712890625	0.283355712890625	1.019287109375E-06	2.88820814375867E-07	277994.03125	4.54477740277071E-05
2	387	104.863856735244	0.293426513671875	0.29339599609375	1.0101318359375E-06	2.96368625640753E-07	290453.1875	4.55499612144195E-05
2	388	104.96456473499	0.303497314453125	0.303466796875	1.0009765625E-06	3.0376315862668E-07	303170.71875	4.56512279924937E-05
2	389	105.065272734736	0.313568115234375	0.313568115234375	9.9365234375E-07	3.1157767921286E-07	315571.28125	4.57516653113998E-05
2	390	105.165980734481	0.323638916015625	0.323638916015625	9.86633300781251E-07	3.19312931651439E-07	328023.53125	4.58513823105022E-05
2	391	105.266688734227	0.333709716796875	0.333709716796875	9.80529785156251E-07	3.27212319461978E-07	340336.15625	4.59504371974617E-05
2	392	105.367396733973	0.343780517578125	0.343780517578125	9.75341796875E-07	3.35303496967754E-07	352471.84375	4.60489209217485E-05
2	393	105.468104733719	0.353851318359375	0.353851318359375	9.71069335937499E-07	3.43614146913751E-07	364393.46875	4.61469317087904E-05
2	394	105.568812733464	0.363922119140625	0.36395263671875	9.6710205078125E-07	3.51979309698436E-07	376333.25	4.62445277662482E-05
2	395	105.66952073321	0.373992919921875	0.37396240234375	9.6466064453125E-07	3.60746810201817E-07	387662.125	4.63418000435922E-05
2	396	105.770228732956	0.384063720703125	0.384063720703125	9.6221923828125E-07	3.69553504242504E-07	399143.65625	4.64388249383774E-05
2	397	105.870936732702	0.394134521484375	0.3941650390625	9.60693359375001E-07	3.78671728640256E-07	410292.25	4.65356497443281E-05
2	398	105.971644732447	0.404205322265625	0.40423583984375	9.5947265625E-07	3.87853248184911E-07	421310.40625	4.6632339945063E-05
2	399	106.072352732193	0.414276123046875	0.414276123046875	9.5947265625E-07	3.97486616066089E-07	431774.78125	4.67289646621794E-05
2	400	106.173060731939	0.424346923828125	0.42431640625	9.58862304687499E-07	4.06861005330938E-07	442520.6875	4.68255602754653E-05
2	401	106.273768731685	0.434417724609375	0.4344482421875	9.59167480468751E-07	4.16708616057804E-07	452943.0625	4.69221413368359E-05
2	402	106.37447673143	0.444488525390625	0.44451904296875	9.59167480468751E-07	4.26368188755077E-07	463442.59375	4.70187369501218E-05
2	403	106.475184731176	0.454559326171875	0.454498291015625	9.6099853515625E-07	4.36772154444043E-07	472943.8125	4.71154271508567E-05
2	404	106.575892730922	0.464630126953125	0.464569091796875	9.619140625E-07	4.46875503712363E-07	482963.21875	4.72122519568074E-05
2	405	106.676600730667	0.474700927734375	0.4747314453125	9.6435546875E-07	4.57809846921009E-07	492278.5	4.73092477477621E-05
2	406	106.777308730413	0.484771728515625	0.4847412109375	9.66491699218749E-07	4.68498370764792E-07	501547.1875	4.74064727313817E-05
2	407	106.878016730159	0.494842529296875	0.49481201171875	9.69848632812501E-07	4.79892776183988E-07	510195.09375	4.75039778393693E-05
2	408	106.978724729905	0.504913330078125	0.504852294921875	9.735107421875E-07	4.91479113406967E-07	518589.34375	4.76018321933225E-05
2	409	107.07943272965	0.514984130859375	0.51495361328125	9.77783203125E-07	5.03512978866638E-07	526654.1875	4.77000867249444E-05
2	410	107.180140729396	0.525054931640625	0.52508544921875	9.8388671875E-07	5.1662459554791E-07	533684.875	4.77988651255146E-05
2	411	107.280848729142	0.535125732421875	0.53509521484375	9.906005859375E-07	5.3006561984148E-07	540172.5	4.78982874483336E-05
2	412	107.381556728888	0.545196533203125	0.545196533203125	9.991455078125E-07	5.4473065347338E-07	545662.8125	4.79984810226597E-05
2	413	107.482264728633	0.555267333984375	0.555267333984375	1.0101318359375E-06	5.60893170131749E-07	549697.9375	4.80996568512637E-05
2	414	107.582972728379	0.565338134765625	0.565338134765625	1.02386474609375E-06	5.78829769892764E-07	552161	4.82020768686198E-05
2	415	107.683680728125	0.575408935546875	0.57537841796875	1.04248046875E-06	5.99820737079426E-07	551932.125	4.83061230625026E-05
2	416	107.784388727871	0.585479736328125	0.58551025390625	1.0662841796875E-06	6.24320307451853E-07	549112.75	4.8412308387924E-05
2	417	107.885096727616	0.595550537109375	0.595550537109375	1.0992431640625E-06	6.54654854770342E-07	541782.375	4.85213531646878E-05
2	418	107.985804727362	0.605621337890625	0.60552978515625	1.14532470703125E-06	6.93528193096427E-07	528697.0625	4.86343742522877E-05
2	419	108.086512727108	0.615692138671875	0.615692138671875	1.20941162109375E-06	7.44625197057758E-07	509084.03125	4.87529468955472E-05
2	420	108.187220726854	0.625762939453125	0.625732421875	1.298828125E-06	8.1271889484924E-07	481766.90625	4.8879246605793E-05
2	421	108.287928726599	0.635833740234375	0.63580322265625	1.41998291015625E-06	9.02829640381242E-07	447754.15625	4.90161473862827E-05
2	422	108.388636726345	0.645904541015625	0.645843505859375	1.57867431640625E-06	1.01957652987039E-06	409104.96875	4.9167141696671E-05
2	423	108.489344726091	0.655975341796875	0.65594482421875	1.77459716796875E-06	1.16403782612906E-06	369630.28125	4.93359948450234E-05
2	424	108.590052725836	0.666046142578125	0.665985107421875	2.00653076171875E-06	1.33631954213342E-06	331908.78125	4.95263884658925E-05
2	425	108.690760725582	0.676116943359375	0.676055908203125	2.257080078125E-06	1.52591235291766E-06	299526.78125	4.97410765092354E-05
2	426	108.791468725328	0.686187744140625	0.68609619140625	2.5091552734375E-06	1.72152181221463E-06	273437.125	4.99810776091181E-05
2	427	108.892176725074	0.696258544921875	0.696197509765625	2.73681640625E-06	1.90536479749426E-06	254382.25	5.0245231250301E-05
2	428	108.992884724819	0.706329345703125	0.706298828125	2.918701171875E-06	2.06147524295375E-06	241990.8125	5.05300122313201E-05
2	429	109.093592724565	0.716400146484375	0.716278076171875	3.040771484375E-06	2.17803790292237E-06	235558.015625	5.08300945512019E-05
2	430	109.194300724311	0.726470947265625	0.726409912109375	3.10302734375E-06	2.25406961362751E-06	234097.171875	5.11394573550206E-05
2	431	109.295008724057	0.736541748046875	0.736480712890625	3.1121826171875E-06	2.29206239055202E-06	236644.4375	5.14524181198794E-05
2	432	109.395716723802	0.746612548828125	0.746490478515625	3.0859375E-06	2.30362275033258E-06	241900.71875	5.17645203217398E-05
2	433	109.496424723548	0.756683349609375	0.75714111328125	3.03863525390625E-06	2.30067576012516E-06	249171.4375	5.20729154231958E-05
2	434	109.597132723294	0.766754150390625	0.76690673828125	2.98583984375E-06	2.28986050387903E-06	256847.921875	5.2376271924004E-05
2	435	109.69784072304	0.776824951171875	0.777587890625	2.93701171875E-06	2.28378462452383E-06	264754.78125	5.26745134266093E-05
2	436	109.798548722785	0.786895751953125	0.78704833984375	2.901611328125E-06	2.28370822696888E-06	271245.28125	5.29685094079468E-05
2	437	109.899256722531	0.796966552734375	0.79742431640625	2.88330078125E-06	2.29921420213941E-06	276566.46875	5.32598023710307E-05
2	438	109.999964722277	0.807037353515625	0.8074951171875	2.88787841796875E-06	2.33194759857724E-06	279615.34375	5.35504041181412E-05
2	439	110.100672722023	0.817108154296875	0.81695556640625	2.9168701171875E-06	2.38295319832105E-06	280079.53125	5.38426975253969E-05
2	440	110.201380721768	0.827178955078125	0.82733154296875	2.9705810546875E-06	2.45765522777219E-06	278508.34375	5.4139152780408E-05
2	441	110.302088721514	0.837249755859375	0.83740234375	3.04351806640625E-06	2.54864926318987E-06	275142.875	5.44419890502468E-05
2	442	110.40279672126	0.847320556640625	0.84747314453125	3.128662109375E-06	2.65145695266256E-06	270874	5.47527815797366E-05
2	443	110.503504721005	0.857391357421875	0.85784912109375	3.21319580078125E-06	2.75643697023042E-06	266976.9375	5.50721197214443E-05
2	444	110.604212720751	0.867462158203125	0.867919921875	3.28582763671875E-06	2.85183500636776E-06	264140.4375	5.53993704670575E-05
2	445	110.704920720497	0.877532958984375	0.87738037109375	3.33648681640625E-06	2.92736808660266E-06	262965.34375	5.57328312424943E-05
2	446	110.805628720243	0.887603759765625	0.8880615234375	3.363037109375E-06	2.98658369501936E-06	264065.34375	5.60701810172759E-05
2	447	110.906336719988	0.897674560546875	0.89752197265625	3.367919921875E-06	3.02278203889728E-06	266491.5	5.64091096748598E-05
2	448	111.007044719734	0.907745361328125	0.908203125	3.35906982421875E-06	3.05071762340958E-06	270373.40625	5.67478418815881E-05
2	449	111.10775271948	0.917816162109375	0.91796875	3.34381103515625E-06	3.06951392303745E-06	274527.71875	5.70853590033948E-05
2	450	111.208460719226	0.927886962890625	0.92803955078125	3.33282470703125E-06	3.09299321088474E-06	278454.34375	5.74215519009158E-05
2	451	111.309168718971	0.937957763671875	0.93780517578125	3.33526611328125E-06	3.12782981382043E-06	281178.53125	5.77573191549163E-05
2	452	111.409876718717	0.948028564453125	0.94818115234375	3.3599853515625E-06	3.18587467518228E-06	282198.03125	5.80944506509695E-05
2	453	111.510584718463	0.958099365234375	0.958251953125	3.41461181640625E-06	3.27205839312228E-06	280632.78125	5.84355802857317E-05
2	454	111.611292718209	0.968170166015625	0.96832275390625	3.5076904296875E-06	3.39657640324731E-06	276057.09375	5.87841459491756E-05
2	455	111.712000717954	0.978240966796875	0.9783935546875	3.64471435546875E-06	3.56596501660533E-06	268441.78125	5.91442949371412E-05
2	456	111.8127087177	0.988311767578125	0.98846435546875	3.82476806640625E-06	3.780646920859E-06	258437.71875	5.952041465207E-05
2	457	111.913416717446	0.998382568359375	0.99822998046875	4.0411376953125E-06	4.03398507842212E-06	247017.0625	5.99164959567133E-05
2	458	112.014124717192	1.00845336914063	1.00860595703125	4.27642822265625E-06	4.31323087468627E-06	235852.421875	6.03353182668798E-05
2	459	112.114832716937	1.01852416992188	1.01806640625	4.5086669921875E-06	4.59012198916753E-06	225802.09375	6.07776819379069E-05
2	460	112.215540716683	1.02859497070313	1.02874755859375	4.70947265625E-06	4.8448587222083E-06	218442.203125	6.12418516539037E-05
2	461	112.316248716429	1.03866577148438	1.0382080078125	4.85687255859375E-06	5.04244371768436E-06	213760.625	6.17235564277507E-05
2	462	112.416956716174	1.04873657226563	1.04888916015625	4.9407958984375E-06	5.18234719493194E-06	212291.546875	6.22169100097381E-05
2	463	112.51766471592	1.05880737304688	1.05865478515625	4.9591064453125E-06	5.24998176842928E-06	213476.9375	6.27154076937586E-05
2	464	112.618372715666	1.06887817382813	1.0687255859375	4.925537109375E-06	5.2640471039922E-06	216976.46875	6.32131414022297E-05
2	465	112.719080715412	1.07894897460938	1.0791015625	4.85382080078125E-06	5.23776589034242E-06	222320.015625	6.37055709376E-05
2	466	112.819788715157	1.08901977539063	1.0888671875	4.76043701171875E-06	5.18348315381445E-06	228732.625	6.41896840534173E-05
2	467	112.920496714903	1.09909057617188	1.0992431640625	4.65972900390625E-06	5.12217502546264E-06	235902.8125	6.46640255581588E-05
2	468	113.021204714649	1.10916137695313	1.1090087890625	4.5574951171875E-06	5.05430170960608E-06	243337.375	6.51281516184099E-05
2	469	113.121912714395	1.11923217773438	1.11907958984375	4.45892333984375E-06	4.98988993058447E-06	250975.296875	6.55821640975773E-05
2	470	113.22262071414	1.12930297851563	1.12884521484375	4.3670654296875E-06	4.92974049848272E-06	258490.578125	6.60265868646093E-05
2	471	113.323328713886	1.13937377929688	1.13922119140625	4.283447265625E-06	4.87979377794545E-06	265958.96875	6.64621766190976E-05
2	472	113.424036713632	1.14944458007813	1.14959716796875	4.20745849609375E-06	4.83688245367375E-06	273228.40625	6.68897264404222E-05
2	473	113.524744713378	1.15951538085938	1.15997314453125	4.1387939453125E-06	4.80088965559844E-06	280268.40625	6.73099930281751E-05
2	474	113.625452713123	1.16958618164063	1.16973876953125	4.07745361328125E-06	4.76955528938561E-06	286879.75	6.77237185300328E-05
2	475	113.726160712869	1.17965698242188	1.17950439453125	4.02252197265625E-06	4.74458192911698E-06	293225.09375	6.81315796100534E-05
2	476	113.826868712615	1.18972778320313	1.18988037109375	3.9727783203125E-06	4.72713099952671E-06	299508.375	6.85341801727191E-05
2	477	113.927576712361	1.19979858398438	1.199951171875	3.92822265625E-06	4.71367548016133E-06	305469.25	6.8932022259105E-05
2	478	114.028284712106	1.20986938476563	1.21002197265625	3.88916015625E-06	4.70596887680585E-06	311126.8125	6.93256588419899E-05
2	479	114.128992711852	1.21994018554688	1.22039794921875	3.85345458984375E-06	4.70274790131953E-06	316702.3125	6.97155337547883E-05
2	480	114.229700711598	1.23001098632813	1.22955322265625	3.82110595703125E-06	4.69825317850336E-06	321779.40625	7.01019744155928E-05
2	481	114.330408711343	1.24008178710938	1.24053955078125	3.7921142578125E-06	4.70426766696619E-06	327136.65625	7.04853300703689E-05
2	482	114.431116711089	1.25015258789063	1.25030517578125	3.7664794921875E-06	4.7092489694478E-06	331955.9375	7.08659354131669E-05
2	483	114.531824710835	1.26022338867188	1.26007080078125	3.7432861328125E-06	4.71680550617748E-06	336621.5625	7.12440887582488E-05
2	484	114.632532710581	1.27029418945313	1.2701416015625	3.72344970703125E-06	4.72930832984275E-06	341119.59375	7.16200665920042E-05
2	485	114.733240710326	1.28036499023438	1.280517578125	3.7054443359375E-06	4.74488660984207E-06	345577.34375	7.19941381248645E-05
2	486	114.833948710072	1.29043579101563	1.290283203125	3.68988037109375E-06	4.76099057777901E-06	349681.59375	7.23665216355585E-05
2	487	114.934656709818	1.30050659179688	1.3006591796875	3.67706298828125E-06	4.78260562886135E-06	353722.3125	7.273747905856E-05
2	488	115.035364709564	1.31057739257813	1.31103515625	3.6669921875E-06	4.80755579701508E-06	357523.3125	7.31072796043009E-05
2	489	115.136072709309	1.32064819335938	1.32049560546875	3.658447265625E-06	4.83096346215461E-06	360944.28125	7.34761488274671E-05
2	490	115.236780709055	1.33071899414063	1.33087158203125	3.65264892578125E-06	4.86120643472532E-06	364357.9375	7.3844290454872E-05
2	491	115.337488708801	1.34078979492188	1.34002685546875	3.64959716796875E-06	4.89055810248828E-06	367171.15625	7.42119882488623E-05
2	492	115.438196708547	1.35086059570313	1.351318359375	3.64837646484375E-06	4.93011793878395E-06	370388.96875	7.45794677641243E-05
2	493	115.538904708292	1.36093139648438	1.36077880859375	3.65020751953125E-06	4.96712482345174E-06	372794.9375	7.49469836591743E-05
2	494	115.639612708038	1.37100219726563	1.37115478515625	3.65509033203125E-06	5.01169461131212E-06	375135.6875	7.53148342482746E-05
2	495	115.740320707784	1.38107299804688	1.3812255859375	3.66180419921875E-06	5.05777779835626E-06	377198.09375	7.5683266913984E-05
2	496	115.84102870753	1.39114379882813	1.3909912109375	3.673095703125E-06	5.10924382979283E-06	378697.25	7.60526090743951E-05
2	497	115.941736707275	1.40121459960938	1.40167236328125	3.68743896484375E-06	5.1685810831259E-06	380120.84375	7.6423239079304E-05
2	498	116.042444707021	1.41128540039063	1.4111328125	3.70758056640625E-06	5.23188828083221E-06	380607.46875	7.67956080380827E-05
2	499	116.143152706767	1.42135620117188	1.42120361328125	3.734130859375E-06	5.3069602472533E-06	380598.25	7.71703271311708E-05
2	500	116.243860706512	1.43142700195313	1.43157958984375	3.76861572265625E-06	5.39507345820311E-06	379868.8125	7.75481239543296E-05
2	501	116.344568706258	1.44149780273438	1.44073486328125	3.81134033203125E-06	5.49113065062556E-06	378012.65625	7.79298061388545E-05
2	502	116.445276706004	1.45156860351563	1.451416015625	3.8665771484375E-06	5.61201204618555E-06	375374.90625	7.83164214226417E-05
2	503	116.54598470575	1.46163940429688	1.46209716796875	3.93829345703125E-06	5.75816784476046E-06	371251.4375	7.87094249972142E-05
2	504	116.646692705495	1.47171020507813	1.47216796875	4.02557373046875E-06	5.92632068219245E-06	365703.90625	7.91104394011199E-05
2	505	116.747400705241	1.48178100585938	1.48193359375	4.13116455078125E-06	6.12211169936927E-06	358720.53125	7.9521159932483E-05
2	506	116.848108704987	1.49185180664063	1.49200439453125	4.25445556640625E-06	6.34766593066161E-06	350692.21875	7.99434128566645E-05
2	507	116.948816704733	1.50192260742188	1.50146484375	4.39422607421875E-06	6.59777560940711E-06	341690.40625	8.03789080237038E-05
2	508	117.049524704478	1.49185180664063	1.49139404296875	4.04693603515625E-06	6.03557600697968E-06	368524.25	8.08039549156092E-05
2	509	117.150232704224	1.48178100585938	1.48162841796875	3.79119873046875E-06	5.61714750801912E-06	390807.375	8.1198631960433E-05
2	510	117.25094070397	1.47171020507813	1.47186279296875	3.59039306640625E-06	5.28456575921155E-06	409944.78125	8.15703242551535E-05
2	511	117.351648703716	1.46163940429688	1.46209716796875	3.42742919921875E-06	5.01123440699303E-06	426587.125	8.19237029645592E-05
2	512	117.452356703461	1.45156860351563	1.45172119140625	3.292236328125E-06	4.77940920973197E-06	440952.9375	8.22620640974492E-05
2	513	117.553064703207	1.44149780273438	1.441650390625	3.17901611328125E-06	4.5830297494831E-06	453489.5	8.25879178592004E-05
2	514	117.653772702953	1.43142700195313	1.43157958984375	3.08319091796875E-06	4.41383326688083E-06	464317.53125	8.29032433102839E-05
2	515	117.754480702699	1.42135620117188	1.42120361328125	3.0023193359375E-06	4.26690712629352E-06	473368.5625	8.32096775411628E-05
2	516	117.855188702444	1.41128540039063	1.41143798828125	2.93182373046875E-06	4.1380872062291E-06	481419.8125	8.35084865684621E-05
2	517	117.95589670219	1.40121459960938	1.40106201171875	2.87139892578125E-06	4.02300793211907E-06	487937.09375	8.38006963022053E-05
2	518	118.056604701936	1.39114379882813	1.39129638671875	2.8192138671875E-06	3.92236188417883E-06	493505.125	8.40872453409247E-05
2	519	118.157312701681	1.38107299804688	1.380615234375	2.7734375E-06	3.82905000151368E-06	497799.3125	8.43688540044241E-05
2	520	118.258020701427	1.37100219726563	1.370849609375	2.7325439453125E-06	3.7459067243617E-06	501675.25	8.46461043693125E-05
2	521	118.358728701173	1.36093139648438	1.36077880859375	2.69805908203125E-06	3.67146162716381E-06	504354.71875	8.49195566843264E-05
2	522	118.459436700919	1.35086059570313	1.35040283203125	2.66693115234375E-06	3.60143121724832E-06	506350.84375	8.51897057145834E-05
2	523	118.560144700664	1.34078979492188	1.34124755859375	2.63824462890625E-06	3.53853897649969E-06	508386.375	8.54568424983881E-05
2	524	118.66085270041	1.33071899414063	1.33056640625	2.61199951171875E-06	3.47543868883804E-06	509405.3125	8.57212144182995E-05
2	525	118.761560700156	1.32064819335938	1.32080078125	2.587890625E-06	3.41808777193364E-06	510377.375	8.59830470290035E-05
2	526	118.862268699902	1.31057739257813	1.31072998046875	2.564697265625E-06	3.36162565872655E-06	511066.15625	8.62425004015677E-05
2	527	118.962976699647	1.30050659179688	1.30096435546875	2.542724609375E-06	3.30799412040506E-06	511641.875	8.64996836753562E-05
2	528	119.063684699393	1.29043579101563	1.2908935546875	2.5225830078125E-06	3.25638598042133E-06	511734.84375	8.67547423695214E-05
2	529	119.164392699139	1.28036499023438	1.280517578125	2.50274658203125E-06	3.20481103699422E-06	511644.90625	8.70077856234275E-05
2	530	119.265100698885	1.27029418945313	1.27044677734375	2.48321533203125E-06	3.15479269374919E-06	511613.65625	8.72588498168625E-05
2	531	119.36580869863	1.26022338867188	1.2603759765625	2.46490478515625E-06	3.10670679937175E-06	511328.46875	8.75080077094026E-05
2	532	119.466516698376	1.25015258789063	1.25	2.4462890625E-06	3.05786124954466E-06	510978.0625	8.77553029567935E-05
2	533	119.567224698122	1.24008178710938	1.240234375	2.42919921875E-06	3.01277623293572E-06	510552.78125	8.80008010426536E-05
2	534	119.667932697868	1.23001098632813	1.23016357421875	2.41180419921875E-06	2.96691359835677E-06	510059.46875	8.82445674506016E-05
2	535	119.768640697613	1.21994018554688	1.22039794921875	2.39471435546875E-06	2.92250456368492E-06	509621.53125	8.84865949046798E-05
2	536	119.869348697359	1.20986938476563	1.21002197265625	2.37823486328125E-06	2.87771626972244E-06	508789.96875	8.87269343365915E-05
2	537	119.970056697105	1.19979858398438	1.20025634765625	2.36175537109375E-06	2.83471194961749E-06	508205.1875	8.89656075742096E-05
2	538	120.07076469685	1.18972778320313	1.18988037109375	2.34527587890625E-06	2.79059759122902E-06	507352	8.92026291694492E-05
2	539	120.171472696596	1.17965698242188	1.17950439453125	2.3284912109375E-06	2.74646549769386E-06	506553.125	8.943797001848E-05
2	540	120.272180696342	1.16958618164063	1.16973876953125	2.31048583984375E-06	2.7026649149775E-06	506273.9375	8.96715646376833E-05
2	541	120.372888696088	1.15951538085938	1.15997314453125	2.291259765625E-06	2.65779976871272E-06	506260	8.99032820598222E-05
2	542	120.473596695833	1.14944458007813	1.14990234375	2.26898193359375E-06	2.60910769611655E-06	506792.1875	9.01329040061682E-05
2	543	120.574304695579	1.13937377929688	1.13983154296875	2.2442626953125E-06	2.55808117799461E-06	507886.90625	9.03601612662897E-05
2	544	120.675012695325	1.12930297851563	1.12945556640625	2.21435546875E-06	2.50101606980024E-06	510060.65625	9.05846754903905E-05
2	545	120.775720695071	1.11923217773438	1.1187744140625	2.177734375E-06	2.4363935153815E-06	513733.1875	9.08058354980312E-05
2	546	120.876428694816	1.10916137695313	1.10931396484375	2.13104248046875E-06	2.36399523600994E-06	520549.90625	9.10227972781286E-05
2	547	120.977136694562	1.09909057617188	1.0992431640625	2.069091796875E-06	2.27443501898961E-06	531268.4375	9.12342875381E-05
2	548	121.077844694308	1.08901977539063	1.08978271484375	1.98760986328125E-06	2.1660628135578E-06	548288.0625	9.14385600481182E-05
2	549	121.178552694054	1.07894897460938	1.07879638671875	1.87957763671875E-06	2.02768137569365E-06	573956.8125	9.16332937777042E-05
2	550	121.279260693799	1.06887817382813	1.06903076171875	1.73828125E-06	1.85827605037048E-06	614993	9.18154619284905E-05
2	551	121.379968693545	1.05880737304688	1.05865478515625	1.5576171875E-06	1.64897880949866E-06	679663.0625	9.19814265216701E-05
2	552	121.480676693291	1.04873657226563	1.04888916015625	1.334228515625E-06	1.39945780119888E-06	786139.0625	9.21270402614027E-05
2	553	121.581384693037	1.03866577148438	1.0382080078125	1.0736083984375E-06	1.11462884433422E-06	967026.75	9.22482868190855E-05
2	554	121.682092692782	1.02859497070313	1.02874755859375	7.89489746093749E-07	8.12185646736907E-07	1303053.75	9.23421030165628E-05
2	555	121.782800692528	1.01852416992188	1.0186767578125	5.02624511718749E-07	5.12011922637612E-07	2026715.25	9.24071646295488E-05
2	556	121.883508692274	1.00845336914063	1.00860595703125	2.37426757812501E-07	2.3947004024194E-07	4248072	9.2444424808491E-05
2	557	121.984216692019	0.998382568359375	0.9979248046875	2.13623046875E-08	2.13179731645141E-08	46714288	9.2457456048578E-05
2	558	122.084924691765	0.988311767578125	0.98846435546875	-1.3092041015625E-07	-1.29410167915012E-07	-7550116.5	9.24519408727065E-05
2	559	122.185632691511	0.978240966796875	0.9783935546875	-2.1636962890625E-07	-2.11694654694838E-07	-4521862	9.24344567465596E-05
2	560	122.286340691257	0.968170166015625	0.968017578125	-2.42004394531251E-07	-2.34264490472924E-07	-4000000.25	9.24113774090074E-05
2	561	122.387048691002	0.958099365234375	0.95794677734375	-2.20642089843751E-07	-2.11363371249718E-07	-4341632.5	9.23880797927268E-05
2	562	122.487756690748	0.948028564453125	0.948486328125	-1.69677734375E-07	-1.60937005944106E-07	-5589928	9.23684274312109E-05
2	563	122.588464690494	0.937957763671875	0.93841552734375	-1.0223388671875E-07	-9.5937863875406E-08	-9179105	9.2354734078981E-05
2	564	122.68917269024	0.927886962890625	0.9283447265625	-3.26538085937494E-08	-3.03139913171435E-08	-28429906	9.23479383345693E-05
2	565	122.789880689985	0.917816162109375	0.91766357421875	2.44140625E-08	2.24038956275763E-08	37587500	9.23475236049853E-05
2	566	122.890588689731	0.907745361328125	0.908203125	5.55419921874995E-08	5.04434112258423E-08	16351648	9.23515544855036E-05
2	567	122.991296689477	0.897674560546875	0.89813232421875	5.31005859375003E-08	4.7691351312551E-08	16913794	9.23570187296718E-05
2	568	123.092004689223	0.887603759765625	0.88775634765625	1.77001953125006E-08	1.5713460754796E-08	50155172	9.23605839489028E-05
2	569	123.192712688968	0.877532958984375	0.877685546875	-4.8828125E-08	-4.28557385134809E-08	-17975000	9.23590196180157E-05
2	570	123.293420688714	0.867462158203125	0.867919921875	-1.385498046875E-07	-1.20250135182687E-07	-6264317	9.23495827009901E-05
2	571	123.39412868846	0.857391357421875	0.8575439453125	-2.4078369140625E-07	-2.06482596354363E-07	-3561470.25	9.23304833122529E-05
2	572	123.494836688206	0.847320556640625	0.84808349609375	-3.3905029296875E-07	-2.87542945898167E-07	-2501350.25	9.23012848943472E-05
2	573	123.595544687951	0.837249755859375	0.83709716796875	-4.2144775390625E-07	-3.52792710600625E-07	-1986241.875	9.22629915294237E-05
2	574	123.696252687697	0.827178955078125	0.82733154296875	-4.76989746093751E-07	-3.94628642652606E-07	-1734485	9.22177496249788E-05
2	575	123.796960687443	0.817108154296875	0.81695556640625	-5.0323486328125E-07	-4.11120510079854E-07	-1623408.25	9.21683968044817E-05
2	576	123.897668687188	0.807037353515625	0.8074951171875	-5.035400390625E-07	-4.06606119440767E-07	-1603636.375	9.21176979318261E-05
2	577	123.998376686934	0.796966552734375	0.797119140625	-4.86145019531251E-07	-3.8751548459004E-07	-1639673.75	9.20678648981266E-05
2	578	124.09908468668	0.786895751953125	0.78704833984375	-4.58679199218751E-07	-3.61002690851819E-07	-1715901.625	9.20202874112874E-05
2	579	124.199792686426	0.776824951171875	0.77728271484375	-4.3182373046875E-07	-3.35649104954427E-07	-1800000.125	9.19754456845112E-05
2	580	124.300500686171	0.766754150390625	0.76690673828125	-4.12902832031251E-07	-3.16657974508416E-07	-1857354	9.19329104362987E-05
2	581	124.401208685917	0.756683349609375	0.75775146484375	-4.13818359375E-07	-3.13571462129403E-07	-1831121	9.1891284682788E-05
2	582	124.501916685663	0.746612548828125	0.746490478515625	-4.4281005859375E-07	-3.30553461935779E-07	-1685803	9.18481528060511E-05
2	583	124.602624685409	0.736541748046875	0.73638916015625	-5.096435546875E-07	-3.7529596852437E-07	-1444910.25	9.18001896934584E-05
2	584	124.703332685154	0.726470947265625	0.726409912109375	-6.1981201171875E-07	-4.50237592986014E-07	-1171984.25	9.17433135327883E-05
2	585	124.8040406849	0.716400146484375	0.716339111328125	-7.7545166015625E-07	-5.55486337816546E-07	-923770.1875	9.16730568860658E-05
2	586	124.904748684646	0.706329345703125	0.70623779296875	-9.6954345703125E-07	-6.84728206579166E-07	-728423.0625	9.15851924219169E-05
2	587	125.005456684392	0.696258544921875	0.696197509765625	-1.187744140625E-06	-8.26904511086468E-07	-586151.0625	9.14765623747371E-05
2	588	125.106164684137	0.686187744140625	0.68609619140625	-1.4056396484375E-06	-9.64403966463578E-07	-488102.46875	9.13459734874777E-05
2	589	125.206872683883	0.676116943359375	0.67608642578125	-1.5972900390625E-06	-1.0799060419231E-06	-423270.9375	9.11947645363398E-05
2	590	125.307580683629	0.666046142578125	0.666046142578125	-1.74041748046875E-06	-1.15919829113409E-06	-382693.3125	9.10266971914098E-05
2	591	125.408288683375	0.655975341796875	0.6558837890625	-1.8231201171875E-06	-1.1957549759245E-06	-359758.96875	9.08472648006864E-05
2	592	125.50899668312	0.645904541015625	0.645904541015625	-1.84326171875E-06	-1.19057108349807E-06	-350413.90625	9.06626446521841E-05
2	593	125.609704682866	0.635833740234375	0.635772705078125	-1.81304931640625E-06	-1.1526872185641E-06	-350664.875	9.04785338207148E-05
2	594	125.710412682612	0.625762939453125	0.625762939453125	-1.74652099609375E-06	-1.0929080644928E-06	-358291.125	9.0299297880847E-05
2	595	125.811120682357	0.615692138671875	0.61566162109375	-1.65863037109375E-06	-1.02115507161216E-06	-371186.75	9.01278326637112E-05
2	596	125.911828682103	0.605621337890625	0.605621337890625	-1.56219482421875E-06	-9.46098509757576E-07	-387673.375	8.9965651568491E-05
2	597	126.012536681849	0.595550537109375	0.5955810546875	-1.4642333984375E-06	-8.72069676915999E-07	-406752.8125	8.98132566362619E-05
2	598	126.113244681595	0.585479736328125	0.58544921875	-1.36993408203125E-06	-8.02026818291779E-07	-427355.78125	8.96705460036173E-05
2	599	126.21395268134	0.575408935546875	0.575286865234375	-1.2823486328125E-06	-7.37718323762238E-07	-448619.6875	8.9536995801609E-05
2	600	126.314660681086	0.565338134765625	0.56536865234375	-1.20086669921875E-06	-6.78932394748699E-07	-470800.53125	8.94119584700093E-05
2	601	126.415368680832	0.555267333984375	0.55523681640625	-1.12762451171875E-06	-6.26098653810914E-07	-492395.125	8.92947064130567E-05
2	602	126.516076680578	0.545196533203125	0.545135498046875	-1.0614013671875E-06	-5.78607568968437E-07	-513599.78125	8.91844829311594E-05
2	603	126.616784680323	0.535125732421875	0.535125732421875	-1.00128173828125E-06	-5.35811579993606E-07	-534440.75	8.9080618636217E-05
2	604	126.717492680069	0.525054931640625	0.5250244140625	-9.46655273437499E-07	-4.97017083489482E-07	-554609.9375	8.89825314516202E-05
2	605	126.818200679815	0.514984130859375	0.51495361328125	-8.9752197265625E-07	-4.62182157434654E-07	-573750.4375	8.88896684045903E-05
2	606	126.918908679561	0.504913330078125	0.5048828125	-8.5174560546875E-07	-4.30031718678947E-07	-592762.4375	8.8801585661713E-05
2	607	127.019616679306	0.494842529296875	0.494842529296875	-8.11157226562501E-07	-4.01395055860121E-07	-610045.1875	8.8717853941489E-05
2	608	127.120324679052	0.484771728515625	0.4847412109375	-7.733154296875E-07	-3.748578478735E-07	-626835.0625	8.86380657902919E-05
2	609	127.221032678798	0.474700927734375	0.474639892578125	-7.38525390625E-07	-3.50533611026549E-07	-642685.9375	8.85619374457747E-05
2	610	127.321740678544	0.464630126953125	0.464599609375	-7.0648193359375E-07	-3.28231209323349E-07	-657624.25	8.84891778696328E-05
2	611	127.422448678289	0.454559326171875	0.454559326171875	-6.77490234375E-07	-3.07959510337241E-07	-670945.9375	8.84194887476042E-05
2	612	127.523156678035	0.444488525390625	0.444488525390625	-6.4971923828125E-07	-2.8879273372695E-07	-684124.0625	8.83526590769179E-05
2	613	127.623864677781	0.434417724609375	0.43438720703125	-6.2408447265625E-07	-2.71094307890962E-07	-696039.125	8.82885142345913E-05
2	614	127.724572677526	0.424346923828125	0.424346923828125	-5.999755859375E-07	-2.54597779303367E-07	-707273.6875	8.82268795976415E-05
2	615	127.825280677272	0.414276123046875	0.414276123046875	-5.77697753906251E-07	-2.3932636850077E-07	-717115.6875	8.81675805430859E-05
2	616	127.925988677018	0.404205322265625	0.404266357421875	-5.5694580078125E-07	-2.25154451527487E-07	-725863	8.81104497238994E-05
2	617	128.026696676764	0.394134521484375	0.394134521484375	-5.3680419921875E-07	-2.1157305241104E-07	-734224	8.805537072476E-05
2	618	128.127404676509	0.384063720703125	0.384033203125	-5.1849365234375E-07	-1.9911878723633E-07	-740670.9375	8.80022344063036E-05
2	619	128.228112676255	0.373992919921875	0.3740234375	-5.01098632812499E-07	-1.87422628528111E-07	-746406.875	8.79508952493779E-05
2	620	128.328820676001	0.363922119140625	0.3638916015625	-4.8370361328125E-07	-1.76015689135056E-07	-752302.8125	8.79013023222797E-05
2	621	128.429528675747	0.353851318359375	0.353912353515625	-4.6844482421875E-07	-1.65788407002765E-07	-755504.875	8.78533610375598E-05
2	622	128.530236675492	0.343780517578125	0.34381103515625	-4.54101562500001E-07	-1.56125125272411E-07	-757123.6875	8.78069040481932E-05
2	623	128.630944675238	0.333709716796875	0.333740234375	-4.40368652343751E-07	-1.46968730518893E-07	-757865.5625	8.77618658705615E-05
2	624	128.731652674984	0.323638916015625	0.3236083984375	-4.27856445312499E-07	-1.38457934895087E-07	-756348.0625	8.77181446412578E-05
2	625	128.83236067473	0.313568115234375	0.31353759765625	-4.16259765625E-07	-1.30513086560313E-07	-753225.8125	8.76756457728334E-05
2	626	128.933068674475	0.303497314453125	0.303466796875	-4.058837890625E-07	-1.23172256394355E-07	-747669.1875	8.76342455740087E-05
2	627	129.033776674221	0.293426513671875	0.293426513671875	-3.955078125E-07	-1.16052476073492E-07	-741898.125	8.75938931130804E-05
2	628	129.134484673967	0.283355712890625	0.283416748046875	-3.86657714843749E-07	-1.09585272412005E-07	-732991.3125	8.75545083545148E-05
2	629	129.235192673713	0.273284912109375	0.27325439453125	-3.7811279296875E-07	-1.03320978439569E-07	-722679.5625	8.7515996710863E-05
2	630	129.335900673458	0.263214111328125	0.263275146484375	-3.7078857421875E-07	-9.76194129975738E-08	-710041.1875	8.74782854225487E-05
2	631	129.436608673204	0.253143310546875	0.253173828125	-3.6468505859375E-07	-9.23287046816768E-08	-694226	8.74412507982925E-05
2	632	129.53731667295	0.243072509765625	0.243011474609375	-3.5858154296875E-07	-8.71394263413094E-08	-677702.125	8.74048346304335E-05
2	633	129.638024672695	0.233001708984375	0.232940673828125	-3.52783203125E-07	-8.21775572035222E-08	-660294.125	8.73690150910988E-05
2	634	129.738732672441	0.222930908203125	0.22296142578125	-3.4759521484375E-07	-7.7500324380253E-08	-641439.875	8.73337485245429E-05
2	635	129.839440672187	0.212860107421875	0.212921142578125	-3.42712402343751E-07	-7.29707139157654E-08	-621282.3125	8.72989839990623E-05
2	636	129.940148671933	0.202789306640625	0.202880859375	-3.37829589843749E-07	-6.85391583488126E-08	-600542	8.72647215146571E-05
2	637	130.040856671678	0.192718505859375	0.1927490234375	-3.3233642578125E-07	-6.40575166244162E-08	-579981.6875	8.72309756232426E-05
2	638	130.141564671424	0.182647705078125	0.182647705078125	-3.27148437499999E-07	-5.97529066226343E-08	-558302.25	8.71977681526914E-05
2	639	130.24227267117	0.172576904296875	0.172576904296875	-3.2318115234375E-07	-5.57736044015655E-08	-533994.3125	8.716501906747E-05
2	640	130.342980670916	0.162506103515625	0.162506103515625	-3.2196044921875E-07	-5.2320537236028E-08	-504739.34375	8.71325319167227E-05
2	641	130.443688670661	0.152435302734375	0.1524658203125	-3.2379150390625E-07	-4.93671343804181E-08	-470876.5625	8.71000156621449E-05
2	642	130.544396670407	0.142364501953125	0.142425537109375	-3.3111572265625E-07	-4.71593324391506E-08	-430138.28125	8.70670410222374E-05
2	643	130.645104670153	0.132293701171875	0.13238525390625	-3.45458984374999E-07	-4.57336746251258E-08	-383215.5625	8.70329749886878E-05
2	644	130.745812669899	0.122222900390625	0.122283935546875	-3.7078857421875E-07	-4.53414870094093E-08	-329794.25	8.69969080667943E-05
2	645	130.846520669644	0.112152099609375	0.112152099609375	-4.09545898437499E-07	-4.59314328793425E-08	-273845	8.69576106197201E-05
2	646	130.94722866939	0.102081298828125	0.1021728515625	-4.669189453125E-07	-4.77064361348312E-08	-218823.546875	8.691348193679E-05
2	647	131.047936669136	0.092010498046875	0.092132568359375	-5.48095703125E-07	-5.04974622117516E-08	-168095.78125	8.68623683345504E-05
2	648	131.148644668882	0.081939697265625	0.08197021484375	-6.60400390625E-07	-5.41331601766615E-08	-124122	8.6801519501023E-05
2	649	131.249352668627	0.071868896484375	0.071868896484375	-8.087158203125E-07	-5.81215111594702E-08	-88867.921875	8.6727537564002E-05
2	650	131.350060668373	0.061798095703125	0.061859130859375	-9.95788574218751E-07	-6.15986195384721E-08	-62120.74609375	8.66366754053161E-05
2	651	131.450768668119	0.051727294921875	0.05181884765625	-1.21978759765625E-06	-6.3207984624114E-08	-42481.86328125	8.65251131472178E-05
2	652	131.551476667864	0.041656494140625	0.0417510986328125	-1.46820068359375E-06	-6.12989836668021E-08	-28436.916015625	8.63897657836787E-05
2	653	131.65218466761	0.031585693359375	0.0316741943359375	-1.722412109375E-06	-5.4556018369567E-08	-18389.44140625	8.62291053636E-05
2	654	131.752892667356	0.021514892578125	0.0216278076171875	-1.954345703125E-06	-4.22682120415629E-08	-11066.521484375	8.60439613461494E-05
2	655	131.853600667102	0.011444091796875	0.011541748046875	-2.1429443359375E-06	-2.47333247216375E-08	-5385.93017578125	8.58376515679993E-05
2	656	131.954308666847	0.001373291015625	0.00150146484374999	-2.27020263671875E-06	-3.40862960079846E-09	-661.379211425781	8.56154292705469E-05
2	657	132.055016666593	-0.008697509765625	-0.008563232421875	-2.332763671875E-06	1.99759977448366E-08	3670.85302734375	8.53836536407471E-05
2	658	132.155724666339	-0.018768310546875	-0.0186279296875	-2.340087890625E-06	4.35909939255907E-08	7960.35546875	8.5148356447462E-05
2	659	132.256432666085	-0.028839111328125	-0.02867431640625	-2.3065185546875E-06	6.61378436461746E-08	12431.859375	8.49143762025051E-05
2	660	132.35714066583	-0.038909912109375	-0.038800048828125	-2.247314453125E-06	8.7195907383375E-08	17265.07421875	8.46850743982941E-05
2	661	132.457848665576	-0.048980712890625	-0.048834228515625	-2.1759033203125E-06	1.0625855395574E-07	22443.197265625	8.44623500597663E-05
2	662	132.558556665322	-0.059051513671875	-0.05902099609375	-2.1014404296875E-06	1.24029114090263E-07	28085.970703125	8.42469671624713E-05
2	663	132.659264665068	-0.069122314453125	-0.069061279296875	-2.02880859375E-06	1.40112106805645E-07	34040.31640625	8.40389911900274E-05
2	664	132.759972664813	-0.079193115234375	-0.07916259765625	-1.96319580078125E-06	1.55411669311434E-07	40323.3359375	8.38379783090204E-05
2	665	132.860680664559	-0.089263916015625	-0.08917236328125	-1.90338134765625E-06	1.69729005961017E-07	46849.44921875	8.36432809592225E-05
2	666	132.961388664305	-0.099334716796875	-0.0992431640625	-1.851806640625E-06	1.83779150120245E-07	53592.6171875	8.34541933727451E-05
2	667	133.062096664051	-0.109405517578125	-0.109283447265625	-1.8072509765625E-06	1.97502600940425E-07	60469.4375	8.32699442980811E-05
2	668	133.162804663796	-0.119476318359375	-0.119354248046875	-1.76910400390625E-06	2.11150066320442E-07	67465.9296875	8.30898570711724E-05
2	669	133.263512663542	-0.129547119140625	-0.129486083984375	-1.737060546875E-06	2.24925159386657E-07	74543.21875	8.29133132356219E-05
2	670	133.364220663288	-0.139617919921875	-0.139495849609375	-1.71112060546875E-06	2.38694212839619E-07	81523.09375	8.2739679783117E-05
2	671	133.464928663033	-0.149688720703125	-0.149566650390625	-1.68975830078125E-06	2.52731496175329E-07	88513.640625	8.25684328447096E-05
2	672	133.565636662779	-0.159759521484375	-0.159698486328125	-1.673583984375E-06	2.67268831066758E-07	95423.0546875	8.23990776552819E-05
2	673	133.666344662525	-0.169830322265625	-0.169647216796875	-1.661376953125E-06	2.81847974292759E-07	102112.421875	8.22311485535465E-05
2	674	133.767052662271	-0.179901123046875	-0.179718017578125	-1.65374755859375E-06	2.97208231359036E-07	108673.1875	8.20642162580043E-05
2	675	133.867760662016	-0.189971923828125	-0.189849853515625	-1.65008544921875E-06	3.13268486706875E-07	115054.5625	8.18978587631136E-05
2	676	133.968468661762	-0.200042724609375	-0.199920654296875	-1.65130615234375E-06	3.30130205838941E-07	121068.1953125	8.17316176835448E-05
2	677	134.069176661508	-0.189971923828125	-0.18988037109375	-1.46636962890625E-06	2.78434782785553E-07	129490.125	8.15746316220611E-05
