Potential - Start -0.2 V, Upper Vertex 1.5 V, Lower Vertex -0.2 V, Stop -0.19 V; Scan - # end cross 5, Rate 0.1 Vps, Step 0.01 V 
Scan	Index	Time (s)	Potential applied (V)	WE(1).Potential (V)	WE(1).Current (A)	WE(1).Power (W)	WE(1).Resistance (Ω)	WE(1).Charge (C)
1	1	67.0495888307161	-0.189971923828125	-0.189849853515625	-2.62451171875E-07	4.9826311965262E-08	723372.125	0
1	2	67.1502968304618	-0.179901123046875	-0.17974853515625	-2.2857666015625E-07	4.10863201238953E-08	786381.875	-2.47252138763088E-08
1	3	67.2510048302075	-0.169830322265625	-0.169647216796875	-2.02026367187499E-07	3.42732100477861E-08	839728.125	-4.64077984929645E-08
1	4	67.3517128299533	-0.159759521484375	-0.159576416015625	-1.800537109375E-07	2.87323249636984E-08	886271.25	-6.56470575677304E-08
1	5	67.452420829699	-0.149688720703125	-0.149505615234375	-1.5899658203125E-07	2.37708821515525E-08	940307.0625	-8.27195947294967E-08
1	6	67.5531288294447	-0.139617919921875	-0.1395263671875	-1.39465332031249E-07	1.9459090339069E-08	1000437.6875	-9.77483480824048E-08
1	7	67.6538368291905	-0.129547119140625	-0.129425048828125	-1.19934082031251E-07	1.55224757492078E-08	1079134.875	-1.10810141507045E-07
1	8	67.7545448289362	-0.119476318359375	-0.119384765625	-1.00097656250001E-07	1.19501342155104E-08	1192683	-1.21889627280325E-07
1	9	67.855252828682	-0.109405517578125	-0.10931396484375	-7.99560546874995E-08	8.74031336195458E-09	1367175.625	-1.30956053112641E-07
1	10	67.9559608284277	-0.099334716796875	-0.099273681640625	-5.67626953124997E-08	5.63504176653851E-09	1748924.75	-1.37840387992583E-07
1	11	68.0566688281734	-0.089263916015625	-0.0892333984375	-2.92968749999997E-08	2.61425969760865E-09	3045833.5	-1.42173831818582E-07
1	12	68.1573768279192	-0.079193115234375	-0.079132080078125	5.18798828124945E-09	-4.10536299400022E-10	-15252941	-1.43387808293483E-07
1	13	68.2580848276649	-0.069122314453125	-0.069061279296875	5.035400390625E-08	-3.4775118340491E-09	-1371515.125	-1.40591041031257E-07
1	14	68.3587928274106	-0.059051513671875	-0.0589599609375	1.09252929687501E-07	-6.44154862783353E-09	-539664.8125	-1.32554191623058E-07
1	15	68.4595008271564	-0.048980712890625	-0.048834228515625	1.873779296875E-07	-9.15045550442528E-09	-260618.890625	-1.17617645400969E-07
1	16	68.5602088269021	-0.038909912109375	-0.03875732421875	2.899169921875E-07	-1.12364064719372E-08	-133684.21875	-9.35839352678158E-08
1	17	68.6609168266478	-0.028839111328125	-0.0287078857421875	4.19921875E-07	-1.20550689430843E-08	-68364.828125	-5.78407153284388E-08
1	18	68.7616248263936	-0.018768310546875	-0.0186553955078125	5.80444335937499E-07	-1.08284172739559E-08	-32139.85546875	-7.46827666375793E-09
1	19	68.8623328261393	-0.008697509765625	-0.0086090087890625	7.6751708984375E-07	-6.60756116488415E-09	-11216.7001953125	6.04069683163289E-08
1	20	68.9630408258851	0.001373291015625	0.001446533203125	9.735107421875E-07	1.40821565519644E-09	1485.89343261719	1.48074690287103E-07
1	21	69.0637488256308	0.011444091796875	0.011553955078125	1.18194580078125E-06	1.36561482122488E-08	9775.3681640625	2.56610547921809E-07
1	22	69.1644568253765	0.021514892578125	0.02158203125	1.37237548828125E-06	2.9618650643215E-08	15726.0400390625	3.85230833899186E-07
1	23	69.2651648251223	0.031585693359375	0.031683349609375	1.52618408203125E-06	4.8354621640101E-08	20759.84765625	5.31184923602268E-07
1	24	69.365872824868	0.041656494140625	0.041754150390625	1.630859375E-06	6.80951401932361E-08	25602.544921875	6.90154649873875E-07
1	25	69.4665808246137	0.051727294921875	0.05181884765625	1.683349609375E-06	8.72292318376822E-08	30783.177734375	8.5703834429296E-07
1	26	69.5672888243595	0.061798095703125	0.061859130859375	1.6888427734375E-06	1.04470345263508E-07	36628.1171875	1.02684168723499E-06
1	27	69.6679968241052	0.071868896484375	0.071868896484375	1.6607666015625E-06	1.19357451922042E-07	43274.53125	1.19550793442613E-06
1	28	69.768704823851	0.081939697265625	0.082000732421875	1.61163330078125E-06	1.32155108190091E-07	50880.515625	1.36028631914087E-06
1	29	69.8694128235967	0.092010498046875	0.092071533203125	1.5521240234375E-06	1.4290642980086E-07	59319.703125	1.51959420691128E-06
1	30	69.9701208233424	0.102081298828125	0.102142333984375	1.49017333984375E-06	1.52209779002987E-07	68543.9296875	1.67278597018594E-06
1	31	70.0708288230882	0.112152099609375	0.11224365234375	1.43096923828125E-06	1.60617204869595E-07	78438.90625	1.81987718406162E-06
1	32	70.1715368228339	0.122222900390625	0.122314453125	1.37481689453125E-06	1.68159971281057E-07	88967.8125	1.9611597963376E-06
1	33	70.2722448225796	0.132293701171875	0.13232421875	1.32415771484375E-06	1.75218133335875E-07	99930.8671875	2.0970639980078E-06
1	34	70.3729528223254	0.142364501953125	0.14239501953125	1.278076171875E-06	1.81991680392457E-07	111413.5625	2.22809671868163E-06
1	35	70.4736608220711	0.152435302734375	0.152435302734375	1.236572265625E-06	1.88497253361675E-07	123272.46875	2.35471952692023E-06
1	36	70.5743688218168	0.162506103515625	0.16253662109375	1.20025634765625E-06	1.95085604559608E-07	135418.265625	2.47742354986258E-06
1	37	70.6750768215626	0.172576904296875	0.172576904296875	1.168212890625E-06	2.01606553673628E-07	147727.28125	2.59668536273239E-06
1	38	70.7757848213083	0.182647705078125	0.182708740234375	1.14044189453125E-06	2.08368703624728E-07	160208.71875	2.71293538389727E-06
1	39	70.8764928210541	0.192718505859375	0.192718505859375	1.11602783203125E-06	2.15079197118939E-07	172682.53125	2.82655764749506E-06
1	40	70.9772008207998	0.202789306640625	0.202789306640625	1.09466552734375E-06	2.21986468318391E-07	185252.296875	2.93787479677121E-06
1	41	71.0779088205455	0.212860107421875	0.212860107421875	1.07452392578125E-06	2.2872326610468E-07	198097.140625	3.04710238197003E-06
1	42	71.1786168202913	0.222930908203125	0.222930908203125	1.05712890625E-06	2.35666703929382E-07	210883.375	3.15443958243122E-06
1	43	71.279324820037	0.233001708984375	0.232940673828125	1.04034423828125E-06	2.42338472844494E-07	223907.328125	3.26005556416931E-06
1	44	71.3800328197827	0.243072509765625	0.243072509765625	1.02508544921875E-06	2.49170085453443E-07	237124.140625	3.36405832968012E-06
1	45	71.4807408195285	0.253143310546875	0.253173828125	1.0113525390625E-06	2.56047997027053E-07	250331.921875	3.46660112882091E-06
1	46	71.5814488192742	0.263214111328125	0.263214111328125	9.9945068359375E-07	2.63069523498416E-07	263358.78125	3.56785312760621E-06
1	47	71.68215681902	0.273284912109375	0.273284912109375	9.8876953125E-07	2.70215792852468E-07	276388.875	3.66796803064062E-06
1	48	71.7828648187657	0.283355712890625	0.2833251953125	9.79003906250001E-07	2.77376472013202E-07	289401.5	3.76705315829895E-06
1	49	71.8835728185114	0.293426513671875	0.293426513671875	9.69848632812501E-07	2.84579300569021E-07	302548.75	3.86518559025717E-06
1	50	71.9842808182572	0.303497314453125	0.303466796875	9.6099853515625E-07	2.91631124582636E-07	315782.8125	3.9624114833714E-06
1	51	72.0849888180029	0.313568115234375	0.313629150390625	9.527587890625E-07	2.98812921073477E-07	329180.03125	4.05877699449775E-06
1	52	72.1856968177486	0.323638916015625	0.32366943359375	9.4451904296875E-07	3.05711921555485E-07	342681.75	4.15431259170873E-06
1	53	72.2864048174944	0.333709716796875	0.333770751953125	9.37805175781251E-07	3.13011923935846E-07	355906.28125	4.24909512730665E-06
1	54	72.3871128172401	0.343780517578125	0.343780517578125	9.32922363281249E-07	3.20720516810979E-07	368498.53125	4.34329376730602E-06
1	55	72.4878208169858	0.353851318359375	0.35382080078125	9.28344726562499E-07	3.2846767794581E-07	381130.84375	4.43701583208167E-06
1	56	72.5885288167316	0.363922119140625	0.3638916015625	9.2498779296875E-07	3.36595292083075E-07	393401.53125	4.53033862868324E-06
1	57	72.6892368164773	0.373992919921875	0.3740234375	9.2193603515625E-07	3.44825679121641E-07	405693.5	4.62333855466568E-06
1	58	72.7899448162231	0.384063720703125	0.38409423828125	9.197998046875E-07	3.53289806298562E-07	417584.625	4.71607745566871E-06
1	59	72.8906528159688	0.394134521484375	0.394195556640625	9.17968750000001E-07	3.61859207487214E-07	429421.53125	4.80861626783735E-06
1	60	72.9913608157145	0.404205322265625	0.404205322265625	9.16442871093751E-07	3.70431081364586E-07	441058.96875	4.90098636873881E-06
1	61	73.0920688154603	0.414276123046875	0.414306640625	9.1552734375E-07	3.79309057052524E-07	452533.34375	4.99323323310819E-06
1	62	73.192776815206	0.424346923828125	0.42431640625	9.1583251953125E-07	3.886027570843E-07	463312.21875	5.08544962940505E-06
1	63	73.2934848149517	0.434417724609375	0.4344482421875	9.1705322265625E-07	3.98412140611981E-07	473743.78125	5.17774287800421E-06
1	64	73.3941928146975	0.444488525390625	0.444488525390625	9.1888427734375E-07	4.08433521670304E-07	483726.34375	5.27018937646062E-06
1	65	73.4949008144432	0.454559326171875	0.45452880859375	9.21630859375E-07	4.18907774246691E-07	493178.8125	5.36286688657128E-06
1	66	73.5956088141889	0.464630126953125	0.464599609375	9.24072265625001E-07	4.29323620210198E-07	502774.125	5.45580542166135E-06
1	67	73.6963168139347	0.474700927734375	0.47467041015625	9.2742919921875E-07	4.40223203668211E-07	511813.09375	5.54903590455069E-06
1	68	73.7970248136804	0.484771728515625	0.484771728515625	9.3048095703125E-07	4.51070860663094E-07	520990.5	5.64258925805916E-06
1	69	73.8977328134262	0.494842529296875	0.49481201171875	9.3414306640625E-07	4.62225187902732E-07	529696.1875	5.73648048884934E-06
1	70	73.9984408131719	0.504913330078125	0.504852294921875	9.3963623046875E-07	4.74377486625599E-07	537284.875	5.83083283345331E-06
1	71	74.0991488129176	0.514984130859375	0.514923095703125	9.46655273437499E-07	4.87454656195041E-07	543939.4375	5.92581500313827E-06
1	72	74.1998568126634	0.525054931640625	0.525054931640625	9.54589843750001E-07	5.01212127801409E-07	550032	6.02155023443629E-06
1	73	74.3005648124091	0.535125732421875	0.535064697265625	9.63745117187501E-07	5.15665931288822E-07	555193.1875	6.11814584772219E-06
1	74	74.4012728121548	0.545196533203125	0.545196533203125	9.75341796875E-07	5.31752959886944E-07	558980	6.21578692516778E-06
1	75	74.5019808119006	0.555267333984375	0.55523681640625	9.906005859375E-07	5.50017944078718E-07	560505.25	6.31477996648755E-06
1	76	74.6026888116463	0.565338134765625	0.565277099609375	1.00830078125E-06	5.69969301977835E-07	560623.5	6.41543238089071E-06
1	77	74.7033968113921	0.575408935546875	0.57537841796875	1.03302001953125E-06	5.94377411289315E-07	556986.6875	6.51822119834833E-06
1	78	74.8041048111378	0.585479736328125	0.58544921875	1.06658935546875E-06	6.24433880602737E-07	548898.4375	6.62394495520857E-06
1	79	74.9048128108835	0.595550537109375	0.595550537109375	1.11358642578125E-06	6.6319699953965E-07	534804.0625	6.73372551318607E-06
1	80	75.0055208106293	0.605621337890625	0.605560302734375	1.177978515625E-06	7.13336987701041E-07	514067.375	6.84911492498941E-06
1	81	75.106228810375	0.615692138671875	0.615631103515625	1.26556396484375E-06	7.79120512106601E-07	486448.0625	6.97215727996081E-06
1	82	75.2069368101207	0.625762939453125	0.625640869140625	1.3800048828125E-06	8.63387413119199E-07	453361.34375	7.10537233317154E-06
1	83	75.3076448098665	0.635833740234375	0.635711669921875	1.52313232421875E-06	9.6827295692492E-07	417371.28125	7.25155678082956E-06
1	84	75.4083528096122	0.645904541015625	0.6458740234375	1.6937255859375E-06	1.09393329239538E-06	381333.34375	7.41353824196267E-06
1	85	75.5090608093579	0.655975341796875	0.6558837890625	1.883544921875E-06	1.23538654861477E-06	348217.75	7.59366821512231E-06
1	86	75.6097688091037	0.666046142578125	0.665985107421875	2.08282470703125E-06	1.38713028263737E-06	319750.90625	7.79339097789489E-06
1	87	75.7104768088494	0.676116943359375	0.676055908203125	2.2723388671875E-06	1.53622806919884E-06	297515.4375	8.01269106887048E-06
1	88	75.8111848085952	0.686187744140625	0.6861572265625	2.43743896484375E-06	1.67246639648511E-06	281507.4375	8.24984726932598E-06
1	89	75.9118928083409	0.696258544921875	0.6961669921875	2.5634765625E-06	1.78460777533473E-06	271571.4375	8.50166270538466E-06
1	90	76.0126008080866	0.706329345703125	0.706298828125	2.64801025390625E-06	1.87028649634158E-06	266728.125	8.76408194017131E-06
1	91	76.1133088078324	0.716400146484375	0.71630859375	2.69012451171875E-06	1.92695915757213E-06	266273.40625	9.03287855180679E-06
1	92	76.2140168075781	0.726470947265625	0.72637939453125	2.7020263671875E-06	1.96269616026257E-06	268827.65625	9.30439455260057E-06
1	93	76.3147248073238	0.736541748046875	0.73638916015625	2.69622802734375E-06	1.98547309082642E-06	273118.28125	9.57621887209825E-06
1	94	76.4154328070696	0.746612548828125	0.746490478515625	2.686767578125E-06	2.00564636543277E-06	277839.625	9.84727375907823E-06
1	95	76.5161408068153	0.756683349609375	0.7568359375	2.684326171875E-06	2.03159447664802E-06	281946.34375	1.01177301985445E-05
1	96	76.6168488065611	0.766754150390625	0.76690673828125	2.7020263671875E-06	2.07220205084013E-06	283826.53125	1.0388954251539E-05
1	97	76.7175568063068	0.776824951171875	0.77667236328125	2.747802734375E-06	2.13414250538335E-06	282652.15625	1.06633751784102E-05
1	98	76.8182648060525	0.786895751953125	0.787353515625	2.83050537109375E-06	2.22860830945137E-06	278167.125	1.09442653410952E-05
1	99	76.9189728057983	0.796966552734375	0.7965087890625	2.95684814453125E-06	2.35515540225606E-06	269377.65625	1.12356819954584E-05
1	100	77.019680805544	0.807037353515625	0.8074951171875	3.12896728515625E-06	2.52662562161277E-06	258070.828125	1.15421271402738E-05
1	101	77.1203888052897	0.817108154296875	0.81756591796875	3.34075927734375E-06	2.73129080596846E-06	244724.59375	1.18679035949754E-05
1	102	77.2210968050355	0.827178955078125	0.8270263671875	3.5809326171875E-06	2.96152575174347E-06	230952.796875	1.22164383355994E-05
1	103	77.3218048047812	0.837249755859375	0.83740234375	3.82904052734375E-06	3.20644744533638E-06	218697.703125	1.25895603559911E-05
1	104	77.4225128045269	0.847320556640625	0.84747314453125	4.0618896484375E-06	3.4423424040142E-06	208640.109375	1.2986899491807E-05
1	105	77.5232208042727	0.857391357421875	0.858154296875	4.25689697265625E-06	3.65307414540439E-06	201591.515625	1.34057836476131E-05
1	106	77.6239288040184	0.867462158203125	0.86700439453125	4.39849853515625E-06	3.81351742362313E-06	197113.734375	1.38416180561762E-05
1	107	77.7246368037642	0.877532958984375	0.87738037109375	4.47845458984375E-06	3.92930814996362E-06	195911.40625	1.42886083267513E-05
1	108	77.8253448035099	0.887603759765625	0.88714599609375	4.50592041015625E-06	3.99740929424297E-06	196884.515625	1.47410073623178E-05
1	109	77.9260528032556	0.897674560546875	0.89813232421875	4.49432373046875E-06	4.03649710278842E-06	199837.046875	1.51942058437271E-05
1	110	78.0267608030014	0.907745361328125	0.90789794921875	4.4659423828125E-06	4.05461969421594E-06	203293.703125	1.5645389794372E-05
1	111	78.1274688027471	0.917816162109375	0.91796875	4.44122314453125E-06	4.07690413339878E-06	206692.78125	1.60939016495831E-05
1	112	78.2281768024928	0.927886962890625	0.927734375	4.439697265625E-06	4.11885957873892E-06	208963.4375	1.65410910994979E-05
1	113	78.3288848022386	0.937957763671875	0.9381103515625	4.48028564453125E-06	4.20300239056814E-06	209386.28125	1.69902486959472E-05
1	114	78.4295928019843	0.948028564453125	0.9478759765625	4.57550048828125E-06	4.33700688518002E-06	207163.34375	1.74462438735645E-05
1	115	78.53030080173	0.958099365234375	0.958251953125	4.73663330078125E-06	4.53888833362726E-06	202306.546875	1.79151465999894E-05
1	116	78.6310088014758	0.968170166015625	0.968017578125	4.9713134765625E-06	4.81231882076827E-06	194720.6875	1.84039799933089E-05
1	117	78.7317168012215	0.978240966796875	0.9783935546875	5.2734375E-06	5.15949705004459E-06	185532.421875	1.89198453881545E-05
1	118	78.8324248009673	0.988311767578125	0.9881591796875	5.6243896484375E-06	5.55779206479201E-06	175691.8125	1.94685944734374E-05
1	119	78.933132800713	0.998382568359375	0.99884033203125	6.005859375E-06	5.99889426666778E-06	166310.984375	2.00542235688772E-05
1	120	79.0338408004587	1.00845336914063	1.00860595703125	6.38427734375E-06	6.43922021481558E-06	157982.796875	2.067811692541E-05
1	121	79.1345488002045	1.01852416992188	1.01837158203125	6.72607421875E-06	6.84964243191644E-06	151406.546875	2.13382754736813E-05
1	122	79.2352567999502	1.02859497070313	1.029052734375	7.000732421875E-06	7.20412253940594E-06	146992.15625	2.20294750761241E-05
1	123	79.3359647996959	1.03866577148438	1.03851318359375	7.1746826171875E-06	7.45100260246545E-06	144746.921875	2.27432628889801E-05
1	124	79.4366727994417	1.04873657226563	1.04888916015625	7.244873046875E-06	7.59906879466143E-06	144776.75	2.34693452512147E-05
1	125	79.5373807991874	1.05880737304688	1.0589599609375	7.2174072265625E-06	7.64294509281171E-06	146723.046875	2.41975794779137E-05
1	126	79.6380887989332	1.06887817382813	1.06903076171875	7.110595703125E-06	7.60144530431717E-06	150343.34375	2.49190525209997E-05
1	127	79.7387967986789	1.07894897460938	1.0784912109375	6.9549560546875E-06	7.50085882827989E-06	155068.015625	2.56273087870795E-05
1	128	79.8395047984246	1.08901977539063	1.0888671875	6.7779541015625E-06	7.38029166313936E-06	160648.359375	2.63188157987315E-05
1	129	79.9402127981704	1.09909057617188	1.09893798828125	6.5948486328125E-06	7.24732944945572E-06	166635.828125	2.69921893050196E-05
1	130	80.0409207979161	1.10916137695313	1.10870361328125	6.4208984375E-06	7.11887332727201E-06	172671.109375	2.7647583920043E-05
1	131	80.1416287976618	1.11923217773438	1.1187744140625	6.26220703125E-06	7.00599684932968E-06	178654.96875	2.82862292806385E-05
1	132	80.2423367974076	1.12930297851563	1.12945556640625	6.11572265625E-06	6.90743672748795E-06	184680.640625	2.89095078187529E-05
1	133	80.3430447971533	1.13937377929688	1.13983154296875	5.9844970703125E-06	6.82131849316647E-06	190464.046875	2.95188019663328E-05
1	134	80.443752796899	1.14944458007813	1.14959716796875	5.865478515625E-06	6.74293733027298E-06	195993.765625	3.01154959743144E-05
1	135	80.5444607966448	1.15951538085938	1.15936279296875	5.7586669921875E-06	6.67638369122869E-06	201324.859375	3.07008194795344E-05
1	136	80.6451687963905	1.16958618164063	1.16973876953125	5.6640625E-06	6.6254733610549E-06	206519.40625	3.12759984808508E-05
1	137	80.7458767961363	1.17965698242188	1.1798095703125	5.57861328125E-06	6.58170120004797E-06	211487.96875	3.184211163898E-05
1	138	80.846584795882	1.18972778320313	1.1895751953125	5.50537109375E-06	6.54905306873843E-06	216075.390625	3.24002357956488E-05
1	139	80.9472927956277	1.19979858398438	1.19964599609375	5.438232421875E-06	6.52395328870625E-06	220594.84375	3.29512877215166E-05
1	140	81.0480007953735	1.20986938476563	1.209716796875	5.3802490234375E-06	6.50857737127808E-06	224844.03125	3.34960423060693E-05
1	141	81.1487087951192	1.21994018554688	1.21978759765625	5.3253173828125E-06	6.49575576971984E-06	229054.453125	3.40351107297465E-05
1	142	81.2494167948649	1.23001098632813	1.23016357421875	5.2764892578125E-06	6.49094454274746E-06	233140.5625	3.45689550158568E-05
1	143	81.3501247946107	1.24008178710938	1.240234375	5.2337646484375E-06	6.49109460937325E-06	236967.9375	3.50981863448396E-05
1	144	81.4508327943564	1.25015258789063	1.24969482421875	5.1910400390625E-06	6.48721561447019E-06	240740.75	3.56231175828725E-05
1	145	81.5515407941022	1.26022338867188	1.2603759765625	5.157470703125E-06	6.5003523559426E-06	244378.703125	3.61442071152851E-05
1	146	81.6522487938479	1.27029418945313	1.270751953125	5.1239013671875E-06	6.51120762995561E-06	248004.765625	3.66619169653859E-05
1	147	81.7529567935936	1.28036499023438	1.28082275390625	5.096435546875E-06	6.52763037578552E-06	251317.375	3.71765490854159E-05
1	148	81.8536647933394	1.29043579101563	1.290283203125	5.072021484375E-06	6.54434415992E-06	254392.296875	3.76885727746412E-05
1	149	81.9543727930851	1.30050659179688	1.300048828125	5.047607421875E-06	6.56213615002343E-06	257557.4375	3.81981371901929E-05
1	150	82.0550807928308	1.31057739257813	1.3104248046875	5.029296875E-06	6.59051556795021E-06	260558.25	3.87055479222909E-05
1	151	82.1557887925766	1.32064819335938	1.32080078125	5.0079345703125E-06	6.61448348182603E-06	263741.625	3.92109650420025E-05
1	152	82.2564967923223	1.33071899414063	1.33087158203125	4.9896240234375E-06	6.64054869048414E-06	266727.84375	3.97143812733702E-05
1	153	82.357204792068	1.34078979492188	1.3409423828125	4.974365234375E-06	6.67033737045131E-06	269570.5625	4.02161058445927E-05
1	154	82.4579127918138	1.35086059570313	1.35101318359375	4.9560546875E-06	6.69569499223144E-06	272598.53125	4.07161423936486E-05
1	155	82.5586207915595	1.36093139648438	1.3604736328125	4.9407958984375E-06	6.72182250127662E-06	275355.15625	4.12144909205381E-05
1	156	82.6593287913053	1.37100219726563	1.370849609375	4.9310302734375E-06	6.75970068186871E-06	278004.71875	4.17115770687815E-05
1	157	82.760036791051	1.38107299804688	1.38092041015625	4.920654296875E-06	6.79503182254848E-06	280637.5625	4.22076482209377E-05
1	158	82.8607447907967	1.39114379882813	1.39129638671875	4.910888671875E-06	6.83250164001947E-06	283308.5	4.27027043770067E-05
1	159	82.9614527905425	1.40121459960938	1.40106201171875	4.90081787109375E-06	6.86634939484065E-06	285883.3125	4.31967637268826E-05
1	160	83.0621607902882	1.41128540039063	1.41143798828125	4.8919677734375E-06	6.90470915287733E-06	288521.53125	4.36898699263111E-05
1	161	83.1628687900339	1.42135620117188	1.42120361328125	4.8834228515625E-06	6.94033815307193E-06	291026.125	4.4182099372847E-05
1	162	83.2635767897797	1.43142700195313	1.43157958984375	4.8760986328125E-06	6.98052326697507E-06	293591.1875	4.46735321020242E-05
1	163	83.3642847895254	1.44149780273438	1.441650390625	4.87030029296875E-06	7.02126999385655E-06	296008.53125	4.51642990810797E-05
1	164	83.4649927892712	1.45156860351563	1.45111083984375	4.8663330078125E-06	7.06158834873349E-06	298193.90625	4.5654578570975E-05
1	165	83.5657007890169	1.46163940429688	1.46148681640625	4.86297607421875E-06	7.10717495167046E-06	300533.4375	4.6144486987032E-05
1	166	83.6664087887626	1.47171020507813	1.4715576171875	4.8614501953125E-06	7.15390387995285E-06	302699.3125	4.66341516585089E-05
1	167	83.7671167885084	1.48178100585938	1.48193359375	4.8614501953125E-06	7.20434627510258E-06	304833.65625	4.71237399324309E-05
1	168	83.8678247882541	1.49185180664063	1.4910888671875	4.86419677734375E-06	7.25294967196533E-06	306543.6875	4.76134628115688E-05
1	169	83.9685327879998	1.50192260742188	1.5020751953125	4.87060546875E-06	7.31601539882831E-06	308396	4.81036513519939E-05
1	170	84.0692407877456	1.49185180664063	1.49169921875	4.7149658203125E-06	7.03331033946597E-06	316375.40625	4.85863238282036E-05
1	171	84.1699487874913	1.48178100585938	1.48223876953125	4.6002197265625E-06	6.81862411511247E-06	322210.4375	4.90553793497384E-05
1	172	84.270656787237	1.47171020507813	1.47186279296875	4.5068359375E-06	6.63344417262124E-06	326584.5	4.95139574923087E-05
1	173	84.3713647869828	1.46163940429688	1.46148681640625	4.427490234375E-06	6.47071874482208E-06	330093.75	4.99638335895725E-05
1	174	84.4720727867285	1.45156860351563	1.45172119140625	4.35791015625E-06	6.32647061138414E-06	333123.25	5.04062154504936E-05
1	175	84.5727807864743	1.44149780273438	1.441650390625	4.29595947265625E-06	6.19327192907804E-06	335582.84375	5.08419725520071E-05
1	176	84.67348878622	1.43142700195313	1.43157958984375	4.2388916015625E-06	6.06831054028589E-06	337725	5.12717342644464E-05
1	177	84.7741967859657	1.42135620117188	1.4208984375	4.18548583984375E-06	5.94714992985246E-06	339482.34375	5.16959371452685E-05
1	178	84.8749047857115	1.41128540039063	1.41143798828125	4.13726806640625E-06	5.8394966799824E-06	341152.1875	5.21150213899091E-05
1	179	84.9756127854572	1.40121459960938	1.4007568359375	4.09271240234375E-06	5.73289526073495E-06	342256.34375	5.25294344697613E-05
1	180	85.0763207852029	1.39114379882813	1.39068603515625	4.05059814453125E-06	5.63311004952993E-06	343328.59375	5.29394819750451E-05
1	181	85.1770287849487	1.38107299804688	1.38092041015625	4.01275634765625E-06	5.54129701413331E-06	344132.65625	5.33455022377893E-05
1	182	85.2777367846944	1.37100219726563	1.37115478515625	3.9764404296875E-06	5.4523152357433E-06	344819.65625	5.37477935722563E-05
1	183	85.3784447844401	1.36093139648438	1.3604736328125	3.94256591796875E-06	5.36375682713697E-06	345073.15625	5.41465451533441E-05
1	184	85.4791527841859	1.35086059570313	1.3507080078125	3.909912109375E-06	5.28114924236434E-06	345457.40625	5.45419497939292E-05
1	185	85.5798607839316	1.34078979492188	1.34063720703125	3.8787841796875E-06	5.20004186910228E-06	345633.375	5.49341420992278E-05
1	186	85.6805687836774	1.33071899414063	1.33056640625	3.85009765625E-06	5.12281030751183E-06	345592.90625	5.5323322158074E-05
1	187	85.7812767834231	1.32064819335938	1.32080078125	3.8232421875E-06	5.04974104842404E-06	345466.1875	5.57097046112176E-05
1	188	85.8819847831688	1.31057739257813	1.31072998046875	3.7982177734375E-06	4.97843757329974E-06	345090.8125	5.60934749955777E-05
1	189	85.9826927829146	1.30050659179688	1.30035400390625	3.775634765625E-06	4.90966158395167E-06	344406.71875	5.64748479519039E-05
1	190	86.0834007826603	1.29043579101563	1.290283203125	3.75457763671875E-06	4.84446854898124E-06	343656.03125	5.68540272070095E-05
1	191	86.184108782406	1.28036499023438	1.2799072265625	3.73382568359375E-06	4.77895036965492E-06	342787.09375	5.72310964344069E-05
1	192	86.2848167821518	1.27029418945313	1.27044677734375	3.714599609375E-06	4.7192006604746E-06	342014.46875	5.76061538595241E-05
1	193	86.3855247818975	1.26022338867188	1.26007080078125	3.6956787109375E-06	4.65681659989059E-06	340957.90625	5.7979290431831E-05
1	194	86.4862327816433	1.25015258789063	1.24969482421875	3.6773681640625E-06	4.59558805232518E-06	339834.03125	5.83505534450524E-05
1	195	86.586940781389	1.24008178710938	1.240234375	3.65966796875E-06	4.53884604212362E-06	338892.59375	5.87200047448277E-05
1	196	86.6876487811347	1.23001098632813	1.23016357421875	3.64288330078125E-06	4.48134233010933E-06	337689.53125	5.90877170907333E-05
1	197	86.7883567808805	1.21994018554688	1.2200927734375	3.62762451171875E-06	4.42603823103127E-06	336333.8125	5.94538141740486E-05
1	198	86.8890647806262	1.20986938476563	1.209716796875	3.6126708984375E-06	4.37030848843278E-06	334853.875	5.98183942202013E-05
1	199	86.9897727803719	1.19979858398438	1.19964599609375	3.5968017578125E-06	4.3148888835276E-06	333531.3125	6.01814172114246E-05
1	200	87.0904807801177	1.18972778320313	1.18988037109375	3.58062744140625E-06	4.26051838076091E-06	332310.5625	6.05428322160151E-05
1	201	87.1911887798634	1.17965698242188	1.1798095703125	3.563232421875E-06	4.20393553213216E-06	331106.53125	6.09025519224815E-05
1	202	87.2918967796091	1.16958618164063	1.16973876953125	3.5443115234375E-06	4.14591841035872E-06	330032.71875	6.12604490015656E-05
1	203	87.3926047793549	1.15951538085938	1.15936279296875	3.52325439453125E-06	4.08472988056019E-06	329060.21875	6.16163233644329E-05
1	204	87.4933127791006	1.14944458007813	1.14959716796875	3.50128173828125E-06	4.02506339014508E-06	328336.09375	6.19700367678888E-05
1	205	87.5940207788464	1.13937377929688	1.1395263671875	3.475341796875E-06	3.96024324800237E-06	327889.03125	6.23213418293744E-05
1	206	87.6947287785921	1.12930297851563	1.12945556640625	3.4442138671875E-06	3.89008619094966E-06	327928.4375	6.26697656116448E-05
1	207	87.7954367783378	1.11923217773438	1.11907958984375	3.40484619140625E-06	3.81029394702637E-06	328672.59375	6.30146460025571E-05
1	208	87.8961447780836	1.10916137695313	1.10870361328125	3.35357666015625E-06	3.71812257071724E-06	330603.34375	6.33549570920877E-05
1	209	87.9968527778293	1.09909057617188	1.09893798828125	3.284912109375E-06	3.60991475645278E-06	334541.0625	6.36892364127561E-05
1	210	88.097560777575	1.08901977539063	1.0888671875	3.1927490234375E-06	3.47647937815054E-06	341043.78125	6.40154103166424E-05
1	211	88.1982687773208	1.07894897460938	1.0791015625	3.06915283203125E-06	3.31192768499022E-06	351595.90625	6.43307212158106E-05
1	212	88.2989767770665	1.06887817382813	1.0693359375	2.90283203125E-06	3.10410246129322E-06	368376.78125	6.46314365440048E-05
1	213	88.3996847768123	1.05880737304688	1.0589599609375	2.686767578125E-06	2.84517909676651E-06	394139.0625	6.49128924123943E-05
1	214	88.500392776558	1.04873657226563	1.048583984375	2.41241455078125E-06	2.52961922342365E-06	434661.625	6.51696609565988E-05
1	215	88.6011007763037	1.03866577148438	1.0382080078125	2.07855224609375E-06	2.1579694475804E-06	499486.15625	6.53957977192476E-05
1	216	88.7018087760495	1.02859497070313	1.0284423828125	1.690673828125E-06	1.73876060216571E-06	608303.25	6.55855910736136E-05
1	217	88.8025167757952	1.01852416992188	1.01806640625	1.26373291015625E-06	1.28656404285721E-06	805602.5	6.57343553029932E-05
1	218	88.9032247755409	1.00845336914063	1.00830078125	8.221435546875E-07	8.28967984034534E-07	1226429.125	6.58393910271116E-05
1	219	89.0039327752867	0.998382568359375	0.99822998046875	3.97338867187499E-07	3.96635556398905E-07	2512289	6.59007928334177E-05
1	220	89.1046407750324	0.988311767578125	0.98846435546875	2.13623046875E-08	2.11158752705387E-08	46271432	6.59218785585836E-05
1	221	89.2053487747781	0.978240966796875	0.9783935546875	-2.76794433593749E-07	-2.70813870884012E-07	-3534730	6.59090146655217E-05
1	222	89.3060567745239	0.968170166015625	0.96832275390625	-4.78515625000001E-07	-4.63357565649858E-07	-2023596.875	6.58709832350723E-05
1	223	89.4067647742696	0.958099365234375	0.958251953125	-5.7830810546875E-07	-5.54164898858289E-07	-1656992	6.58177668810822E-05
1	224	89.5074727740154	0.948028564453125	0.9478759765625	-5.9112548828125E-07	-5.60313594633044E-07	-1603510.625	6.57588825561106E-05
1	225	89.6081807737611	0.937957763671875	0.9381103515625	-5.3924560546875E-07	-5.05871867062524E-07	-1739671.75	6.57019627396949E-05
1	226	89.7088887735068	0.927886962890625	0.927734375	-4.52880859375E-07	-4.20153128288803E-07	-2048517.625	6.56520060147159E-05
1	227	89.8095967732526	0.917816162109375	0.91796875	-3.54614257812499E-07	-3.25524808886257E-07	-2588640.25	6.56113479635678E-05
1	228	89.9103047729983	0.907745361328125	0.90789794921875	-2.66113281249999E-07	-2.4160368639059E-07	-3411697.5	6.55800904496573E-05
1	229	90.011012772744	0.897674560546875	0.8978271484375	-2.0599365234375E-07	-1.84946685521936E-07	-4358518.5	6.55563198961318E-05
1	230	90.1117207724898	0.887603759765625	0.88775634765625	-1.9073486328125E-07	-1.69326071386422E-07	-4654400.5	6.55363401165232E-05
1	231	90.2124287722355	0.877532958984375	0.87799072265625	-2.3040771484375E-07	-2.02295822759879E-07	-3810596.25	6.55151379760355E-05
1	232	90.3131367719812	0.867462158203125	0.86761474609375	-3.24401855468751E-07	-2.81455811546039E-07	-2674506.25	6.5487198298797E-05
1	233	90.413844771727	0.857391357421875	0.85723876953125	-4.69055175781249E-07	-4.02092268814158E-07	-1827586.25	6.54472460155375E-05
1	234	90.5145527714727	0.847320556640625	0.84716796875	-6.45751953125E-07	-5.47060324151971E-07	-1311909.375	6.53911120025441E-05
1	235	90.6152607712185	0.837249755859375	0.83740234375	-8.34045410156251E-07	-6.98431563250779E-07	-1004024.875	6.53165989206173E-05
1	236	90.7159687709642	0.827178955078125	0.82733154296875	-1.00830078125E-06	-8.341989996552E-07	-820520.625	6.52238231850788E-05
1	237	90.8166767707099	0.817108154296875	0.81695556640625	-1.1492919921875E-06	-9.3892049335409E-07	-710833.8125	6.51151858619414E-05
1	238	90.9173847704557	0.807037353515625	0.80718994140625	-1.23931884765625E-06	-1.00036572803219E-06	-651317.375	6.49949070066214E-05
1	239	91.0180927702014	0.796966552734375	0.79742431640625	-1.2774658203125E-06	-1.01868226920487E-06	-624223.625	6.48681743768975E-05
1	240	91.1188007699471	0.786895751953125	0.78704833984375	-1.2701416015625E-06	-9.9966280231456E-07	-619654.0625	6.47398919682018E-05
1	241	91.2195087696929	0.776824951171875	0.7769775390625	-1.23077392578125E-06	-9.56283656705637E-07	-631291.8125	6.46139596938156E-05
1	242	91.3202167694386	0.766754150390625	0.7672119140625	-1.175537109375E-06	-9.01886096471571E-07	-652647.9375	6.44927931716666E-05
1	243	91.4209247691844	0.756683349609375	0.7568359375	-1.116943359375E-06	-8.45342810862348E-07	-677595.6875	6.43773601041175E-05
1	244	91.5216327689301	0.746612548828125	0.74658203125	-1.0675048828125E-06	-7.96979918504803E-07	-699371.0625	6.42673621769063E-05
1	245	91.6223407686758	0.736541748046875	0.7364501953125	-1.03515625E-06	-7.62340960136498E-07	-711438.75	6.41614897176623E-05
1	246	91.7230487684216	0.726470947265625	0.726470947265625	-1.02630615234375E-06	-7.45581587580091E-07	-707850.1875	6.40576836303808E-05
1	247	91.8237567681673	0.716400146484375	0.71630859375	-1.04644775390625E-06	-7.49579555758828E-07	-684514.4375	6.39533100184053E-05
1	248	91.924464767913	0.706329345703125	0.706298828125	-1.0992431640625E-06	-7.7639413120778E-07	-642531.9375	6.38452693237923E-05
1	249	92.0251727676588	0.696258544921875	0.6961669921875	-1.1834716796875E-06	-8.23893913093343E-07	-588241.375	6.37303237454034E-05
1	250	92.1258807674045	0.686187744140625	0.68609619140625	-1.292724609375E-06	-8.86933435140236E-07	-530736.5625	6.36056356597692E-05
1	251	92.2265887671502	0.676116943359375	0.67608642578125	-1.4166259765625E-06	-9.57761585596018E-07	-477251.1875	6.34692114545032E-05
1	252	92.327296766896	0.666046142578125	0.666015625	-1.53839111328125E-06	-1.02459250683751E-06	-432930	6.33204181212932E-05
1	253	92.4280047666417	0.655975341796875	0.65594482421875	-1.6412353515625E-06	-1.0765597835416E-06	-399665.3125	6.31603106739931E-05
1	254	92.5287127663875	0.645904541015625	0.645843505859375	-1.70928955078125E-06	-1.10393352770188E-06	-377843.25	6.29915957688354E-05
1	255	92.6294207661332	0.635833740234375	0.635772705078125	-1.737060546875E-06	-1.10437565581378E-06	-366004.9375	6.28180569037795E-05
1	256	92.7301287658789	0.625762939453125	0.625701904296875	-1.72576904296875E-06	-1.07981702512916E-06	-362564.09375	6.26436885795556E-05
1	257	92.8308367656247	0.615692138671875	0.61566162109375	-1.68365478515625E-06	-1.03656157079968E-06	-365669.75	6.24720123596489E-05
1	258	92.9315447653704	0.605621337890625	0.6055908203125	-1.62109375E-06	-9.8171949503012E-07	-373569.28125	6.2305603933055E-05
1	259	93.0322527651161	0.595550537109375	0.5955810546875	-1.5472412109375E-06	-9.21507535167621E-07	-384930.96875	6.21460640104488E-05
1	260	93.1329607648619	0.585479736328125	0.585418701171875	-1.47003173828125E-06	-8.6058406623124E-07	-398235.40625	6.1994134739507E-05
1	261	93.2336687646076	0.575408935546875	0.575347900390625	-1.39251708984375E-06	-8.01181784026994E-07	-413171.15625	6.18499907432124E-05
1	262	93.3343767643534	0.565338134765625	0.5653076171875	-1.3189697265625E-06	-7.45623594866629E-07	-428597.875	6.17134573985822E-05
1	263	93.4350847640991	0.555267333984375	0.555206298828125	-1.25E-06	-6.94007837864774E-07	-444165.0625	6.15841054241173E-05
1	264	93.5357927638448	0.545196533203125	0.545135498046875	-1.185302734375E-06	-6.46150567717996E-07	-459912.46875	6.14614764344878E-05
1	265	93.6365007635906	0.535125732421875	0.535125732421875	-1.1260986328125E-06	-6.0260435930104E-07	-475203.28125	6.13450902164914E-05
1	266	93.7372087633363	0.525054931640625	0.5250244140625	-1.07269287109375E-06	-5.6318992847082E-07	-489445.25	6.12343719694763E-05
1	267	93.837916763082	0.514984130859375	0.514923095703125	-1.02569580078125E-06	-5.28154430412542E-07	-502023.25	6.11287032370456E-05
1	268	93.9386247628278	0.504913330078125	0.5048828125	-9.82666015625E-07	-4.96131121963117E-07	-513788.875	6.10275783401448E-05
1	269	94.0393327625735	0.494842529296875	0.494842529296875	-9.442138671875E-07	-4.67237185830527E-07	-524078.875	6.09305498073809E-05
1	270	94.1400407623192	0.484771728515625	0.484710693359375	-9.09423828125E-07	-4.40807440327262E-07	-532986.5625	6.08372138231061E-05
1	271	94.240748762065	0.474700927734375	0.474700927734375	-8.7860107421875E-07	-4.17072726577317E-07	-540291.8125	6.07471774856094E-05
1	272	94.3414567618107	0.464630126953125	0.464630126953125	-8.489990234375E-07	-3.94470504261335E-07	-547268.1875	6.06601861363743E-05
1	273	94.4421647615565	0.454559326171875	0.45452880859375	-8.23364257812501E-07	-3.74242773659716E-07	-552038.5625	6.05759778409265E-05
1	274	94.5428727613022	0.444488525390625	0.44451904296875	-7.9925537109375E-07	-3.55284214492713E-07	-556166.5	6.0494272474898E-05
1	275	94.6435807610479	0.434417724609375	0.4344482421875	-7.7850341796875E-07	-3.38219450668475E-07	-558055.6875	6.04148262937088E-05
1	276	94.7442887607937	0.424346923828125	0.42437744140625	-7.59277343750001E-07	-3.22220159887365E-07	-558922.8125	6.03373919147998E-05
1	277	94.8449967605394	0.414276123046875	0.414306640625	-7.43713378906249E-07	-3.08125379433477E-07	-557078.375	6.02617110416759E-05
1	278	94.9457047602851	0.404205322265625	0.40423583984375	-7.281494140625E-07	-2.94344090434606E-07	-555155.0625	6.0187594499439E-05
1	279	95.0464127600309	0.394134521484375	0.394134521484375	-7.1380615234375E-07	-2.81335644558567E-07	-552159.0625	6.01149877184071E-05
1	280	95.1471207597766	0.384063720703125	0.38409423828125	-7.0037841796875E-07	-2.69011309228517E-07	-548409.625	6.00437779212371E-05
1	281	95.2478287595223	0.373992919921875	0.3740234375	-6.878662109375E-07	-2.57278088611201E-07	-543744.5	5.99738741584588E-05
1	282	95.3485367592681	0.363922119140625	0.363922119140625	-6.75354003906251E-07	-2.45776249130358E-07	-538861.3125	5.99052291363478E-05
1	283	95.4492447590138	0.353851318359375	0.353851318359375	-6.6375732421875E-07	-2.34871393445246E-07	-533103.4375	5.98378028371371E-05
1	284	95.5499527587596	0.343780517578125	0.343780517578125	-6.536865234375E-07	-2.2472468685919E-07	-525910.375	5.97714642935898E-05
1	285	95.6506607585053	0.333709716796875	0.333770751953125	-6.43005371093749E-07	-2.14616378002574E-07	-519079.25	5.97061698499601E-05
1	286	95.751368758251	0.323638916015625	0.323638916015625	-6.33544921875E-07	-2.05039782485983E-07	-510838.15625	5.96418904024176E-05
1	287	95.8520767579968	0.313568115234375	0.313568115234375	-6.2408447265625E-07	-1.95692990700991E-07	-502445	5.95785641053226E-05
1	288	95.9527847577425	0.303497314453125	0.30340576171875	-6.1492919921875E-07	-1.86573061000672E-07	-493399.5	5.9516172768781E-05
1	289	96.0534927574882	0.293426513671875	0.29339599609375	-6.060791015625E-07	-1.77821178226623E-07	-484088.625	5.94546909269411E-05
1	290	96.154200757234	0.283355712890625	0.283294677734375	-5.9661865234375E-07	-1.69018889550898E-07	-474833.78125	5.93941294937395E-05
1	291	96.2549087569797	0.273284912109375	0.27325439453125	-5.89904785156251E-07	-1.61194066095049E-07	-463217.84375	5.93343829677906E-05
1	292	96.3556167567255	0.263214111328125	0.26324462890625	-5.8319091796875E-07	-1.53521881429697E-07	-451386.71875	5.92753131058998E-05
1	293	96.4563247564712	0.253143310546875	0.25311279296875	-5.78918457031249E-07	-1.46531661471272E-07	-437216.65625	5.92167962167878E-05
1	294	96.5570327562169	0.243072509765625	0.243011474609375	-5.74951171875E-07	-1.39719730896104E-07	-422664.53125	5.91586940572597E-05
1	295	96.6577407559627	0.233001708984375	0.233001708984375	-5.72509765625E-07	-1.33395744228437E-07	-406982.96875	5.91009156778455E-05
1	296	96.7584487557084	0.222930908203125	0.222991943359375	-5.7098388671875E-07	-1.27324810250684E-07	-390539.8125	5.90433373872656E-05
1	297	96.8591567554541	0.212860107421875	0.212921142578125	-5.7037353515625E-07	-1.21444585943209E-07	-373301.25	5.89858645980712E-05
1	298	96.9598647551999	0.202789306640625	0.20281982421875	-5.706787109375E-07	-1.15744953177455E-07	-355401.0625	5.8928406360792E-05
1	299	97.0605727549456	0.192718505859375	0.19268798828125	-5.7342529296875E-07	-1.10492159421938E-07	-336029.8125	5.88707989663817E-05
1	300	97.1612807546913	0.182647705078125	0.1826171875	-5.780029296875E-07	-1.05553269236225E-07	-315945.09375	5.88128204981331E-05
1	301	97.2619887544371	0.172576904296875	0.172576904296875	-5.84716796875E-07	-1.00908607691963E-07	-295146.15625	5.87542708672117E-05
1	302	97.3626967541828	0.162506103515625	0.1624755859375	-5.9478759765625E-07	-9.66384661182929E-08	-273165.71875	5.86948772252072E-05
1	303	97.4634047539286	0.152435302734375	0.1524658203125	-6.072998046875E-07	-9.25924581451909E-08	-251055.28125	5.86343485338148E-05
1	304	97.5641127536743	0.142364501953125	0.142486572265625	-6.2225341796875E-07	-8.86627589125055E-08	-228984.796875	5.85724374104757E-05
1	305	97.66482075342	0.132293701171875	0.132354736328125	-6.41479492187499E-07	-8.490284386653E-08	-206327.3125	5.8508801885182E-05
1	306	97.7655287531658	0.122222900390625	0.122283935546875	-6.6497802734375E-07	-8.13161307178234E-08	-183891.703125	5.84430163144134E-05
1	307	97.8662367529115	0.112152099609375	0.112274169921875	-6.93359374999999E-07	-7.78463444817135E-08	-161927.8125	5.83746186748613E-05
1	308	97.9669447526572	0.102081298828125	0.1021728515625	-7.28454589843749E-07	-7.44282786513395E-08	-140259.75	5.83030232519377E-05
1	309	98.067652752403	0.092010498046875	0.09210205078125	-7.72705078124999E-07	-7.11677188292015E-08	-119194.3203125	5.82274369662628E-05
1	310	98.1683607521487	0.081939697265625	0.082000732421875	-8.30078125E-07	-6.80670098063274E-08	-98786.7734375	5.81467284064274E-05
1	311	98.2690687518945	0.071868896484375	0.071929931640625	-9.051513671875E-07	-6.51074714141942E-08	-79467.296875	5.80593514314387E-05
1	312	98.3697767516402	0.061798095703125	0.0618896484375	-1.00189208984375E-06	-6.20067481804654E-08	-61772.76953125	5.79633269808255E-05
1	313	98.4704847513859	0.051727294921875	0.051788330078125	-1.12579345703125E-06	-5.83029624579012E-08	-46001.625	5.78561885049567E-05
1	314	98.5711927511317	0.041656494140625	0.0417633056640625	-1.27716064453125E-06	-5.33384501011369E-08	-32700.119140625	5.77351893298328E-05
1	315	98.6719007508774	0.031585693359375	0.031689453125	-1.4544677734375E-06	-4.60912907840338E-08	-21787.662109375	5.75976409891155E-05
1	316	98.7726087506231	0.021514892578125	0.021636962890625	-1.6473388671875E-06	-3.56434100012848E-08	-13134.494140625	5.74414516449906E-05
1	317	98.8733167503689	0.011444091796875	0.011517333984375	-1.8408203125E-06	-2.12013411271528E-08	-6256.63134765625	5.72658100281842E-05
1	318	98.9740247501146	0.001373291015625	0.0014495849609375	-2.01507568359375E-06	-2.92102320109677E-09	-719.370056152344	5.70716510992497E-05
1	319	99.0747327498603	-0.008697509765625	-0.00856933593750001	-2.1533203125E-06	1.84525248414502E-08	3979.59155273438	5.68617542739958E-05
1	320	99.1754407496061	-0.018768310546875	-0.0186065673828125	-2.24334716796875E-06	4.1740989331629E-08	8294.1103515625	5.66403650736902E-05
1	321	99.2761487493518	-0.028839111328125	-0.028704833984375	-2.28302001953125E-06	6.55337046850946E-08	12573.185546875	5.64124457014259E-05
1	322	99.3768567490976	-0.038909912109375	-0.038751220703125	-2.27996826171875E-06	8.83515554050973E-08	16996.38671875	5.61826782359276E-05
1	323	99.4775647488433	-0.048980712890625	-0.0488616943359375	-2.24761962890625E-06	1.09822494209766E-07	21739.30859375	5.59546970180236E-05
1	324	99.578272748589	-0.059051513671875	-0.05902099609375	-2.197265625E-06	1.29684806893238E-07	26861.111328125	5.57308812858537E-05
1	325	99.6789807483348	-0.069122314453125	-0.06903076171875	-2.13836669921875E-06	1.47613079093389E-07	32282.00390625	5.55125625396613E-05
1	326	99.7796887480805	-0.079193115234375	-0.0791015625	-2.07916259765625E-06	1.64465006946557E-07	38044.9140625	5.53001955267973E-05
1	327	99.8803967478262	-0.089263916015625	-0.08917236328125	-2.0220947265625E-06	1.80314955855465E-07	44099.0078125	5.50936783838551E-05
1	328	99.981104747572	-0.099334716796875	-0.099273681640625	-1.97174072265625E-06	1.95741947095485E-07	50348.24609375	5.48925745533779E-05
1	329	100.081812747318	-0.109405517578125	-0.10931396484375	-1.92657470703125E-06	2.10601513117581E-07	56740.0625	5.46962764929049E-05
1	330	100.182520747063	-0.119476318359375	-0.119384765625	-1.8878173828125E-06	2.25376638240959E-07	63239.57421875	5.45042094017845E-05
1	331	100.283228746809	-0.129547119140625	-0.12945556640625	-1.8536376953125E-06	2.39963696913037E-07	69838.65625	5.43158093933016E-05
1	332	100.383936746555	-0.139617919921875	-0.13946533203125	-1.8255615234375E-06	2.54602554150551E-07	76395.8515625	5.41305489605293E-05
1	333	100.484644746301	-0.149688720703125	-0.14959716796875	-1.802978515625E-06	2.69720459300515E-07	82972.2421875	5.39478387509007E-05
1	334	100.585352746046	-0.159759521484375	-0.159637451171875	-1.785888671875E-06	2.85094699847832E-07	89388.25	5.37671221536584E-05
1	335	100.686060745792	-0.169830322265625	-0.169677734375	-1.7724609375E-06	3.00747160508763E-07	95730.03125	5.35879444214515E-05
1	336	100.786768745538	-0.179901123046875	-0.17974853515625	-1.76361083984375E-06	3.17006453087743E-07	101920.75	5.3409890824696E-05
1	337	100.887476745284	-0.189971923828125	-0.1898193359375	-1.75933837890625E-06	3.339564500493E-07	107892.453125	5.32324957021046E-05
1	338	100.988184745029	-0.200042724609375	-0.19976806640625	-1.75872802734375E-06	3.51337689608044E-07	113586.6796875	5.30553479620721E-05
1	339	101.088892744775	-0.189971923828125	-0.1898193359375	-1.54937744140625E-06	2.94101795361712E-07	122513.296875	5.2888772188453E-05
2	340	101.189600744521	-0.179901123046875	-0.1796875	-1.4007568359375E-06	2.51698480724372E-07	128278.875	5.27402189618442E-05
2	341	101.290308744267	-0.169830322265625	-0.169677734375	-1.27960205078125E-06	2.1711996112117E-07	132601.96875	5.26052535860799E-05
2	342	101.391016744012	-0.159759521484375	-0.159637451171875	-1.17828369140625E-06	1.88098212561272E-07	135483.03125	5.24814895470627E-05
2	343	101.491724743758	-0.149688720703125	-0.14959716796875	-1.0888671875E-06	1.62891453214797E-07	137387.890625	5.23673297720961E-05
2	344	101.592432743504	-0.139617919921875	-0.1395263671875	-1.0101318359375E-06	1.40940016990498E-07	138126.890625	5.22616355738137E-05
2	345	101.69314074325	-0.129547119140625	-0.129425048828125	-9.37805175781251E-07	1.21375478556729E-07	138008.46875	5.21635483892169E-05
2	346	101.793848742995	-0.119476318359375	-0.119354248046875	-8.70666503906251E-07	1.03917741967052E-07	137083.765625	5.20724861416966E-05
2	347	101.894556742741	-0.109405517578125	-0.10931396484375	-8.06579589843751E-07	8.81704096400426E-08	135527.8125	5.19880304636899E-05
2	348	101.995264742487	-0.099334716796875	-0.0992431640625	-7.43713378906249E-07	7.38084651175086E-08	133442.765625	5.19099667144474E-05
2	349	102.095972742232	-0.089263916015625	-0.08917236328125	-6.7962646484375E-07	6.06038952355448E-08	131207.90625	5.18382948939689E-05
2	350	102.196680741978	-0.079193115234375	-0.079132080078125	-6.121826171875E-07	4.84432831626691E-08	129262.21875	5.17732478328981E-05
2	351	102.297388741724	-0.069122314453125	-0.069061279296875	-5.37719726562499E-07	3.71356101425135E-08	128433.6015625	5.17153457622044E-05
2	352	102.39809674147	-0.059051513671875	-0.0589599609375	-4.52270507812499E-07	2.66658499725736E-08	130364.3828125	5.16654945386108E-05
2	353	102.498804741215	-0.048980712890625	-0.048858642578125	-3.4820556640625E-07	1.70128515719625E-08	140315.515625	5.1625189371407E-05
2	354	102.599512740961	-0.038909912109375	-0.0387725830078125	-2.22167968750001E-07	8.61402593699268E-09	174519.234375	5.1596467528725E-05
2	355	102.700220740707	-0.028839111328125	-0.0286895751953125	-6.83593750000003E-08	1.96120142348377E-09	419687.46875	5.15818392159417E-05
2	356	102.800928740453	-0.018768310546875	-0.0186492919921875	1.1444091796875E-07	-2.13424189432487E-09	-162960	5.15841602464207E-05
2	357	102.901636740198	-0.008697509765625	-0.0086181640625	3.21350097656251E-07	-2.76944778221377E-09	-26818.61328125	5.16061008966062E-05
2	358	103.002344739944	0.001373291015625	0.001483154296875	5.43212890625E-07	8.05668476377974E-10	2730.33715820313	5.16496365889907E-05
2	359	103.10305273969	0.011444091796875	0.0115692138671875	7.62329101562501E-07	8.81954864695444E-09	15176.1416015625	5.17153748660348E-05
2	360	103.203760739436	0.021514892578125	0.021624755859375	9.6038818359375E-07	2.07681605246535E-08	22516.681640625	5.18021224706899E-05
2	361	103.304468739181	0.031585693359375	0.0316375732421875	1.11907958984375E-06	3.54049589645911E-08	28271.064453125	5.19068307767157E-05
2	362	103.405176738927	0.041656494140625	0.0417572021484375	1.22894287109375E-06	5.13172189187117E-08	33978.1484375	5.20250650879461E-05
2	363	103.505884738673	0.051727294921875	0.05181884765625	1.287841796875E-06	6.6734479275965E-08	40236.96875	5.21517940796912E-05
2	364	103.606592738418	0.061798095703125	0.06182861328125	1.30340576171875E-06	8.05877675702504E-08	47436.19921875	5.22822738275863E-05
2	365	103.707300738164	0.071868896484375	0.071929931640625	1.28662109375E-06	9.25465712953155E-08	55906.0703125	5.24126917298418E-05
2	366	103.80800873791	0.081939697265625	0.082000732421875	1.25E-06	1.02500912646519E-07	65600.5859375	5.25404211657587E-05
2	367	103.908716737656	0.092010498046875	0.09197998046875	1.20330810546875E-06	1.10680254294948E-07	76439.2578125	5.26639560121112E-05
2	368	104.009424737401	0.102081298828125	0.102203369140625	1.15264892578125E-06	1.17804603405602E-07	88668.2578125	5.27825868630316E-05
2	369	104.110132737147	0.112152099609375	0.1121826171875	1.1029052734375E-06	1.23726792367052E-07	101715.5546875	5.28961609234102E-05
2	370	104.210840736893	0.122222900390625	0.122314453125	1.0565185546875E-06	1.29227487377648E-07	115771.234375	5.30048964719754E-05
2	371	104.311548736639	0.132293701171875	0.132293701171875	1.015625E-06	1.34360789161292E-07	130258.4140625	5.31092373421416E-05
2	372	104.412256736384	0.142364501953125	0.142486572265625	9.796142578125E-07	1.39581871394512E-07	145451.71875	5.3209707402857E-05
2	373	104.51296473613	0.152435302734375	0.152496337890625	9.46655273437499E-07	1.4436145079344E-07	161089.625	5.33067031938117E-05
2	374	104.613672735876	0.162506103515625	0.1624755859375	9.1827392578125E-07	1.49197092014219E-07	176935.875	5.34006103407592E-05
2	375	104.714380735622	0.172576904296875	0.172637939453125	8.93249511718749E-07	1.54208748881501E-07	193269.5625	5.34918253833894E-05
2	376	104.815088735367	0.182647705078125	0.1826171875	8.70361328124999E-07	1.58942938810469E-07	209817.671875	5.35806320840493E-05
2	377	104.915796735113	0.192718505859375	0.19268798828125	8.50830078125001E-07	1.63944733344579E-07	226470.59375	5.36672996531706E-05
2	378	105.016504734859	0.202789306640625	0.202850341796875	8.34045410156251E-07	1.69186392895426E-07	243212.59375	5.37521409569308E-05
2	379	105.117212734605	0.212860107421875	0.212890625	8.18481445312499E-07	1.74247020368057E-07	260104.421875	5.38353524461854E-05
2	380	105.21792073435	0.222930908203125	0.22296142578125	8.06274414062499E-07	1.79768093744315E-07	276532.9375	5.39171633135993E-05
2	381	105.318628734096	0.233001708984375	0.233062744140625	7.952880859375E-07	1.85352021730978E-07	293054.5	5.39978100277949E-05
2	382	105.419336733842	0.243072509765625	0.243072509765625	7.8582763671875E-07	1.9101310044789E-07	309320.375	5.40774271939881E-05
2	383	105.520044733587	0.253143310546875	0.25311279296875	7.769775390625E-07	1.96662952589577E-07	325765.90625	5.41561203135643E-05
2	384	105.620752733333	0.263214111328125	0.26318359375	7.6934814453125E-07	2.02479796485022E-07	342086.5	5.42339839739725E-05
2	385	105.721460733079	0.273284912109375	0.273284912109375	7.62939453125E-07	2.08499827181186E-07	358200.03125	5.43111382285133E-05
2	386	105.822168732825	0.283355712890625	0.283355712890625	7.58056640625E-07	2.14799669606691E-07	373792.28125	5.4387728596339E-05
2	387	105.92287673257	0.293426513671875	0.29345703125	7.53173828125001E-07	2.21024151869642E-07	389627.21875	5.44638241990469E-05
2	388	106.023584732316	0.303497314453125	0.303466796875	7.4981689453125E-07	2.27544532549473E-07	404721.21875	5.45395050721709E-05
2	389	106.124292732062	0.313568115234375	0.31365966796875	7.4798583984375E-07	2.34612983263105E-07	419339.0625	5.46149276487995E-05
2	390	106.225000731808	0.323638916015625	0.3236083984375	7.47070312500001E-07	2.41758215224763E-07	433169.9375	5.46902083442546E-05
2	391	106.325708731553	0.333709716796875	0.333770751953125	7.45544433593751E-07	2.4884090521482E-07	447687.28125	5.47653689864092E-05
2	392	106.426416731299	0.343780517578125	0.343780517578125	7.44018554687501E-07	2.55779099234132E-07	462059.0625	5.4840373195475E-05
2	393	106.527124731045	0.353851318359375	0.35382080078125	7.4310302734375E-07	2.62925283323057E-07	476139.65625	5.49152537132613E-05
2	394	106.627832730791	0.363922119140625	0.36395263671875	7.4310302734375E-07	2.70454279416299E-07	489774.15625	5.4990090575302E-05
2	395	106.728540730536	0.373992919921875	0.374053955078125	7.4310302734375E-07	2.77960623407125E-07	503367.59375	5.50649274373427E-05
2	396	106.829248730282	0.384063720703125	0.384033203125	7.4432373046875E-07	2.85845004555085E-07	515949.1875	5.51398261450231E-05
2	397	106.929956730028	0.394134521484375	0.394195556640625	7.45849609375E-07	2.9401059009615E-07	528518.8125	5.52148630958982E-05
2	398	107.030664729774	0.404205322265625	0.4041748046875	7.4798583984375E-07	3.02317033629151E-07	540350.875	5.52900819457136E-05
2	399	107.131372729519	0.414276123046875	0.414276123046875	7.4951171875E-07	3.10504788103572E-07	552728.0625	5.53654863324482E-05
2	400	107.232080729265	0.424346923828125	0.42431640625	7.5042724609375E-07	3.18418585720792E-07	565433.125	5.54410144104622E-05
2	401	107.332788729011	0.434417724609375	0.434417724609375	7.51342773437499E-07	3.26396616401325E-07	578188.4375	5.55166370759252E-05
2	402	107.433496728756	0.444488525390625	0.444488525390625	7.51342773437499E-07	3.33963242837854E-07	591592.1875	5.55923033971339E-05
2	403	107.534204728502	0.454559326171875	0.45458984375	7.53173828125001E-07	3.42385163776271E-07	603565.625	5.56680606678128E-05
2	404	107.634912728248	0.464630126953125	0.46466064453125	7.550048828125E-07	3.50821039774019E-07	615440.625	5.57440034754109E-05
2	405	107.735620727994	0.474700927734375	0.4747314453125	7.58056640625E-07	3.59873325805893E-07	626248	5.58201936655678E-05
2	406	107.836328727739	0.484771728515625	0.4847412109375	7.6141357421875E-07	3.69088525076222E-07	636633.25	5.58967039978597E-05
2	407	107.937036727485	0.494842529296875	0.494873046875	7.65380859375001E-07	3.7876634451095E-07	646571	5.597358540399E-05
2	408	108.037744727231	0.504913330078125	0.504913330078125	7.69653320312499E-07	3.8860821405251E-07	656027	5.60508779017255E-05
2	409	108.138452726977	0.514984130859375	0.514984130859375	7.7484130859375E-07	3.99030966491409E-07	664631.75	5.61286506126635E-05
2	410	108.239160726722	0.525054931640625	0.524993896484375	7.81860351562499E-07	4.10471898248943E-07	671467.625	5.62070381420199E-05
2	411	108.339868726468	0.535125732421875	0.535125732421875	7.9010009765625E-07	4.22802884258999E-07	677288.5	5.62861896469258E-05
2	412	108.440576726214	0.545196533203125	0.545196533203125	8.0108642578125E-07	4.36749530763336E-07	680571.4375	5.63663124921732E-05
2	413	108.54128472596	0.555267333984375	0.555267333984375	8.160400390625E-07	4.5312037855183E-07	680441.3125	5.64477413718123E-05
2	414	108.641992725705	0.565338134765625	0.565338134765625	8.3587646484375E-07	4.72552841301876E-07	676341.75	5.65309237572365E-05
2	415	108.742700725451	0.575408935546875	0.57537841796875	8.62731933593749E-07	4.96397319693642E-07	666926.125	5.661645627697E-05
2	416	108.843408725197	0.585479736328125	0.585479736328125	8.978271484375E-07	5.25659572758741E-07	652107.4375	5.67051065445412E-05
2	417	108.944116724943	0.595550537109375	0.595458984375	9.4573974609375E-07	5.63149228582915E-07	629622.5	5.67979368497618E-05
2	418	109.044824724688	0.605621337890625	0.60552978515625	1.011962890625E-06	6.12773646935239E-07	598371.5625	5.68965151614975E-05
2	419	109.145532724434	0.615692138671875	0.615570068359375	1.10076904296875E-06	6.77600496601372E-07	559218.1875	5.70029005757533E-05
2	420	109.24624072418	0.625762939453125	0.625732421875	1.217041015625E-06	7.6154202588441E-07	514142.4375	5.71196105738636E-05
2	421	109.346948723925	0.635833740234375	0.635772705078125	1.36199951171875E-06	8.65922061166202E-07	466793.65625	5.72494755033404E-05
2	422	109.447656723671	0.645904541015625	0.6458740234375	1.5338134765625E-06	9.90650278254179E-07	421090.34375	5.73952929698862E-05
2	423	109.548364723417	0.655975341796875	0.655975341796875	1.724853515625E-06	1.13146143121412E-06	380307.84375	5.75593767280225E-05
2	424	109.649072723163	0.666046142578125	0.665985107421875	1.922607421875E-06	1.28042790947802E-06	346396.8125	5.77430437260773E-05
2	425	109.749780722908	0.676116943359375	0.676055908203125	2.11029052734375E-06	1.42667443014943E-06	320361.53125	5.79461157030892E-05
2	426	109.850488722654	0.686187744140625	0.68609619140625	2.26959228515625E-06	1.55715861183126E-06	302299.3125	5.81666608923115E-05
2	427	109.9511967224	0.696258544921875	0.6961669921875	2.39044189453125E-06	1.6641466800138E-06	291229.4375	5.84013105253689E-05
2	428	110.051904722146	0.706329345703125	0.70623779296875	2.46826171875E-06	1.74317972323479E-06	286127.59375	5.86459646001458E-05
2	429	110.152612721891	0.716400146484375	0.716339111328125	2.5079345703125E-06	1.79653159193549E-06	285629.09375	5.88965376664419E-05
2	430	110.253320721637	0.726470947265625	0.7264404296875	2.520751953125E-06	1.83117606411543E-06	288184.03125	5.91497519053519E-05
2	431	110.354028721383	0.736541748046875	0.736419677734375	2.51922607421875E-06	1.85520752893353E-06	292319.8125	5.94035336689558E-05
2	432	110.454736721129	0.746612548828125	0.7464599609375	2.51495361328125E-06	1.87731222922594E-06	296808.625	5.96570243942551E-05
2	433	110.555444720874	0.756683349609375	0.7568359375	2.51953125E-06	1.90687171652826E-06	300387.625	5.99105333094485E-05
2	434	110.65615272062	0.766754150390625	0.7672119140625	2.5408935546875E-06	1.94940389519616E-06	301945.71875	6.01653446210548E-05
2	435	110.756860720366	0.776824951171875	0.77667236328125	2.58819580078125E-06	2.01017996914743E-06	300082.5625	6.04236156505067E-05
2	436	110.857568720112	0.786895751953125	0.7867431640625	2.6690673828125E-06	2.09987047128379E-06	294763.34375	6.06883404543623E-05
2	437	110.958276719857	0.796966552734375	0.79742431640625	2.78961181640625E-06	2.22450421460962E-06	285854.9375	6.09632043051533E-05
2	438	111.058984719603	0.807037353515625	0.80657958984375	2.9522705078125E-06	2.38124107454496E-06	273206.53125	6.12523290328681E-05
2	439	111.159692719349	0.817108154296875	0.81695556640625	3.15185546875E-06	2.57492592936615E-06	259198.296875	6.15597018622793E-05
2	440	111.260400719094	0.827178955078125	0.82763671875	3.37738037109375E-06	2.7952439722867E-06	245052.859375	6.18884732830338E-05
2	441	111.36110871884	0.837249755859375	0.83770751953125	3.60809326171875E-06	3.02252692563343E-06	232174.578125	6.22402221779339E-05
2	442	111.461816718586	0.847320556640625	0.84747314453125	3.824462890625E-06	3.24112966154644E-06	221592.71875	6.26144756097347E-05
2	443	111.562524718332	0.857391357421875	0.8575439453125	4.00299072265625E-06	3.43274018632655E-06	214225.828125	6.30086215096526E-05
2	444	111.663232718077	0.867462158203125	0.867919921875	4.13055419921875E-06	3.58499028152437E-06	210121.90625	6.34181778877974E-05
2	445	111.763940717823	0.877532958984375	0.877685546875	4.20257568359375E-06	3.68853966392635E-06	208844.6875	6.38377823634073E-05
2	446	111.864648717569	0.887603759765625	0.88775634765625	4.22637939453125E-06	3.75199488189537E-06	210051.28125	6.42622180748731E-05
2	447	111.965356717315	0.897674560546875	0.8978271484375	4.21875E-06	3.78770823772356E-06	212818.296875	6.4687461417634E-05
2	448	112.06606471706	0.907745361328125	0.9075927734375	4.19830322265625E-06	3.81034942620317E-06	216180.859375	6.51112932246178E-05
2	449	112.166772716806	0.917816162109375	0.91827392578125	4.1845703125E-06	3.84258146368666E-06	219442.828125	6.55334079056047E-05
2	450	112.267480716552	0.927886962890625	0.92742919921875	4.195556640625E-06	3.89108163290075E-06	221050.34375	6.59553770674393E-05
2	451	112.368188716298	0.937957763671875	0.9381103515625	4.24774169921875E-06	3.98485053665354E-06	220849.1875	6.63805330987088E-05
2	452	112.468896716043	0.948028564453125	0.9478759765625	4.35455322265625E-06	4.12757663070806E-06	217674.671875	6.6813692683354E-05
2	453	112.569604715789	0.958099365234375	0.958251953125	4.52728271484375E-06	4.33827744927839E-06	211661.609375	6.72609312459826E-05
2	454	112.670312715535	0.968170166015625	0.96832275390625	4.7686767578125E-06	4.61761828773888E-06	203059	6.77290154271759E-05
2	455	112.771020715281	0.978240966796875	0.97869873046875	5.078125E-06	4.96995471621631E-06	192728.359375	6.82248428347521E-05
2	456	112.871728715026	0.988311767578125	0.98846435546875	5.4290771484375E-06	5.36644938620157E-06	182068.578125	6.8753921368625E-05
2	457	112.972436714772	0.998382568359375	0.99822998046875	5.8074951171875E-06	5.79721518079168E-06	171886.5	6.93197289365344E-05
2	458	113.073144714518	1.00845336914063	1.00860595703125	6.182861328125E-06	6.23607093075407E-06	163129.3125	6.99234951753169E-05
2	459	113.173852714263	1.01852416992188	1.01837158203125	6.5185546875E-06	6.63831087877043E-06	156226.59375	7.05630591255613E-05
2	460	113.274560714009	1.02859497070313	1.02874755859375	6.781005859375E-06	6.97594305165694E-06	151710.171875	7.12327455403283E-05
2	461	113.375268713755	1.03866577148438	1.03851318359375	6.9488525390625E-06	7.21647484169807E-06	149451.03125	7.19240997568704E-05
2	462	113.475976713501	1.04873657226563	1.04888916015625	7.012939453125E-06	7.35579624233651E-06	149564.84375	7.26271318853833E-05
2	463	113.576684713246	1.05880737304688	1.05865478515625	6.982421875E-06	7.39197412258363E-06	151617.140625	7.33318520360626E-05
2	464	113.677392712992	1.06887817382813	1.0687255859375	6.878662109375E-06	7.35140201868489E-06	155368.234375	7.40298128221184E-05
2	465	113.778100712738	1.07894897460938	1.07879638671875	6.72607421875E-06	7.25606423657155E-06	160390.203125	7.47148660593666E-05
2	466	113.878808712484	1.08901977539063	1.08917236328125	6.5521240234375E-06	7.13639246896491E-06	166231.953125	7.53834756324068E-05
2	467	113.979516712229	1.09909057617188	1.09893798828125	6.3720703125E-06	7.00250984664308E-06	172461.703125	7.60342591092922E-05
2	468	114.080224711975	1.10916137695313	1.1083984375	6.1981201171875E-06	6.86998646415304E-06	178828.171875	7.66672237659805E-05
2	469	114.180932711721	1.11923217773438	1.11907958984375	6.0394287109375E-06	6.75860110277426E-06	185295.609375	7.72834318922833E-05
2	470	114.281640711467	1.12930297851563	1.12884521484375	5.8929443359375E-06	6.65222160023404E-06	191558.78125	7.78842731961049E-05
2	471	114.382348711212	1.13937377929688	1.13983154296875	5.76171875E-06	6.56738848192617E-06	197828.390625	7.84711301093921E-05
2	472	114.483056710958	1.14944458007813	1.14990234375	5.6427001953125E-06	6.4885543906712E-06	203785.828125	7.90453923400491E-05
2	473	114.583764710704	1.15951538085938	1.1590576171875	5.535888671875E-06	6.41641418042127E-06	209371.546875	7.96082749729976E-05
2	474	114.68447271045	1.16958618164063	1.16912841796875	5.438232421875E-06	6.35799187875818E-06	214983.171875	8.01608694018796E-05
2	475	114.785180710195	1.17965698242188	1.1798095703125	5.352783203125E-06	6.31526427241624E-06	220410.5	8.07042379165068E-05
2	476	114.885888709941	1.18972778320313	1.1895751953125	5.2734375E-06	6.27315012025065E-06	225578.71875	8.12393118394539E-05
2	477	114.986596709687	1.19979858398438	1.199951171875	5.2001953125E-06	6.23998039372964E-06	230751.1875	8.17667023511603E-05
2	478	115.087304709432	1.20986938476563	1.20941162109375	5.1361083984375E-06	6.2116691879055E-06	235472.359375	8.22871734271757E-05
2	479	115.188012709178	1.21994018554688	1.21978759765625	5.0750732421875E-06	6.19051115791081E-06	240348.765625	8.28013507998548E-05
2	480	115.288720708924	1.23001098632813	1.22955322265625	5.023193359375E-06	6.17628347754362E-06	244775.21875	8.33098383736797E-05
2	481	115.38942870867	1.24008178710938	1.24053955078125	4.974365234375E-06	6.17089699517237E-06	249386.5	8.38132546050474E-05
2	482	115.490136708415	1.25015258789063	1.25030517578125	4.930419921875E-06	6.16452962276526E-06	253590	8.43119996716268E-05
2	483	115.590844708161	1.26022338867188	1.259765625	4.8907470703125E-06	6.16119450569386E-06	257581.4375	8.48065319587477E-05
2	484	115.691552707907	1.27029418945313	1.27044677734375	4.854736328125E-06	6.16768420513836E-06	261692.234375	8.52972589200363E-05
2	485	115.792260707653	1.28036499023438	1.2799072265625	4.8223876953125E-06	6.17220848653233E-06	265409.46875	8.57845370774157E-05
2	486	115.892968707398	1.29043579101563	1.290283203125	4.79339599609375E-06	6.1848381847085E-06	269179.34375	8.62687302287668E-05
2	487	115.993676707144	1.30050659179688	1.30035400390625	4.76776123046875E-06	6.19977754467982E-06	272738.90625	8.67501730681397E-05
2	488	116.09438470689	1.31057739257813	1.31072998046875	4.74578857421875E-06	6.22044717601966E-06	276188.03125	8.72292221174575E-05
2	489	116.195092706636	1.32064819335938	1.32110595703125	4.7271728515625E-06	6.24509630142711E-06	279470.625	8.77062193467282E-05
2	490	116.295800706381	1.33071899414063	1.33056640625	4.70977783203125E-06	6.26667224423727E-06	282511.5	8.81814121385105E-05
2	491	116.396508706127	1.34078979492188	1.3409423828125	4.69390869140625E-06	6.29426085652085E-06	285677.15625	8.86549241840839E-05
2	492	116.497216705873	1.35086059570313	1.35040283203125	4.67987060546875E-06	6.31971033726586E-06	288555.59375	8.91269301064312E-05
2	493	116.597924705619	1.36093139648438	1.36077880859375	4.6661376953125E-06	6.34958132650354E-06	291628.53125	8.95975390449166E-05
2	494	116.698632705364	1.37100219726563	1.37115478515625	4.65423583984375E-06	6.38167784927646E-06	294603.625	9.00668601389043E-05
2	495	116.79934070511	1.38107299804688	1.380615234375	4.64324951171875E-06	6.41054066363722E-06	297338.1875	9.05350243556313E-05
2	496	116.900048704856	1.39114379882813	1.39129638671875	4.635009765625E-06	6.44867213850375E-06	300171.1875	9.10022208699957E-05
2	497	117.000756704601	1.40121459960938	1.40106201171875	4.62646484375E-06	6.48196419206215E-06	302836.40625	9.14685733732767E-05
2	498	117.101464704347	1.41128540039063	1.4117431640625	4.61883544921875E-06	6.52060907668783E-06	305649.1875	9.1934110969305E-05
2	499	117.202172704093	1.42135620117188	1.4215087890625	4.61090087890625E-06	6.55443591313087E-06	308293.09375	9.2398862761911E-05
2	500	117.302880703839	1.43142700195313	1.4312744140625	4.60296630859375E-06	6.58810813547461E-06	310946.09375	9.2862821475137E-05
2	501	117.403588703584	1.44149780273438	1.44134521484375	4.5941162109375E-06	6.62170714349486E-06	313737.21875	9.33259289013222E-05
2	502	117.50429670333	1.45156860351563	1.451416015625	4.58587646484375E-06	6.65601464788779E-06	316496.96875	9.37881777645089E-05
2	503	117.605004703076	1.46163940429688	1.46148681640625	4.57855224609375E-06	6.69149403620395E-06	319202.8125	9.42496481002308E-05
2	504	117.705712702822	1.47171020507813	1.47186279296875	4.57275390625E-06	6.73046633892227E-06	321876.6875	9.47104490478523E-05
2	505	117.806420702567	1.48178100585938	1.4813232421875	4.569091796875E-06	6.76830177326337E-06	324205.1875	9.51707770582289E-05
2	506	117.907128702313	1.49185180664063	1.49200439453125	4.56756591796875E-06	6.81482788422727E-06	326652	9.56308431341313E-05
2	507	118.007836702059	1.50192260742188	1.5020751953125	4.56817626953125E-06	6.86174416841823E-06	328812.875	9.6090865554288E-05
2	508	118.108544701805	1.49185180664063	1.49169921875	4.4354248046875E-06	6.61631929688156E-06	336314.84375	9.65442377491854E-05
2	509	118.20925270155	1.48178100585938	1.48193359375	4.3365478515625E-06	6.42647546555963E-06	341731.1875	9.69859393080696E-05
2	510	118.309960701296	1.47171020507813	1.470947265625	4.25506591796875E-06	6.25897746431292E-06	345693.1875	9.74185604718514E-05
2	511	118.410668701042	1.46163940429688	1.46148681640625	4.185791015625E-06	6.11747873335844E-06	349154.25	9.78435928118415E-05
2	512	118.511376700788	1.45156860351563	1.45172119140625	4.1253662109375E-06	5.98888118474861E-06	351901.1875	9.82620913418941E-05
2	513	118.612084700533	1.44149780273438	1.4410400390625	4.07257080078125E-06	5.8687378441391E-06	353840.375	9.86748927971348E-05
2	514	118.712792700279	1.43142700195313	1.43096923828125	4.024658203125E-06	5.7591619224695E-06	355550.5	9.90826156339608E-05
2	515	118.813500700025	1.42135620117188	1.4208984375	3.98101806640625E-06	5.65662230656017E-06	356918.375	9.9485732789617E-05
2	516	118.91420869977	1.41128540039063	1.41143798828125	3.93951416015625E-06	5.56037957721855E-06	358277.1875	9.98845644062385E-05
2	517	119.014916699516	1.40121459960938	1.4013671875	3.90167236328125E-06	5.46767523701419E-06	359170.90625	0.00010027940152213
2	518	119.115624699262	1.39114379882813	1.3916015625	3.8653564453125E-06	5.37903542863205E-06	360018.96875	0.000100670506071765
2	519	119.216332699008	1.38107299804688	1.38092041015625	3.83148193359375E-06	5.29097178514348E-06	360414.1875	0.000101058067230042
2	520	119.317040698753	1.37100219726563	1.370849609375	3.8006591796875E-06	5.21013180332375E-06	360687.34375	0.000101442376035266
2	521	119.417748698499	1.36093139648438	1.361083984375	3.77197265625E-06	5.13397162649198E-06	360841.4375	0.000101823687145952
2	522	119.518456698245	1.35086059570313	1.3507080078125	3.74420166015625E-06	5.05732305100537E-06	360746.59375	0.000102202160633169
2	523	119.619164697991	1.34078979492188	1.34063720703125	3.71795654296875E-06	4.98443068863708E-06	360584.4375	0.000102577912912238
2	524	119.719872697736	1.33071899414063	1.33056640625	3.692626953125E-06	4.91328546559089E-06	360330.59375	0.000102951060398482
2	525	119.820580697482	1.32064819335938	1.32049560546875	3.6676025390625E-06	4.84305292047793E-06	360043.28125	0.000103321675851475
2	526	119.921288697228	1.31057739257813	1.31072998046875	3.643798828125E-06	4.77603634863044E-06	359715.25	0.000103689839306753
2	527	120.021996696974	1.30050659179688	1.30035400390625	3.62030029296875E-06	4.70767190563492E-06	359184.03125	0.000104055616247933
2	528	120.122704696719	1.29043579101563	1.290283203125	3.5992431640625E-06	4.64404274680419E-06	358487.375	0.000104419144918211
2	529	120.223412696465	1.28036499023438	1.280517578125	3.5791015625E-06	4.58310250905924E-06	357776.25	0.000104780607216526
2	530	120.324120696211	1.27029418945313	1.2701416015625	3.56048583984375E-06	4.52232097813976E-06	356732.6875	0.000105140112282243
2	531	120.424828695957	1.26022338867188	1.2603759765625	3.54248046875E-06	4.46485682914499E-06	355789.125	0.000105497776530683
2	532	120.525536695702	1.25015258789063	1.25030517578125	3.52447509765625E-06	4.40666917711496E-06	354749.34375	0.00010585362178972
2	533	120.626244695448	1.24008178710938	1.2396240234375	3.50738525390625E-06	4.34783896707813E-06	353432.53125	0.000106207706267014
2	534	120.726952695194	1.23001098632813	1.23016357421875	3.4906005859375E-06	4.294009613659E-06	352421.78125	0.000106560080894269
2	535	120.827660694939	1.21994018554688	1.2200927734375	3.4747314453125E-06	4.23949450123473E-06	351132.96875	0.000106910818431061
2	536	120.928368694685	1.20986938476563	1.209716796875	3.45977783203125E-06	4.18535091739614E-06	349651.59375	0.000107259991636965
2	537	121.029076694431	1.19979858398438	1.199951171875	3.44573974609375E-06	4.13471934734844E-06	348241.96875	0.000107607716927305
2	538	121.129784694177	1.18972778320313	1.1895751953125	3.431396484375E-06	4.08190408052178E-06	346673.78125	0.000107954008853994
2	539	121.230492693922	1.17965698242188	1.17919921875	3.4161376953125E-06	4.0283066482516E-06	345184.9375	0.000108298809209373
2	540	121.331200693668	1.16958618164063	1.16973876953125	3.3990478515625E-06	3.97599796997383E-06	344137.1875	0.000108641979750246
2	541	121.431908693414	1.15951538085938	1.15966796875	3.380126953125E-06	3.91982484870823E-06	343084.15625	0.000108983338577673
2	542	121.53261669316	1.14944458007813	1.14959716796875	3.35784912109375E-06	3.86017381970305E-06	342361.1875	0.00010932262375718
2	543	121.633324692905	1.13937377929688	1.13922119140625	3.33160400390625E-06	3.7954337130941E-06	341943.78125	0.000109659464214928
2	544	121.734032692651	1.12930297851563	1.129150390625	3.3001708984375E-06	3.72638919543533E-06	342149.0625	0.000109993401565589
2	545	121.834740692397	1.11923217773438	1.11907958984375	3.26080322265625E-06	3.64909828931559E-06	343191.40625	0.000110323773697019
2	546	121.935448692143	1.10916137695313	1.10931396484375	3.20953369140625E-06	3.56038049176277E-06	345630.90625	0.000110649576527067
2	547	122.036156691888	1.09909057617188	1.09954833984375	3.14117431640625E-06	3.4538727504696E-06	350043.75	0.000110969362140168
2	548	122.136864691634	1.08901977539063	1.08917236328125	3.0499267578125E-06	3.32189574692165E-06	357114.28125	0.000111281107820105
2	549	122.23757269138	1.07894897460938	1.07879638671875	2.92633056640625E-06	3.1569147722621E-06	368651.59375	0.00011158203415107
2	550	122.338280691126	1.06887817382813	1.0687255859375	2.7618408203125E-06	2.95164977615059E-06	386961.34375	0.00011186845949851
2	551	122.438988690871	1.05880737304688	1.058349609375	2.54730224609375E-06	2.69593624580011E-06	415478.65625	0.00011213579273317
2	552	122.539696690617	1.04873657226563	1.048583984375	2.27508544921875E-06	2.38561801779724E-06	460898.75	0.000112378620542586
2	553	122.640404690363	1.03866577148438	1.038818359375	1.94427490234375E-06	2.01974830815743E-06	534296.0625	0.000112591085780878
2	554	122.741112690108	1.02859497070313	1.02813720703125	1.558837890625E-06	1.60269917159894E-06	659553.625	0.000112767476821318
2	555	122.841820689854	1.01852416992188	1.01837158203125	1.1346435546875E-06	1.15548868961923E-06	897525.5625	0.000112903107947204
2	556	122.9425286896	1.00845336914063	1.00860595703125	6.9305419921875E-07	6.99018585237354E-07	1455306.125	0.000112995141535066
2	557	123.043236689346	0.998382568359375	0.99822998046875	2.67333984375E-07	2.66860780584466E-07	3734018.5	0.00011304349754937
2	558	123.143944689091	0.988311767578125	0.98785400390625	-1.1260986328125E-07	-1.11242101752396E-07	-8772358	0.000113051290099975
2	559	123.244652688837	0.978240966796875	0.97869873046875	-4.150390625E-07	-4.06198182645312E-07	-2358088.25	0.000113024718302768
2	560	123.345360688583	0.968170166015625	0.9686279296875	-6.2286376953125E-07	-6.03323201175954E-07	-1555120.125	0.000112972455099225
2	561	123.446068688329	0.958099365234375	0.958251953125	-7.29980468749999E-07	-6.99505221746222E-07	-1312709	0.000112904337584041
2	562	123.546776688074	0.948028564453125	0.94818115234375	-7.48596191406251E-07	-7.09804794496449E-07	-1266612.375	0.000112829882709775
2	563	123.64748468782	0.937957763671875	0.93780517578125	-7.02819824218751E-07	-6.59108081890736E-07	-1334346.5	0.000112756795715541
2	564	123.748192687566	0.927886962890625	0.92803955078125	-6.21337890625E-07	-5.76626121073787E-07	-1493615	0.000112690126115922
2	565	123.848900687312	0.917816162109375	0.9173583984375	-5.27343750000001E-07	-4.83763187730801E-07	-1739583.375	0.000112632282252889
2	566	123.949608687057	0.907745361328125	0.9075927734375	-4.40673828125E-07	-3.99952369889434E-07	-2059556.75	0.000112583540612832
2	567	124.050316686803	0.897674560546875	0.89752197265625	-3.7872314453125E-07	-3.39912332947279E-07	-2369863	0.000112542278657202
2	568	124.151024686549	0.887603759765625	0.88775634765625	-3.5675048828125E-07	-3.16707513547954E-07	-2488451.75	0.000112505244032945
2	569	124.251732686295	0.877532958984375	0.87799072265625	-3.8726806640625E-07	-3.40017749067556E-07	-2267139.5	0.00011246778012719
2	570	124.35244068604	0.867462158203125	0.86761474609375	-4.7271728515625E-07	-4.10136465234245E-07	-1835377.75	0.00011242447362747
2	571	124.453148685786	0.857391357421875	0.85723876953125	-6.08215332031251E-07	-5.21385743468272E-07	-1409433	0.000112370049464516
2	572	124.553856685532	0.847320556640625	0.84716796875	-7.757568359375E-07	-6.57196324027609E-07	-1092053.5	0.000112300360342488
2	573	124.654564685277	0.837249755859375	0.8380126953125	-9.56115722656251E-07	-8.01237149516965E-07	-876476.1875	0.000112213150714524
2	574	124.755272685023	0.827178955078125	0.82733154296875	-1.12457275390625E-06	-9.30394435272319E-07	-735685.25	0.000112108384200837
2	575	124.855980684769	0.817108154296875	0.8172607421875	-1.26129150390625E-06	-1.0308040145901E-06	-647955.5	0.000111988243588712
2	576	124.956688684515	0.807037353515625	0.806884765625	-1.34979248046875E-06	-1.08912695395702E-06	-597784.3125	0.000111856767034624
2	577	125.05739668426	0.796966552734375	0.79681396484375	-1.39007568359375E-06	-1.10763176053297E-06	-573216.25	0.000111718800326344
2	578	125.158104684006	0.786895751953125	0.78704833984375	-1.385498046875E-06	-1.09045390672691E-06	-568061.6875	0.000111579036456533
2	579	125.258812683752	0.776824951171875	0.77728271484375	-1.35223388671875E-06	-1.05106801129295E-06	-574813.8125	0.000111441186163574
2	580	125.359520683498	0.766754150390625	0.7666015625	-1.30157470703125E-06	-9.97789243228908E-07	-588980.0625	0.000111307555926032
2	581	125.460228683243	0.756683349609375	0.7568359375	-1.24786376953125E-06	-9.44428165894351E-07	-606505.25	0.000111179178929888
2	582	125.560936682989	0.746612548828125	0.746551513671875	-1.2017822265625E-06	-8.97192308002559E-07	-621203.6875	0.000111055829620454
2	583	125.661644682735	0.736541748046875	0.736419677734375	-1.170654296875E-06	-8.62092861098063E-07	-629066.75	0.000110936365672387
2	584	125.762352682481	0.726470947265625	0.72637939453125	-1.1627197265625E-06	-8.44575652081403E-07	-624724.375	0.000110818873508833
2	585	125.863060682226	0.716400146484375	0.71636962890625	-1.1834716796875E-06	-8.47803164560901E-07	-605312	0.000110700733785052
2	586	125.963768681972	0.706329345703125	0.706298828125	-1.2359619140625E-06	-8.72958480613306E-07	-571456.8125	0.00011057890515076
2	587	126.064476681718	0.696258544921875	0.6961669921875	-1.318359375E-06	-9.17798217869858E-07	-528055.5625	0.000110450288048014
2	588	126.165184681464	0.686187744140625	0.68609619140625	-1.424560546875E-06	-9.77385525402497E-07	-481619.53125	0.000110312168544624
2	589	126.265892681209	0.676116943359375	0.676025390625	-1.54296875E-06	-1.04308605841652E-06	-438132.9375	0.000110162742203102
2	590	126.366600680955	0.666046142578125	0.665985107421875	-1.65679931640625E-06	-1.10340363335126E-06	-401970.90625	0.000110001623397693
2	591	126.467308680701	0.655975341796875	0.65594482421875	-1.7510986328125E-06	-1.14862405098393E-06	-374590.46875	0.000109830019937363
2	592	126.568016680446	0.645904541015625	0.64581298828125	-1.8121337890625E-06	-1.17029946977709E-06	-356382.625	0.000109650594822597
2	593	126.668724680192	0.635833740234375	0.6357421875	-1.83502197265625E-06	-1.16660089588549E-06	-346449.34375	0.000109466949652415
2	594	126.769432679938	0.625762939453125	0.625732421875	-1.8212890625E-06	-1.13963960757246E-06	-343565.6875	0.000109282838820945
2	595	126.870140679684	0.615692138671875	0.615692138671875	-1.78009033203125E-06	-1.09598761355301E-06	-345876.90625	0.00010910149285337
2	596	126.970848679429	0.605621337890625	0.6055908203125	-1.71966552734375E-06	-1.0414136113468E-06	-352156.15625	0.000108925269159954
2	597	127.071556679175	0.595550537109375	0.595550537109375	-1.6473388671875E-06	-9.81073526418186E-07	-361522.78125	0.000108755724795628
2	598	127.172264678921	0.585479736328125	0.585357666015625	-1.57135009765625E-06	-9.19801777854445E-07	-372518.9375	0.000108593652839772
2	599	127.272972678667	0.575408935546875	0.575439453125	-1.49505615234375E-06	-8.60314287365327E-07	-384894.875	0.000108439242467284
2	600	127.373680678412	0.565338134765625	0.565277099609375	-1.42242431640625E-06	-8.04063859050075E-07	-397404	0.000108292340883054
2	601	127.474388678158	0.555267333984375	0.55523681640625	-1.35467529296875E-06	-7.52165590256482E-07	-409867.09375	0.000108152496977709
2	602	127.575096677904	0.545196533203125	0.545166015625	-1.2939453125E-06	-7.05415004631504E-07	-421320.78125	0.000108019128674641
2	603	127.67580467765	0.535125732421875	0.53509521484375	-1.23779296875E-06	-6.62337072299124E-07	-432297.84375	0.000107891646621283
2	604	127.776512677395	0.525054931640625	0.525054931640625	-1.1859130859375E-06	-6.22669517724717E-07	-442743.1875	0.00010776960698422
2	605	127.877220677141	0.514984130859375	0.514892578125	-1.13861083984375E-06	-5.8626227428249E-07	-452211.1875	0.000107652558654081
2	606	127.977928676887	0.504913330078125	0.5048828125	-1.09527587890625E-06	-5.52985909507697E-07	-460964.09375	0.000107540072349366
2	607	128.078636676633	0.494842529296875	0.49481201171875	-1.0546875E-06	-5.21872038916626E-07	-469155.125	0.000107431813376024
2	608	128.179344676378	0.484771728515625	0.484710693359375	-1.0186767578125E-06	-4.93763479880727E-07	-475823.875	0.000107327410660218
2	609	128.280052676124	0.474700927734375	0.474700927734375	-9.86633300781251E-07	-4.6835572220516E-07	-481132.09375	0.000107226434920449
2	610	128.38076067587	0.464630126953125	0.464630126953125	-9.57336425781249E-07	-4.44807341182241E-07	-485336.3125	0.000107128544186708
2	611	128.481468675615	0.454559326171875	0.45458984375	-9.31396484375E-07	-4.23403378135845E-07	-488073.40625	0.000107033440144733
2	612	128.582176675361	0.444488525390625	0.444427490234375	-9.06982421874999E-07	-4.03087909717215E-07	-490006.75	0.000106940875411965
2	613	128.682884675107	0.434417724609375	0.434417724609375	-8.84399414062501E-07	-3.84198784786349E-07	-491200.84375	0.000106850668089464
2	614	128.783592674853	0.424346923828125	0.424346923828125	-8.636474609375E-07	-3.66486119673937E-07	-491342.78125	0.000106762650830206
2	615	128.884300674598	0.414276123046875	0.414276123046875	-8.453369140625E-07	-3.50202896015617E-07	-490072.21875	0.000106676590803545
2	616	128.985008674344	0.404205322265625	0.404205322265625	-8.28857421875E-07	-3.35028573772433E-07	-487665.6875	0.000106592291558627
2	617	129.08571667409	0.394134521484375	0.3941650390625	-8.1512451171875E-07	-3.21293583738225E-07	-483564.21875	0.00010650951298885
2	618	129.186424673836	0.384063720703125	0.384124755859375	-8.03222656249999E-07	-3.08537693172184E-07	-478229.5	0.000106428022263572
2	619	129.287132673581	0.373992919921875	0.373992919921875	-7.9193115234375E-07	-2.9617663699355E-07	-472254.34375	0.000106347695691511
2	620	129.387840673327	0.363922119140625	0.363922119140625	-7.80334472656249E-07	-2.83980966742092E-07	-466366.84375	0.000106268525996711
2	621	129.488548673073	0.353851318359375	0.353851318359375	-7.68432617187501E-07	-2.71910892024607E-07	-460484.53125	0.000106190542283002
2	622	129.589256672819	0.343780517578125	0.34381103515625	-7.57751464843751E-07	-2.60523307815674E-07	-453725.34375	0.000106113693618681
2	623	129.689964672564	0.333709716796875	0.333770751953125	-7.476806640625E-07	-2.495539206393E-07	-446408.1875	0.000106037885416299
2	624	129.79067267231	0.323638916015625	0.32366943359375	-7.38525390625E-07	-2.39038087102017E-07	-438264.46875	0.000105963052192237
2	625	129.891380672056	0.313568115234375	0.31353759765625	-7.29980468749999E-07	-2.28876317009963E-07	-429515.0625	0.000105889106635004
2	626	129.992088671802	0.303497314453125	0.303497314453125	-7.22351074218749E-07	-2.19231608866721E-07	-420152.09375	0.000105815975985024
2	627	130.092796671547	0.293426513671875	0.293426513671875	-7.14721679687499E-07	-2.09718280075322E-07	-410546.5625	0.000105743609310593
2	628	130.193504671293	0.283355712890625	0.283355712890625	-7.06787109375E-07	-2.0027215441587E-07	-400906.75	0.000105672035715543
2	629	130.294212671039	0.273284912109375	0.27325439453125	-6.99462890624999E-07	-1.91131306337411E-07	-390663.1875	0.000105601226096042
2	630	130.394920670784	0.263214111328125	0.263214111328125	-6.93664550781251E-07	-1.82582297725276E-07	-379454.46875	0.000105531071312726
2	631	130.49562867053	0.253143310546875	0.253143310546875	-6.8817138671875E-07	-1.74205979419639E-07	-367849.21875	0.000105461491330061
2	632	130.596336670276	0.243072509765625	0.243072509765625	-6.84814453125E-07	-1.66459557249254E-07	-354946.53125	0.000105392355180811
2	633	130.697044670022	0.233001708984375	0.233001708984375	-6.8267822265625E-07	-1.59065194793584E-07	-341305.34375	0.000105323495517951
2	634	130.797752669767	0.222930908203125	0.222900390625	-6.82373046875E-07	-1.52101208072963E-07	-326654.75	0.000105254766822327
2	635	130.898460669513	0.212860107421875	0.212860107421875	-6.82373046875E-07	-1.45249998695363E-07	-311940.96875	0.000105186045402661
2	636	130.999168669259	0.202789306640625	0.202850341796875	-6.8389892578125E-07	-1.38729134846471E-07	-296608.65625	0.000105117243947461
2	637	131.099876669005	0.192718505859375	0.1927490234375	-6.87255859375E-07	-1.32467903313227E-07	-280461.8125	0.00010504820238566
2	638	131.20058466875	0.182647705078125	0.182647705078125	-6.927490234375E-07	-1.26529016597487E-07	-263656.40625	0.000104978716990445
2	639	131.301292668496	0.172576904296875	0.172576904296875	-7.01293945312501E-07	-1.21027127875095E-07	-246083.5625	0.000104908518551383
2	640	131.402000668242	0.162506103515625	0.16259765625	-7.14111328125E-07	-1.1611282246804E-07	-227692.3125	0.000104837243270595
2	641	131.502708667988	0.152435302734375	0.15252685546875	-7.30285644531251E-07	-1.11388175128013E-07	-208859.171875	0.000104764512798283
2	642	131.603416667733	0.142364501953125	0.14239501953125	-7.50122070312501E-07	-1.06813644151771E-07	-189829.125	0.000104689970612526
2	643	131.704124667479	0.132293701171875	0.13238525390625	-7.7484130859375E-07	-1.02577558891426E-07	-170854.671875	0.000104613180155866
2	644	131.804832667225	0.122222900390625	0.12225341796875	-8.05053710937501E-07	-9.8420564142998E-08	-151857.46875	0.00010453363211127
2	645	131.905540666971	0.112152099609375	0.112213134765625	-8.4197998046875E-07	-9.44812086345337E-08	-133272.921875	0.000104450693470426
2	646	132.006248666716	0.102081298828125	0.10211181640625	-8.8623046875E-07	-9.04946020341413E-08	-115220.390625	0.00010436367301736
2	647	132.106956666462	0.092010498046875	0.09210205078125	-9.3994140625E-07	-8.65705302999231E-08	-97987.015625	0.000104271719465032
2	648	132.207664666208	0.081939697265625	0.082061767578125	-1.00555419921875E-06	-8.25175519025834E-08	-81608.5	0.000104173755971715
2	649	132.308372665953	0.071868896484375	0.071929931640625	-1.08642578125E-06	-7.814652747129E-08	-66207.8671875	0.000104068414657377
2	650	132.409080665699	0.061798095703125	0.06182861328125	-1.18743896484375E-06	-7.34177021399773E-08	-52068.87890625	0.000103953912912402
2	651	132.509788665445	0.051727294921875	0.05181884765625	-1.3128662109375E-06	-6.80312126632998E-08	-39470.015625	0.000103828017017804
2	652	132.610496665191	0.041656494140625	0.041766357421875	-1.46392822265625E-06	-6.11429413766018E-08	-28530.33203125	0.000103688194940332
2	653	132.711204664936	0.031585693359375	0.031658935546875	-1.63787841796875E-06	-5.18534903903856E-08	-19329.234375	0.000103532001958229
2	654	132.811912664682	0.021514892578125	0.02161865234375	-1.8267822265625E-06	-3.94925692148718E-08	-11834.2802734375	0.000103357546322513
2	655	132.912620664428	0.011444091796875	0.0115264892578125	-2.0159912109375E-06	-2.32373018604903E-08	-5717.52978515625	0.000103164042229764
2	656	133.013328664174	0.001373291015625	0.001495361328125	-2.1856689453125E-06	-3.26836469000114E-09	-684.16650390625	0.000102952471934259
2	657	133.114036663919	-0.008697509765625	-0.00855407714843751	-2.31964111328125E-06	1.98423872888043E-08	3687.67260742188	0.000102725614851806
2	658	133.214744663665	-0.018768310546875	-0.0186187744140625	-2.40570068359375E-06	4.47911929768452E-08	7739.439453125	0.000102487676485907
2	659	133.315452663411	-0.028839111328125	-0.0287322998046875	-2.44354248046875E-06	7.02085927173357E-08	11758.4619140625	0.000102243495348375
2	660	133.416160663157	-0.038909912109375	-0.03873291015625	-2.43865966796875E-06	9.44563751659189E-08	15882.8681640625	0.000101997655292507
2	661	133.516868662902	-0.048980712890625	-0.0488189697265625	-2.40509033203125E-06	1.17414025169182E-07	20298.185546875	0.000101753757917322
2	662	133.617576662648	-0.059051513671875	-0.0589599609375	-2.35321044921875E-06	1.387451931123E-07	25055.115234375	0.00010151415335713
2	663	133.718284662394	-0.069122314453125	-0.069061279296875	-2.29339599609375E-06	1.58384864334948E-07	30113.107421875	0.00010128018038813
2	664	133.81899266214	-0.079193115234375	-0.0791015625	-2.2332763671875E-06	1.76655646555446E-07	35419.515625	0.000101052246463951
2	665	133.919700661885	-0.089263916015625	-0.089202880859375	-2.1746826171875E-06	1.93987943930551E-07	41018.8046875	0.000100830286100972
2	666	134.020408661631	-0.099334716796875	-0.0992431640625	-2.12005615234375E-06	2.10401069011823E-07	46811.578125	0.000100614030088764
2	667	134.121116661377	-0.109405517578125	-0.10931396484375	-2.07183837890625E-06	2.2648085007404E-07	52761.82421875	0.000100402947282419
2	668	134.221824661122	-0.119476318359375	-0.119415283203125	-2.02880859375E-06	2.42270743910922E-07	58859.8125	0.000100196470157243
2	669	134.322532660868	-0.129547119140625	-0.129425048828125	-1.9927978515625E-06	2.57917946555608E-07	64946.40625	9.99939657049254E-05
2	670	134.423240660614	-0.139617919921875	-0.1395263671875	-1.96258544921875E-06	2.73832426955778E-07	71093.140625	9.97947936411947E-05
2	671	134.52394866036	-0.149688720703125	-0.149658203125	-1.9378662109375E-06	2.90017595716563E-07	77228.34375	9.9598393717315E-05
2	672	134.624656660105	-0.159759521484375	-0.15960693359375	-1.91802978515625E-06	3.06130857552489E-07	83214	9.94042275124229E-05
2	673	134.725364659851	-0.169830322265625	-0.169708251953125	-1.90185546875E-06	3.22760541848766E-07	89232.9921875	9.92118802969344E-05
2	674	134.826072659597	-0.179901123046875	-0.179779052734375	-1.8896484375E-06	3.39719207431699E-07	95138.890625	9.90209664450958E-05
2	675	134.926780659343	-0.189971923828125	-0.189788818359375	-1.8804931640625E-06	3.5689654964699E-07	100925.03125	9.88311221590266E-05
2	676	135.027488659088	-0.200042724609375	-0.19989013671875	-1.876220703125E-06	3.7503798466787E-07	106538.71875	9.8641961812973E-05
2	677	135.128196658834	-0.189971923828125	-0.1898193359375	-1.6522216796875E-06	3.13623615966208E-07	114887.3359375	9.84642902039923E-05
